Data from N2 R14 sample 10_Subt2__0__14-19-13-085.txt Node

Date: Tue Sep 02 14:19:13 PDT 2025
User: uwsun
Spectrometer: HDX01956
Trigger mode: 0
Integration Time (sec): 5.000000E-1
Scans to average: 1
Nonlinearity correction enabled: true
Boxcar width: 0
Storing dark spectrum: false
XAxis mode: Wavelengths
Number of Pixels in Spectrum: 2068
>>>>>Begin Spectral Data<<<<<
194.03	-40.11296
194.578	-36.11435
195.127	-46.14418
195.676	-30.09412
196.225	12.03177
196.773	23.06283
197.321	5.01341
197.87	37.09093
198.418	-33.0811
198.966	-17.0419
199.513	-65.15412
200.061	-81.19583
200.609	22.05515
201.156	-24.04945
201.704	-62.14851
202.251	-5.01248
202.798	-30.07383
203.345	7.01637
203.892	-15.03569
204.438	-4.00905
204.985	-17.03776
205.532	-44.10979
206.078	-39.09093
206.624	-11.02542
207.17	35.07612
207.716	-67.15474
208.262	14.02602
208.808	-46.10669
209.354	-12.02747
209.899	29.06913
210.445	-55.1294
210.99	-29.06588
211.535	36.07935
212.08	-21.04631
212.625	-21.04983
213.17	-12.02879
213.715	-52.10912
214.259	41.08948
214.804	16.0373
215.348	46.09849
215.892	8.01809
216.436	-6.0132
216.98	107.21933
217.524	-8.01786
218.068	35.08283
218.612	4.00953
219.155	2.00445
219.698	-5.01128
220.242	18.04251
220.785	-22.04898
221.328	49.1147
221.871	38.09106
222.414	10.02364
222.956	-43.09856
223.499	15.03192
224.041	33.07281
224.583	64.13033
225.126	-12.02518
225.668	-12.02768
226.21	-5.01191
226.751	-1.00206
227.293	28.0605
227.835	-34.07904
228.376	47.1024
228.918	9.02157
229.459	-56.13301
230	-4.00902
230.541	19.04141
231.082	58.13147
231.622	37.08034
232.163	-12.02752
232.704	-3.00703
233.244	14.03273
233.784	41.09477
234.324	-48.09997
234.864	-15.03226
235.404	36.08064
235.944	24.0537
236.484	31.07291
237.023	-9.0201
237.563	16.03473
238.102	21.04668
238.641	4.00955
239.18	-33.07296
239.719	25.05898
240.258	8.01698
240.797	9.02022
241.335	14.0323
241.874	-13.02362
242.412	-12.0272
242.95	-48.10854
243.488	-30.06498
244.026	-17.03694
244.564	-1.00194
245.102	53.11051
245.64	18.04085
246.177	-12.0254
246.715	24.05412
247.252	18.03886
247.789	114.19805
248.326	-38.08589
248.863	23.04702
249.4	31.06584
249.936	-14.02713
250.473	-19.04166
251.009	-27.05817
251.546	-14.029
252.082	-18.03716
252.618	-23.04815
253.154	-30.06776
253.69	40.08364
254.226	-12.02686
254.761	-4.00842
255.297	25.05083
255.832	-24.05332
256.367	-39.08662
256.903	-19.03912
257.438	10.02197
257.972	-6.01251
258.507	-39.08367
259.042	-27.05509
259.576	-43.08659
260.111	3.00649
260.645	39.07824
261.179	-32.06991
261.713	-4.00829
262.247	18.03859
262.781	-20.03909
263.315	19.04304
263.849	-5.01163
264.382	4.00858
264.915	-80.17655
265.449	-90.2055
265.982	25.05273
266.515	-15.03405
267.048	-29.05727
267.58	14.02848
268.113	-26.05227
268.646	-44.10144
269.178	-26.05393
269.71	-31.06331
270.243	33.06951
270.775	-12.02834
271.307	12.02683
271.838	39.08572
272.37	-28.06412
272.902	-2.00422
273.433	-26.05285
273.965	-6.01352
274.496	12.02763
275.027	-23.05293
275.558	-12.02691
276.089	-64.14584
276.62	-50.11912
277.15	-7.01603
277.681	-11.02217
278.211	19.04296
278.741	-31.063
279.272	-22.04631
279.802	-29.06719
280.332	-53.11591
280.861	-12.02664
281.391	1.00208
281.921	5.0111
282.45	6.01381
282.98	4.00959
283.509	9.01851
284.038	4.00834
284.567	-6.01292
285.096	-10.0222
285.625	-49.10267
286.153	-25.0537
286.682	-29.06082
287.21	-39.08623
287.739	-69.15077
288.267	-73.16309
288.795	11.02645
289.323	-73.15681
289.851	30.06354
290.378	-29.0595
290.906	-91.20263
291.433	0
291.961	-30.06173
292.488	-56.12792
293.015	-43.09201
293.542	-67.15499
294.069	17.03752
294.596	3.00673
295.122	-39.08461
295.649	-23.04601
296.175	-52.11528
296.702	-49.10852
297.228	-10.02202
297.754	-28.05676
298.28	-16.0326
298.806	-53.11532
299.332	-31.06142
299.857	-43.08738
300.383	-4.00913
300.908	-106.23304
301.433	-32.06958
301.958	-4.00829
302.483	-64.1436
303.008	-64.14336
303.533	-5.01168
304.058	-11.02321
304.582	-87.18471
305.107	-109.25694
305.631	12.02428
306.155	-73.15187
306.679	-86.17967
307.203	-11.02247
307.727	-35.07366
308.251	-49.10784
308.775	-111.23473
309.298	-71.15015
309.822	-48.10743
310.345	-45.09404
310.868	-46.0967
311.391	15.03222
311.914	-60.13224
312.437	-15.02994
312.96	-36.07384
313.482	-83.17291
314.005	-62.13642
314.527	-61.14004
315.049	-43.09515
315.571	-95.18283
316.093	-58.12467
316.615	-99.20789
317.137	-50.09329
317.659	-47.09891
318.18	-26.05393
318.702	-18.0355
319.223	-61.10639
319.744	-82.15686
320.265	-138.28806
320.786	-108.22764
321.307	-78.16491
321.828	-94.18034
322.348	-58.1144
322.869	-86.16954
323.389	-256.36242
323.909	-66.12632
324.43	-1.002
324.95	-70.13203
325.47	-106.21615
325.989	-96.18614
326.509	-161.29182
327.029	-117.21444
327.548	-175.32302
328.067	-147.28932
328.587	-96.19505
329.106	-100.18231
329.625	-51.10965
330.144	-149.27668
330.662	-147.27188
331.181	-119.22131
331.7	-177.33278
332.218	-111.18686
332.736	-138.25466
333.255	-158.28864
333.773	-180.33583
334.291	-175.34816
334.808	-132.22422
335.326	-121.20759
335.844	-175.30798
336.361	-210.40894
336.879	-189.33192
337.396	-195.35507
337.913	-196.33636
338.43	-185.30685
338.947	-181.31871
339.464	-192.29592
339.981	-222.3861
340.497	-183.33254
341.014	-209.37149
341.53	-249.4039
342.046	-193.3393
342.562	-161.2881
343.078	-214.35742
343.594	-197.33219
344.11	-173.28647
344.626	-240.42958
345.141	-260.41165
345.657	-149.22903
346.172	-240.40107
346.687	-240.37385
347.202	-252.3795
347.717	-213.34179
348.232	-205.34643
348.747	-253.38571
349.261	-257.35519
349.776	-253.39123
350.29	-358.59142
350.805	-230.37676
351.319	-248.37257
351.833	-256.36219
352.347	-267.39979
352.861	-268.39245
353.374	-211.30335
353.888	-243.37046
354.401	-245.34519
354.915	-316.42676
355.428	-298.46233
355.941	-320.45307
356.454	-225.30111
356.967	-300.43364
357.48	-286.39465
357.993	-248.36763
358.505	-323.47608
359.018	-280.40699
359.53	-292.40895
360.042	-279.35044
360.554	-293.41522
361.066	-306.43049
361.578	-324.39179
362.09	-289.39015
362.602	-359.43526
363.113	-319.40747
363.625	-350.42663
364.136	-300.3476
364.647	-468.58505
365.158	-338.41792
365.669	-325.41571
366.18	-351.43879
366.691	-372.42017
367.201	-319.39287
367.712	-336.37686
368.222	-399.45674
368.733	-421.43152
369.243	-371.37642
369.753	-349.37931
370.263	-366.41465
370.773	-488.59939
371.282	-366.38827
371.792	-498.47779
372.301	-445.46183
372.811	-494.59166
373.32	-550.42935
373.829	-558.50869
374.338	-501.37953
374.847	-591.467
375.356	-654.53265
375.865	-657.36429
376.373	-607.35448
376.882	-575.43545
377.39	-616.38953
377.898	-776.4514
378.407	-719.26405
378.915	-750.2148
379.423	-766.24946
379.93	-842.19692
380.438	-962.21517
380.946	-898.07355
381.453	-1053.05787
381.96	-1100.93449
382.468	-1270.7717
382.975	-1183.76286
383.482	-1160.62753
383.989	-1310.70067
384.495	-1370.4906
385.002	-1553.26181
385.509	-1670.23219
386.015	-1563.15969
386.521	-1633.12778
387.028	-1779.0655
387.534	-1874.06015
388.04	-1864.04797
388.546	-2171.06896
389.051	-2540.15974
389.557	-2563.46478
390.063	-2276.7376
390.568	-2437.10853
391.073	-2741.84436
391.578	-2860.09993
392.084	-3188.32708
392.589	-3696.3488
393.093	-4061.11393
393.598	-4169.63961
394.103	-4341.95745
394.607	-4742.08377
395.112	-4910.32294
395.616	-5375.4107
396.12	-6144.85003
396.624	-7036.91468
397.128	-7431.49495
397.632	-7970.52705
398.136	-8975.86837
398.639	-10801.88644
399.143	-12800.19623
399.646	-14053.7283
400.15	-15487.99197
400.653	-18146.06695
401.156	-21302.28614
401.659	-25403.72061
402.162	-22323.79144
402.664	-9546.31541
403.167	-1442.3261
403.67	0
404.172	0
404.674	0
405.176	0
405.678	0
406.18	0
406.682	0
407.184	0
407.686	0
408.187	0
408.688	0
409.19	0
409.691	0
410.192	-727.61717
410.693	-8073.81517
411.194	-12977.46461
411.694	-11508.92108
412.195	-9552.07653
412.696	-10456.28068
413.196	-12014.26776
413.696	-13226.38814
414.196	-11302.61313
414.696	-8127.51771
415.196	-5159.48541
415.696	-500.235
416.196	225.84347
416.695	-2858.40479
417.195	-4690.12921
417.694	-4522.94346
418.194	-3754.67279
418.693	-4054.9345
419.192	-4089.36845
419.691	-3988.2898
420.19	-3695.75354
420.688	-3104.73549
421.187	-2746.00814
421.685	-2327.87488
422.184	-1717.21319
422.682	-1557.44794
423.18	-2098.81682
423.678	-2134.07666
424.176	-1933.10374
424.674	-1773.47001
425.172	-1523.86017
425.669	-1232.59487
426.167	-1141.48167
426.664	-1134.40607
427.161	-1100.39155
427.659	-1043.45356
428.156	-1143.40025
428.652	-1079.59182
429.149	-982.63298
429.646	-881.66571
430.143	-804.81057
430.639	-840.86274
431.135	-804.98126
431.632	-785.98081
432.128	-769.09517
432.624	-837.2355
433.12	-887.12123
433.616	-809.11348
434.111	-878.24382
434.607	-858.32958
435.103	-591.14718
435.598	-641.19191
436.093	-581.31262
436.588	-568.3189
437.083	-517.32153
437.578	-586.43292
438.073	-676.60576
438.568	-565.54255
439.062	-496.35864
439.557	-448.42072
440.051	-509.45944
440.546	-554.52386
441.04	-561.60264
441.534	-459.54147
442.028	-452.50523
442.522	-561.65478
443.015	-507.51177
443.509	-465.56844
444.002	-558.70761
444.496	-469.49237
444.989	-467.59181
445.482	-576.77946
445.975	-521.59445
446.468	-457.48208
446.961	-470.50324
447.454	-453.53478
447.947	-542.69779
448.439	-490.66814
448.931	-529.64499
449.424	-506.7463
449.916	-499.6976
450.408	-529.6668
450.9	-526.73988
451.392	-548.83063
451.884	-475.63518
452.375	-495.72715
452.867	-385.50479
453.358	-528.70781
453.849	-407.48819
454.341	-444.58914
454.832	-447.56131
455.323	-445.66167
455.814	-477.67835
456.304	-424.59891
456.795	-444.62918
457.285	-348.4759
457.776	-340.48568
458.266	-480.73398
458.756	-406.63071
459.247	-431.65724
459.737	-494.77292
460.226	-400.57217
460.716	-420.6605
461.206	-396.6314
461.695	-428.73659
462.185	-384.6077
462.674	-399.62364
463.163	-342.50395
463.653	-379.53139
464.142	-389.64604
464.63	-349.59465
465.119	-407.65508
465.608	-367.58631
466.096	-356.54232
466.585	-325.53167
467.073	-384.67003
467.561	-384.67605
468.05	-338.56922
468.538	-295.52736
469.026	-349.61586
469.513	-325.49227
470.001	-352.58699
470.489	-306.5308
470.976	-335.57788
471.463	-315.59487
471.951	-340.65611
472.438	-354.63498
472.925	-346.61647
473.412	-271.51429
473.899	-244.42684
474.385	-285.54561
474.872	-328.59682
475.359	-301.5768
475.845	-310.49961
476.331	-233.39525
476.817	-296.57915
477.303	-311.57983
477.789	-244.46836
478.275	-309.62164
478.761	-281.55072
479.247	-235.42422
479.732	-312.6365
480.218	-250.53365
480.703	-259.52922
481.188	-270.47382
481.673	-242.45398
482.158	-264.45453
482.643	-237.50557
483.128	-318.60805
483.612	-232.45092
484.097	-203.4163
484.581	-174.33625
485.066	-188.38005
485.55	-268.49532
486.034	-244.44396
486.518	-218.42896
487.002	-237.49042
487.486	-212.43839
487.969	-212.43918
488.453	-221.48044
488.936	-209.40127
489.42	-179.33737
489.903	-175.37963
490.386	-603.95381
490.869	-177.33196
491.352	-124.26136
491.835	-157.27876
492.318	-145.27947
492.8	-157.27891
493.283	-148.32428
493.765	-169.36067
494.247	-98.19793
494.73	-111.21064
495.212	-53.11021
495.694	-70.13904
496.175	-104.21043
496.657	27.05397
497.139	51.07363
497.62	-51.10255
498.102	1.0021
498.583	21.0448
499.064	46.08531
499.545	181.33577
500.026	166.30249
500.507	167.31785
500.988	249.50255
501.469	277.55726
501.949	326.64601
502.43	298.56125
502.91	452.69893
503.39	519.00012
503.87	527.93107
504.35	699.20293
504.83	729.12178
505.31	844.43114
505.79	917.498
506.269	1062.63339
506.749	1175.67708
507.228	1353.90228
507.707	1542.88217
508.187	1740.26268
508.666	1872.40105
509.145	2087.29265
509.623	2340.37764
510.102	2534.55582
510.581	2917.55077
511.059	3046.68234
511.538	3458.83605
512.016	3835.1666
512.494	4082.15674
512.972	4454.82971
513.45	4825.37825
513.928	5216.4935
514.406	5582.22974
514.884	6139.50197
515.361	6368.0522
515.839	6882.86863
516.316	7283.23607
516.793	7661.67347
517.27	8095.93311
517.747	8306.30724
518.224	8527.46087
518.701	8651.66456
519.178	8850.07935
519.654	9004.3752
520.131	8938.25026
520.607	8837.06602
521.083	8733.82568
521.56	8641.67345
522.036	8539.45532
522.512	8299.23303
522.987	7979.74296
523.463	7751.53937
523.939	7501.47811
524.414	7217.10998
524.89	6972.11644
525.365	6630.85012
525.84	6168.06582
526.315	5992.22165
526.79	5749.95441
527.265	5413.14611
527.74	5018.74056
528.215	4836.64015
528.689	4657.37024
529.164	4505.37815
529.638	4267.56628
530.112	3898.14338
530.587	3786.64579
531.061	3592.42122
531.534	3469.54655
532.008	3287.52415
532.482	3170.33634
532.956	2907.92791
533.429	2834.6816
533.903	2708.25778
534.376	2623.24927
534.849	2516.47326
535.322	2381.54203
535.795	2226.67036
536.268	2093.54316
536.741	2129.56856
537.213	2004.36751
537.686	1916.51364
538.158	1863.16964
538.631	1742.43592
539.103	1715.10857
539.575	1737.91911
540.047	1648.03076
540.519	1557.24434
540.991	1484.26419
541.463	1440.18353
541.934	1385.96864
542.406	1305.00226
542.877	1224.79184
543.348	1231.97887
543.82	1248.03975
544.291	1202.8652
544.762	1121.79812
545.233	1089.89532
545.703	1075.59206
546.174	1152.78924
546.645	1031.69435
547.115	1052.75054
547.585	1069.67077
548.056	1033.70987
548.526	997.61468
548.996	1006.68656
549.466	1100.84075
549.935	995.61686
550.405	1088.55835
550.875	1067.70337
551.344	1082.75639
551.814	1149.72713
552.283	1134.59741
552.752	1160.74637
553.221	1227.64314
553.69	1295.76031
554.159	1261.97383
554.628	1334.7898
555.096	1418.22493
555.565	1494.91715
556.033	1549.145
556.502	1542.23407
556.97	1662.04553
557.438	1750.32928
557.906	1943.45849
558.374	2008.35877
558.842	2121.56396
559.31	2312.35498
559.777	2496.70029
560.245	2644.62228
560.712	2850.53936
561.18	3010.25517
561.647	3193.27802
562.114	3396.30267
562.581	3764.65255
563.048	4075.1049
563.514	4174.40584
563.981	4501.82965
564.448	4881.49166
564.914	5237.53812
565.381	5640.22851
565.847	5890.29545
566.313	6403.14621
566.779	6859.01957
567.245	7267.2971
567.711	7704.6359
568.176	8181.95468
568.642	8667.83714
569.108	9184.76575
569.573	9967.87616
570.038	10448.01961
570.504	11117.7124
570.969	11709.93424
571.434	12315.71657
571.899	12966.2851
572.363	13674.31672
572.828	14388.43383
573.293	15029.6134
573.757	15846.15792
574.222	16330.28998
574.686	17160.14713
575.15	17907.13798
575.614	18444.03172
576.078	18931.03357
576.542	19658.79875
577.006	19839.65535
577.469	20311.59524
577.933	20880.81701
578.396	21112.31785
578.86	21202.88658
579.323	21395.46621
579.786	21307.81187
580.249	21496.18183
580.712	21323.53735
581.175	21112.28735
581.637	21210.46634
582.1	20958.10771
582.563	20485.83792
583.025	20180.4288
583.487	19847.45568
583.95	19501.1032
584.412	19499.44261
584.874	18863.06251
585.336	18360.96967
585.797	17809.94651
586.259	17362.14385
586.721	16868.36789
587.182	16429.0862
587.643	16015.0876
588.105	15520.95675
588.566	15075.39334
589.027	14720.73687
589.488	14340.99194
589.949	13940.55919
590.41	13463.58257
590.87	13006.92446
591.331	12787.95992
591.791	12297.0236
592.252	12126.06353
592.712	11728.30324
593.172	11298.51901
593.632	11055.45756
594.092	10597.34914
594.552	10360.54753
595.011	10040.18462
595.471	9808.48911
595.931	9631.96801
596.39	9165.7215
596.849	9058.48991
597.308	8744.8469
597.768	8524.66922
598.227	8346.31837
598.685	8148.98068
599.144	7990.83316
599.603	7831.72228
600.062	7558.16496
600.52	7463.2476
600.978	7272.37234
601.437	7283.24914
601.895	7024.8641
602.353	6901.99465
602.811	6741.95355
603.269	6690.29063
603.727	6545.29201
604.184	6368.98911
604.642	6324.44446
605.099	6142.18746
605.557	6139.46909
606.014	6054.82261
606.471	5856.66403
606.928	5868.81886
607.385	5697.54075
607.842	5681.23471
608.299	5611.38731
608.755	5545.59759
609.212	5533.13129
609.668	5520.0927
610.125	5428.69131
610.581	5410.65689
611.037	5313.47605
611.493	5233.71463
611.949	5216.79471
612.405	5090.87453
612.861	5154.75656
613.316	4998.88585
613.772	5027.64936
614.227	4999.81922
614.683	5001.30852
615.138	4774.9016
615.593	4805.85127
616.048	4681.86445
616.503	4593.37714
616.958	4550.50448
617.412	4478.17722
617.867	4452.76746
618.321	4435.47566
618.776	4325.89699
619.23	4141.34092
619.684	4205.1072
620.138	4089.35148
620.592	3961.67626
621.046	3869.53139
621.5	3823.75411
621.954	3774.35306
622.407	3625.35416
622.861	3591.86821
623.314	3526.53089
623.768	3429.68655
624.221	3326.88433
624.674	3264.68733
625.127	3211.79611
625.58	3213.688
626.033	3191.53176
626.485	3017.96386
626.938	3002.9606
627.39	2980.84231
627.843	2870.83319
628.295	2831.83735
628.747	2790.98738
629.199	2713.76546
629.651	2721.76333
630.103	2643.80861
630.555	2616.45817
631.006	2534.9328
631.458	2531.96185
631.909	2578.87128
632.361	2429.90767
632.812	2415.85358
633.263	2357.55382
633.714	2385.54066
634.165	2355.099
634.616	2232.96192
635.067	2228.67663
635.518	2229.99146
635.968	2174.27809
636.419	2133.56813
636.869	2088.92497
637.319	2069.78879
637.769	1991.61888
638.219	2030.92899
638.669	1934.85088
639.119	2004.00481
639.569	1944.91396
640.019	1903.72808
640.468	1974.63274
640.918	1882.88465
641.367	1905.61743
641.816	1868.58761
642.265	1865.71371
642.714	1803.67467
643.163	1784.64053
643.612	1700.72076
644.061	1710.29892
644.51	1776.6002
644.958	1686.41432
645.406	1733.75162
645.855	1729.85068
646.303	1721.67081
646.751	1649.50629
647.199	1730.57481
647.647	1581.49234
648.095	1697.57712
648.543	1707.22706
648.99	1591.63277
649.438	1638.63234
649.885	1595.77352
650.333	1638.02383
650.78	1638.72373
651.227	1569.68399
651.674	1583.47565
652.121	1631.75099
652.568	1549.66079
653.015	1583.8545
653.461	1565.60637
653.908	1484.46449
654.354	1505.56975
654.801	1482.47991
655.247	1463.26921
655.693	1454.81784
656.139	1407.47817
656.585	1461.5419
657.031	1367.34149
657.477	1348.1118
657.922	1403.35005
658.368	1399.57111
658.813	1395.38719
659.259	1388.4654
659.704	1294.26942
660.149	1348.3339
660.594	1318.35616
661.039	1296.21395
661.484	1335.40434
661.929	1286.28112
662.373	1183.35513
662.818	1199.33424
663.262	1159.1956
663.707	1211.4154
664.151	1157.23851
664.595	1144.18338
665.039	1146.27556
665.483	1126.30607
665.927	1175.17108
666.371	1070.97834
666.814	1083.08209
667.258	1089.05866
667.701	1086.85784
668.145	1105.22292
668.588	1024.06206
669.031	1002.92516
669.474	994.97382
669.917	1103.93792
670.36	1013.072
670.803	1086.12029
671.245	943.63016
671.688	957.95095
672.13	892.67243
672.573	917.97653
673.015	907.8364
673.457	915.65463
673.899	930.89458
674.341	861.77254
674.783	790.63827
675.225	851.79272
675.666	767.60149
676.108	818.51461
676.549	801.64079
676.991	797.50833
677.432	833.39302
677.873	816.623
678.314	790.63608
678.755	803.69227
679.196	731.46486
679.637	761.62963
680.078	816.64708
680.518	813.63615
680.959	737.55103
681.399	736.60823
681.839	674.46335
682.28	674.48319
682.72	709.42857
683.16	743.62867
683.6	735.47085
684.039	658.21481
684.479	609.3515
684.919	604.25326
685.358	662.50903
685.798	635.50458
686.237	651.41366
686.676	686.41605
687.115	619.31157
687.554	639.36284
687.993	660.30014
688.432	631.29451
688.871	629.27994
689.309	600.29809
689.748	619.16065
690.186	661.41469
690.625	590.25412
691.063	560.22743
691.501	572.29215
691.939	521.19853
692.377	591.31042
692.815	583.26744
693.253	590.2911
693.69	609.20542
694.128	566.25154
694.565	533.16939
695.003	598.38164
695.44	532.14882
695.877	536.14808
696.314	555.08912
696.751	544.13863
697.188	615.27356
697.625	615.27697
698.061	549.20708
698.498	596.31193
698.934	545.20529
699.371	553.19041
699.807	544.18079
700.243	472.05771
700.679	522.08865
701.115	561.20973
701.551	565.21628
701.987	549.1306
702.422	518.13429
702.858	513.12875
703.294	537.11676
703.729	539.2138
704.164	475.06467
704.599	551.12149
705.035	491.0164
705.47	490.10577
705.904	507.09077
706.339	574.21901
706.774	533.14729
707.209	550.15984
707.643	562.23492
708.078	527.18287
708.512	479.11448
708.946	543.19637
709.38	505.1074
709.814	546.14383
710.248	537.20485
710.682	481.0631
711.116	459.0203
711.549	512.22523
711.983	490.04939
712.416	507.10946
712.85	473.10007
713.283	516.12705
713.716	556.28399
714.149	506.11729
714.582	504.04499
715.015	524.21336
715.448	540.25441
715.881	521.04925
716.313	501.08615
716.746	500.08882
717.178	456.02431
717.61	456.08315
718.043	478.11062
718.475	457.03558
718.907	533.24665
719.339	444.94195
719.77	418.93353
720.202	482.13534
720.634	451.02568
721.065	435.96928
721.497	488.11155
721.928	449.03142
722.359	404.92013
722.79	418.94315
723.221	422.00109
723.652	471.13661
724.083	393.83904
724.514	449.96606
724.945	420.93025
725.375	426.92859
725.806	390.92544
726.236	459.10135
726.666	418.93353
727.096	422.977
727.526	384.92698
727.956	398.85506
728.386	414.96342
728.816	381.91644
729.246	378.87274
729.675	359.84287
730.105	437.0098
730.534	417.91995
730.964	404.96824
731.393	482.11596
731.822	405.98005
732.251	361.87492
732.68	413.91951
733.109	396.92482
733.537	342.79058
733.966	367.8687
734.395	364.80086
734.823	401.85575
735.251	320.7412
735.68	378.90181
736.108	349.84521
736.536	329.74526
736.964	326.72629
737.392	339.81328
737.82	349.80115
738.247	343.78675
738.675	390.88466
739.102	322.77295
739.53	307.75329
739.957	296.73557
740.384	335.79359
740.811	337.81953
741.238	286.67557
741.665	340.75403
742.092	318.73102
742.519	294.70253
742.945	283.65798
743.372	274.658
743.798	265.66202
744.225	280.64497
744.651	288.69922
745.077	261.63285
745.503	312.73326
745.929	313.72284
746.355	336.80225
746.781	275.66103
747.207	245.55996
747.632	247.58629
748.058	253.61484
748.483	250.56114
748.908	237.5751
749.334	202.48788
749.759	279.63715
750.184	238.55326
750.609	245.58736
751.033	259.59624
751.458	262.57187
751.883	235.56918
752.307	160.37342
752.732	174.4288
753.156	215.52055
753.58	249.57666
754.005	239.59232
754.429	174.40434
754.853	196.47749
755.277	183.42752
755.7	221.53688
756.124	168.41203
756.548	162.38032
756.971	199.478
757.394	138.35317
757.818	192.486
758.241	193.48165
758.664	181.45056
759.087	167.36892
759.51	180.44195
759.933	158.37657
760.356	192.48427
760.778	201.48555
761.201	171.41137
761.623	193.4613
762.046	213.49623
762.468	192.45461
762.89	179.43616
763.312	178.42911
763.734	171.40684
764.156	173.42186
764.578	199.45062
765	157.37956
765.421	94.23871
765.843	169.43742
766.264	203.48204
766.686	198.48884
767.107	141.33946
767.528	134.33581
767.949	159.39997
768.37	146.35556
768.791	193.45954
769.212	119.29753
769.632	103.24016
770.053	147.38337
770.473	175.42004
770.894	208.51088
771.314	174.41072
771.734	141.32655
772.154	114.29175
772.575	170.38957
772.994	137.30947
773.414	193.456
773.834	124.30851
774.254	114.27836
774.673	127.30796
775.093	134.32926
775.512	107.26306
775.931	111.28053
776.351	109.26996
776.77	116.2825
777.189	147.34665
777.607	104.26495
778.026	77.19238
778.445	100.24971
778.864	118.30125
779.282	121.28988
779.701	151.37657
780.119	89.22485
780.537	90.22457
780.955	140.35312
781.373	143.3504
781.791	75.16942
782.209	124.28462
782.627	98.25746
783.045	115.2637
783.462	120.30473
783.88	115.29581
784.297	80.2015
784.715	69.17755
785.132	106.25593
785.549	85.21267
785.966	96.24102
786.383	116.28387
786.8	111.25708
787.217	91.21576
787.633	92.22923
788.05	175.40947
788.466	156.36366
788.883	53.13581
789.299	139.3316
789.715	90.21869
790.131	109.26986
790.547	91.22703
790.963	84.20854
791.379	101.25444
791.795	151.34068
792.21	99.2311
792.626	114.2692
793.041	102.25091
793.457	101.24886
793.872	98.22998
794.287	53.12722
794.702	121.29616
795.117	90.22319
795.532	88.22014
795.947	131.31276
796.362	112.26632
796.776	154.35645
797.191	103.25117
797.605	48.11344
798.02	73.17795
798.434	114.25273
798.848	103.25258
799.262	83.20572
799.676	169.40579
800.09	88.21623
800.504	143.3431
800.918	83.19238
801.331	108.28162
801.745	64.14767
802.158	103.25631
802.572	113.27257
802.985	132.31617
803.398	105.24934
803.811	108.2762
804.224	120.29649
804.637	65.15531
805.05	139.31873
805.462	131.31885
805.875	71.18403
806.288	68.16431
806.7	83.20834
807.112	125.28743
807.525	115.2819
807.937	106.26056
808.349	108.269
808.761	76.18702
809.173	111.26734
809.584	104.25583
809.996	71.17398
810.408	62.16023
810.819	84.19736
811.231	61.15784
811.642	31.07452
812.053	75.17838
812.464	129.30362
812.875	132.33378
813.286	94.24099
813.697	137.31691
814.108	78.19053
814.519	137.30189
814.929	99.25136
815.34	97.23433
815.75	57.14519
816.16	118.29177
816.571	119.30652
816.981	104.24435
817.391	109.26153
817.801	76.18861
818.211	105.24896
818.62	107.25595
819.03	110.26779
819.44	106.27517
819.849	99.24824
820.259	96.24465
820.668	78.19159
821.077	102.25184
821.486	150.35613
821.895	113.2772
822.304	100.26352
822.713	98.23061
823.122	96.2385
823.531	83.19642
823.939	104.25186
824.348	111.26795
824.756	93.23202
825.164	120.29932
825.573	51.12839
825.981	137.3357
826.389	106.26459
826.797	70.1753
827.205	89.20359
827.612	110.26949
828.02	80.18752
828.428	97.24576
828.835	90.23588
829.243	110.26026
829.65	93.23016
830.057	132.31665
830.464	104.25176
830.871	122.28932
831.278	93.22382
831.685	121.26741
832.092	77.18826
832.499	88.19192
832.905	91.22941
833.312	107.2424
833.718	117.28892
834.124	107.24279
834.531	103.25799
834.937	93.23755
835.343	132.31472
835.749	98.22773
836.155	122.31627
836.561	86.21077
836.966	95.23114
837.372	112.2827
837.777	67.16685
838.183	118.25986
838.588	93.22974
838.993	67.16314
839.399	96.23336
839.804	45.11006
840.209	66.1679
840.613	119.26201
841.018	98.24666
841.423	88.22474
841.828	105.26357
842.232	145.35398
842.637	101.2367
843.041	47.12077
843.445	93.23202
843.849	39.09698
844.253	125.29374
844.657	84.21067
845.061	76.17214
845.465	78.1879
845.869	73.16941
846.272	61.14859
846.676	95.22846
847.079	65.16515
847.483	111.27451
847.886	124.29837
848.289	87.23107
848.692	99.24904
849.095	58.13946
849.498	141.3524
849.901	126.2855
850.304	68.16238
850.707	108.27309
851.109	117.29316
851.512	112.27266
851.914	57.1437
852.316	95.23881
852.718	46.119
853.121	45.1106
853.523	97.22519
853.925	70.18222
854.326	42.10533
854.728	67.17204
855.13	37.09577
855.531	57.1363
855.933	108.25701
856.334	60.14955
856.736	66.14772
857.137	71.16476
857.538	73.18305
857.939	96.23554
858.34	116.27975
858.741	81.21089
859.142	87.20795
859.542	61.16083
859.943	94.23209
860.343	80.1973
860.744	124.29893
861.144	131.31527
861.544	25.06046
861.945	90.22807
862.345	65.1588
862.745	98.24178
863.145	121.2859
863.544	99.24833
863.944	55.13006
864.344	96.23685
864.743	158.38492
865.143	90.22985
865.542	111.25483
865.941	110.26969
866.34	121.28645
866.74	111.29521
867.139	92.21885
867.537	73.18548
867.936	60.14437
868.335	66.16767
868.734	78.19857
869.132	110.25299
869.531	92.22112
869.929	79.17933
870.327	55.13192
870.726	104.25715
871.124	135.3108
871.522	88.22292
871.92	93.22789
872.318	96.23301
872.715	118.28887
873.113	94.22747
873.511	39.09747
873.908	12.03053
874.306	76.18833
874.703	109.27016
875.1	101.25635
875.497	81.19331
875.894	39.09585
876.291	72.1762
876.688	71.18263
877.085	110.26127
877.482	102.25322
877.878	106.25273
878.275	62.15734
878.671	139.30437
879.068	116.27689
879.464	93.22323
879.86	65.15346
880.256	114.27836
880.652	103.25976
881.048	90.22164
881.444	103.24299
881.84	99.24967
882.236	96.23963
882.631	122.29578
883.027	122.29177
883.422	101.25617
883.817	78.1952
884.213	59.15129
884.608	74.18082
885.003	58.13977
885.398	51.12774
885.793	98.24409
886.188	29.07243
886.582	110.27944
886.977	94.22146
887.371	120.29997
887.766	107.26355
888.16	113.27905
888.554	96.23563
888.949	82.20491
889.343	98.23751
889.737	38.10152
890.131	50.12553
890.525	82.20868
890.918	102.25452
891.312	107.2535
891.706	67.1754
892.099	116.29196
892.492	122.25952
892.886	90.21877
893.279	90.22782
893.672	104.26242
894.065	70.1748
894.458	100.24944
894.851	123.29759
895.244	82.20838
895.637	68.16338
896.029	79.19229
896.422	90.21845
896.814	101.24896
897.206	46.10972
897.599	116.28366
897.991	80.1925
898.383	88.2066
898.775	110.24549
899.167	40.09354
899.559	95.23872
899.951	124.28838
900.342	103.25966
900.734	57.14133
901.125	112.29095
901.517	53.13011
901.908	135.31873
902.299	81.19701
902.69	76.17856
903.082	83.19991
903.473	64.15295
903.863	88.22316
904.254	90.20741
904.645	112.27561
905.036	45.10912
905.426	136.30628
905.817	97.2361
906.207	79.18731
906.597	104.24082
906.987	59.15277
907.378	70.1765
907.768	91.23903
908.158	62.15094
908.547	92.23603
908.937	108.27446
909.327	108.25957
909.717	125.31332
910.106	72.17233
910.495	119.29354
910.885	136.33935
911.274	91.22587
911.663	107.26897
912.052	112.27337
912.441	78.19745
912.83	111.25187
913.219	118.30537
913.608	85.20697
913.997	78.19463
914.385	88.20885
914.774	87.21049
915.162	93.21991
915.55	137.32621
915.939	96.24041
916.327	64.15941
916.715	47.11988
917.103	111.27027
917.491	112.27408
917.878	103.25089
918.266	84.21663
918.654	99.25083
919.041	86.22318
919.429	77.18088
919.816	70.17688
920.203	86.20725
920.591	88.21679
920.978	100.24272
921.365	49.12862
921.752	71.16867
922.139	85.18329
922.525	46.1106
922.912	80.1941
923.299	62.15381
923.685	86.22302
924.072	104.23737
924.458	126.30789
924.844	105.25729
925.231	35.08174
925.617	85.2149
926.003	108.27329
926.389	41.10362
926.774	99.24877
927.16	120.29432
927.546	19.04877
927.931	88.21815
928.317	72.1652
928.702	115.26877
929.088	80.18818
929.473	94.23736
929.858	22.05348
930.243	41.0986
930.628	53.12891
931.013	63.1558
931.398	108.24561
931.783	85.22252
932.167	49.11985
932.552	134.33072
932.937	103.25323
933.321	48.12051
933.705	97.24252
934.09	121.30198
934.474	102.23993
934.858	81.20901
935.242	45.10443
935.626	89.22629
936.009	101.26638
936.393	123.30897
936.777	102.25884
937.16	73.18921
937.544	117.27215
937.927	84.21188
938.311	151.36175
938.694	132.34431
939.077	83.19748
939.46	99.24097
939.843	129.26455
940.226	94.2393
940.609	78.1781
940.991	92.23247
941.374	94.2279
941.757	115.28043
942.139	58.13008
942.522	138.32068
942.904	100.23815
943.286	101.25435
943.668	103.26439
944.05	100.24408
944.432	106.25892
944.814	130.31553
945.196	15.0368
945.578	38.09053
945.959	119.27517
946.341	136.32861
946.722	82.19131
947.104	104.24606
947.485	73.16914
947.866	53.13347
948.247	76.19088
948.628	74.17975
949.009	76.19375
949.39	84.20785
949.771	101.23262
950.152	78.19046
950.532	61.14975
950.913	104.24835
951.293	68.18316
951.674	99.23727
952.054	33.08203
952.434	75.18535
952.814	80.18928
953.194	127.32804
953.574	84.20564
953.954	103.24214
954.334	109.26877
954.714	63.15317
955.093	113.27463
955.473	81.20142
955.853	83.21365
956.232	101.27457
956.611	142.33467
956.99	75.18765
957.37	71.18027
957.749	55.13111
958.128	55.13846
958.506	90.23187
958.885	91.22801
959.264	62.15161
959.643	120.26925
960.021	107.26238
960.4	78.1758
960.778	121.29418
961.156	95.23623
961.535	72.16712
961.913	102.23628
962.291	65.16632
962.669	59.14922
963.047	120.30246
963.424	64.16293
963.802	102.24841
964.18	138.34372
964.557	127.28806
964.935	103.24157
965.312	66.17139
965.69	83.20662
966.067	77.18658
966.444	111.27048
966.821	83.21275
967.198	115.27561
967.575	96.23406
967.952	123.28577
968.329	75.18166
968.705	69.14739
969.082	74.18899
969.458	60.14366
969.835	100.24117
970.211	107.27187
970.587	116.28535
970.963	122.30904
971.339	68.17701
971.715	89.22067
972.091	104.25356
972.467	115.28346
972.843	61.15108
973.219	129.30515
973.594	67.17474
973.97	124.291
974.345	60.14333
974.721	99.23754
975.096	119.28422
975.471	107.25105
975.846	91.21693
976.221	93.23437
976.596	73.17422
976.971	110.26859
977.346	105.24183
977.72	72.18271
978.095	101.25871
978.469	102.24105
978.844	112.27845
979.218	94.22344
979.593	118.27908
979.967	105.25318
980.341	107.24358
980.715	95.23744
981.089	93.23101
981.463	120.27168
981.837	59.14393
982.21	122.27992
982.584	72.17318
982.957	70.17416
983.331	130.30257
983.704	82.2003
984.078	62.15246
984.451	138.33921
984.824	62.15066
985.197	109.26183
985.57	106.26315
985.943	142.34478
986.316	178.42699
986.688	121.28789
987.061	96.223
987.434	86.22272
987.806	110.26378
988.179	64.1506
988.551	121.30307
988.923	93.22721
989.295	119.29365
989.667	30.07194
990.039	106.25921
990.411	122.27677
990.783	83.18986
991.155	50.12013
991.527	129.31304
991.898	56.13938
992.27	67.16521
992.641	118.29241
993.012	138.31916
993.384	110.25935
993.755	95.24027
994.126	94.22421
994.497	84.20488
994.868	102.23187
995.239	97.233
995.61	85.21252
995.98	102.24534
996.351	71.17514
996.722	93.21385
997.092	93.21838
997.462	70.16286
997.833	103.24167
998.203	71.17146
998.573	62.15403
998.943	93.21624
999.313	108.25592
999.683	88.20966
1000.053	121.27445
1000.423	99.23835
1000.792	84.21641
1001.162	84.20541
1001.531	95.23227
1001.901	80.19832
1002.27	92.20388
1002.639	88.22332
1003.009	93.21931
1003.378	51.13036
1003.747	115.26824
1004.116	99.23464
1004.485	102.24133
1004.853	109.27321
1005.222	74.18579
1005.591	100.23513
1005.959	88.19672
1006.328	80.17891
1006.696	63.15156
1007.064	105.26148
1007.433	117.28882
1007.801	121.29308
1008.169	103.25762
1008.537	136.29572
1008.905	103.23741
1009.273	113.27586
1009.64	49.1169
1010.008	116.27297
1010.375	153.3643
1010.743	206.46087
1011.11	101.23661
1011.478	70.17258
1011.845	86.2008
1012.212	90.20202
1012.579	93.22645
1012.946	122.2863
1013.313	109.25645
1013.68	104.23114
1014.047	77.1825
1014.414	58.13675
1014.78	88.21711
1015.147	115.27467
1015.513	77.18454
1015.88	124.31288
1016.246	131.31849
1016.612	123.2774
1016.978	118.28544
1017.344	107.26161
1017.71	157.37512
1018.076	110.25633
1018.442	123.3123
1018.808	92.22815
1019.174	69.17245
1019.539	153.34491
1019.905	102.23806
1020.27	50.12336
1020.636	64.15301
1021.001	116.27414
1021.366	59.1414
1021.731	50.12855
1022.096	61.15351
1022.461	43.10188
1022.826	87.20524
1023.191	98.25493
1023.556	97.22519
1023.92	110.26739
1024.285	102.24646
1024.649	94.22841
1025.014	110.26939
1025.378	117.29051
1025.742	91.22422
1026.107	100.22382
1026.471	128.29415
1026.835	102.25036
1027.199	90.21492
1027.562	122.27947
1027.926	86.20882
1028.29	82.20624
1028.654	111.25218
1029.017	134.32414
1029.381	85.20162
1029.744	76.19286
1030.107	149.34563
1030.471	124.29259
1030.834	109.24492
1031.197	93.22212
1031.56	155.35812
1031.923	82.21074
1032.286	110.25522
1032.648	120.28304
1033.011	79.1802
1033.374	121.28035
1033.736	92.24006
1034.099	115.27677
1034.461	39.09867
1034.823	88.21751
1035.185	100.24934
1035.548	100.24099
1035.91	99.23482
1036.272	96.21637
1036.634	143.34363
1036.995	69.16152
1037.357	66.16001
1037.719	59.14318
1038.08	127.29693
1038.442	99.23265
1038.803	72.17206
1039.165	68.17097
1039.526	67.16131
1039.887	93.22059
1040.248	55.13532
1040.609	96.23511
1040.97	69.16795
1041.331	106.26555
1041.692	85.19694
1042.053	76.17207
1042.413	101.2329
1042.774	122.29255
1043.134	126.29546
1043.495	125.30981
1043.855	90.21656
1044.215	98.24098
1044.576	70.16665
1044.936	102.23131
1045.296	128.31475
1045.656	93.22628
1046.016	103.24601
1046.375	111.26602
1046.735	28.06373
1047.095	77.17918
1047.454	91.19101
1047.814	89.21224
1048.173	149.34905
1048.533	73.16638
1048.892	57.13656
1049.251	103.25594
1049.61	69.1692
1049.969	100.2333
1050.328	129.27483
1050.687	95.22907
1051.046	81.19598
1051.405	110.27049
1051.763	62.14214
1052.122	104.25668
1052.48	52.1274
1052.839	69.16164
1053.197	80.18708
1053.555	151.33706
1053.914	110.26589
1054.272	132.314
1054.63	63.15357
1054.988	82.19349
1055.345	73.15634
1055.703	110.26157
1056.061	60.15399
1056.419	102.2615
1056.776	85.20464
1057.134	101.23132
1057.491	106.26258
1057.848	111.2731
1058.206	83.19383
1058.563	98.21373
1058.92	136.30791
1059.277	69.16952
1059.634	123.28509
1059.991	131.3088
1060.348	71.15967
1060.704	79.1871
1061.061	140.31928
1061.418	68.16424
1061.774	97.23725
1062.131	43.11375
1062.487	104.24044
1062.843	98.24205
1063.199	99.24385
1063.555	81.18641
1063.911	69.17358
1064.267	143.29193
1064.623	59.14296
1064.979	151.35055
1065.335	146.34235
1065.691	106.25118
1066.046	84.18328
1066.402	59.13371
1066.757	98.24507
1067.112	147.35404
1067.468	97.22679
1067.823	97.23097
1068.178	88.21118
1068.533	83.19983
1068.888	93.22025
1069.243	105.25633
1069.598	86.20741
1069.952	51.11474
1070.307	35.08681
1070.662	84.19798
1071.016	62.13848
1071.371	96.2162
1071.725	78.18548
1072.079	67.16051
1072.434	70.16933
1072.788	76.17996
1073.142	117.28403
1073.496	72.16996
1073.85	106.24291
1074.203	107.25663
1074.557	62.16443
1074.911	123.28927
1075.265	92.21193
1075.618	115.27719
1075.971	92.21691
1076.325	86.217
1076.678	87.19733
1077.031	42.09513
1077.385	119.25815
1077.738	122.27115
1078.091	92.20727
1078.444	146.33229
1078.796	83.20225
1079.149	86.21233
1079.502	88.20619
1079.855	89.2058
1080.207	112.27256
1080.56	55.14192
1080.912	139.33249
1081.264	83.19847
1081.617	89.21517
1081.969	45.11353
1082.321	102.24646
1082.673	62.14106
1083.025	84.19782
1083.377	136.28628
1083.728	83.19223
1084.08	76.18868
1084.432	87.20819
1084.783	98.22728
1085.135	81.20171
1085.486	88.19964
1085.838	68.16678
1086.189	107.25673
1086.54	139.32601
1086.891	81.20354
1087.242	67.16247
1087.593	113.27164
1087.944	88.19745
1088.295	142.31651
1088.646	111.26572
1088.996	62.1489
1089.347	88.21423
1089.698	59.13908
1090.048	117.30011
1090.398	64.1479
1090.749	89.21119
1091.099	48.12064
1091.449	75.18582
1091.799	102.25276
1092.149	54.13146
1092.499	78.18911
1092.849	62.15711
1093.199	133.32807
1093.548	61.14614
1093.898	78.194
1094.248	45.11563
1094.597	14.03593
1094.947	49.13062
1095.296	86.21077
1095.645	101.26016
1095.994	91.21668
1096.343	117.29062
1096.692	94.24486
1097.041	48.12988
1097.39	83.20677
1097.739	70.18116
1098.088	122.32268
1098.437	54.14163
1098.785	96.25663
1099.134	118.30948
1099.482	71.19445
1099.83	78.20381
1100.179	43.11218
1100.527	92.24252
1100.875	85.2232
1101.223	76.20075
1101.571	67.18449
1101.919	42.10978
1102.267	61.17129
1102.615	2.00643
1102.962	12.03863
1103.31	6.01928
1103.658	15.04829
