Data from N2 R14 sample 1_Subt2__2__14-26-37-586.txt Node

Date: Tue Sep 02 14:26:37 PDT 2025
User: uwsun
Spectrometer: HDX01956
Trigger mode: 0
Integration Time (sec): 5.000000E-1
Scans to average: 1
Nonlinearity correction enabled: true
Boxcar width: 0
Storing dark spectrum: false
XAxis mode: Wavelengths
Number of Pixels in Spectrum: 2068
>>>>>Begin Spectral Data<<<<<
194.03	135.37101
194.578	113.35235
195.127	94.28942
195.676	125.3845
196.225	160.41305
196.773	152.40659
197.321	221.5714
197.87	341.79062
198.418	276.6393
198.966	258.60354
199.513	213.47781
200.061	253.57289
200.609	312.74097
201.156	261.50329
201.704	255.57366
202.251	231.5519
202.798	250.58322
203.345	302.66503
203.892	322.7162
204.438	342.71861
204.985	253.53033
205.532	257.60602
206.078	295.64239
206.624	231.50794
207.17	324.66128
207.716	258.55717
208.262	352.59928
208.808	265.57658
209.354	308.65944
209.899	334.74935
210.445	325.70771
210.99	260.55596
211.535	351.7224
212.08	337.68734
212.625	337.74411
213.17	316.71043
213.715	252.49329
214.259	307.63213
214.804	352.76601
215.348	358.71474
215.892	319.67546
216.436	395.79575
216.98	364.70276
217.524	255.5383
218.068	344.76512
218.612	321.71827
219.155	300.62537
219.698	325.68365
220.242	279.62533
220.785	308.63862
221.328	284.63404
221.871	303.68916
222.414	317.70464
222.956	239.5167
223.499	291.58192
224.041	310.6442
224.583	332.63482
225.126	286.56065
225.668	286.62028
226.21	257.58124
226.751	228.44653
227.293	289.58944
227.835	293.63695
228.376	301.62034
228.918	310.70008
229.459	267.59449
230	277.58884
230.541	318.64903
231.082	340.72637
231.622	313.63955
232.163	230.50181
232.704	245.54574
233.244	275.60977
233.784	356.77109
234.324	233.45491
234.864	286.57523
235.404	287.60957
235.944	284.60122
236.484	323.71618
237.023	259.54626
237.563	273.5601
238.102	292.61248
238.641	295.66472
239.18	271.56102
239.719	277.62136
240.258	308.61092
240.797	281.59604
241.335	312.67695
241.874	277.46634
242.412	251.53846
242.95	254.53889
243.488	284.57385
244.026	276.56229
244.564	391.68819
245.102	310.60942
245.64	333.70726
246.177	255.50827
246.715	281.60021
247.252	336.6758
247.789	373.60374
248.326	245.52173
248.863	311.59423
249.4	314.62573
249.936	322.574
250.473	276.56741
251.009	266.53698
251.546	300.5778
252.082	322.61391
252.618	270.52853
253.154	289.61007
253.69	314.6167
254.226	312.65154
254.761	310.60712
255.297	284.5433
255.832	307.63498
256.367	326.66899
256.903	258.4981
257.438	318.65316
257.972	299.581
258.507	246.49524
259.042	323.60669
259.576	285.53056
260.111	335.6727
260.645	330.61755
261.179	305.61868
261.713	341.65188
262.247	248.50525
262.781	261.47622
263.315	278.5965
263.849	304.66381
264.382	345.68511
264.915	309.62622
265.449	242.51545
265.982	310.61287
266.515	333.70233
267.048	315.57185
267.58	346.6507
268.113	259.48647
268.646	325.69388
269.178	283.5465
269.71	382.7071
270.243	316.62415
270.775	337.74162
271.307	342.71228
271.838	362.74152
272.37	309.65944
272.902	353.68692
273.433	329.61461
273.965	335.7022
274.496	295.64075
275.027	302.64967
275.558	324.67629
276.089	247.52736
276.62	347.7633
277.15	331.70608
277.681	317.59073
278.211	328.69467
278.741	288.54268
279.272	324.63004
279.802	335.71988
280.332	370.73664
280.861	338.69549
281.391	308.59578
281.921	320.6635
282.45	344.73778
282.98	326.73321
283.509	328.62596
284.038	345.66464
284.567	359.71224
285.096	349.71667
285.625	306.59078
286.153	254.51276
286.682	316.61214
287.21	286.58929
287.739	362.7187
288.267	303.62418
288.795	374.83701
289.323	363.70638
289.851	350.68936
290.378	293.5574
290.906	312.6365
291.433	328.69315
291.961	340.6413
292.488	357.74732
293.015	305.60341
293.542	321.68504
294.069	332.68438
294.596	382.78992
295.122	347.69069
295.649	319.58767
296.175	342.69579
296.702	364.7365
297.228	413.82856
297.754	345.63972
298.28	312.5882
298.806	328.65576
299.332	339.61355
299.857	370.68112
300.383	348.73734
300.908	330.65884
301.433	385.76275
301.958	383.72508
302.483	362.74085
303.008	376.76566
303.533	405.86916
304.058	395.75914
304.582	389.74004
305.107	294.63845
305.631	394.72749
306.155	378.70739
306.679	408.75901
307.203	389.7224
307.727	322.62436
308.251	372.74614
308.775	368.69651
309.298	304.59002
309.822	373.76215
310.345	390.73635
310.868	401.7599
311.391	404.79497
311.914	402.79997
312.437	424.76018
312.96	402.74301
313.482	381.71177
314.005	358.71806
314.527	412.85576
315.049	447.88766
315.571	346.59542
316.093	457.87323
316.615	399.74577
317.137	406.67224
317.659	470.87655
318.18	446.82765
318.702	431.7606
319.223	458.69035
319.744	402.67926
320.265	457.82801
320.786	442.819
321.307	423.79612
321.828	445.74317
322.348	463.80175
322.869	427.74056
323.389	534.5715
323.909	469.78198
324.43	548.95835
324.95	476.77818
325.47	432.77333
325.989	516.85496
326.509	489.74088
327.029	487.75775
327.548	475.73517
328.067	459.77499
328.587	561.96948
329.106	518.79779
329.625	594.09807
330.144	505.78624
330.662	520.80276
331.181	551.85543
331.7	580.88918
332.218	545.75567
332.736	576.87469
333.255	548.82418
333.773	538.82667
334.291	551.91174
334.808	532.74356
335.326	580.81077
335.844	587.82977
336.361	590.93188
336.879	535.76335
337.396	575.84484
337.913	581.79271
338.43	687.87079
338.947	612.85723
339.464	614.7267
339.981	605.82552
340.497	616.89492
341.014	604.85033
341.53	608.75302
342.046	603.84217
342.562	706.98544
343.078	625.80795
343.594	654.85219
344.11	645.83103
344.626	637.88634
345.141	670.78391
345.657	778.87797
346.172	662.83813
346.687	650.75592
347.202	713.77156
347.717	784.91116
348.232	752.94788
348.747	692.76678
349.261	691.67229
349.776	796.86362
350.29	633.76497
350.805	839.97583
351.319	768.81212
351.833	693.69517
352.347	694.74645
352.861	792.79484
353.374	769.77839
353.888	790.84629
354.401	700.69959
354.915	791.69508
355.428	756.8219
355.941	823.76069
356.454	872.76097
356.967	794.77158
357.48	869.77075
357.993	877.87168
358.505	783.77752
359.018	835.81072
359.53	858.77885
360.042	980.71986
360.554	904.81736
361.066	898.80082
361.578	865.62148
362.09	873.74798
362.602	894.62274
363.113	992.72729
363.625	897.63221
364.136	983.62793
364.647	844.59593
365.158	1005.68797
365.669	994.72722
366.18	971.68384
366.691	1008.58135
367.201	942.67002
367.712	976.58074
368.222	982.57849
368.733	950.46432
369.243	953.47381
369.753	1073.56389
370.263	1035.59235
370.773	1028.62806
371.282	996.52175
371.792	999.38849
372.301	1005.4743
372.811	1115.61478
373.32	1014.22323
373.829	1059.32753
374.338	1223.19145
374.847	1131.2034
375.356	1165.19662
375.865	1279.93134
376.373	1329.9586
376.882	1329.1386
377.39	1317.00525
377.898	1264.92009
378.407	1345.71996
378.915	1535.54657
379.423	1564.56069
379.93	1556.46504
380.438	1592.40511
380.946	1720.24503
381.453	1681.21945
381.96	1788.09623
382.468	1748.07473
382.975	2018.95653
383.482	2076.97451
383.989	2133.92903
384.495	2159.04951
385.002	2132.35936
385.509	2382.42988
386.015	2547.27299
386.521	2640.35945
387.028	2668.89824
387.534	2813.69098
388.04	2947.74567
388.546	2718.59926
389.051	2792.99938
389.557	3165.32603
390.063	3781.38822
390.568	3832.2913
391.073	3646.77788
391.578	3942.38559
392.084	3632.25842
392.589	3413.15744
393.093	3362.25654
393.598	3999.29698
394.103	4610.81155
394.607	5115.72029
395.112	5699.91515
395.616	6038.56797
396.12	5877.34548
396.624	6392.04097
397.128	7045.68838
397.632	8424.49547
398.136	8654.603
398.639	7491.37904
399.143	7369.41554
399.646	8730.89416
400.15	9581.35092
400.653	9869.54655
401.156	9783.28831
401.659	4189.22886
402.162	1035.69429
402.664	0
403.167	0
403.67	0
404.172	0
404.674	0
405.176	0
405.678	0
406.18	0
406.682	0
407.184	0
407.686	0
408.187	0
408.688	0
409.19	0
409.691	0
410.192	0
410.693	0
411.194	435.30976
411.694	4082.94878
412.195	8864.71461
412.696	12089.80453
413.196	12760.96929
413.696	12863.67595
414.196	13703.56671
414.696	17261.84252
415.196	21764.24417
415.696	29583.19008
416.196	30355.10217
416.695	20023.29179
417.195	15067.78932
417.694	14192.84578
418.194	13745.63662
418.693	12238.5638
419.192	11743.59416
419.691	11615.79853
420.19	11576.29311
420.688	11557.07049
421.187	11480.42755
421.685	11409.23214
422.184	10408.30009
422.682	8886.06252
423.18	6930.38976
423.678	5760.76572
424.176	5273.30242
424.674	5248.80278
425.172	4885.02121
425.669	4843.23254
426.167	4627.12932
426.664	3979.50378
427.161	3775.81764
427.659	3386.07774
428.156	3147.95063
428.652	2930.01262
429.149	2796.93611
429.646	2750.9067
430.143	2912.71413
430.639	2499.77468
431.135	2219.92833
431.632	2124.97838
432.128	1963.16731
432.624	1747.4005
433.12	1581.36498
433.616	1583.38527
434.111	1404.57138
434.607	1391.67006
435.103	1486.58712
435.598	1550.58372
436.093	1452.87752
436.588	1410.92188
437.083	1302.03683
437.578	1212.14412
438.073	1063.27185
438.568	1153.36499
439.062	1107.18197
439.557	1099.39221
440.051	939.33559
440.546	868.34813
441.04	850.43714
441.534	891.56117
442.028	970.53353
442.522	792.48783
443.015	773.39079
443.509	837.57363
444.002	770.55024
444.496	728.41595
444.989	779.5816
445.482	712.57397
445.975	706.45196
446.468	667.40203
446.961	746.4348
447.454	694.49046
447.947	718.54441
448.439	688.59179
448.931	632.46466
449.424	677.65011
449.916	616.56489
450.408	555.44552
450.9	531.50358
451.392	570.58401
451.884	646.5549
452.375	479.49883
452.867	549.50023
453.358	486.43961
453.849	451.37776
454.341	460.43126
454.832	478.41233
455.323	447.48869
455.814	467.47168
456.304	467.47799
456.795	463.47271
457.285	549.53769
457.776	543.56614
458.266	420.47447
458.756	454.53142
459.247	377.43937
459.737	325.38946
460.226	445.47167
460.716	382.46368
461.206	343.433
461.695	331.45545
462.185	361.45066
462.674	400.48241
463.163	417.4745
463.653	288.31925
464.142	328.4383
464.63	301.42386
465.119	388.48594
465.608	293.38097
466.096	287.35469
466.585	343.4576
467.073	302.43246
467.561	365.51797
468.05	311.43209
468.538	300.45453
469.026	331.48131
469.513	264.33031
470.001	238.33308
470.489	258.38106
470.976	343.4858
471.463	326.51945
471.951	250.41434
472.438	218.33382
472.925	199.30481
473.412	210.35189
473.899	237.36239
474.385	227.3809
474.872	195.30792
475.359	204.34334
475.845	178.2475
476.331	301.43739
476.817	190.32904
477.303	244.39255
477.789	153.26559
478.275	117.21228
478.761	151.26574
479.247	191.30736
479.732	162.2949
480.218	137.26786
480.703	131.24399
481.188	180.27874
481.673	117.20008
482.158	65.1021
482.643	178.34547
483.128	89.15343
483.612	156.27519
484.097	197.36746
484.581	135.24157
485.066	127.23818
485.55	130.2164
486.034	101.16771
486.518	71.1302
487.002	10.01955
487.486	87.16784
487.969	22.04319
488.453	76.15476
488.936	72.12887
489.42	79.13947
489.903	93.1902
490.386	-374.55248
490.869	110.19171
491.352	112.22381
491.835	85.14145
492.318	16.02964
492.8	35.05908
493.283	33.06954
493.765	15.03073
494.247	93.17959
494.73	21.03857
495.212	69.13958
495.694	-10.01958
496.175	-18.0357
496.657	92.18111
497.139	118.16682
497.62	-59.11886
498.102	21.04394
498.583	43.09129
499.064	-13.02447
499.545	18.03475
500.026	16.03027
500.507	13.02567
500.988	7.01491
501.469	0
501.949	-3.0064
502.43	19.03824
502.91	-42.07444
503.39	43.09249
503.87	37.07375
504.35	19.0387
504.83	-40.0757
505.31	13.02705
505.79	-47.09769
506.269	68.13557
506.749	-15.02954
507.228	-16.03245
507.707	40.07563
508.187	21.04355
508.666	-11.02341
509.145	18.03617
509.623	41.08267
510.102	-7.0148
510.581	72.14996
511.059	23.04983
511.538	56.12581
512.016	69.14182
512.494	70.1467
512.972	66.13562
513.45	-39.07868
513.928	50.1046
514.406	-60.12658
514.884	56.12477
515.361	76.1566
515.839	67.13112
516.316	100.20614
516.793	95.2082
517.27	107.2239
517.747	60.13374
518.224	77.15419
518.701	113.21517
519.178	6.01301
519.654	93.19201
520.131	85.18211
520.607	101.21752
521.083	13.02607
521.56	45.09287
522.036	94.17825
522.512	88.18956
522.987	-3.00626
523.463	63.13054
523.939	80.17144
524.414	5.01025
524.89	-11.02321
525.365	48.09512
525.84	-35.07369
526.315	23.04883
526.79	50.09885
527.265	43.08615
527.74	-2.00433
528.215	-20.04208
528.689	17.03322
529.164	65.12371
529.638	19.04352
530.112	18.03747
530.587	51.09489
531.061	-2.00428
531.534	74.15796
532.008	12.02559
532.482	104.2084
532.956	8.01811
533.429	47.10079
533.903	91.17632
534.376	1.00197
534.849	16.03306
535.322	75.15575
535.795	44.09547
536.268	43.09153
536.741	77.16319
537.213	103.20855
537.686	49.10544
538.158	17.03373
538.631	129.27459
539.103	99.1931
539.575	144.25974
540.047	143.27217
540.519	139.28995
540.991	154.32859
541.463	156.32809
541.934	200.39169
542.406	129.26742
542.877	228.43701
543.348	247.50859
543.82	218.45969
544.291	283.55805
544.762	236.47445
545.233	300.63148
545.703	299.54833
546.174	302.58641
546.645	308.60863
547.115	341.67906
547.585	470.86308
548.056	388.75737
548.526	432.81166
548.996	544.02603
549.466	594.13041
549.935	598.07902
550.405	629.02922
550.875	671.19098
551.344	692.24521
551.814	790.31405
552.283	871.32778
552.752	930.4952
553.221	967.40437
553.69	1029.518
554.159	1068.76366
554.628	1132.61778
555.096	1268.07379
555.565	1341.80816
556.033	1397.02603
556.502	1518.21506
556.97	1615.01924
557.438	1747.32749
557.906	1870.42269
558.374	1897.314
558.842	2059.54085
559.31	2180.33158
559.777	2360.6778
560.245	2605.62141
560.712	2705.55082
561.18	2899.2796
561.647	3097.30561
562.114	3299.33657
562.581	3523.74505
563.048	3798.24353
563.514	3956.51491
563.981	4212.9912
564.448	4559.67261
564.914	4853.74563
565.381	5082.49258
565.847	5559.42542
566.313	5847.27537
566.779	6114.02878
567.245	6505.16041
567.711	6819.27864
568.176	7144.07728
568.642	7511.68452
569.108	8017.98173
569.573	8505.49648
570.038	8895.16542
570.504	9352.20782
570.969	9897.55028
571.434	10252.10938
571.899	10747.7177
572.363	11119.61123
572.828	11555.76584
573.293	11996.26955
573.757	12557.82779
574.222	12850.23744
574.686	13154.46483
575.15	13638.49255
575.614	13918.31901
576.078	14198.44376
576.542	14494.5698
577.006	14716.87924
577.469	14855.50843
577.933	14823.09263
578.396	14973.41627
578.86	15098.824
579.323	14704.84975
579.786	14991.28949
580.249	14680.36811
580.712	14584.19975
581.175	14411.51131
581.637	14112.81357
582.1	14000.52703
582.563	13683.07534
583.025	13457.73522
583.487	13123.38426
583.95	12797.23244
584.412	12793.36476
584.874	12336.81878
585.336	12083.48628
585.797	11695.96901
586.259	11540.4379
586.721	11086.26364
587.182	10889.34635
587.643	10531.00435
588.105	10258.83626
588.566	9855.79444
589.027	9522.56913
589.488	9278.99845
589.949	9025.4339
590.41	8840.1019
590.87	8648.69656
591.331	8412.2572
591.791	8164.99282
592.252	7862.63541
592.712	7684.65245
593.172	7420.25547
593.632	7359.15189
594.092	7067.05721
594.552	6893.8735
595.011	6624.06969
595.471	6510.97463
595.931	6296.96588
596.39	6168.34478
596.849	5869.28766
597.308	5786.96804
597.768	5579.94924
598.227	5547.63148
598.685	5546.37181
599.144	5391.51668
599.603	5289.65307
600.062	5083.06724
600.52	4975.4404
600.978	4990.81598
601.437	4888.66973
601.895	4764.29805
602.353	4649.62416
602.811	4641.61561
603.269	4597.09078
603.727	4403.19692
604.184	4412.80588
604.642	4415.33474
605.099	4354.03074
605.557	4280.38578
606.014	4231.65683
606.471	4188.53993
606.928	4295.56766
607.385	4193.34099
607.842	4115.05473
608.299	4275.0986
608.755	4238.30613
609.212	4129.87457
609.668	4027.88333
610.125	4158.38671
610.581	4251.29369
611.037	4053.16657
611.493	4070.35578
611.949	4049.43688
612.405	3904.52321
612.861	3992.3949
613.316	4033.41773
613.772	3837.29774
614.227	3829.45119
614.683	3969.88099
615.138	3819.41356
615.593	3810.38618
616.048	3823.32521
616.503	3802.77654
616.958	3725.90501
617.412	3636.59414
617.867	3578.21811
618.321	3639.90249
618.776	3578.27302
619.23	3541.61226
619.684	3452.45728
620.138	3494.6138
620.592	3346.90365
621.046	3321.73643
621.5	3327.92368
621.954	3304.53369
622.407	3165.51227
622.861	3102.98974
623.314	3039.66712
623.768	2999.78597
624.221	2953.01184
624.674	2817.75896
625.127	2819.84681
625.58	2750.74997
626.033	2783.60089
626.485	2582.95724
626.938	2625.95844
627.39	2587.84462
627.843	2574.82622
628.295	2481.81543
628.747	2450.94536
629.199	2389.73135
629.651	2326.71519
630.103	2263.74053
630.555	2288.43246
631.006	2226.85044
631.458	2245.88426
631.909	2187.7754
632.361	2099.79395
632.812	2096.74729
633.263	2121.49562
633.714	2041.45178
634.165	1976.9139
634.616	1918.79812
635.067	1951.56493
635.518	1934.83552
635.968	1881.18966
636.419	1773.39844
636.869	1797.74062
637.319	1770.61009
637.769	1707.45013
638.219	1700.69486
638.669	1634.62145
639.119	1654.73267
639.569	1611.64871
640.019	1648.54374
640.468	1618.40312
640.918	1593.64329
641.367	1511.33218
641.816	1505.32014
642.265	1454.37622
642.714	1528.44992
643.163	1493.39938
643.612	1385.41026
644.061	1395.06414
644.51	1340.21779
644.958	1397.176
645.406	1366.39132
645.855	1349.45304
646.303	1376.34512
646.751	1412.29306
647.199	1336.2196
647.647	1318.23137
648.095	1331.23599
648.543	1308.93104
648.99	1359.38953
649.438	1304.28941
649.885	1334.47623
650.333	1318.80763
650.78	1292.34842
651.227	1269.34185
651.674	1270.16238
652.121	1272.35032
652.568	1220.27627
653.015	1287.49297
653.461	1265.27663
653.908	1231.18373
654.354	1252.28004
654.801	1182.13699
655.247	1243.049
655.693	1219.49285
656.139	1213.24262
656.585	1198.22633
657.031	1205.15173
657.477	1236.9987
657.922	1239.16633
658.368	1202.3164
658.813	1242.21069
659.259	1244.29045
659.704	1229.19139
660.149	1221.18376
660.594	1242.2629
661.039	1181.0785
661.484	1179.20657
661.929	1213.19157
662.373	1183.35513
662.818	1208.34682
663.262	1222.28001
663.707	1215.42117
664.151	1202.30097
664.595	1180.23279
665.039	1223.38555
665.483	1255.4964
665.927	1271.29328
666.371	1243.19943
666.814	1235.28908
667.258	1164.16082
667.701	1368.16679
668.145	1258.44301
668.588	1217.3437
669.031	1240.24677
669.474	1251.336
669.917	1313.18175
670.36	1250.42172
670.803	1343.46539
671.245	1221.95828
671.688	1286.42686
672.13	1294.18935
672.573	1321.60129
673.015	1348.45675
673.457	1354.17987
673.899	1404.55536
674.341	1342.46661
674.783	1325.42255
675.225	1379.57074
675.666	1324.42615
676.108	1400.22418
676.549	1465.55688
676.991	1416.28299
677.432	1452.03007
677.873	1509.52608
678.314	1400.50849
678.755	1466.64462
679.196	1438.41882
679.637	1554.76456
680.078	1518.57902
680.518	1592.6409
680.959	1505.63937
681.399	1434.67426
681.839	1632.83014
682.28	1562.80298
682.72	1565.54568
683.16	1546.82052
683.6	1634.60531
684.039	1627.30058
684.479	1656.88401
684.919	1653.64406
685.358	1729.09774
685.798	1693.19095
686.237	1793.96364
686.676	1827.8309
687.115	1845.8871
687.554	1834.91959
687.993	1824.6426
688.432	1893.81033
688.871	1883.77194
689.309	1852.95686
689.748	1987.52942
690.186	1965.04885
690.625	1971.9647
691.063	1992.07815
691.501	2028.24448
691.939	2061.30445
692.377	2127.24435
692.815	2129.15001
693.253	2202.22661
693.69	2234.82473
694.128	2271.2875
694.565	2281.22292
695.003	2318.56108
695.44	2389.19044
695.877	2441.17266
696.314	2465.79626
696.751	2500.08611
697.188	2507.11103
697.625	2602.14406
698.061	2611.36561
698.498	2704.44449
698.934	2724.41628
699.371	2665.27017
699.807	2739.31576
700.243	2801.41872
700.679	2851.08703
701.115	2969.31509
701.551	2906.3092
701.987	3006.04632
702.422	3056.35003
702.858	3148.36682
703.294	3169.06623
703.729	3213.53767
704.164	3199.42831
704.599	3256.94762
705.035	3259.96706
705.47	3330.47447
705.904	3449.17055
706.339	3482.16994
706.774	3493.19631
707.209	3487.09435
707.643	3530.35618
708.078	3652.41631
708.512	3595.61525
708.946	3781.27124
709.38	3747.19937
709.814	3699.97986
710.248	3861.35867
710.682	3830.18865
711.116	3839.19368
711.549	3869.79427
711.983	3890.96813
712.416	4055.06404
712.85	4020.46605
713.283	3956.10711
713.716	3981.54903
714.149	4050.12675
714.582	3978.74293
715.015	4015.50933
715.448	4038.54761
715.881	4029.56423
716.313	4126.95895
716.746	3974.05678
717.178	3941.22183
717.61	4023.60102
718.043	4012.46924
718.475	4072.23024
718.907	4083.57128
719.339	3973.79521
719.77	3878.13904
720.202	3852.63587
720.634	3834.34281
721.065	3874.14909
721.497	3839.40379
721.928	3834.41128
722.359	3731.30801
722.79	3740.26029
723.221	3728.64237
723.652	3791.82348
724.083	3643.9004
724.514	3587.043
724.945	3554.19821
725.375	3566.10053
725.806	3533.63201
726.236	3417.84125
726.666	3449.2766
727.096	3432.5239
727.526	3374.77297
727.956	3254.05394
728.386	3232.57498
728.816	3158.75726
729.246	3214.47824
729.675	3096.56882
730.105	3106.57878
730.534	3111.25477
730.964	3100.7618
731.393	3049.64644
731.822	2901.80812
732.251	2997.77587
732.68	2957.31023
733.109	2834.56441
733.537	2849.44066
733.966	2781.60278
734.395	2744.17518
734.823	2766.0567
735.251	2753.41423
735.68	2680.63974
736.108	2647.68706
736.536	2611.27291
736.964	2579.17435
737.392	2526.57895
737.82	2528.34539
738.247	2498.32546
738.675	2512.32122
739.102	2429.52464
739.53	2327.58031
739.957	2300.62393
740.384	2385.4466
740.811	2373.58609
741.238	2385.38036
741.665	2237.05623
742.092	2253.21366
742.519	2140.31838
742.945	2093.14724
743.372	2171.34336
743.798	2204.5617
744.225	2052.0763
744.651	1987.28166
745.077	2007.26673
745.503	2030.18281
745.929	1977.06776
746.355	1975.23691
746.781	1944.18985
747.207	1835.86307
747.632	1823.01122
748.058	1888.17474
748.483	1877.82442
748.908	1787.06525
749.334	1815.04186
749.759	1695.77127
750.184	1716.82674
750.609	1721.95987
751.033	1756.83966
751.458	1720.61172
751.883	1737.00857
752.307	1620.69502
752.732	1509.79053
753.156	1571.82277
753.58	1578.69021
754.005	1582.94258
754.429	1478.54682
754.853	1450.69361
755.277	1483.57634
755.7	1464.71704
756.124	1393.62873
756.548	1347.42481
756.971	1384.56682
757.394	1364.72042
757.818	1323.65852
758.241	1327.61677
758.664	1270.52221
759.087	1253.13956
759.51	1248.44757
759.933	1255.35383
760.356	1227.5081
760.778	1173.30505
761.201	1200.31474
761.623	1175.27341
762.046	1156.18725
762.468	1160.2257
762.89	1108.22235
763.312	1096.17509
763.734	1040.05419
764.156	998.0509
764.578	1042.95231
765	952.95083
765.421	944.02565
765.843	983.17474
766.264	946.92023
766.686	894.91913
767.107	902.85328
767.528	874.89145
767.949	885.9295
768.37	829.75627
768.791	868.79457
769.212	757.66911
769.632	764.54623
770.053	794.83474
770.473	781.65451
770.894	773.69589
771.314	780.62111
771.734	714.46272
772.154	694.59028
772.575	713.4531
772.994	665.33795
773.414	729.54022
773.834	668.49331
774.254	695.5093
774.673	663.44219
775.093	570.28449
775.512	571.28019
775.931	615.41054
776.351	582.31317
776.77	545.21782
777.189	527.14844
777.607	540.26624
778.026	511.17315
778.445	464.07931
778.864	500.18738
779.282	523.15416
779.701	490.14392
780.119	447.05419
780.537	405.95232
780.955	462.09532
781.373	462.06239
781.791	416.87409
782.209	467.99787
782.627	404.00336
783.045	415.89407
783.462	415.99819
783.88	368.90442
784.297	374.89193
784.715	325.79863
785.132	379.86756
785.549	364.86443
785.966	354.84716
786.383	342.80156
786.8	349.76996
787.217	330.74616
787.633	326.77749
788.05	341.77181
788.466	369.82395
788.883	280.68871
789.299	271.63009
789.715	313.72858
790.131	310.73906
790.547	286.68811
790.963	296.70623
791.379	278.67798
791.795	321.699
792.21	333.74143
792.626	256.58781
793.041	247.59125
793.457	279.66478
793.872	259.58862
794.287	217.50455
794.702	235.56296
795.117	229.55339
795.532	190.4665
795.947	272.63179
796.362	283.65071
796.776	294.66152
797.191	251.59509
797.605	169.39
798.02	223.52831
798.434	257.55275
798.848	192.46303
799.262	213.51532
799.676	222.52766
800.09	198.47659
800.504	212.50196
800.918	202.45714
801.331	216.55276
801.745	177.39918
802.158	186.45584
802.572	253.59404
802.985	187.4432
803.398	182.42576
803.811	215.53946
804.224	220.53355
804.637	157.36851
805.05	224.50485
805.462	189.45502
805.875	148.37849
806.288	138.32903
806.7	159.39364
807.112	178.40496
807.525	173.4195
807.937	143.3491
808.349	161.39713
808.761	158.38291
809.173	166.39563
809.584	201.48555
809.996	102.2485
810.408	116.29697
810.819	123.28679
811.231	97.24942
811.642	127.29972
812.053	185.43066
812.464	286.65248
812.875	224.55708
813.286	190.47888
813.697	209.47654
814.108	163.39183
814.519	194.42238
814.929	147.37005
815.34	141.33779
815.75	177.44125
816.16	175.42817
816.571	141.3618
816.981	153.35603
817.391	134.31998
817.801	87.21547
818.211	176.41157
818.62	101.24187
819.03	122.29634
819.44	160.41148
819.849	160.39677
820.259	134.3392
820.668	80.19643
821.077	108.26636
821.486	210.4928
821.895	160.38907
822.304	123.32286
822.713	145.33808
823.122	111.27501
823.531	108.25434
823.939	127.30622
824.348	145.34777
824.756	119.29548
825.164	144.35762
825.573	115.28617
825.981	98.24187
826.389	127.3158
826.797	102.25396
827.205	82.18784
827.612	135.3292
828.02	84.19674
828.428	102.2582
828.835	105.2745
829.243	155.36353
829.65	120.29551
830.057	105.25318
830.464	76.18495
830.871	157.3698
831.278	102.24506
831.685	113.25015
832.092	129.31234
832.499	86.18764
832.905	121.3034
833.312	109.24683
833.718	135.33227
834.124	145.32648
834.531	132.32889
834.937	109.27763
835.343	107.25634
835.749	112.25955
836.155	82.21404
836.561	65.15993
836.966	128.30951
837.372	93.23554
837.777	84.20854
838.183	123.27058
838.588	108.26606
838.993	113.27278
839.399	95.23097
839.804	33.08089
840.209	78.19801
840.613	84.1863
841.018	113.28365
841.423	127.32211
841.828	91.229
842.232	161.39187
842.637	88.20676
843.041	67.17156
843.445	92.22956
843.849	101.24831
844.253	133.31206
844.657	90.22547
845.061	113.25401
845.465	113.27041
845.869	97.22403
846.272	52.12688
846.676	108.25908
847.079	104.26242
847.483	164.40163
847.886	147.35216
848.289	103.27284
848.692	88.22181
849.095	149.35205
849.498	173.42987
849.901	109.24783
850.304	99.235
850.707	59.15049
851.109	118.29561
851.512	94.22961
851.914	42.10617
852.316	112.28068
852.718	71.18289
853.121	67.16399
853.523	89.20694
853.925	77.2002
854.326	95.23597
854.728	96.24526
855.13	73.18778
855.531	90.21385
855.933	122.28954
856.334	61.15202
856.736	80.17854
857.137	71.16476
857.538	80.20034
857.939	94.23072
858.34	148.35476
858.741	99.25696
859.142	89.21265
859.542	88.23096
859.943	122.29966
860.343	71.1754
860.744	123.29658
861.144	120.2894
861.544	68.16313
861.945	115.29012
862.345	90.21886
862.745	133.32602
863.145	157.36836
863.544	126.31451
863.944	116.27105
864.344	148.36164
864.743	147.35886
865.143	106.26995
865.542	64.14831
865.941	116.28408
866.34	123.29107
866.74	86.22967
867.139	75.17899
867.537	108.27271
867.936	79.18941
868.335	94.23761
868.734	101.25608
869.132	131.30002
869.531	124.29622
869.929	64.14572
870.327	109.25874
870.726	146.35821
871.124	127.29285
871.522	116.29238
871.92	102.24952
872.318	149.35804
872.715	128.31277
873.113	111.26775
873.511	108.26655
873.908	32.08112
874.306	81.20054
874.703	89.22139
875.1	89.22637
875.497	108.25642
875.894	56.1372
876.291	127.30761
876.688	47.1214
877.085	125.29603
877.482	87.21658
877.878	71.17042
878.275	85.21482
878.671	162.35301
879.068	126.30019
879.464	101.24206
879.86	100.23449
880.256	128.31172
880.652	84.21256
881.048	111.27229
881.444	121.28446
881.84	110.27686
882.236	118.29337
882.631	95.23149
883.027	102.24487
883.422	62.15834
883.817	73.18285
884.213	77.19682
884.608	49.12029
885.003	95.22733
885.398	71.1772
885.793	89.22204
886.188	93.22957
886.582	108.27446
886.977	140.32687
887.371	92.23114
887.766	39.09726
888.16	107.26452
888.554	129.31469
888.949	110.27348
889.343	94.22798
889.737	19.05092
890.131	126.312
890.525	99.25118
890.918	84.21029
891.312	133.31352
891.706	101.26287
892.099	93.23504
892.492	119.25331
892.886	89.21638
893.279	88.22284
893.672	57.14503
894.065	73.18219
894.458	95.23718
894.851	92.22389
895.244	77.19585
895.637	101.24114
896.029	119.28748
896.422	123.29669
896.814	50.1244
897.206	82.19424
897.599	169.40918
897.991	102.24441
898.383	102.23881
898.775	82.18406
899.167	42.09818
899.559	117.29284
899.951	134.31102
900.342	129.32369
900.734	36.0896
901.125	92.23981
901.517	40.09843
901.908	133.31413
902.299	79.19222
902.69	97.22697
903.082	103.24713
903.473	77.18356
903.863	115.29022
904.254	81.187
904.645	142.3475
905.036	80.19272
905.426	157.35205
905.817	117.28371
906.207	118.27767
906.597	78.18155
906.987	115.29488
907.378	94.236
907.768	128.33411
908.158	103.24883
908.547	78.2006
908.937	114.2894
909.327	104.25015
909.717	149.37185
910.106	86.20529
910.495	123.30318
910.885	107.26839
911.274	75.1867
911.663	141.35227
912.052	120.29246
912.441	77.19495
912.83	106.24077
913.219	119.30791
913.608	101.24519
913.997	44.11047
914.385	136.31978
914.774	77.18665
915.162	109.25694
915.55	127.30298
915.939	75.18853
916.327	79.19623
916.715	52.13252
917.103	154.37195
917.491	117.28605
917.878	106.25805
918.266	70.18097
918.654	86.2184
919.041	57.14866
919.429	112.2613
919.816	97.24392
920.203	86.20725
920.591	85.20952
920.978	90.21886
921.365	101.26278
921.752	122.28697
922.139	123.26307
922.525	52.12489
922.912	98.23697
923.299	43.10704
923.685	82.2128
924.072	150.33919
924.458	96.23589
924.844	66.16289
925.231	95.21924
925.617	48.12216
926.003	113.28569
926.389	77.19335
926.774	127.31753
927.16	87.21468
927.546	54.13776
927.931	102.25221
928.317	129.29259
928.702	101.2367
929.088	64.15101
929.473	106.26708
929.858	60.14481
930.243	79.18861
930.628	90.21738
931.013	70.17289
931.398	137.30973
931.783	116.30206
932.167	95.23037
932.552	88.21903
932.937	117.28691
933.321	69.17258
933.705	80.20063
934.09	114.28487
934.474	108.25375
934.858	89.22933
935.242	79.18209
935.626	99.25127
936.009	78.20651
936.393	106.26708
936.777	88.22387
937.16	98.25291
937.544	108.25167
937.927	80.20193
938.311	124.29859
938.694	122.31877
939.077	100.23715
939.46	164.39431
939.843	130.26654
940.226	65.16632
940.609	109.24733
940.991	65.16504
941.374	93.22552
941.757	102.24934
942.139	102.2267
942.522	83.19497
942.904	95.22646
943.286	124.31098
943.668	89.22901
944.05	47.11585
944.432	65.15998
944.814	133.32263
945.196	68.16517
945.578	13.03112
945.959	120.27742
946.341	142.34271
946.722	108.25067
947.104	126.29684
947.485	85.19647
947.866	87.21776
948.247	83.2082
948.628	105.25356
949.009	111.28123
949.39	125.30698
949.771	139.31771
950.152	58.14215
950.532	43.10591
950.913	87.20843
951.293	87.23361
951.674	77.18531
952.054	95.23348
952.434	99.24358
952.814	106.24953
953.194	90.23396
953.574	97.23689
953.954	126.29488
954.334	100.24699
954.714	55.13392
955.093	109.26511
955.473	59.1473
955.853	99.25412
956.232	63.17232
956.611	81.19317
956.99	103.25641
957.37	119.29957
957.749	88.20845
958.128	85.21283
958.506	64.16563
958.885	96.24033
959.264	51.12497
959.643	91.2054
960.021	113.27679
960.4	89.20014
960.778	71.17424
961.156	65.16252
961.535	141.3228
961.913	115.26571
962.291	30.07724
962.669	83.20902
963.047	93.23554
963.424	96.24301
963.802	98.23884
964.18	146.36311
964.557	135.3057
964.935	120.28051
965.312	106.27337
965.69	129.31844
966.067	98.23652
966.444	115.28001
966.821	124.31556
967.198	145.34552
967.575	112.27225
967.952	80.18745
968.329	90.21738
968.705	127.26786
969.082	55.14093
969.458	43.10329
969.835	93.22458
970.211	61.15625
970.587	96.23702
970.963	122.30904
971.339	61.15898
971.715	104.25715
972.091	119.28932
972.467	141.34588
972.843	104.25555
973.219	147.34652
973.594	75.19533
973.97	122.28641
974.345	79.18803
974.721	130.31007
975.096	52.12579
975.471	98.23034
975.846	110.26127
976.221	99.24922
976.596	78.18598
976.971	129.31387
977.346	140.32018
977.72	92.23264
978.095	116.29635
978.469	130.30555
978.844	137.33905
979.218	81.19302
979.593	117.27677
979.967	120.28852
980.341	87.19885
980.715	82.20543
981.089	85.21144
981.463	63.14429
981.837	105.25394
982.21	150.34223
982.584	83.19922
982.957	73.18153
983.331	117.27301
983.704	83.2027
984.078	70.17188
984.451	189.46018
984.824	38.09275
985.197	93.22407
985.57	138.34059
985.943	114.27825
986.316	135.3265
986.688	73.17529
987.061	133.30668
987.434	91.23546
987.806	73.17629
988.179	95.2222
988.551	129.32264
988.923	106.25834
989.295	111.27431
989.667	65.15483
990.039	69.16989
990.411	78.17853
990.783	117.26581
991.155	53.12726
991.527	148.35787
991.898	112.27592
992.27	97.23786
992.641	88.21926
993.012	162.37288
993.384	89.2107
993.755	82.20787
994.126	113.26855
994.497	53.13002
994.868	104.23632
995.239	67.16186
995.61	65.1631
995.98	107.25712
996.351	97.23813
996.722	67.15487
997.092	77.18137
997.462	40.09361
997.833	76.17926
998.203	125.29878
998.573	89.22002
998.943	86.20024
999.313	84.19997
999.683	49.11761
1000.053	81.18521
1000.423	117.28072
1000.792	82.21133
1001.162	96.23423
1001.531	85.20821
1001.901	97.23971
1002.27	116.25578
1002.639	100.25323
1003.009	74.17515
1003.378	98.24843
1003.747	78.18326
1004.116	77.18327
1004.485	93.22042
1004.853	112.28058
1005.222	93.23269
1005.591	128.29933
1005.959	35.0791
1006.328	99.22053
1006.696	53.12775
1007.064	120.29802
1007.433	126.31052
1007.801	135.32613
1008.169	116.28945
1008.537	95.20837
1008.905	60.13949
1009.273	126.30685
1009.64	59.14049
1010.008	118.27757
1010.375	168.39886
1010.743	130.2954
1011.11	79.18587
1011.478	76.18716
1011.845	103.23968
1012.212	73.16443
1012.579	91.22166
1012.946	115.27025
1013.313	146.34102
1013.68	105.23332
1014.047	39.09311
1014.414	95.22238
1014.78	95.23408
1015.147	150.35586
1015.513	125.29683
1015.88	139.34979
1016.246	121.29473
1016.612	115.25978
1016.978	117.28307
1017.344	108.264
1017.71	133.31923
1018.076	103.24035
1018.442	109.27744
1018.808	52.1299
1019.174	98.24365
1019.539	175.39273
1019.905	104.24263
1020.27	65.15993
1020.636	120.28381
1021.001	124.29259
1021.366	78.18626
1021.731	95.24232
1022.096	52.13107
1022.461	92.2159
1022.826	127.29728
1023.191	56.14672
1023.556	112.25924
1023.92	92.22439
1024.285	126.30307
1024.649	107.25937
1025.014	117.28616
1025.378	105.26129
1025.742	109.26768
1026.107	128.28484
1026.471	159.36312
1026.835	85.20929
1027.199	99.236
1027.562	111.25483
1027.926	146.3505
1028.29	72.18142
1028.654	108.24551
1029.017	96.23388
1029.381	80.18994
1029.744	102.25765
1030.107	118.2754
1030.471	90.21376
1030.834	112.25151
1031.197	113.26886
1031.56	146.33793
1031.923	51.13178
1032.286	110.25522
1032.648	112.26458
1033.011	83.18918
1033.374	139.3209
1033.736	68.17816
1034.099	111.26734
1034.461	49.12375
1034.823	75.18582
1035.185	110.27378
1035.548	76.18398
1035.91	120.28348
1036.272	121.27132
1036.634	113.27309
1036.995	106.24632
1037.357	65.15762
1037.719	119.28552
1038.08	113.26492
1038.442	103.24186
1038.803	68.16263
1039.165	104.25979
1039.526	121.28833
1039.887	109.25774
1040.248	55.13532
1040.609	138.33532
1040.97	83.20149
1041.331	77.19391
1041.692	52.12127
1042.053	116.26049
1042.413	122.28014
1042.774	68.16474
1043.134	108.25414
1043.495	94.2343
1043.855	91.21892
1044.215	110.26989
1044.576	69.1643
1044.936	103.23353
1045.296	141.34588
1045.656	88.21431
1046.016	133.31583
1046.375	48.11642
1046.735	99.22208
1047.095	65.15162
1047.454	158.32673
1047.814	76.18169
1048.173	160.37401
1048.533	77.17536
1048.892	42.10091
1049.251	123.30452
1049.61	57.14009
1049.969	94.21956
1050.328	129.27483
1050.687	111.26684
1051.046	112.26939
1051.405	109.26808
1051.763	69.15797
1052.122	104.25668
1052.48	34.08358
1052.839	122.28283
1053.197	76.17787
1053.555	129.28926
1053.914	102.24692
1054.272	100.23934
1054.63	69.16801
1054.988	97.22821
1055.345	124.26263
1055.703	68.163
1056.061	56.14382
1056.419	58.14984
1056.776	107.25654
1057.134	78.17947
1057.491	98.24312
1057.848	122.29955
1058.206	112.26006
1058.563	86.18804
1058.92	147.33206
1059.277	112.27296
1059.634	141.32565
1059.991	120.28348
1060.348	84.1884
1060.704	66.1567
1061.061	125.28594
1061.418	66.15947
1061.774	70.17207
1062.131	36.09535
1062.487	86.19953
1062.843	141.3455
1063.199	113.27761
1063.555	72.16599
1063.911	67.16861
1064.267	170.34492
1064.623	66.15971
1064.979	134.31213
1065.335	136.31953
1065.691	93.22093
1066.046	103.22383
1066.402	86.19383
1066.757	106.26469
1067.112	91.2215
1067.468	46.10863
1067.823	100.23797
1068.178	92.22062
1068.533	72.17371
1068.888	134.31483
1069.243	85.20828
1069.598	68.16455
1069.952	65.14581
1070.307	59.1457
1070.662	54.12801
1071.016	84.18677
1071.371	84.18964
1071.725	123.28995
1072.079	95.22638
1072.434	73.17649
1072.788	104.24492
1073.142	95.23158
1073.496	100.23477
1073.85	100.22944
1074.203	81.19524
1074.557	41.10912
1074.911	133.31218
1075.265	83.19154
1075.618	116.27954
1075.971	106.24924
1076.325	95.23932
1076.678	70.15932
1077.031	77.17316
1077.385	86.18788
1077.738	122.27115
1078.091	77.17401
1078.444	106.24321
1078.796	85.20705
1079.149	135.33031
1079.502	99.23147
1079.855	106.24428
1080.207	87.21271
1080.56	89.22829
1080.912	111.26694
1081.264	87.20787
1081.617	98.23652
1081.969	56.141
1082.321	84.20365
1082.673	67.15228
1083.025	98.23016
1083.377	-142.31717
1083.728	82.18995
1084.08	120.29551
1084.432	78.18697
1084.783	135.3108
1085.135	74.18452
1085.486	84.19072
1085.838	62.15223
1086.189	91.21901
1086.54	87.20612
1086.891	43.10879
1087.242	110.26458
1087.593	152.36268
1087.944	83.18642
1088.295	105.23583
1088.646	111.26572
1088.996	50.12036
1089.347	109.26431
1089.698	34.08054
1090.048	88.22687
1090.398	106.24291
1090.749	96.22749
1091.099	95.23675
1091.449	90.22237
1091.799	75.18677
1092.149	51.12423
1092.499	108.26036
1092.849	97.24427
1093.199	121.29913
1093.548	93.22144
1093.898	72.17927
1094.248	114.2894
1094.597	48.12246
1094.947	99.26172
1095.296	84.20595
1095.645	72.1864
1095.994	120.28414
1096.343	97.24182
1096.692	26.06852
1097.041	27.07331
1097.39	94.2337
1097.739	86.22195
1098.088	103.27329
1098.437	37.09732
1098.785	104.27765
1099.134	124.32488
1099.482	108.29403
1099.83	60.15726
1100.179	65.16894
1100.527	82.21652
1100.875	60.15822
1101.223	78.20596
1101.571	49.13531
1101.919	46.12015
1102.267	64.17963
1102.615	10.03213
1102.962	23.07394
1103.31	11.03532
1103.658	20.06435
