Data from N2 R14 sample 7_Subt2__5__14-23-08-091.txt Node

Date: Tue Sep 02 14:23:08 PDT 2025
User: uwsun
Spectrometer: HDX01956
Trigger mode: 0
Integration Time (sec): 5.000000E-1
Scans to average: 1
Nonlinearity correction enabled: true
Boxcar width: 0
Storing dark spectrum: false
XAxis mode: Wavelengths
Number of Pixels in Spectrum: 2068
>>>>>Begin Spectral Data<<<<<
194.03	216.58593
194.578	211.64966
195.127	204.619
195.676	210.63873
196.225	278.70289
196.773	265.69553
197.321	407.01577
197.87	529.17861
198.418	482.06864
198.966	489.08981
199.513	494.04201
200.061	483.04038
200.609	522.1872
201.156	446.82188
201.704	458.98732
202.251	519.16918
202.798	449.00422
203.345	552.14979
203.892	457.98791
204.438	580.15301
204.985	451.90396
205.532	507.13512
206.078	545.12185
206.624	530.09018
207.17	506.99007
207.716	504.02915
208.262	528.8565
208.808	428.8989
209.354	507.03693
209.899	571.21658
210.445	486.02017
210.99	461.9428
211.535	603.16901
212.08	576.10939
212.625	513.08903
213.17	582.23495
213.715	481.89062
214.259	529.03312
214.804	567.17559
215.348	561.06568
215.892	558.11797
216.436	562.08705
216.98	538.99544
217.524	536.05994
218.068	545.15959
218.612	583.23196
219.155	484.96764
219.698	520.04507
220.242	455.98275
220.785	499.99046
221.328	446.96228
221.871	519.12668
222.414	523.11078
222.956	417.86711
223.499	486.92798
224.041	472.9454
224.583	541.98226
225.126	465.87303
225.668	429.902
226.21	480.03413
226.751	464.85806
227.293	491.95548
227.835	436.91893
228.376	494.9739
228.918	489.0619
229.459	471.00232
230	458.93518
230.541	482.94712
231.082	467.97021
231.622	468.92264
232.163	471.97503
232.704	489.03212
233.244	479.01496
233.784	514.07383
234.324	412.77026
234.864	469.90355
235.404	483.98197
235.944	487.98514
236.484	526.11497
237.023	488.97745
237.563	472.92485
238.102	472.95065
238.641	487.05216
239.18	459.91022
239.719	469.00844
240.258	511.96555
240.797	522.04716
241.335	500.03945
241.874	497.78689
242.412	489.99508
242.95	500.00202
243.488	440.85725
244.026	514.99049
244.564	554.93372
245.102	531.9896
245.64	526.06833
246.177	563.04038
246.715	509.03162
247.252	436.85673
247.789	542.83578
248.326	514.02871
248.863	489.89414
249.4	523.99162
249.936	515.87243
250.473	490.95876
251.009	493.9434
251.546	540.98019
252.082	537.97053
252.618	483.89789
253.154	481.97256
253.69	498.93569
254.226	498.99701
254.761	455.86056
255.297	435.8018
255.832	493.97719
256.367	526.02895
256.903	511.92683
257.438	544.0587
257.972	514.9477
258.507	528.99402
259.042	506.90771
259.576	486.85972
260.111	534.02144
260.645	540.95828
261.179	540.03493
261.713	520.95108
262.247	585.09894
262.781	531.90297
263.315	505.02863
263.849	490.02587
264.382	540.02196
264.915	530.01818
265.449	513.02647
265.982	576.06632
266.515	558.11694
267.048	517.89055
267.58	598.05371
268.113	545.95184
268.646	506.03605
269.178	504.9218
269.71	568.00125
270.243	575.06526
270.775	509.0777
271.307	583.1474
271.838	603.16622
272.37	514.04629
272.902	543.00735
273.433	585.02242
273.965	538.07534
274.496	546.12063
275.027	581.17299
275.558	530.05393
276.089	466.94763
276.62	537.13213
277.15	574.15804
277.681	547.96138
278.211	524.06038
278.741	509.90723
279.272	552.01365
279.802	533.09464
280.332	532.0176
280.861	539.05717
281.391	566.02585
281.921	570.11414
282.45	584.18581
282.98	554.18567
283.509	544.98394
284.038	584.05909
284.567	607.13307
285.096	586.13735
285.625	565.02169
286.153	557.04469
286.682	594.07288
287.21	594.13754
287.739	577.08654
288.267	539.04969
288.795	565.21263
289.323	556.03075
289.851	591.0966
290.378	578.02211
290.906	558.07311
291.433	590.17347
291.961	560.99946
292.488	620.22064
293.015	553.02901
293.542	583.17165
294.069	623.19865
294.596	603.18349
295.122	617.14949
295.649	625.0621
296.175	652.23137
296.702	635.2036
297.228	673.26769
297.754	658.12406
298.28	626.08821
298.806	616.14791
299.332	644.07413
299.857	622.07154
300.383	685.34282
300.908	557.05189
301.433	615.15143
301.958	635.12694
302.483	627.20462
303.008	678.28432
303.533	666.34704
304.058	676.21013
304.582	634.13304
305.107	578.17734
305.631	711.20799
306.155	662.15095
306.679	655.14266
307.203	687.18033
307.727	635.13804
308.251	658.23119
308.775	676.18217
309.298	601.08251
309.822	707.33381
310.345	735.26975
310.868	692.21721
311.391	770.38376
311.914	710.31035
312.437	756.2394
312.96	701.19802
313.482	726.23986
314.005	696.28575
314.527	745.43106
315.049	727.34816
315.571	708.10058
316.093	801.40244
316.615	749.27821
317.137	814.1969
317.659	788.35325
318.18	814.37194
318.702	826.30792
319.223	840.12283
319.744	816.22483
320.265	837.36995
320.786	812.36559
321.307	845.4255
321.828	865.27961
322.348	818.28333
322.869	837.29467
323.389	607.63107
323.909	874.29652
324.43	912.44297
324.95	833.22683
325.47	868.38019
325.989	854.28365
326.509	829.12975
327.029	970.30032
327.548	889.21118
328.067	918.3588
328.587	960.48446
329.106	938.26878
329.625	1013.68033
330.144	917.25852
330.662	926.26148
331.181	998.35049
331.7	1007.3525
332.218	1076.24443
332.736	1004.3338
333.255	1053.3489
333.773	1040.36639
334.291	1117.56484
334.808	1051.23197
335.326	1115.30014
335.844	1101.31025
336.361	1066.45737
336.879	1107.30407
337.396	1090.35525
337.913	1112.26267
338.43	1211.26706
338.947	1212.38402
339.464	1210.13339
339.981	1180.31871
340.497	1197.43624
341.014	1206.38431
341.53	1229.20292
342.046	1267.40826
342.562	1282.47176
343.078	1263.29273
343.594	1236.30566
344.11	1361.34519
344.626	1349.46665
345.141	1293.18156
345.657	1388.22264
346.172	1329.31175
346.687	1331.177
347.202	1370.12138
347.717	1400.27454
348.232	1434.40071
348.747	1389.1491
349.261	1424.98066
349.776	1399.17897
350.29	1418.25676
350.805	1533.35157
351.319	1493.15057
351.833	1428.02202
352.347	1435.11998
352.861	1459.08324
353.374	1576.10148
353.888	1515.18735
354.401	1493.03199
354.915	1546.92121
355.428	1543.19563
355.941	1605.00858
356.454	1680.96318
356.967	1647.06407
357.48	1655.9827
357.993	1646.14811
358.505	1631.08775
359.018	1756.09263
359.53	1810.0058
360.042	1823.80185
360.554	1726.03134
361.066	1678.00797
361.578	1743.71871
362.09	1689.93954
362.602	1686.7093
363.113	1846.80364
363.625	1813.70538
364.136	1912.62985
364.647	1834.67177
365.158	1976.70542
365.669	1863.79974
366.18	1969.71896
366.691	1950.53171
367.201	1806.74384
367.712	1926.5496
368.222	1936.54063
368.733	1908.36613
369.243	1993.35294
369.753	2073.4448
370.263	2150.47667
370.773	2050.57321
371.282	2101.38493
371.792	1972.2078
372.301	2151.2807
372.811	2158.48719
373.32	2082.88997
373.829	2060.07147
374.338	2343.75229
374.847	2386.72372
375.356	2395.71666
375.865	2555.29266
376.373	2673.28464
376.882	2802.45468
377.39	2788.27555
377.898	2732.17127
378.407	2910.87921
378.915	3050.74213
379.423	3176.71427
379.93	3381.58476
380.438	3425.56091
380.946	3555.54648
381.453	3707.58648
381.96	3732.70834
382.468	4024.18129
382.975	4444.58978
383.482	4556.26227
383.989	4393.7543
384.495	4680.10416
385.002	4801.90409
385.509	5194.07687
386.015	5467.74978
386.521	5720.86107
387.028	6030.10635
387.534	6115.35329
388.04	6429.71644
388.546	6251.50962
389.051	6486.74994
389.557	6990.87513
390.063	8156.30611
390.568	8298.67156
391.073	8099.14097
391.578	8681.78919
392.084	8813.97581
392.589	8569.61283
393.093	9074.26026
393.598	10060.16915
394.103	11166.63651
394.607	12358.27947
395.112	13350.65253
395.616	14058.24233
396.12	14756.83646
396.624	16051.26979
397.128	17391.12496
397.632	19907.496
398.136	21402.79132
398.639	20906.60621
399.143	22282.58444
399.646	25384.09779
400.15	24099.01981
400.653	19868.98225
401.156	13866.23708
401.659	5169.95759
402.162	1054.15589
402.664	0
403.167	0
403.67	0
404.172	0
404.674	0
405.176	0
405.678	0
406.18	0
406.682	0
407.184	0
407.686	0
408.187	0
408.688	0
409.19	0
409.691	0
410.192	0
410.693	0
411.194	435.30976
411.694	4082.94878
412.195	8864.71461
412.696	12089.80453
413.196	12760.96929
413.696	12863.67595
414.196	13703.56671
414.696	17261.84252
415.196	21764.24417
415.696	29583.19008
416.196	36460.31858
416.695	37253.65652
417.195	29297.85194
417.694	27489.36158
418.194	26385.33418
418.693	23802.82819
419.192	22770.23108
419.691	22409.79479
420.19	22384.10719
420.688	21909.86496
421.187	21621.18231
421.685	20815.74103
422.184	19126.31628
422.682	16720.10614
423.18	13308.27572
423.678	11498.76978
424.176	10614.25225
424.674	10153.04747
425.172	9783.89541
425.669	9353.37125
426.167	8944.34342
426.664	8048.70662
427.161	7284.77544
427.659	6601.50051
428.156	6228.1346
428.652	5791.44742
429.149	5511.40147
429.646	5459.13954
430.143	5171.41249
430.639	4678.444
431.135	4536.94839
431.632	4274.77288
432.128	3960.54094
432.624	3637.54628
433.12	3369.56219
433.616	3340.57187
434.111	3119.68132
434.607	3023.79802
435.103	3024.76571
435.598	3078.76782
436.093	3034.04345
436.588	2887.15591
437.083	2612.4116
437.578	2503.59209
438.073	2245.89433
438.568	2349.9999
439.062	2310.72561
439.557	2197.11412
440.051	2137.05286
440.546	2016.1389
441.04	1932.34292
441.534	1898.56317
442.028	1956.46282
442.522	1789.51076
443.015	1749.34469
443.509	1756.64953
444.002	1742.65781
444.496	1711.4278
444.989	1651.72232
445.482	1653.77111
445.975	1559.54272
446.468	1527.47697
446.961	1572.48209
447.454	1589.62501
447.947	1444.71483
448.439	1501.83653
448.931	1419.64219
449.424	1427.95705
449.916	1517.8752
450.408	1427.68991
450.9	1312.8482
451.392	1320.96158
451.884	1341.80032
452.375	1259.92112
452.867	1229.79771
453.358	1187.75323
453.849	1237.67121
454.341	1250.79041
454.832	1195.70521
455.323	1164.93488
455.814	1200.86402
456.304	1140.86083
456.795	1119.84946
457.285	1210.87049
457.776	1192.93322
458.266	1082.92867
458.756	1045.96689
459.247	1031.9224
459.737	983.90793
460.226	985.82774
460.716	954.92868
461.206	938.94749
461.695	905.01962
462.185	906.92171
462.674	975.94084
463.163	889.83704
463.653	919.78043
464.142	800.9057
464.63	853.9959
465.119	834.88596
465.608	836.89236
466.096	870.86065
466.585	875.96679
467.073	805.9752
467.561	749.93652
468.05	798.93927
468.538	813.04599
469.026	785.98449
469.513	695.74131
470.001	753.88441
470.489	768.96139
470.976	770.94637
471.463	677.97185
471.951	737.05842
472.438	645.86473
472.925	646.86063
473.412	640.94773
473.899	634.85699
474.385	599.90397
474.872	570.80391
475.359	594.89453
475.845	565.68948
476.331	585.77632
476.817	578.89871
477.303	594.86183
477.789	475.75463
478.275	479.78945
478.761	463.74866
479.247	529.77048
479.732	444.75067
480.218	446.80828
480.703	456.78102
481.188	435.62365
481.673	449.6998
482.158	413.58392
482.643	432.78769
483.128	378.60165
483.612	410.67548
484.097	450.78689
484.581	416.69071
485.066	365.64444
485.55	347.54327
486.034	333.51771
486.518	257.44922
487.002	312.56626
487.486	339.61449
487.969	350.63394
488.453	351.67002
488.936	309.51938
489.42	388.62999
489.903	305.59379
490.386	-176.24425
490.869	359.58469
491.352	352.66427
491.835	373.57179
492.318	349.59304
492.8	291.45716
493.283	289.5747
493.765	266.51404
494.247	304.55736
494.73	280.48079
495.212	284.5462
495.694	274.50058
496.175	238.44383
496.657	311.5807
497.139	357.46678
497.62	234.43962
498.102	208.4172
498.583	276.55615
499.064	253.44503
499.545	225.41282
500.026	307.53947
500.507	298.54911
500.988	311.61874
501.469	280.56291
501.949	324.64235
502.43	315.59079
502.91	307.49492
503.39	394.78332
503.87	370.68043
504.35	433.79892
504.83	432.72363
505.31	438.82496
505.79	409.76371
506.269	523.93267
506.749	466.81402
507.228	518.92256
507.707	684.08987
508.187	713.24932
508.666	685.23605
509.145	681.15877
509.623	812.34779
510.102	901.52603
510.581	1028.688
511.059	1016.73492
511.538	1133.98147
512.016	1272.91507
512.494	1352.04042
512.972	1427.04845
513.45	1513.9928
513.928	1695.28654
514.406	1764.27312
514.884	1890.64188
515.361	2052.42797
515.839	2125.24615
516.316	2336.52691
516.793	2348.79934
517.27	2474.62011
517.747	2542.88553
518.224	2639.39496
518.701	2672.2098
519.178	2678.69984
519.654	2773.54681
520.131	2708.72392
520.607	2772.76728
521.083	2692.33071
521.56	2734.49544
522.036	2626.17758
522.512	2610.75079
522.987	2452.49513
523.463	2390.52174
523.939	2233.65173
524.414	2285.40555
524.89	2136.47339
525.365	2124.27587
525.84	1942.37301
526.315	1876.42091
526.79	1815.16312
527.265	1770.18013
527.74	1617.31053
528.215	1568.16963
528.689	1499.93086
529.164	1431.84572
529.638	1425.34201
530.112	1263.90992
530.587	1268.66459
531.061	1219.9264
531.534	1172.90957
532.008	1081.77293
532.482	1112.71473
532.956	978.77466
533.429	958.65046
533.903	996.51701
534.376	934.44155
534.849	899.49062
535.322	866.48123
535.795	788.43719
536.268	779.39173
536.741	770.38376
537.213	693.21293
537.686	667.24283
538.158	671.12758
538.631	713.32346
539.103	602.03313
539.575	708.09353
540.047	572.97563
540.519	603.1267
540.991	543.05901
541.463	543.04295
541.934	512.92888
542.406	486.92708
542.877	518.92352
543.348	573.09169
543.82	500.98898
544.291	475.89444
544.762	467.88888
545.233	425.86997
545.703	429.76103
546.174	525.96532
546.645	409.78908
547.115	437.8508
547.585	454.83704
548.056	379.74138
548.526	444.83174
548.996	451.87137
549.466	500.97462
549.935	393.74729
550.405	435.75124
550.875	442.83209
551.344	408.78847
551.814	394.72749
552.283	456.78144
552.752	487.88193
553.221	381.65445
553.69	469.81085
554.159	423.82393
554.628	407.71486
555.096	431.87067
555.565	477.82732
556.033	477.89027
556.502	457.88635
556.97	402.71887
557.438	425.81759
557.906	438.84686
558.374	364.69096
558.842	414.81234
559.31	371.68794
559.777	366.73478
560.245	445.85978
560.712	442.84109
561.18	391.71201
561.647	370.68831
562.114	409.76825
562.581	514.03108
563.048	495.93028
563.514	419.85303
563.981	460.86555
564.448	498.90669
564.914	550.0323
565.381	592.07363
565.847	588.10214
566.313	601.11519
566.779	651.15002
567.245	659.2115
567.711	637.20799
568.176	701.21088
568.642	746.44916
569.108	816.52443
569.573	864.5261
570.038	885.35241
570.504	920.49245
570.969	941.74759
571.434	933.46576
571.899	970.67386
572.363	1020.64606
572.828	1109.76471
573.293	1102.75402
573.757	1165.82375
574.222	1170.75102
574.686	1213.80005
575.15	1276.01314
575.614	1232.88209
576.078	1291.99551
576.542	1336.96676
577.006	1369.96392
577.469	1442.31613
577.933	1332.905
578.396	1389.13599
578.86	1445.15953
579.323	1358.10195
579.786	1463.92599
580.249	1409.02233
580.712	1409.2405
581.175	1399.25096
581.637	1500.15518
582.1	1457.9871
582.563	1489.9542
583.025	1355.15765
583.487	1403.72121
583.95	1404.86883
584.412	1478.88213
584.874	1362.17441
585.336	1375.11922
585.797	1410.9042
586.259	1341.08929
586.721	1254.97581
587.182	1326.06156
587.643	1290.94006
588.105	1242.99496
588.566	1287.75728
589.027	1229.01241
589.488	1269.93046
589.949	1187.99723
590.41	1171.48311
590.87	1111.77899
591.331	1113.66068
591.791	1071.74283
592.252	1031.67185
592.712	1069.83793
593.172	1015.63105
593.632	1042.61847
594.092	1041.6447
594.552	1009.54009
595.011	941.57337
595.471	987.58946
595.931	954.54174
596.39	882.57822
596.849	933.59745
597.308	863.39143
597.768	836.62427
598.227	874.58555
598.685	916.56114
599.144	815.44721
599.603	825.48547
600.062	787.23703
600.52	806.35253
600.978	795.44304
601.437	753.32926
601.895	766.22862
602.353	789.33077
602.811	664.15443
603.269	802.46721
603.727	744.38008
604.184	661.16408
604.642	679.31223
605.099	691.25326
605.557	703.34571
606.014	644.08179
606.471	605.20643
606.928	666.09936
607.385	636.21754
607.842	759.32524
608.299	731.31856
608.755	684.29192
609.212	694.19016
609.668	621.07522
610.125	678.2912
610.581	711.33285
611.037	702.26324
611.493	590.13204
611.949	498.99009
612.405	541.87242
612.861	590.13204
613.316	478.95033
613.772	580.08069
614.227	453.8958
614.683	560.97986
615.138	479.93435
615.593	507.97676
616.048	533.00844
616.503	525.07576
616.958	433.92162
617.412	504.99549
617.867	419.78316
618.321	503.86642
618.776	478.89014
619.23	406.81772
619.684	458.88002
620.138	479.94588
620.592	446.9272
621.046	434.87693
621.5	401.84424
621.954	392.76917
622.407	434.8331
622.861	366.77954
623.314	444.87245
623.768	383.78045
624.221	369.63586
624.674	354.71988
625.127	341.70783
625.58	353.71637
626.033	404.78523
626.485	285.61376
626.938	346.73471
627.39	332.69145
627.843	334.69283
628.295	297.62145
628.747	347.73924
629.199	290.59888
629.651	282.58314
630.103	280.58497
630.555	333.63658
631.006	339.71906
631.458	266.57666
631.909	332.69545
632.361	255.55034
632.812	240.51408
633.263	318.62692
633.714	277.54904
634.165	260.58574
634.616	240.53272
635.067	269.55638
635.518	280.62046
635.968	339.62451
636.419	282.57059
636.869	282.62464
637.319	183.4019
637.769	239.50209
638.219	244.54925
638.669	161.36695
639.119	253.58057
639.569	192.44069
640.019	247.53924
640.468	228.48289
640.918	212.4862
641.367	183.3936
641.816	197.42152
642.265	208.45901
642.714	191.42335
643.163	219.47994
643.612	162.37333
644.061	166.33865
644.51	200.43599
644.958	166.3522
645.406	196.44897
645.855	149.35355
646.303	200.44929
646.751	118.26182
647.199	199.43482
647.647	193.42689
648.095	176.38937
648.543	203.4018
648.99	189.43442
649.438	217.48998
649.885	201.4784
650.333	159.30129
650.78	173.404
651.227	135.31996
651.674	200.43932
652.121	179.42129
652.568	160.37709
653.015	206.50204
653.461	147.34059
653.908	164.3719
654.354	168.39024
654.801	129.29616
655.247	200.42581
655.693	180.45449
656.139	179.41669
656.585	151.35387
657.031	140.31902
657.477	137.29073
657.922	159.35741
658.368	181.43444
658.813	215.48487
659.259	187.43583
659.704	160.36445
660.149	157.35812
660.594	174.40306
661.039	150.33559
661.484	212.49185
661.929	191.4355
662.373	142.35111
662.818	152.36962
663.262	146.34516
663.707	156.38728
664.151	160.38353
664.595	137.32545
665.039	164.40029
665.483	140.3506
665.927	200.45997
666.371	72.16639
666.814	175.41027
667.258	81.19102
667.701	216.45627
668.145	204.49568
668.588	118.28726
669.031	99.23165
669.474	171.40481
669.917	207.44943
670.36	143.35027
670.803	196.46372
671.245	193.40062
671.688	170.40858
672.13	135.3006
672.573	204.50698
673.015	162.38403
673.457	146.31612
673.899	193.45918
674.341	175.41604
674.783	149.35341
675.225	149.36239
675.666	127.30298
676.108	174.37432
676.549	180.42076
676.991	156.34181
677.432	129.25772
677.873	108.25038
678.314	169.39884
678.755	145.34989
679.196	169.383
679.637	165.39905
680.078	203.46771
680.518	160.37063
680.959	156.37052
681.399	169.4138
681.839	143.34584
682.28	139.34047
682.72	163.37001
683.16	163.40118
683.6	185.41773
684.039	144.30045
684.479	133.32469
684.919	100.2311
685.358	156.39221
685.798	130.33828
686.237	145.34909
686.676	193.4429
687.115	158.3689
687.554	174.40896
687.993	200.4371
688.432	132.30165
688.871	115.26169
689.309	153.36304
689.748	146.30611
690.186	207.48699
690.625	140.32713
691.063	120.28776
691.501	159.38989
691.939	148.36634
692.377	123.2996
692.815	147.34961
693.253	173.41239
693.69	101.22396
694.128	110.26669
694.565	116.27721
695.003	150.3778
695.44	156.36452
695.877	125.29191
696.314	201.42803
696.751	176.39895
697.188	125.28755
697.625	212.48035
698.061	110.26448
698.498	169.40579
698.934	155.37119
699.371	118.27811
699.807	139.32817
700.243	119.2865
700.679	169.38067
701.115	176.41141
701.551	151.35442
701.987	191.42564
702.422	145.343
702.858	127.30251
703.294	123.27978
703.729	135.32957
704.164	160.3825
704.599	142.31638
705.035	114.25631
705.47	141.34139
705.904	141.32772
706.339	185.42675
706.774	152.35447
707.209	133.30656
707.643	159.37946
708.078	127.30889
708.512	122.30431
708.946	144.34425
709.38	171.40199
709.814	125.28663
710.248	142.34491
710.682	147.34813
711.116	138.32777
711.549	145.3718
711.983	126.29153
712.416	149.35123
712.85	130.32332
713.283	144.33978
713.716	184.45695
714.149	198.4661
714.582	155.34699
715.015	153.38087
715.448	129.32439
715.881	227.48886
716.313	141.32966
716.746	145.34008
717.178	145.34711
717.61	155.39019
718.043	152.37652
718.475	121.29341
718.907	188.47011
719.339	87.19893
719.77	145.34207
720.202	139.34979
720.634	126.30594
721.065	128.30331
721.497	141.34422
721.928	93.22924
722.359	144.34518
722.79	117.28019
723.221	150.37523
723.652	210.53269
724.083	108.24481
724.514	169.38549
724.945	125.29386
725.375	95.22159
725.806	156.38685
726.236	150.38172
726.666	172.40363
727.096	125.30641
727.526	107.27177
727.956	112.25543
728.386	164.40044
728.816	104.26326
729.246	91.22207
729.675	79.19559
730.105	164.40029
730.534	122.28574
730.964	132.33271
731.393	171.42102
731.822	132.3358
732.251	132.33366
732.68	185.43134
733.109	127.31223
733.537	114.27545
733.966	129.31937
734.395	142.32698
734.823	153.34407
735.251	108.26066
735.68	218.53604
736.108	153.38419
736.536	157.36808
736.964	159.36649
737.392	135.33643
737.82	169.40193
738.247	135.32255
738.675	169.40054
739.102	101.25261
739.53	104.26476
739.957	119.30524
740.384	146.35848
740.811	173.43362
741.238	92.22548
741.665	79.18471
742.092	194.45704
742.519	68.16949
742.945	124.29735
743.372	123.30385
743.798	141.36015
744.225	136.32227
744.651	111.27843
745.077	122.30354
745.503	150.36366
745.929	93.22416
746.355	177.43547
746.781	115.28482
747.207	62.14692
747.632	33.08155
748.058	122.30376
748.483	165.37683
748.908	125.3097
749.334	127.31108
749.759	143.33552
750.184	106.25283
750.609	172.41809
751.033	152.3574
751.458	136.30477
751.883	139.34274
752.307	114.26847
752.732	95.23752
753.156	116.28609
753.58	158.37252
754.005	162.40715
754.429	100.23578
754.853	101.25042
755.277	133.31376
755.7	158.38837
756.124	88.21903
756.548	101.23994
756.971	154.37308
757.394	146.37312
757.818	128.32769
758.241	112.28361
758.664	108.27241
759.087	58.13105
759.51	138.34147
759.933	99.23862
760.356	112.28653
760.778	94.23166
761.201	104.25337
761.623	166.39882
762.046	145.34234
762.468	167.39733
762.89	137.33644
763.312	140.33993
763.734	112.26949
764.156	118.2907
764.578	113.26036
765	127.30877
765.421	71.18104
765.843	112.29274
766.264	157.37612
766.686	141.35176
767.107	97.23548
767.528	76.19245
767.949	104.2642
768.37	67.16558
768.791	107.25898
769.212	109.27302
769.632	70.16427
770.053	113.29641
770.473	126.30525
770.894	136.33849
771.314	139.33033
771.734	75.17597
772.154	159.40369
772.575	114.26418
772.994	91.20749
773.414	165.39197
773.834	115.28659
774.254	131.31885
774.673	109.26521
775.093	119.29321
775.512	73.1806
775.931	115.29043
776.351	104.25781
776.77	86.21062
777.189	142.33519
777.607	123.3123
778.026	132.3265
778.445	85.21283
778.864	152.38572
779.282	112.26878
779.701	116.29113
780.119	84.21241
780.537	124.3075
780.955	172.43135
781.373	107.26394
781.791	82.18497
782.209	159.36239
782.627	86.2264
783.045	107.24575
783.462	134.33944
783.88	76.19682
784.297	108.27066
784.715	77.19786
785.132	119.28661
785.549	104.25932
785.966	116.29018
786.383	119.29105
786.8	120.27742
787.217	136.31965
787.633	96.23902
788.05	135.31836
788.466	135.31601
788.883	91.23162
789.299	103.24742
789.715	139.33465
790.131	112.27714
790.547	102.25396
790.963	134.32962
791.379	104.26186
791.795	132.29897
792.21	133.30839
792.626	137.32207
793.041	116.28461
793.457	111.273
793.872	87.20461
794.287	79.18868
794.702	107.26258
795.117	107.26452
795.532	103.25696
795.947	140.33367
796.362	155.36552
796.776	161.37213
797.191	143.3461
797.605	39.09233
798.02	108.26154
798.434	119.26354
798.848	144.35043
799.262	102.25193
799.676	146.3521
800.09	92.22589
800.504	106.25612
800.918	89.20604
801.331	111.28929
801.745	114.26041
802.158	119.29526
802.572	120.28907
802.985	127.30449
803.398	118.27951
803.811	128.3262
804.224	121.29891
804.637	97.23035
805.05	114.26272
805.462	116.28313
805.875	68.17634
806.288	43.10439
806.7	102.25516
807.112	118.27172
807.525	135.32969
807.937	83.20489
808.349	75.18793
808.761	134.32621
809.173	152.36324
809.584	150.36585
809.996	78.19088
810.408	84.21626
810.819	84.19736
811.231	109.27969
811.642	89.21159
812.053	171.39917
812.464	241.55481
812.875	238.59038
813.286	164.41528
813.697	199.45465
814.108	129.3121
814.519	135.29761
814.929	149.37495
815.34	94.22721
815.75	105.26518
816.16	118.29177
816.571	128.32919
816.981	135.31526
817.391	119.28498
817.801	86.21304
818.211	105.24896
818.62	113.26999
819.03	138.33419
819.44	136.35122
819.849	133.33144
820.259	148.3737
820.668	99.24223
821.077	75.18609
821.486	138.3284
821.895	153.37254
822.304	103.27128
822.713	108.25365
823.122	129.31855
823.531	126.29569
823.939	79.19222
824.348	153.3664
824.756	146.36073
825.164	155.38416
825.573	103.25687
825.981	139.34047
826.389	102.25479
826.797	91.22703
827.205	100.22824
827.612	158.38363
828.02	70.1644
828.428	124.31266
828.835	77.20226
829.243	138.32473
829.65	104.25687
830.057	112.2697
830.464	136.32724
830.871	138.32625
831.278	119.28498
831.685	120.26526
832.092	124.30052
832.499	136.29358
832.905	86.217
833.312	132.29751
833.718	129.31785
834.124	104.23613
834.531	123.30697
834.937	119.30257
835.343	137.32633
835.749	162.37169
836.155	97.25254
836.561	82.20112
836.966	122.29534
837.372	131.32954
837.777	116.2863
838.183	69.15351
838.588	110.27089
838.993	147.35257
839.399	99.24052
839.804	34.08333
840.209	91.23048
840.613	80.17758
841.018	123.30819
841.423	80.2046
841.828	100.25124
842.232	179.43421
842.637	150.34816
843.041	75.19178
843.445	97.24182
843.849	71.17552
844.253	139.32575
844.657	137.3403
845.061	95.21434
845.465	73.17602
845.869	103.2376
846.272	68.16542
846.676	133.31753
847.079	64.16264
847.483	130.32038
847.886	90.21795
848.289	68.18118
848.692	78.19696
849.095	94.22447
849.498	207.51115
849.901	154.34695
850.304	94.22335
850.707	118.29785
851.109	122.30541
851.512	115.2798
851.914	78.1959
852.316	127.31741
852.718	50.12926
853.121	102.24804
853.523	121.27957
853.925	85.2207
854.326	106.26277
854.728	99.25279
855.13	84.21566
855.531	111.26268
855.933	113.26865
856.334	92.22798
856.736	96.21354
857.137	98.2262
857.538	92.2299
857.939	115.28116
858.34	109.26322
858.741	108.27988
859.142	96.22907
859.542	113.29531
859.943	139.34035
860.343	84.20701
860.744	141.33882
861.144	106.25631
861.544	61.14653
861.945	108.2728
862.345	137.33021
862.745	68.16869
863.145	187.43617
863.544	97.2434
863.944	104.24359
864.344	154.37588
864.743	103.25351
865.143	136.34451
865.542	68.15746
865.941	118.28887
866.34	129.30492
866.74	113.30043
867.139	96.22819
867.537	108.27271
867.936	110.26217
868.335	120.30192
868.734	120.30322
869.132	123.28215
869.531	143.34036
869.929	94.21273
870.327	70.16741
870.726	107.26442
871.124	115.26581
871.522	100.25278
871.92	102.24952
872.318	97.23539
872.715	136.33183
873.113	87.21081
873.511	90.22286
873.908	70.17625
874.306	106.26123
874.703	119.2944
875.1	108.27378
875.497	126.29811
875.894	67.16381
876.291	90.21951
876.688	59.15208
877.085	117.27752
877.482	136.33553
877.878	84.20113
878.275	112.28169
878.671	156.34037
879.068	128.30484
879.464	88.21143
879.86	46.10901
880.256	123.29983
880.652	72.18258
881.048	142.34633
881.444	151.3529
881.84	102.2571
882.236	104.25922
882.631	119.28867
883.027	134.31974
883.422	79.20115
883.817	62.1556
884.213	81.2069
884.608	82.20007
885.003	100.23907
885.398	134.3306
885.793	104.25875
886.188	59.14655
886.582	139.35129
886.977	157.36534
887.371	107.2681
887.766	87.21508
888.16	115.28388
888.554	131.31945
888.949	129.31961
889.343	97.23513
889.737	33.08823
890.131	83.20714
890.525	81.20617
890.918	95.23735
891.312	132.31122
891.706	106.27564
892.099	121.30427
892.492	108.23044
892.886	91.22116
893.279	84.21286
893.672	55.13999
894.065	105.26053
894.458	66.16564
894.851	133.32118
895.244	109.27567
895.637	77.18468
896.029	110.26619
896.422	121.29198
896.814	89.21986
897.206	58.13802
897.599	91.22356
897.991	85.20433
898.383	109.25485
898.775	96.21487
899.167	25.05864
899.559	121.30264
899.951	123.28611
900.342	120.3016
900.734	70.17315
901.125	99.25775
901.517	54.13254
901.908	145.34167
902.299	46.11261
902.69	98.22926
903.082	146.34743
903.473	93.22102
903.863	115.29022
904.254	85.19608
904.645	160.39023
905.036	84.2022
905.426	142.31939
905.817	98.23849
906.207	90.21294
906.597	74.17237
906.987	160.40702
907.378	90.22612
907.768	92.24162
908.158	97.2346
908.547	68.17519
908.937	118.29934
909.327	120.28776
909.717	134.33533
910.106	118.27994
910.495	152.37266
910.885	140.34908
911.274	107.26481
911.663	114.28621
912.052	118.28769
912.441	113.28426
912.83	85.19389
913.219	100.2596
913.608	94.2285
913.997	81.20201
914.385	123.28995
914.774	102.24608
915.162	74.17563
915.55	124.29599
915.939	63.15871
916.327	103.25473
916.715	62.15773
917.103	135.32724
917.491	107.26209
917.878	98.23893
918.266	67.1733
918.654	111.28063
919.041	71.18473
919.429	71.16698
919.816	117.29316
920.203	75.18112
920.591	74.18277
920.978	120.29017
921.365	105.273
921.752	130.30531
922.139	114.2443
922.525	66.15809
922.912	89.21557
923.299	77.1905
923.685	65.16917
924.072	116.26412
924.458	98.24072
924.844	98.24045
925.231	103.23732
925.617	42.107
926.003	94.23846
926.389	94.23532
926.774	101.25371
927.16	97.23892
927.546	61.15543
927.931	128.31498
928.317	139.31463
928.702	109.25505
929.088	106.24808
929.473	94.23736
929.858	37.08969
930.243	81.19331
930.628	124.29758
931.013	104.25526
931.398	110.25006
931.783	106.2765
932.167	71.17294
932.552	131.32349
932.937	149.3632
933.321	50.12549
933.705	113.28171
934.09	168.41569
934.474	118.2767
934.858	105.2698
935.242	127.28993
935.626	80.20373
936.009	82.21696
936.393	85.21498
936.777	90.22888
937.16	108.27824
937.544	133.30839
937.927	69.17451
938.311	103.24901
938.694	123.32133
939.077	57.1363
939.46	145.34989
939.843	175.35515
940.226	83.21171
940.609	92.20948
940.991	103.25976
941.374	89.21598
941.757	113.27566
942.139	97.21581
942.522	123.28668
942.904	105.24982
943.286	137.34277
943.668	62.16029
944.05	120.29181
944.432	114.27805
944.814	136.32972
945.196	53.1291
945.578	103.24233
945.959	87.20245
946.341	127.30738
946.722	118.27334
947.104	107.25301
947.485	123.28215
947.866	106.2644
948.247	74.18592
948.628	97.2346
949.009	97.24637
949.39	84.20785
949.771	138.31548
950.152	120.29071
950.532	21.05194
950.913	102.24366
951.293	50.13507
951.674	113.2701
952.054	70.17283
952.434	98.24116
952.814	131.30688
953.194	116.3002
953.574	133.32263
953.954	56.13286
954.334	94.23243
954.714	76.18433
955.093	129.31257
955.473	90.22343
955.853	100.25664
956.232	100.2719
956.611	146.34383
956.99	81.20245
957.37	101.25508
957.749	131.30772
958.128	96.23989
958.506	79.20392
958.885	75.18847
959.264	83.20217
959.643	53.12056
960.021	111.27199
960.4	107.23973
960.778	147.35565
961.156	111.27521
961.535	110.2534
961.913	132.30395
962.291	68.17391
962.669	80.20157
963.047	99.25047
963.424	97.2455
963.802	87.21247
964.18	122.30475
964.557	118.26813
964.935	159.36882
965.312	68.17653
965.69	153.37601
966.067	104.25072
966.444	126.30617
966.821	109.27812
967.198	123.29433
967.575	110.26749
967.952	94.21965
968.329	89.21501
968.705	142.29851
969.082	94.23922
969.458	43.10329
969.835	102.2459
970.211	91.23187
970.587	124.30458
970.963	91.23179
971.339	100.25888
971.715	115.28378
972.091	97.2368
972.467	110.27139
972.843	102.25073
973.219	128.30285
973.594	54.14115
973.97	142.33206
974.345	101.23938
974.721	127.30309
975.096	74.17826
975.471	105.24646
975.846	141.33289
976.221	109.2739
976.596	94.22344
976.971	106.25902
977.346	156.35563
977.72	89.22517
978.095	87.2234
978.469	115.27109
978.844	92.22956
979.218	55.13172
979.593	109.25824
979.967	79.19142
980.341	108.24581
980.715	99.24725
981.089	74.18445
981.463	96.21841
981.837	76.18481
982.21	133.30448
982.584	92.22045
982.957	52.1298
983.331	146.33874
983.704	133.32178
984.078	75.18398
984.451	108.26694
984.824	69.16744
985.197	111.26653
985.57	92.22898
985.943	136.33059
986.316	154.37111
986.688	96.22951
987.061	138.3179
987.434	97.25072
987.806	93.22374
988.179	82.19228
988.551	123.30797
988.923	78.19109
989.295	166.40607
989.667	31.07432
990.039	53.13088
990.411	75.17177
990.783	135.30558
991.155	47.11299
991.527	161.38835
991.898	106.26142
992.27	57.14081
992.641	132.32626
993.012	114.26491
993.384	81.19205
993.755	71.18034
994.126	102.24292
994.497	60.147
994.868	116.26295
995.239	85.20464
995.61	80.2002
995.98	88.21223
996.351	59.14586
996.722	79.18217
997.092	82.19296
997.462	67.15597
997.833	122.28518
998.203	140.33367
998.573	99.2443
998.943	80.18649
999.313	83.19763
999.683	75.17913
1000.053	118.26781
1000.423	79.19092
1000.792	95.24428
1001.162	113.27484
1001.531	93.22746
1001.901	95.23486
1002.27	89.19735
1002.639	125.31512
1003.009	81.19146
1003.378	70.17833
1003.747	128.2978
1004.116	82.19499
1004.485	130.30591
1004.853	109.27321
1005.222	95.23761
1005.591	116.2719
1005.959	46.10372
1006.328	38.08572
1006.696	87.20835
1007.064	110.27368
1007.433	110.27189
1007.801	121.29308
1008.169	97.24287
1008.537	134.2915
1008.905	86.1989
1009.273	126.30685
1009.64	90.21302
1010.008	74.17556
1010.375	160.38046
1010.743	135.30645
1011.11	90.21129
1011.478	89.21865
1011.845	104.24196
1012.212	88.19761
1012.579	139.33554
1012.946	103.24261
1013.313	160.37269
1013.68	105.23332
1014.047	44.10495
1014.414	49.11573
1014.78	57.14143
1015.147	120.28633
1015.513	60.14426
1015.88	126.31781
1016.246	118.28759
1016.612	151.33859
1016.978	126.30433
1017.344	92.22556
1017.71	133.31923
1018.076	108.25177
1018.442	114.28991
1018.808	70.17429
1019.174	37.09301
1019.539	202.4508
1019.905	75.17597
1020.27	61.15019
1020.636	115.27225
1021.001	98.23241
1021.366	86.20505
1021.731	113.28731
1022.096	90.22531
1022.461	112.26181
1022.826	113.26523
1023.191	103.26771
1023.556	117.27054
1023.92	126.30536
1024.285	95.22985
1024.649	150.36065
1025.014	103.25258
1025.378	87.21721
1025.742	112.2749
1026.107	143.31722
1026.471	136.31204
1026.835	109.26719
1027.199	86.20552
1027.562	97.22332
1027.926	86.20882
1028.29	81.20376
1028.654	126.28538
1029.017	115.27918
1029.381	104.24578
1029.744	86.21785
1030.107	159.36809
1030.471	140.32931
1030.834	116.26027
1031.197	171.40231
1031.56	63.14822
1031.923	60.15479
1032.286	132.30492
1032.648	90.21352
1033.011	119.26925
1033.374	111.25769
1033.736	87.22721
1034.099	102.24608
1034.461	100.25025
1034.823	79.19559
1035.185	99.2469
1035.548	83.20066
1035.91	111.26268
1036.272	122.27351
1036.634	140.33661
1036.995	120.27809
1037.357	84.20297
1037.719	114.27379
1038.08	122.28552
1038.442	114.26711
1038.803	94.22369
1039.165	79.19823
1039.526	96.22986
1039.887	90.2136
1040.248	72.17659
1040.609	138.33532
1040.97	59.14388
1041.331	92.23106
1041.692	65.1512
1042.053	111.24952
1042.413	113.25994
1042.774	141.33689
1043.134	149.34782
1043.495	108.26851
1043.855	101.24252
1044.215	115.2819
1044.576	77.18306
1044.936	132.29751
1045.296	127.31235
1045.656	104.25252
1046.016	133.31583
1046.375	62.14998
1046.735	35.07955
1047.095	101.23392
1047.454	111.23196
1047.814	104.2473
1048.173	153.35814
1048.533	96.21779
1048.892	93.22127
1049.251	136.3359
1049.61	108.26292
1049.969	97.22643
1050.328	68.14679
1050.687	54.13122
1051.046	140.33495
1051.405	125.30652
1051.763	62.14214
1052.122	74.18365
1052.48	95.23088
1052.839	100.23284
1053.197	132.30553
1053.555	152.33922
1053.914	149.3575
1054.272	82.19694
1054.63	57.1391
1054.988	83.19581
1055.345	73.15634
1055.703	146.34476
1056.061	59.15145
1056.419	90.23122
1056.776	138.3289
1057.134	80.18399
1057.491	94.23336
1057.848	118.28995
1058.206	95.22133
1058.563	99.21587
1058.92	162.36483
1059.277	99.24187
1059.634	136.31441
1059.991	101.23947
1060.348	94.21039
1060.704	113.26586
1061.061	179.40501
1061.418	68.16424
1061.774	101.24685
1062.131	61.16088
1062.487	95.22002
1062.843	108.26626
1063.199	106.26075
1063.555	104.23824
1063.911	102.25507
1064.267	143.29193
1064.623	106.25457
1064.979	140.32572
1065.335	128.3012
1065.691	108.25582
1066.046	141.30392
1066.402	95.21373
1066.757	98.24507
1067.112	111.26916
1067.468	23.05456
1067.823	142.33519
1068.178	76.1828
1068.533	100.23998
1068.888	132.31025
1069.243	75.18412
1069.598	129.30857
1069.952	37.08348
1070.307	104.2547
1070.662	39.09272
1071.016	7.01581
1071.371	146.32543
1071.725	92.21818
1072.079	97.23105
1072.434	46.11178
1072.788	98.23106
1073.142	116.28166
1073.496	82.19319
1073.85	74.17067
1074.203	122.29177
1074.557	76.20108
1074.911	131.3076
1075.265	93.21419
1075.618	120.28896
1075.971	85.20068
1076.325	37.09418
1076.678	64.14584
1077.031	112.25006
1077.385	91.19859
1077.738	88.19696
1078.091	76.17179
1078.444	109.24994
1078.796	73.17821
1079.149	105.25834
1079.502	46.10867
1079.855	101.23299
1080.207	51.12553
1080.56	81.20806
1080.912	101.24335
1081.264	108.25701
1081.617	71.17223
1081.969	56.141
1082.321	88.21319
1082.673	72.16347
1083.025	103.24167
1083.377	140.29444
1083.728	107.24663
1084.08	54.1346
1084.432	83.19877
1084.783	134.30856
1085.135	106.26277
1085.486	59.13464
1085.838	105.25576
1086.189	84.20243
1086.54	124.29168
1086.891	55.13885
1087.242	65.15768
1087.593	96.23152
1087.944	127.28267
1088.295	135.30135
1088.646	95.22811
1088.996	54.12989
1089.347	85.20705
1089.698	57.13442
1090.048	94.24209
1090.398	45.10439
1090.749	99.23446
1091.099	56.14055
1091.449	108.26596
1091.799	111.27461
1092.149	51.12423
1092.499	99.23907
1092.849	93.23437
1093.199	114.28219
1093.548	58.13903
1093.898	79.19645
1094.248	107.27196
1094.597	18.04616
1094.947	80.21216
1095.296	83.20353
1095.645	101.26016
1095.994	129.30492
1096.343	76.19019
1096.692	48.12602
1097.041	58.15669
1097.39	106.26296
1097.739	104.26756
1098.088	103.27329
1098.437	42.11038
1098.785	139.36893
1099.134	120.31462
1099.482	112.30472
1099.83	101.26287
1100.179	51.13287
1100.527	77.20349
1100.875	35.09268
1101.223	63.16677
1101.571	90.24691
1101.919	51.1331
1102.267	68.19074
1102.615	0
1102.962	17.05469
1103.31	9.02891
1103.658	20.06435
