Data from N2 R14 sample 2_Subt2__4__14-27-22-585.txt Node

Date: Tue Sep 02 14:27:22 PDT 2025
User: uwsun
Spectrometer: HDX01956
Trigger mode: 0
Integration Time (sec): 5.000000E-1
Scans to average: 1
Nonlinearity correction enabled: true
Boxcar width: 0
Storing dark spectrum: false
XAxis mode: Wavelengths
Number of Pixels in Spectrum: 2068
>>>>>Begin Spectral Data<<<<<
194.03	-91.25897
194.578	-88.28126
195.127	-82.25816
195.676	-82.25893
196.225	-23.06125
196.773	-56.1549
197.321	-73.19826
197.87	-73.18305
198.418	-121.3022
198.966	-144.36321
199.513	-157.37884
200.061	-148.36231
200.609	-87.22238
201.156	-119.25044
201.704	-144.3503
202.251	-136.34756
202.798	-137.34376
203.345	-63.14932
203.892	-162.39629
204.438	-112.25883
204.985	-141.32124
205.532	-140.35539
206.078	-99.23355
206.624	-113.26637
207.17	-61.13538
207.716	-114.26575
208.262	-111.2127
208.808	-169.40147
209.354	-146.34316
209.899	-75.18235
210.445	-174.41883
210.99	-136.31566
211.535	-48.10766
212.08	-117.26322
212.625	-111.26795
213.17	-86.20921
213.715	-167.35934
214.259	-61.136
214.804	-103.24572
215.348	-102.22538
215.892	-77.17713
216.436	-50.11103
216.98	-80.17092
217.524	-110.25076
218.068	-104.25271
218.612	-85.20604
219.155	-102.23159
219.698	-84.19258
220.242	-79.19006
220.785	-69.15511
221.328	-92.22129
221.871	-95.23339
222.414	-83.19975
222.956	-121.28168
223.499	-68.1473
224.041	-64.14407
224.583	-38.07918
225.126	-74.15742
225.668	-120.28271
226.21	-106.25738
226.751	-106.22401
227.293	-69.15217
227.835	-95.22351
228.376	-38.08428
228.918	-64.15552
229.459	-93.22246
230	-83.19025
230.541	-70.15545
231.082	-108.25305
231.622	-73.16221
232.163	-129.30279
232.704	-115.27519
233.244	-126.30261
233.784	-39.09158
234.324	-145.30851
234.864	-81.17669
235.404	-77.17649
235.944	-91.20841
236.484	-27.06422
237.023	-68.1537
237.563	-114.25431
238.102	-76.17235
238.641	-75.18173
239.18	-117.26322
239.719	-92.22196
240.258	-30.06421
240.797	-111.25555
241.335	-54.12628
241.874	-60.11033
242.412	-84.19319
242.95	-166.38438
243.488	-71.15514
244.026	-136.30301
244.564	-76.15018
245.102	-83.17829
245.64	-90.20873
246.177	-77.16533
246.715	-104.24063
247.252	-86.18979
247.789	-16.02876
248.326	-102.23356
248.863	-101.21228
249.4	-50.10808
249.936	-99.19577
250.473	-123.27558
251.009	-137.30214
251.546	-111.23494
252.082	-76.15892
252.618	-90.1912
253.154	-107.24545
253.69	-94.2024
254.226	-125.28628
254.761	-133.28779
255.297	-131.27581
255.832	-122.27655
256.367	-137.31048
256.903	-108.22684
257.438	-97.21787
257.972	-62.13085
258.507	-166.36587
259.042	-95.19685
259.576	-107.21864
260.111	-98.21645
260.645	-83.17121
261.179	-124.27616
261.713	-148.31647
262.247	-94.2064
262.781	-151.30434
263.315	-141.32979
263.849	-126.30007
264.382	-85.18573
264.915	-138.30823
265.449	-175.40642
265.982	-93.20123
266.515	-130.30198
267.048	-130.2628
267.58	-79.16413
268.113	-138.2846
268.646	-107.24978
269.178	-116.24547
269.71	-93.19262
270.243	-113.24566
270.775	-137.33133
271.307	-105.24038
271.838	-85.1917
272.37	-102.23703
272.902	-130.28208
273.433	-137.28553
273.965	-131.30279
274.496	-121.28601
275.027	-142.33454
275.558	-131.30099
276.089	-225.52934
276.62	-149.36171
277.15	-106.24749
277.681	-58.11816
278.211	-83.19154
278.741	-131.27229
279.272	-143.30903
279.802	-93.21821
280.332	-139.3095
280.861	-95.21451
281.391	-155.33309
281.921	-124.28257
282.45	-112.26376
282.98	-142.34982
283.509	-141.29974
284.038	-177.38381
284.567	-71.15501
285.096	-106.23999
285.625	-167.35903
286.153	-161.35596
286.682	-160.34524
287.21	-158.358
287.739	-143.31736
288.267	-177.4039
288.795	-129.31844
289.323	-189.41612
289.851	-127.27821
290.378	-170.35989
290.906	-203.46248
291.433	-140.3261
291.961	-177.37627
292.488	-154.35871
293.015	-145.3171
293.542	-158.37208
294.069	-172.39463
294.596	-132.30432
295.122	-186.41613
295.649	-99.20155
296.175	-149.33699
296.702	-127.28583
297.228	-121.27266
297.754	-176.36884
298.28	-151.31708
298.806	-212.47683
299.332	-211.43564
299.857	-152.31658
300.383	-148.34745
300.908	-218.49053
301.433	-191.42934
301.958	-141.30118
302.483	-191.43971
303.008	-146.33256
303.533	-157.37755
304.058	-172.37575
304.582	-250.54961
305.107	-253.613
305.631	-150.31477
306.155	-233.502
306.679	-213.45753
307.203	-211.4505
307.727	-202.44073
308.251	-195.44228
308.775	-211.45597
309.298	-248.54475
309.822	-201.46403
310.345	-203.43906
310.868	-223.48706
311.391	-147.32677
311.914	-265.60908
312.437	-231.48421
312.96	-246.52853
313.482	-248.53558
314.005	-248.56693
314.527	-262.6256
315.049	-239.55043
315.571	-234.46544
316.093	-216.48005
316.615	-267.58142
317.137	-235.4586
317.659	-198.43053
318.18	-174.37287
318.702	-253.52657
319.223	-227.41334
319.744	-249.49562
320.265	-275.59146
320.786	-316.69644
321.307	-291.6439
321.828	-286.57417
322.348	-292.60761
322.869	-300.62119
323.389	-203.28254
323.909	-307.62188
324.43	-245.51832
324.95	-274.54271
325.47	-299.63644
325.989	-270.54531
326.509	-360.6857
327.029	-316.60833
327.548	-345.664
328.067	-325.66648
328.587	-315.67195
329.106	-388.75917
329.625	-320.72767
330.144	-368.72072
330.662	-371.7247
331.181	-335.65655
331.7	-382.75451
332.218	-372.67105
332.736	-371.7247
333.255	-394.76288
333.773	-391.76776
334.291	-384.80117
334.808	-388.70494
335.326	-420.77862
335.844	-439.82623
336.361	-457.94224
336.879	-458.86136
337.396	-431.83193
337.913	-446.81693
338.43	-462.82534
338.947	-473.8968
339.464	-436.72074
339.981	-521.97819
340.497	-507.99742
341.014	-511.97974
341.53	-515.89847
342.046	-496.94157
342.562	-518.01039
343.078	-516.93375
343.594	-506.92546
344.11	-507.9177
344.626	-541.0416
345.141	-498.84293
345.657	-502.85293
346.172	-510.91583
346.687	-582.99804
347.202	-573.94712
347.717	-524.91587
348.232	-513.93993
348.747	-605.01806
349.261	-662.03486
349.776	-599.01946
350.29	-675.21176
350.805	-619.12298
351.319	-619.03318
351.833	-663.05903
352.347	-653.09128
352.861	-591.95259
353.374	-592.95394
353.888	-641.0923
354.401	-655.04323
354.915	-740.13977
355.428	-682.17641
355.941	-754.21481
356.454	-661.01322
356.967	-657.0548
357.48	-654.00986
357.993	-690.16054
358.505	-738.22597
359.018	-665.08162
359.53	-759.22254
360.042	-698.00627
360.554	-711.14112
361.066	-764.23236
361.578	-709.97919
362.09	-752.17126
362.602	-757.05071
363.113	-749.09994
363.625	-775.09034
364.136	-790.08582
364.647	-920.33535
365.158	-742.05001
365.669	-829.24704
366.18	-804.16696
366.691	-777.01518
367.201	-810.17425
367.712	-853.15051
368.222	-854.14846
368.733	-931.16047
369.243	-928.16604
369.753	-873.14906
370.263	-913.25462
370.773	-913.29368
371.282	-968.28222
371.792	-1070.29105
372.301	-1052.37117
372.811	-1075.56604
373.32	-1115.13417
373.829	-1138.32091
374.338	-1093.09772
374.847	-1238.31617
375.356	-1263.35442
375.865	-1299.05376
376.373	-1353.19918
376.882	-1317.40893
377.39	-1333.23432
377.898	-1513.33333
378.407	-1563.08049
378.915	-1512.86149
379.423	-1605.03281
379.93	-1627.84773
380.438	-1875.05035
380.946	-1875.79002
381.453	-2020.78287
381.96	-2215.67449
382.468	-2394.37859
382.975	-2366.35577
383.482	-2378.99404
383.989	-2547.33821
384.495	-2626.83392
385.002	-2884.37872
385.509	-2987.43094
386.015	-3091.89665
386.521	-3319.97114
387.028	-3485.78975
387.534	-3573.6421
388.04	-3628.70084
388.546	-4027.53968
389.051	-4305.55364
389.557	-4561.67213
390.063	-4420.75112
390.568	-4743.02066
391.073	-5099.6853
391.578	-5243.92709
392.084	-5588.13811
392.589	-6187.15407
393.093	-6902.89014
393.598	-7121.8429
394.103	-7704.76907
394.607	-8311.20043
395.112	-8764.83393
395.616	-9448.50189
396.12	-10631.96202
396.624	-11839.79448
397.128	-12584.97178
397.632	-13791.44176
398.136	-15120.00335
398.639	-17578.67649
399.143	-20492.05912
399.646	-22333.13072
400.15	-24808.07373
400.653	-28412.4394
401.156	-32783.59212
401.659	-38645.62465
402.162	-38412.80222
402.664	-30561.57183
403.167	-19772.98822
403.67	-2498.32175
404.172	0
404.674	0
405.176	0
405.678	0
406.18	0
406.682	0
407.184	0
407.686	0
408.187	0
408.688	0
409.19	-7654.69838
409.691	-18864.65623
410.192	-25499.26356
410.693	-30077.37324
411.194	-32739.14929
411.694	-30740.55327
412.195	-27761.71672
412.696	-26817.25589
413.196	-27484.13079
413.696	-28276.3905
414.196	-26893.621
414.696	-23618.45001
415.196	-19737.07633
415.696	-13882.45725
416.196	-11071.71325
416.695	-11203.43451
417.195	-11896.08672
417.694	-11172.41915
418.194	-10170.6791
418.693	-10204.181
419.192	-9891.4613
419.691	-9644.91139
420.19	-9208.19727
420.688	-8697.53381
421.187	-8084.26828
421.685	-7169.7263
422.184	-6133.82502
422.682	-5319.40436
423.18	-5205.44985
423.678	-4917.00907
424.176	-4616.89774
424.674	-4311.2436
425.172	-3915.68842
425.669	-3522.54374
426.167	-3126.6185
426.664	-3013.73815
427.161	-2866.9592
427.659	-2681.34675
428.156	-2535.22894
428.652	-2418.87634
429.149	-2390.94141
429.646	-2191.85957
430.143	-1984.19397
430.639	-1966.34313
431.135	-1926.67001
431.632	-1782.53572
432.128	-1740.81174
432.624	-1726.06093
433.12	-1767.79149
433.616	-1648.71798
434.111	-1741.04555
434.607	-1627.10728
435.103	-1427.79279
435.598	-1329.73643
436.093	-1293.06323
436.588	-1297.10833
437.083	-1134.98982
437.578	-1178.16042
438.073	-1309.52965
438.568	-1080.27705
439.062	-1080.0417
439.557	-1071.29366
440.051	-1081.24052
440.546	-1060.23303
441.04	-1054.3599
441.534	-1022.4614
442.028	-928.23135
442.522	-964.29649
443.015	-964.16371
443.509	-944.35515
444.002	-932.33699
444.496	-967.22516
444.989	-934.37841
445.482	-941.42733
445.975	-969.29683
446.468	-918.15258
446.961	-874.08931
447.454	-900.24026
447.947	-893.28916
448.439	-861.31714
448.931	-897.23969
449.424	-851.38751
449.916	-874.36915
450.408	-890.2645
450.9	-951.52003
451.392	-929.56851
451.884	-858.29433
452.375	-875.43554
452.867	-781.16188
453.358	-846.25405
453.849	-838.16482
454.341	-777.14612
454.832	-804.13671
455.323	-829.37647
455.814	-783.22078
456.304	-776.21863
456.795	-777.21703
457.285	-678.02679
457.776	-713.13785
458.266	-806.35105
458.756	-721.22238
459.247	-805.36373
459.737	-758.27592
460.226	-717.12731
460.716	-698.18489
461.206	-719.25128
461.695	-714.32104
462.185	-698.20344
462.674	-632.05349
463.163	-652.05121
463.653	-631.95691
464.142	-704.26944
464.63	-660.21729
465.119	-673.16363
465.608	-636.0928
466.096	-615.00794
466.585	-592.03931
467.073	-600.10476
467.561	-617.15063
468.05	-584.04779
468.538	-521.9859
469.026	-595.11556
469.513	-608.99975
470.001	-609.08574
470.489	-572.06048
470.976	-533.96822
471.463	-535.06266
471.951	-532.07169
472.438	-543.01938
472.925	-546.02125
473.412	-492.98409
473.899	-476.88378
474.385	-489.98239
474.872	-511.97312
475.359	-495.99307
475.845	-474.79967
476.331	-435.7785
476.817	-429.86583
477.303	-434.8339
477.789	-425.85146
478.275	-463.96447
478.761	-411.83027
479.247	-436.82765
479.732	-451.94908
480.218	-424.9391
480.703	-426.90338
481.188	-419.76417
481.673	-419.82041
482.158	-441.79535
482.643	-411.90975
483.128	-443.87274
483.612	-386.7778
484.097	-348.73702
484.581	-348.70058
485.066	-388.82029
485.55	-380.72204
486.034	-345.64387
486.518	-360.73208
487.002	-396.84856
487.486	-377.80838
487.969	-378.81209
488.453	-348.7769
488.936	-376.75102
489.42	-345.67679
489.903	-312.69655
490.386	-759.25299
490.869	-292.56321
491.352	-296.64744
491.835	-298.54856
492.318	-311.62335
492.8	-331.61467
493.283	-359.82146
493.765	-346.76669
494.247	-259.54242
494.73	-312.62116
495.212	-266.57937
495.694	-292.61004
496.175	-350.74806
496.657	-225.47601
497.139	-224.35137
497.62	-359.77311
498.102	-314.70564
498.583	-296.67474
499.064	-311.62826
499.545	-306.63674
500.026	-307.62672
500.507	-244.5109
500.988	-250.5623
501.469	-324.74183
501.949	-257.57863
502.43	-299.64585
502.91	-308.58379
503.39	-271.62212
503.87	-301.6471
504.35	-255.55176
504.83	-322.65152
505.31	-245.53895
505.79	-331.73148
506.269	-242.51725
506.749	-320.67535
507.228	-294.63409
507.707	-264.53637
508.187	-204.44433
508.666	-321.72921
509.145	-277.59448
509.623	-302.65693
510.102	-238.5285
510.581	-239.53216
511.059	-270.62144
511.538	-266.63685
512.016	-236.51839
512.494	-228.50924
512.972	-256.56421
513.45	-307.65744
513.928	-259.57883
514.406	-323.72065
514.884	-264.627
515.361	-259.57381
515.839	-212.44232
516.316	-218.48148
516.793	-233.54581
517.27	-189.42136
517.747	-230.54331
518.224	-249.53624
518.701	-221.45506
519.178	-253.57894
519.654	-202.44465
520.131	-266.61297
520.607	-226.5208
521.083	-226.47823
521.56	-239.52465
522.036	-188.38109
522.512	-189.43129
522.987	-241.52949
523.463	-265.58931
523.939	-191.43321
524.414	-220.47409
524.89	-210.46245
525.365	-233.49208
525.84	-272.60249
526.315	-200.44523
526.79	-203.42515
527.265	-238.50781
527.74	-267.61073
528.215	-149.32241
528.689	-218.44979
529.164	-212.43072
529.638	-228.54796
530.112	-240.52829
530.587	-200.3954
531.061	-249.56154
531.534	-173.38904
532.008	-212.4741
532.482	-172.36668
532.956	-243.57813
533.429	-181.4072
533.903	-156.32013
534.376	-211.43681
534.849	-190.41068
535.322	-169.37006
535.795	-201.45885
536.268	-215.48328
536.741	-177.39591
537.213	-164.35236
537.686	-190.42981
538.158	-199.41474
538.631	-189.43007
539.103	-193.40259
539.575	-138.26694
540.047	-179.36741
540.519	-133.29418
540.991	-121.27356
541.463	-121.26998
541.934	-109.22909
542.406	-152.33487
542.877	-126.26219
543.348	-114.25379
543.82	-101.22788
544.291	-112.24136
544.762	-131.28564
545.233	-113.25942
545.703	-118.2392
546.174	-95.20196
546.645	-126.27433
547.115	-59.12843
547.585	-70.14605
548.056	-80.17351
548.526	-65.1371
548.996	1.00214
549.466	3.00654
549.935	10.02079
550.405	6.01155
550.875	72.14789
551.344	72.15036
551.814	78.15544
552.283	165.30487
552.752	198.38502
553.221	161.29286
553.69	226.41601
554.159	254.51464
554.628	330.59131
555.096	350.72018
555.565	406.71741
556.033	514.95055
556.502	555.04964
556.97	670.11455
557.438	717.28139
557.906	839.46606
558.374	922.51333
558.842	922.59249
559.31	1068.64074
559.777	1182.93023
560.245	1363.06388
560.712	1417.07049
561.18	1568.03222
561.647	1767.19232
562.114	1915.32349
562.581	2030.70583
563.048	2336.52884
563.514	2397.79911
563.981	2638.52279
564.448	2776.41398
564.914	3117.55947
565.381	3307.39173
565.847	3694.40413
566.313	3894.27562
566.779	4157.95025
567.245	4463.99884
567.711	4826.93541
568.176	5096.38129
568.642	5530.84721
569.108	5851.58107
569.573	6338.22972
570.038	6789.74534
570.504	7088.04319
570.969	7669.78055
571.434	8018.70548
571.899	8536.54889
572.363	9098.58227
572.828	9578.7791
573.293	10091.36911
573.757	10614.32723
574.222	11088.61668
574.686	11615.32004
575.15	11946.71091
575.614	12514.57909
576.078	13043.04842
576.542	13471.67735
577.006	13858.04316
577.469	14230.78577
577.933	14669.59815
578.396	14934.02996
578.86	15002.86891
579.323	15208.79648
579.786	15443.99084
580.249	15507.72854
580.712	15440.58666
581.175	15251.53208
581.637	15396.16878
582.1	15295.99543
582.563	15156.91462
583.025	14896.33038
583.487	14586.3232
583.95	14487.43866
584.412	14421.03535
584.874	14050.5452
585.336	13590.05363
585.797	13359.38302
586.259	12889.7437
586.721	12464.96271
587.182	12208.27881
587.643	11862.50248
588.105	11370.55835
588.566	11200.43908
589.027	10694.43758
589.488	10486.81283
589.949	10145.37966
590.41	9867.09948
590.87	9633.92541
591.331	9391.34104
591.791	8886.13569
592.252	8809.98393
592.712	8435.43186
593.172	8106.87817
593.632	7947.65215
594.092	7671.4147
594.552	7393.11025
595.011	7097.15775
595.471	6980.04089
595.931	6787.97795
596.39	6468.29164
596.849	6429.16157
597.308	6113.88582
597.768	5845.82847
598.227	5870.49548
598.685	5823.26143
599.144	5491.46924
599.603	5508.54561
600.062	5308.95972
600.52	5224.31083
600.978	5136.73623
601.437	5009.60311
601.895	4987.17788
602.353	4912.47724
602.811	4777.53899
603.269	4774.98974
603.727	4726.01479
604.184	4696.64484
604.642	4541.26464
605.099	4529.93179
605.557	4446.29522
606.014	4446.53531
606.471	4344.45767
606.928	4360.53086
607.385	4245.31337
607.842	4439.87538
608.299	4325.07108
608.755	4408.21346
609.212	4409.71855
609.668	4340.71085
610.125	4553.17118
610.581	4557.12448
611.037	4426.96299
611.493	4460.14587
611.949	4420.24002
612.405	4499.18945
612.861	4593.07093
613.316	4524.15417
613.772	4484.95454
614.227	4559.06811
614.683	4595.5327
615.138	4494.06089
615.593	4537.00384
616.048	4514.95921
616.503	4522.41681
616.958	4464.55188
617.412	4485.1733
617.867	4382.80703
618.321	4417.48588
618.776	4409.84983
619.23	4264.27573
619.684	4262.07617
620.138	4221.28238
620.592	4130.59451
621.046	4192.37169
621.5	4006.6717
621.954	3999.24459
622.407	3851.25199
622.861	3754.80705
623.314	3765.43274
623.768	3650.60685
624.221	3531.79515
624.674	3565.59048
625.127	3471.72388
625.58	3495.60325
626.033	3417.46227
626.485	3279.91993
626.938	3182.93504
627.39	3228.79965
627.843	3160.79475
628.295	3092.80985
628.747	3085.97018
629.199	3051.73811
629.651	2903.7551
630.103	2947.8015
630.555	2854.43914
631.006	2787.95561
631.458	2828.98781
631.909	2800.88333
632.361	2684.94652
632.812	2763.89449
633.263	2740.5751
633.714	2701.55742
634.165	2617.16865
634.616	2624.06916
635.067	2652.74874
635.518	2610.10187
635.968	2689.30373
636.419	2690.65886
636.869	2613.10236
637.319	2570.94481
637.769	2506.77793
638.219	2497.12126
638.669	2539.10772
639.119	2594.25603
639.569	2578.18716
640.019	2584.98542
640.468	2568.81287
640.918	2541.19602
641.367	2564.8399
641.816	2663.83796
642.265	2720.01335
642.714	2692.01557
643.163	2665.98448
643.612	2638.18774
644.061	2625.57339
644.51	2721.93998
644.958	2809.76158
645.406	2749.2075
645.855	2816.36672
646.303	2863.10807
646.751	2764.94386
647.199	2836.95342
647.647	2774.01179
648.095	2876.99415
648.543	2945.44234
648.99	2848.22658
649.438	2908.15748
649.885	2865.45172
650.333	2967.1854
650.78	2856.30204
651.227	2945.35103
651.674	2924.98064
652.121	2922.35997
652.568	2923.34562
653.015	2966.61731
653.461	2989.22535
653.908	3000.11637
654.354	2963.26686
654.801	3010.14709
655.247	2989.80369
655.693	3100.83597
656.139	3060.29061
656.585	3095.29582
657.031	2994.11673
657.477	3061.70091
657.922	3081.05105
658.368	3178.48385
658.813	3283.1092
659.259	3178.29819
659.704	3137.12534
660.149	3301.10304
660.594	3294.22503
661.039	3246.98483
661.484	3362.27183
661.929	3317.14081
662.373	3303.62848
662.818	3449.49905
663.262	3465.28879
663.707	3502.6466
664.151	3631.36146
664.595	3589.2776
665.039	3666.49041
665.483	3809.61214
665.927	3785.07166
666.371	3816.91555
666.814	3916.12088
667.258	3929.02504
667.701	4098.39305
668.145	4037.38268
668.588	4128.23176
669.031	4139.89821
669.474	4154.0823
669.917	4244.48008
670.36	4317.22914
670.803	4404.99053
671.245	4383.10122
671.688	4429.06171
672.13	4421.45261
672.573	4513.34418
673.015	4560.87187
673.457	4601.18037
673.899	4655.89497
674.341	4699.83744
674.783	4702.77867
675.225	4800.9238
675.666	4652.81843
676.108	4893.01201
676.549	4986.55228
676.991	5036.02725
677.432	5021.43383
677.873	4984.38463
678.314	5036.58083
678.755	5100.6837
679.196	5155.21272
679.637	5114.72461
680.078	5173.37248
680.518	5288.28535
680.959	5210.51275
681.399	5333.70892
681.839	5344.56214
682.28	5264.70439
682.72	5407.0794
683.16	5354.73119
683.6	5371.09259
684.039	5507.45927
684.479	5516.5295
684.919	5526.0555
685.358	5601.7672
685.798	5588.04359
686.237	5652.36567
686.676	5776.0182
687.115	5706.12516
687.554	5844.13327
687.993	5893.65226
688.432	5835.87684
688.871	5914.79219
689.309	5810.18922
689.748	6059.28292
690.186	6062.09595
690.625	5999.97663
691.063	6058.11456
691.501	6123.31669
691.939	6163.35946
692.377	6329.14016
692.815	6329.99856
693.253	6473.01222
693.69	6403.46883
694.128	6364.0767
694.565	6421.96539
695.003	6560.3706
695.44	6451.85709
695.877	6473.80797
696.314	6611.34061
696.751	6632.65969
697.188	6743.67795
697.625	6724.69352
698.061	6822.93454
698.498	6814.00123
698.934	6912.96073
699.371	6869.81416
699.807	6946.8508
700.243	6935.95051
700.679	6972.61394
701.115	7117.84757
701.551	7057.83615
701.987	7028.58784
702.422	7105.88062
702.858	7232.92048
703.294	7295.68222
703.729	7287.08822
704.164	7279.98836
704.599	7284.59712
705.035	7219.59298
705.47	7311.04919
705.904	7409.84778
706.339	7613.93984
706.774	7504.91195
707.209	7437.80785
707.643	7493.03654
708.078	7522.11891
708.512	7536.26798
708.946	7590.06811
709.38	7644.03324
709.814	7610.8547
710.248	7745.223
710.682	7648.0488
711.116	7709.08562
711.549	7587.48704
711.983	7591.88744
712.416	7645.02598
712.85	7624.28958
713.283	7640.02353
713.716	7704.37113
714.149	7546.0234
714.582	7680.81762
715.015	7610.315
715.448	7557.33301
715.881	7567.6557
716.313	7506.91476
716.746	7548.95227
717.178	7595.07837
717.61	7579.37616
718.043	7437.23118
718.475	7465.07624
718.907	7415.32917
719.339	7340.68711
719.77	7382.92227
720.202	7347.29989
720.634	7381.0654
721.065	7360.92222
721.497	7357.10927
721.928	7108.0783
722.359	7117.96145
722.79	7167.93019
723.221	7186.25405
723.652	7060.43079
724.083	6927.57633
724.514	7005.68682
724.945	6808.80855
725.375	6776.72469
725.806	6801.21231
726.236	6734.41273
726.666	6667.86832
727.096	6838.08427
727.526	6652.35403
727.956	6567.62543
728.386	6471.1745
728.816	6504.36009
729.246	6306.11659
729.675	6437.16982
730.105	6341.20966
730.534	6171.90576
730.964	6376.4051
731.393	6244.32015
731.822	6246.52858
732.251	6114.52797
732.68	6122.97773
733.109	6064.31428
733.537	5863.24652
733.966	5814.48645
734.395	5895.91829
734.823	5818.80412
735.251	5790.26278
735.68	5747.59861
736.108	5617.74311
736.536	5603.2046
736.964	5451.16023
737.392	5503.71119
737.82	5478.39618
738.247	5302.47663
738.675	5321.45416
739.102	5140.89202
739.53	5198.01966
739.957	5035.20417
740.384	5055.85343
740.811	5084.056
741.238	4970.80331
741.665	4761.53172
742.092	4810.73307
742.519	4572.12886
742.945	4625.86932
743.372	4602.122
743.798	4568.45591
744.225	4426.90193
744.651	4352.36023
745.077	4288.33943
745.503	4343.14437
745.929	4186.09058
746.355	4200.37126
746.781	4065.39161
747.207	3847.06708
747.632	3899.32151
748.058	3912.50446
748.483	3851.94817
748.908	3830.49866
749.334	3700.45518
749.759	3657.17746
750.184	3554.27388
750.609	3615.48498
751.033	3468.25871
751.458	3456.92469
751.883	3403.5909
752.307	3265.26083
752.732	3270.65018
753.156	3243.58185
753.58	3183.33564
754.005	3060.77797
754.429	2979.27633
754.853	2829.5874
755.277	2896.31833
755.7	2826.59879
756.124	2759.58449
756.548	2697.30257
756.971	2657.47046
757.394	2620.78217
757.818	2557.74919
758.241	2486.63455
758.664	2445.58888
759.087	2362.91258
759.51	2357.46868
759.933	2315.26628
760.356	2321.61372
760.778	2200.32012
761.201	2166.25063
761.623	2105.20275
762.046	2036.05726
762.468	2038.11432
762.89	2074.26392
763.312	2014.16986
763.734	1948.05583
764.156	1883.11814
764.578	1867.81079
765	1774.97421
765.421	1719.08283
765.843	1750.25994
766.264	1671.84159
766.686	1643.96471
767.107	1547.72325
767.528	1554.879
767.949	1576.93712
768.37	1450.65924
768.791	1473.63787
769.212	1365.62816
769.632	1299.3108
770.053	1349.77252
770.473	1313.46054
770.894	1344.59562
771.314	1290.37897
771.734	1143.11596
772.154	1225.50738
772.575	1206.18495
772.994	1165.07684
773.414	1135.18543
773.834	1118.26708
774.254	1097.17859
774.673	1056.10526
775.093	960.99198
775.512	947.9602
775.931	940.01446
776.351	959.99829
776.77	918.89464
777.189	892.7949
777.607	844.86218
778.026	873.85998
778.445	788.71686
778.864	829.84467
779.282	795.65561
779.701	765.69028
780.119	746.65821
780.537	741.62564
780.955	714.61128
781.373	708.54896
781.791	649.29192
782.209	721.45411
782.627	700.6456
783.045	660.34525
783.462	606.40236
783.88	612.43359
784.297	615.39645
784.715	619.43558
785.132	567.24671
785.549	542.2407
785.966	517.19642
786.383	522.1781
786.8	506.07765
787.217	480.05006
787.633	510.17109
788.05	558.20505
788.466	544.16875
788.883	456.08273
789.299	522.15123
789.715	507.13279
790.131	415.96936
790.547	419.98254
790.963	402.93956
791.379	408.97075
791.795	406.86811
792.21	460.99716
792.626	374.83839
793.041	363.8496
793.457	354.8313
793.872	370.82191
794.287	346.78392
794.702	376.8764
795.117	365.85929
795.532	312.74866
795.947	333.76412
796.362	343.77918
796.776	410.90053
797.191	301.70673
797.605	243.55249
798.02	299.69792
798.434	346.7299
798.848	309.72862
799.262	256.61431
799.676	288.67581
800.09	288.68135
800.504	308.71568
800.918	255.57084
801.331	262.66504
801.745	248.55116
802.158	269.64906
802.572	233.54922
802.985	296.68671
803.398	259.59672
803.811	275.68252
804.224	275.66002
804.637	227.52551
805.05	250.56045
805.462	233.55626
805.875	193.48966
806.288	185.4371
806.7	226.55262
807.112	213.48114
807.525	203.48946
807.937	176.42701
808.349	196.48034
808.761	230.54983
809.173	209.494
809.584	243.58235
809.996	133.32215
810.408	120.307
810.819	174.40162
811.231	127.32485
811.642	128.30203
812.053	159.37204
812.464	174.40593
812.875	216.53797
813.286	184.46426
813.697	245.55455
814.108	180.4313
814.519	152.33389
814.929	176.44074
815.34	193.45777
815.75	140.35136
816.16	175.42817
816.571	157.40172
816.981	194.44778
817.391	174.41231
817.801	165.4028
818.211	188.43859
818.62	124.29565
819.03	162.39054
819.44	194.49595
819.849	146.36298
820.259	146.36878
820.668	140.33993
821.077	140.34324
821.486	184.43398
821.895	192.46408
822.304	146.38174
822.713	140.32675
823.122	160.39285
823.531	118.27735
823.939	154.36943
824.348	170.40579
824.756	184.45144
825.164	166.41059
825.573	147.36367
825.981	136.33331
826.389	147.3642
826.797	141.34857
827.205	121.27501
827.612	120.29344
828.02	110.25633
828.428	137.34463
828.835	112.29245
829.243	108.25563
829.65	97.23989
830.057	128.30729
830.464	113.27309
830.871	154.36295
831.278	97.23327
831.685	108.23933
832.092	181.43394
832.499	160.34361
832.905	150.37415
833.312	186.41458
833.718	121.29858
834.124	126.2848
834.531	146.36285
834.937	99.25261
835.343	143.34023
835.749	150.34499
836.155	116.30103
836.561	106.25882
836.966	138.33306
837.372	94.23803
837.777	90.22319
838.183	114.25126
838.588	124.30458
838.993	157.37583
839.399	132.3187
839.804	74.18002
840.209	70.17795
840.613	84.1863
841.018	130.32532
841.423	118.29976
841.828	111.27833
842.232	145.35398
842.637	113.2642
843.041	78.19934
843.445	100.24916
843.849	71.17552
844.253	131.30748
844.657	95.23778
845.061	122.27374
845.465	91.21868
845.869	145.33169
846.272	114.27493
846.676	102.24497
847.079	72.18271
847.483	104.25753
847.886	183.43539
848.289	73.19434
848.692	93.2342
849.095	111.2642
849.498	180.44669
849.901	119.27002
850.304	144.33885
850.707	110.27805
851.109	113.28334
851.512	121.29407
851.914	77.19342
852.316	107.26839
852.718	65.16761
853.121	96.23371
853.523	74.17257
853.925	63.16419
854.326	70.17467
854.728	53.13643
855.13	63.16234
855.531	46.11022
855.933	126.29881
856.334	92.22798
856.736	91.20263
857.137	97.22394
857.538	72.18057
857.939	73.17987
858.34	144.34544
858.741	117.30273
859.142	121.28734
859.542	93.24387
859.943	108.26596
860.343	112.27459
860.744	92.22313
861.144	111.26815
861.544	30.07249
861.945	77.19557
862.345	152.36532
862.745	95.23451
863.145	94.22326
863.544	102.25571
863.944	147.3414
864.344	97.23927
864.743	174.42263
865.143	105.26745
865.542	93.21428
865.941	106.26008
866.34	135.31873
866.74	94.2507
867.139	62.14834
867.537	124.31221
867.936	93.22238
868.335	117.29453
868.734	87.22113
869.132	80.1851
869.531	92.22112
869.929	105.23709
870.327	23.0555
870.726	119.29343
871.124	109.25224
871.522	94.23786
871.92	112.27347
872.318	118.28522
872.715	139.33896
873.113	61.14853
873.511	109.26897
873.908	-2.0051
874.306	70.17366
874.703	101.2507
875.1	147.37005
875.497	107.25409
875.894	45.11047
876.291	90.21951
876.688	65.16737
877.085	95.22629
877.482	72.17972
877.878	76.18225
878.275	75.18989
878.671	137.30012
879.068	135.32107
879.464	89.21379
879.86	67.15812
880.256	114.27836
880.652	90.2275
881.048	115.2819
881.444	84.1989
881.84	109.27439
882.236	109.27144
882.631	77.18826
883.027	181.42799
883.422	102.25866
883.817	78.1952
884.213	95.24206
884.608	50.12272
885.003	50.12068
885.398	63.15746
885.793	87.21713
886.188	59.14655
886.582	130.32907
886.977	119.27899
887.371	73.18403
887.766	57.14169
888.16	92.22806
888.554	128.31231
888.949	119.29537
889.343	126.30376
889.737	28.07493
890.131	65.16275
890.525	101.25617
890.918	92.22998
891.312	95.2256
891.706	95.24751
892.099	108.27222
892.492	118.25123
892.886	69.16839
893.279	94.23778
893.672	75.19023
894.065	107.26539
894.458	90.2249
894.851	111.26916
895.244	65.16568
895.637	89.21298
896.029	72.17548
896.422	112.27072
896.814	80.19796
897.206	68.16151
897.599	133.3242
897.991	65.15685
898.383	81.19042
898.775	80.17965
899.167	76.17647
899.559	140.34895
899.951	135.31328
900.342	92.23239
900.734	23.05738
901.125	93.24238
901.517	103.25051
901.908	99.23537
902.299	86.20897
902.69	119.27724
903.082	130.31031
903.473	72.1718
903.863	88.22316
904.254	83.19154
904.645	116.28524
905.036	49.11873
905.426	127.28653
905.817	102.24804
906.207	108.25464
906.597	76.17696
906.987	85.2191
907.378	90.22612
907.768	81.21313
908.158	72.17495
908.547	68.17519
908.937	115.29188
909.327	128.30647
909.717	91.22949
910.106	72.17233
910.495	116.2863
910.885	136.33935
911.274	57.14236
911.663	128.32055
912.052	109.2662
912.441	110.27686
912.83	103.2341
913.219	105.27234
913.608	90.21894
913.997	82.20446
914.385	112.26458
914.774	105.25318
915.162	86.20363
915.55	119.28433
915.939	49.12375
916.327	125.30788
916.715	53.13505
917.103	132.32014
917.491	120.29323
917.878	94.22935
918.266	94.242
918.654	98.24834
919.041	66.17187
919.429	79.1855
919.816	122.30541
920.203	81.19538
920.591	127.31062
920.978	96.23318
921.365	69.18051
921.752	119.28008
922.139	95.20442
922.525	9.02179
922.912	93.22509
923.299	118.28973
923.685	92.23834
924.072	93.21274
924.458	85.20929
924.844	92.22598
925.231	92.21244
925.617	58.14734
926.003	101.2559
926.389	80.20078
926.774	96.24137
927.16	80.19767
927.546	77.19564
927.931	98.24249
928.317	130.2948
928.702	99.2321
929.088	81.1905
929.473	82.2075
929.858	78.18761
930.243	56.13429
930.628	89.21501
931.013	79.1948
931.398	157.35349
931.783	123.3199
932.167	103.24939
932.552	85.21167
932.937	109.26768
933.321	68.17011
933.705	93.23269
934.09	116.28976
934.474	136.31778
934.858	101.25971
935.242	76.17528
935.626	93.2363
936.009	55.14618
936.393	92.23239
936.777	62.15845
937.16	82.21221
937.544	81.18975
937.927	69.17451
938.311	151.36175
938.694	107.2803
939.077	96.22784
939.46	121.2933
939.843	139.28441
940.226	111.28173
940.609	43.09888
940.991	60.15248
941.374	43.10525
941.757	93.22772
942.139	70.15661
942.522	104.2433
942.904	87.20771
943.286	84.21218
943.668	51.1321
944.05	95.2321
944.432	100.24454
944.814	98.23929
945.196	31.07582
945.578	85.20068
945.959	89.20702
946.341	132.31918
946.722	117.27108
947.104	77.18313
947.485	91.21009
947.866	87.21776
948.247	85.21313
948.628	105.25356
949.009	87.22136
949.39	130.31896
949.771	131.2999
950.152	87.21208
950.532	44.10836
950.913	142.33662
951.293	73.19647
951.674	57.1377
952.054	80.19716
952.434	101.24841
952.814	129.30232
953.194	117.30273
953.574	96.23449
953.954	52.12346
954.334	101.24941
954.714	92.22246
955.093	97.23645
955.473	39.09772
955.853	92.23644
956.232	62.16961
956.611	117.27709
956.99	93.23193
957.37	74.18779
957.749	76.18044
958.128	80.20049
958.506	68.17586
958.885	74.18599
959.264	47.11525
959.643	93.20983
960.021	82.20201
960.4	92.20676
960.778	116.28229
961.156	51.12784
961.535	87.20133
961.913	72.16778
962.291	64.16379
962.669	79.19909
963.047	100.25296
963.424	107.27033
963.802	103.2508
964.18	133.33156
964.557	91.20791
964.935	124.28963
965.312	69.17909
965.69	116.28703
966.067	109.26253
966.444	133.32275
966.821	56.14422
967.198	145.34552
967.575	119.28889
967.952	127.29483
968.329	115.27645
968.705	118.24937
969.082	97.24672
969.458	79.18847
969.835	147.35136
970.211	79.20172
970.587	137.3357
970.963	84.21422
971.339	112.28934
971.715	85.21091
972.091	122.29645
972.467	125.30754
972.843	53.13146
973.219	147.34652
973.594	87.22612
973.97	165.38411
974.345	61.14569
974.721	105.25165
975.096	87.20906
975.471	103.24186
975.846	38.09151
976.221	72.18213
976.596	84.20005
976.971	120.29246
977.346	102.23506
977.72	88.22268
978.095	74.19045
978.469	95.22481
978.844	103.2565
979.218	82.19536
979.593	97.23035
979.967	98.23661
980.341	101.2302
980.715	78.19555
981.089	117.28935
981.463	89.20277
981.837	105.25394
982.21	164.37311
982.584	75.1803
982.957	75.18643
983.331	150.34774
983.704	55.13502
984.078	49.12078
984.451	124.30559
984.824	109.26253
985.197	102.24534
985.57	105.26072
985.943	119.29019
986.316	143.34532
986.688	119.28324
987.061	114.26387
987.434	87.22527
987.806	103.24732
988.179	69.16221
988.551	141.35189
988.923	126.30594
989.295	122.30088
989.667	68.16188
990.039	73.17961
990.411	97.22117
990.783	140.31657
991.155	61.14625
991.527	134.32487
991.898	104.25659
992.27	61.15058
992.641	86.21436
993.012	146.33713
993.384	85.20138
993.755	58.14766
994.126	120.2848
994.497	49.12029
994.868	108.24521
995.239	84.20228
995.61	95.23709
995.98	89.2146
996.351	73.18001
996.722	40.09295
997.092	78.18369
997.462	63.14678
997.833	124.28975
998.203	93.22365
998.573	87.21516
998.943	103.23902
999.313	106.25128
999.683	98.23303
1000.053	114.25894
1000.423	109.26193
1000.792	85.21895
1001.162	105.25576
1001.531	117.28488
1001.901	79.19587
1002.27	108.23853
1002.639	92.2333
1003.009	120.2815
1003.378	100.25341
1003.747	96.22476
1004.116	43.10302
1004.485	75.17838
1004.853	115.28794
1005.222	78.19569
1005.591	95.2236
1005.959	38.08582
1006.328	82.18331
1006.696	54.13013
1007.064	68.17048
1007.433	132.32494
1007.801	143.34493
1008.169	64.1612
1008.537	137.29783
1008.905	67.15554
1009.273	126.30685
1009.64	53.12634
1010.008	105.24761
1010.375	131.31324
1010.743	155.35042
1011.11	83.19512
1011.478	121.2955
1011.845	89.20768
1012.212	99.22181
1012.579	87.21208
1012.946	107.25184
1013.313	107.25184
1013.68	124.27445
1014.047	52.12384
1014.414	59.13908
1014.78	62.1537
1015.147	109.26063
1015.513	119.28291
1015.88	104.26336
1016.246	107.26131
1016.612	157.35161
1016.978	110.26649
1017.344	106.25921
1017.71	148.35422
1018.076	130.30174
1018.442	114.28991
1018.808	74.18411
1019.174	72.17986
1019.539	158.35582
1019.905	100.23348
1020.27	76.18661
1020.636	105.24905
1021.001	106.25099
1021.366	38.09144
1021.731	76.1945
1022.096	41.10355
1022.461	77.18123
1022.826	68.16101
1023.191	81.21132
1023.556	100.23201
1023.92	71.17385
1024.285	111.26775
1024.649	98.23795
1025.014	90.22123
1025.378	85.21229
1025.742	107.26287
1026.107	94.21065
1026.471	131.30087
1026.835	65.16063
1027.199	63.15122
1027.562	102.23459
1027.926	75.18248
1028.29	95.23838
1028.654	109.24773
1029.017	144.34767
1029.381	71.16886
1029.744	86.21785
1030.107	116.27084
1030.471	123.29028
1030.834	95.21408
1031.197	112.26653
1031.56	111.25871
1031.923	77.19806
1032.286	138.3184
1032.648	133.31291
1033.011	28.06453
1033.374	122.28261
1033.736	54.14182
1034.099	133.31899
1034.461	65.16369
1034.823	68.16869
1035.185	124.30784
1035.548	128.30682
1035.91	77.18342
1036.272	103.23182
1036.634	116.28018
1036.995	98.22809
1037.357	79.19106
1037.719	53.12876
1038.08	106.24885
1038.442	81.19102
1038.803	93.22136
1039.165	103.25734
1039.526	99.2369
1039.887	89.21127
1040.248	75.18385
1040.609	102.24952
1040.97	106.25622
1041.331	107.26801
1041.692	55.12819
1042.053	123.27581
1042.413	100.23064
1042.774	104.25025
1043.134	138.32284
1043.495	100.24898
1043.855	123.29411
1044.215	75.18521
1044.576	61.14547
1044.936	137.30846
1045.296	76.18868
1045.656	63.15415
1046.016	101.24132
1046.375	97.23309
1046.735	80.18016
1047.095	117.27011
1047.454	146.30273
1047.814	87.20755
1048.173	113.26658
1048.533	91.20666
1048.892	87.20724
1049.251	93.23151
1049.61	76.18613
1049.969	84.19659
1050.328	104.22277
1050.687	96.23143
1051.046	90.21738
1051.405	75.18562
1051.763	92.20965
1052.122	94.23243
1052.48	74.18056
1052.839	61.14313
1053.197	82.19168
1053.555	134.30017
1053.914	113.27298
1054.272	102.24404
1054.63	45.11006
1054.988	104.24435
1055.345	92.19622
1055.703	119.28248
1056.061	54.13873
1056.419	76.19573
1056.776	91.21884
1057.134	80.18399
1057.491	85.21137
1057.848	113.27792
1058.206	128.29627
1058.563	68.14925
1058.92	106.24145
1059.277	134.32524
1059.634	80.18701
1059.991	112.26499
1060.348	39.08828
1060.704	58.13792
1061.061	111.25463
1061.418	72.17377
1061.774	97.23725
1062.131	59.15566
1062.487	83.19269
1062.843	79.1958
1063.199	116.28482
1063.555	86.19772
1063.911	107.26733
1064.267	163.33125
1064.623	56.13577
1064.979	145.33702
1065.335	139.32639
1065.691	94.22326
1066.046	91.19825
1066.402	107.24013
1066.757	116.28913
1067.112	93.22628
1067.468	48.11331
1067.823	106.25196
1068.178	74.17806
1068.533	59.14269
1068.888	124.29191
1069.243	110.26829
1069.598	119.2852
1069.952	80.17891
1070.307	67.16521
1070.662	70.16543
1071.016	74.16488
1071.371	125.27983
1071.725	139.32664
1072.079	95.22638
1072.434	51.12381
1072.788	93.21948
1073.142	125.303
1073.496	78.18391
1073.85	116.2653
1074.203	101.24252
1074.557	77.20369
1074.911	142.33272
1075.265	86.19835
1075.618	91.22033
1075.971	97.22848
1076.325	87.21948
1076.678	103.23286
1077.031	88.19745
1077.385	113.24545
1077.738	97.2167
1078.091	38.08656
1078.444	117.26785
1078.796	89.21663
1079.149	96.23659
1079.502	81.19005
1079.855	71.16476
1080.207	140.33891
1080.56	81.20806
1080.912	94.22678
1081.264	108.25701
1081.617	88.21279
1081.969	88.2203
1082.321	91.22033
1082.673	42.09594
1083.025	52.12322
1083.377	-131.29193
1083.728	101.23308
1084.08	71.17643
1084.432	61.1467
1084.783	124.2861
1085.135	117.28945
1085.486	54.12335
1085.838	82.2006
1086.189	85.2048
1086.54	80.18979
1086.891	47.11883
1087.242	72.17443
1087.593	97.23389
1087.944	79.17758
1088.295	123.27524
1088.646	92.22104
1088.996	43.10364
1089.347	80.19505
1089.698	79.1855
1090.048	107.27494
1090.398	75.17294
1090.749	98.23214
1091.099	57.14303
1091.449	72.17849
1091.799	122.30121
1092.149	46.11215
1092.499	87.21057
1092.849	71.17963
1093.199	49.12273
1093.548	70.16741
1093.898	84.20869
1094.248	100.25449
1094.597	33.08441
1094.947	85.22523
1095.296	109.266
1095.645	108.27785
1095.994	119.28182
1096.343	114.28332
1096.692	78.20374
1097.041	27.07331
1097.39	145.35714
1097.739	90.23211
1098.088	126.33303
1098.437	71.18568
1098.785	101.26977
1099.134	120.31462
1099.482	84.22957
1099.83	114.29604
1100.179	62.16123
1100.527	87.22953
1100.875	64.16865
1101.223	86.22678
1101.571	79.21711
1101.919	17.04462
1102.267	77.21569
1102.615	3.00965
1102.962	10.0322
1103.31	12.03853
1103.658	22.07077
