Data from N2 R14 sample 12_Subt2__0__14-20-35-094.txt Node

Date: Tue Sep 02 14:20:35 PDT 2025
User: uwsun
Spectrometer: HDX01956
Trigger mode: 0
Integration Time (sec): 5.000000E-1
Scans to average: 1
Nonlinearity correction enabled: true
Boxcar width: 0
Storing dark spectrum: false
XAxis mode: Wavelengths
Number of Pixels in Spectrum: 2068
>>>>>Begin Spectral Data<<<<<
194.03	-56.15853
194.578	-60.19113
195.127	-60.18839
195.676	-59.18578
196.225	10.02649
196.773	-12.03296
197.321	-57.15441
197.87	2.00495
198.418	-86.21343
198.966	-114.286
199.513	-138.3318
200.061	-117.28478
200.609	-70.17839
201.156	-143.30254
201.704	-109.26342
202.251	-95.24104
202.798	-89.22139
203.345	-36.08488
203.892	-102.24674
204.438	-48.10951
204.985	-115.26063
205.532	-122.30871
206.078	-83.1952
206.624	-99.23274
207.17	-57.12639
207.716	-120.28007
208.262	-66.12509
208.808	-147.34773
209.354	-97.22581
209.899	-90.21943
210.445	-80.18913
210.99	-109.25164
211.535	-12.02671
212.08	-88.1968
212.625	-109.26302
213.17	-85.20674
213.715	-117.24905
214.259	-36.07984
214.804	-33.07767
215.348	-40.08724
215.892	-55.12597
216.436	-11.02423
216.98	-97.208
217.524	-43.0967
218.068	-63.15191
218.612	-60.14476
219.155	-51.1146
219.698	-65.14845
220.242	-81.19494
220.785	-60.13463
221.328	-65.15554
221.871	-29.07038
222.414	-25.05951
222.956	-115.2674
223.499	-29.06229
224.041	-27.06032
224.583	-17.03526
225.126	-60.12725
225.668	-83.19413
226.21	-58.13956
226.751	-104.21969
227.293	-66.14547
227.835	-70.16389
228.376	-20.04419
228.918	-43.10408
229.459	-49.11623
230	-87.19957
230.541	-38.08382
231.082	-57.13222
231.622	-34.07494
232.163	-74.17183
232.704	-42.0991
233.244	-50.11835
233.784	-22.05149
234.324	-95.19993
234.864	-47.10179
235.404	-51.11629
235.944	-36.08154
236.484	-20.0475
237.023	-77.17437
237.563	-67.14801
238.102	-32.07192
238.641	-83.20142
239.18	-149.33741
239.719	-61.14631
240.258	-73.15769
240.797	-74.16911
241.335	-29.06748
241.874	-57.10474
242.412	-63.14429
242.95	-111.25422
243.488	-33.07153
244.026	-104.23018
244.564	-11.0214
245.102	-59.12608
245.64	-39.08954
246.177	-44.0938
246.715	-14.03181
247.252	-33.07202
247.789	92.16076
248.326	-78.17774
248.863	-91.19084
249.4	-58.12558
249.936	-42.08194
250.473	-97.21617
251.009	-95.20767
251.546	-77.16176
252.082	-70.14618
252.618	-99.21073
253.154	-66.15016
253.69	-83.17829
254.226	-60.13562
254.761	-50.10627
255.297	-94.1963
255.832	-97.21876
256.367	-50.11131
256.903	-56.11627
257.438	-48.10673
257.972	-56.11804
258.507	-112.24406
259.042	-78.16101
259.576	-102.20818
260.111	-43.09388
260.645	-101.20919
261.179	-56.12296
261.713	-52.10888
262.247	-86.18851
262.781	-66.13042
263.315	-93.21548
263.849	-90.21286
264.382	-40.08657
264.915	-60.13185
265.449	-147.3395
265.982	-45.09637
266.515	-59.13513
267.048	-100.20076
267.58	-31.06372
268.113	-66.13391
268.646	-80.18576
269.178	-116.24547
269.71	-29.0592
270.243	-33.07052
270.775	-111.26714
271.307	-83.18918
271.838	-65.14599
272.37	-74.17101
272.902	-36.07655
273.433	-102.21093
273.965	-105.24144
274.496	-90.21146
275.027	-67.15554
275.558	-83.18887
276.089	-100.22953
276.62	-71.16984
277.15	-61.14117
277.681	-44.08936
278.211	-75.17281
278.741	-138.28729
279.272	-107.22945
279.802	-94.2206
280.332	-102.22538
280.861	-117.26538
281.391	-101.21452
281.921	-99.22446
282.45	-74.17298
282.98	-93.22704
283.509	-123.26045
284.038	-92.19588
284.567	-34.07365
285.096	-72.16188
285.625	-112.23794
286.153	-107.2339
286.682	-101.21518
287.21	-87.19428
287.739	-140.3105
288.267	-115.25914
288.795	-53.129
289.323	-162.35465
289.851	-94.20449
290.378	-81.16814
290.906	-129.2895
291.433	-100.2311
291.961	-123.2584
292.488	-128.29662
293.015	-110.23878
293.542	-124.29009
294.069	-135.30744
294.596	-55.12485
295.122	-110.24224
295.649	-74.1498
296.175	-63.13999
296.702	-96.21469
297.228	-100.22437
297.754	-158.3298
298.28	-166.34973
298.806	-136.30113
299.332	-169.34563
299.857	-96.19745
300.383	-98.22782
300.908	-193.43205
301.433	-148.32975
301.958	-91.19227
302.483	-135.30732
303.008	-90.20268
303.533	-135.32329
304.058	-134.29038
304.582	-155.33395
305.107	-169.40301
305.631	-114.23733
306.155	-132.27823
306.679	-182.38833
307.203	-104.21689
307.727	-161.34822
308.251	-116.25888
308.775	-195.41995
309.298	-176.38074
309.822	-151.34513
310.345	-145.30972
310.868	-180.38956
311.391	-143.31762
311.914	-189.4278
312.437	-111.2265
312.96	-172.36365
313.482	-142.2997
314.005	-185.41756
314.527	-198.467
315.049	-157.35566
315.571	-166.32495
316.093	-126.2748
316.615	-180.38473
317.137	-134.25522
317.659	-128.27418
318.18	-158.33742
318.702	-167.34092
319.223	-168.30132
319.744	-242.4809
320.265	-209.44313
320.786	-208.44804
321.307	-188.40705
321.828	-184.36069
322.348	-161.32524
322.869	-238.48598
323.389	-83.11106
323.909	-235.46819
324.43	-179.37322
324.95	-251.49448
325.47	-223.46682
325.989	-239.47926
326.509	-267.49705
327.029	-227.42763
327.548	-296.56297
328.067	-245.49334
328.587	-267.56363
329.106	-242.45712
329.625	-201.44607
330.144	-301.58015
330.662	-290.55559
331.181	-257.49439
331.7	-263.50495
332.218	-259.45368
332.736	-264.50259
333.255	-314.59633
333.773	-290.55585
334.291	-277.5642
334.808	-308.54819
335.326	-274.48944
335.844	-342.6283
336.361	-351.70646
336.879	-377.69488
337.396	-346.65422
337.913	-350.62554
338.43	-337.58257
338.947	-375.69397
339.464	-377.61298
339.981	-398.72458
340.497	-356.67544
341.014	-429.80622
341.53	-420.71432
342.046	-402.74561
342.562	-373.70407
343.078	-385.67337
343.594	-422.75542
344.11	-373.65203
344.626	-446.84086
345.141	-384.62981
345.657	-365.59713
346.172	-403.70375
346.687	-422.69256
347.202	-406.63995
347.717	-509.88613
348.232	-478.86806
348.747	-436.70119
349.261	-494.73572
349.776	-480.79219
350.29	-513.88413
350.805	-442.7672
351.319	-455.72657
351.833	-521.79981
352.347	-460.72932
352.861	-503.79045
353.374	-403.61451
353.888	-463.75247
354.401	-521.79934
354.915	-587.86462
355.428	-537.892
355.941	-531.80266
356.454	-440.63142
356.967	-561.8776
357.48	-520.77261
357.993	-533.85951
358.505	-557.88046
359.018	-540.84889
359.53	-606.93515
360.042	-531.72674
360.554	-568.87592
361.066	-568.86664
361.578	-577.76261
362.09	-595.88555
362.602	-570.7445
363.113	-553.76431
363.625	-625.83841
364.136	-566.72227
364.647	-689.9294
365.158	-605.82013
365.669	-597.83645
366.18	-647.89451
366.691	-585.71549
367.201	-641.88162
367.712	-633.79268
368.222	-668.84398
368.733	-685.7805
369.243	-709.82329
369.753	-682.84079
370.263	-718.92508
370.773	-761.02582
371.282	-757.93264
371.792	-848.94146
372.301	-854.03739
372.811	-821.1013
373.32	-836.75181
373.829	-937.0048
374.338	-916.85174
374.847	-932.86911
375.356	-1026.99624
375.865	-1054.74977
376.373	-1079.83381
376.882	-998.93145
377.39	-1073.87706
377.898	-1213.91792
378.407	-1177.63379
378.915	-1219.5566
379.423	-1259.63945
379.93	-1365.57457
380.438	-1460.58588
380.946	-1536.45525
381.453	-1583.36322
381.96	-1801.28646
382.468	-1957.03026
382.975	-1812.95109
383.482	-1927.74076
383.989	-2059.95182
384.495	-2183.59178
385.002	-2387.21043
385.509	-2514.23425
386.015	-2514.86585
386.521	-2654.85863
387.028	-2798.73479
387.534	-2846.6733
388.04	-2903.67367
388.546	-3233.60324
389.051	-3556.68028
389.557	-3784.84283
390.063	-3542.04793
390.568	-3824.35352
391.073	-4236.04662
391.578	-4323.32338
392.084	-4560.65182
392.589	-5226.65408
393.093	-5711.5271
393.598	-6007.45105
394.103	-6375.42756
394.607	-6845.68176
395.112	-7278.12395
395.616	-7777.47094
396.12	-8921.20432
396.624	-10012.93466
397.128	-10557.5652
397.632	-11426.04014
398.136	-12550.81158
398.639	-14912.3886
399.143	-17265.22103
399.646	-19196.54532
400.15	-21285.5958
400.653	-24246.1224
401.156	-28205.3725
401.659	-33489.65172
402.162	-31838.41055
402.664	-21728.87828
403.167	-6978.1059
403.67	-1240.67679
404.172	0
404.674	0
405.176	0
405.678	0
406.18	0
406.682	0
407.184	0
407.686	0
408.187	0
408.688	0
409.19	0
409.691	-7575.55842
410.192	-15712.74441
410.693	-21592.45746
411.194	-24764.48337
411.694	-23218.78432
412.195	-20570.23843
412.696	-20338.11106
413.196	-21486.0038
413.696	-22437.41487
414.196	-20835.68649
414.696	-17667.88855
415.196	-14170.51
415.696	-8896.93278
416.196	-6964.75338
416.695	-8029.62145
417.195	-9172.36552
417.694	-8525.95171
418.194	-7847.11981
418.693	-7885.1505
419.192	-7576.50599
419.691	-7528.79472
420.19	-7039.57358
420.688	-6543.72044
421.187	-6112.86748
421.685	-5216.6998
422.184	-4389.08561
422.682	-3972.57057
423.18	-4024.04886
423.678	-3825.61219
424.176	-3611.43269
424.674	-3404.69398
425.172	-2961.09492
425.669	-2653.82567
426.167	-2394.82238
426.664	-2206.88323
427.161	-2146.97714
427.659	-2004.22017
428.156	-2020.17869
428.652	-1871.6203
429.149	-1798.65567
429.646	-1662.65277
430.143	-1547.9408
430.639	-1490.02949
431.135	-1410.23402
431.632	-1338.19654
432.128	-1346.43066
432.624	-1363.64518
433.12	-1460.48708
433.616	-1268.37542
434.111	-1473.73076
434.607	-1361.78235
435.103	-1168.53252
435.598	-1084.49868
436.093	-1070.78236
436.588	-964.692
437.083	-922.72329
437.578	-919.80511
438.073	-1016.05651
438.568	-868.94675
439.062	-885.78148
439.557	-832.91859
440.051	-883.93805
440.546	-821.8703
441.04	-880.0669
441.534	-827.10939
442.028	-775.97665
442.522	-836.07613
443.015	-795.90172
443.509	-745.00217
444.002	-749.01223
444.496	-774.91558
444.989	-747.03877
445.482	-792.14734
445.975	-774.96961
446.468	-737.86745
446.961	-726.85854
447.454	-738.96463
447.947	-781.08766
448.439	-698.01567
448.931	-768.01659
449.424	-672.04018
449.916	-665.97972
450.408	-704.9425
450.9	-722.07802
451.392	-696.10019
451.884	-664.94451
452.375	-769.22401
452.867	-663.95231
453.358	-741.06286
453.849	-656.85945
454.341	-667.95208
454.832	-692.94485
455.323	-706.1321
455.814	-646.9683
456.304	-657.9976
456.795	-625.93705
457.285	-514.74144
457.776	-562.85951
458.266	-676.09248
458.756	-597.97973
459.247	-645.04489
459.737	-700.15948
460.226	-605.9218
460.716	-634.05741
461.206	-579.9719
461.695	-600.07822
462.185	-600.00715
462.674	-520.84161
463.163	-544.85172
463.653	-513.75039
464.142	-617.08755
464.63	-561.00876
465.119	-568.95629
465.608	-545.91529
466.096	-535.85883
466.585	-506.86996
467.073	-467.83277
467.561	-497.90097
468.05	-511.90137
468.538	-483.90549
469.026	-500.91726
469.513	-449.70552
470.001	-512.89159
470.489	-478.86717
470.976	-422.74491
471.463	-459.89746
471.951	-433.85424
472.438	-441.80879
472.925	-464.85205
473.412	-398.77874
473.899	-379.68665
474.385	-388.76133
474.872	-415.77184
475.359	-425.83885
475.845	-401.66304
476.331	-306.52939
476.817	-401.80412
477.303	-363.68553
477.789	-406.80982
478.275	-405.83278
478.761	-361.72089
479.247	-354.65854
479.732	-395.821
480.218	-377.82685
480.703	-365.76373
481.188	-341.60961
481.673	-355.68456
482.158	-400.71381
482.643	-309.66944
483.128	-325.62249
483.612	-326.64783
484.097	-296.61977
484.581	-296.58876
485.066	-330.68882
485.55	-333.62548
486.034	-292.53779
486.518	-341.69044
487.002	-330.69707
487.486	-328.69588
487.969	-365.78197
488.453	-313.69373
488.936	-305.59917
489.42	-264.50797
489.903	-256.56492
490.386	-737.20917
490.869	-228.433
491.352	-253.54836
491.835	-229.41423
492.318	-306.61262
492.8	-236.42787
493.283	-315.71442
493.765	-321.7076
494.247	-240.50052
494.73	-277.54699
495.212	-227.49033
495.694	-273.56795
496.175	-318.67496
496.657	-208.43841
497.139	-185.2869
497.62	-330.70623
498.102	-279.6225
498.583	-245.55274
499.064	-299.60235
499.545	-226.46189
500.026	-239.48037
500.507	-199.41253
500.988	-202.44987
501.469	-292.66428
501.949	-189.41961
502.43	-279.60007
502.91	-178.32666
503.39	-169.38004
503.87	-227.48025
504.35	-187.39874
504.83	-173.33809
505.31	-169.36584
505.79	-159.33874
506.269	-91.18814
506.749	-162.33004
507.228	-117.24276
507.707	-109.21362
508.187	-41.08621
508.666	-86.18605
509.145	-89.18326
509.623	-48.09877
510.102	-62.13264
510.581	67.1397
511.059	-1.00218
511.538	59.13246
512.016	40.08275
512.494	81.16934
512.972	100.20391
513.45	118.22945
513.928	221.44481
514.406	116.23525
514.884	200.43229
515.361	302.59061
515.839	330.60564
516.316	362.70225
516.793	430.87562
517.27	478.91801
517.747	485.98559
518.224	542.96882
518.701	576.97399
519.178	563.07416
519.654	593.08555
520.131	527.01946
520.607	552.07175
521.083	571.99781
521.56	552.00805
522.036	566.95032
522.512	569.09719
522.987	473.8828
523.463	480.90186
523.939	500.97416
524.414	462.84966
524.89	381.7347
525.365	389.70945
525.84	302.58865
526.315	315.62611
526.79	365.66837
527.265	336.62754
527.74	225.4635
528.215	249.49285
528.689	241.44597
529.164	214.39254
529.638	220.48345
530.112	145.29332
530.587	165.2983
531.061	94.19709
531.534	137.28845
532.008	77.16191
532.482	105.21036
532.956	14.03166
533.429	82.17451
533.903	106.20464
534.376	72.1396
534.849	16.03306
535.322	24.05041
535.795	49.10621
536.268	56.11887
536.741	17.0365
537.213	30.06176
537.686	1.00217
538.158	-21.04203
538.631	-6.01315
539.103	-70.14203
539.575	51.09418
540.047	-72.14421
540.519	-5.01076
540.991	-13.02874
541.463	-33.07229
541.934	-35.07236
542.406	-86.18684
542.877	-87.17946
543.348	-56.12317
543.82	-53.11841
544.291	-10.02108
544.762	-87.18793
545.233	-79.18013
545.703	-61.12204
546.174	-95.20196
546.645	-116.25202
547.115	-73.15938
547.585	-30.06204
548.056	-98.21337
548.526	-52.10936
548.996	-83.1809
549.466	-57.12582
549.935	-71.15028
550.405	-60.11734
550.875	-23.04826
551.344	-52.11158
551.814	-19.03872
552.283	26.04971
552.752	-34.06977
553.221	-12.02279
553.69	-15.02929
554.159	-25.05389
554.628	20.0387
555.096	51.11201
555.565	75.144
556.033	126.25565
556.502	83.17537
556.97	134.25622
557.438	203.4114
557.906	236.47839
558.374	277.53697
558.842	259.52681
559.31	391.72141
559.777	287.58669
560.245	457.88043
560.712	453.85972
561.18	534.93729
561.647	559.99124
562.114	557.00668
562.581	770.45466
563.048	754.32584
563.514	790.4714
563.981	893.50183
564.448	1007.59895
564.914	1128.82219
565.381	1177.82458
565.847	1283.00171
566.313	1374.07146
566.779	1497.08125
567.245	1635.29475
567.711	1744.44643
568.176	1859.27272
568.642	2016.7796
569.108	2165.7651
569.573	2358.65575
570.038	2506.17333
570.504	2644.41352
570.969	2898.99348
571.434	3024.2472
571.899	3209.64037
572.363	3472.31574
572.828	3807.21865
573.293	3922.15474
573.757	4103.06639
574.222	4377.72105
574.686	4526.65477
575.15	4789.8685
575.614	4930.58006
576.078	5163.58453
576.542	5378.32037
577.006	5490.20399
577.469	5708.70159
577.933	5734.05177
578.396	5889.3634
578.86	6129.24051
579.323	6188.26747
579.786	6297.7847
580.249	6328.01253
580.712	6367.40477
581.175	6301.4566
581.637	6410.1055
582.1	6391.88432
582.563	6475.79719
583.025	6286.36207
583.487	6319.52821
583.95	6212.76734
584.412	6205.70653
584.874	6090.43018
585.336	5989.3231
585.797	5978.86053
586.259	5838.37902
586.721	5676.38064
587.182	5582.45423
587.643	5408.33954
588.105	5209.67572
588.566	5043.1242
589.027	4879.93588
589.488	4889.63187
589.949	4681.12664
590.41	4547.983
590.87	4340.97096
591.331	4218.72526
591.791	4074.13975
592.252	3917.15205
592.712	3928.47969
593.172	3690.19896
593.632	3564.13992
594.092	3506.23566
594.552	3355.11379
595.011	3202.46667
595.471	3130.38015
595.931	2998.3889
596.39	2832.76042
596.849	2817.62933
597.308	2811.31438
597.768	2545.05772
598.227	2564.80398
598.685	2485.59083
599.144	2376.63166
599.603	2391.69788
600.062	2216.15935
600.52	2268.39881
600.978	2224.65846
601.437	2144.49569
601.895	2023.16373
602.353	1997.32763
602.811	1966.30777
603.269	1946.57929
603.727	1850.52495
604.184	1798.26971
604.642	1827.59469
605.099	1788.37622
605.557	1725.51298
606.014	1723.08458
606.471	1653.51539
606.928	1660.02157
607.385	1647.40652
607.842	1657.23583
608.299	1695.3326
608.755	1576.3456
609.212	1650.13619
609.668	1581.06797
610.125	1685.44939
610.581	1658.40592
611.037	1654.27742
611.493	1580.32913
611.949	1529.3233
612.405	1552.81856
612.861	1610.35246
613.316	1510.29346
613.772	1554.21861
614.227	1480.23552
614.683	1565.03986
615.138	1510.23954
615.593	1459.18067
616.048	1585.25296
616.503	1479.39003
616.958	1409.36655
617.412	1377.17061
617.867	1376.97713
618.321	1507.92557
618.776	1330.96379
619.23	1310.09554
619.684	1322.01965
620.138	1307.08539
620.592	1241.12461
621.046	1188.98865
621.5	1197.07948
621.954	1234.94634
622.407	1175.85754
622.861	1114.98738
623.314	1161.89946
623.768	1079.85223
624.221	1065.50096
624.674	1077.83108
625.127	1009.78247
625.58	1021.75701
626.033	1006.67647
626.485	966.77502
626.938	919.70666
627.39	938.68986
627.843	926.66649
628.295	902.63397
628.747	873.64599
629.199	849.53269
629.651	834.51053
630.103	825.51431
630.555	809.3683
631.006	739.42907
631.458	741.44183
631.909	809.51468
632.361	762.46412
632.812	740.41223
633.263	751.32917
633.714	762.33854
634.165	760.53462
634.616	674.35888
635.067	772.41577
635.518	714.43701
635.968	778.27557
636.419	685.25687
636.869	702.41671
637.319	622.2378
637.769	631.20941
638.219	650.33924
638.669	573.19493
639.119	621.31753
639.569	592.24746
640.019	672.33312
640.468	577.12704
640.918	569.20916
641.367	560.1049
641.816	559.1006
642.265	582.18174
642.714	560.14372
643.163	590.18983
643.612	499.07031
644.061	552.02587
644.51	533.07789
644.958	546.06058
645.406	475.02487
645.855	497.09761
646.303	548.14094
646.751	511.03899
647.199	498.01734
647.647	497.02746
648.095	517.06029
648.543	541.98625
648.99	472.02122
649.438	510.08053
649.885	525.16921
650.333	535.92108
650.78	467.02522
651.227	432.96478
651.674	449.93448
652.121	466.0331
652.568	436.97211
653.015	474.09481
653.461	454.98751
653.908	494.04292
654.354	421.92877
654.801	399.86624
655.247	459.92212
655.693	398.96547
656.139	419.929
656.585	439.9705
657.031	386.8357
657.477	372.7489
657.922	376.80745
658.368	410.94095
658.813	420.90736
659.259	401.89502
659.704	327.71962
660.149	390.84761
660.594	410.90508
661.039	314.67868
661.484	367.82523
661.929	324.71885
662.373	356.84544
662.818	324.76235
663.262	335.76286
663.707	322.775
664.151	335.77609
664.595	332.75893
665.039	311.73817
665.483	320.77515
665.927	320.71824
666.371	259.57621
666.814	369.83211
667.258	258.58742
667.701	324.66819
668.145	301.71802
668.588	293.68983
669.031	243.55249
669.474	296.68372
669.917	240.51741
670.36	286.68185
670.803	293.68016
671.245	269.5489
671.688	287.67439
672.13	247.53719
672.573	257.6325
673.015	255.59359
673.457	254.53725
673.899	284.66383
674.341	252.59019
674.783	217.50793
675.225	248.59195
675.666	226.52889
676.108	178.3826
676.549	270.61995
676.991	233.50222
677.432	224.43765
677.873	219.49651
678.314	222.51852
678.755	245.57997
679.196	243.54241
679.637	250.59489
680.078	214.49197
680.518	276.62458
680.959	194.45739
681.399	224.54284
681.839	182.43692
682.28	210.50758
682.72	207.46568
683.16	205.50063
683.6	190.42858
684.039	241.49199
684.479	158.38392
684.919	162.36975
685.358	202.50365
685.798	190.4893
686.237	217.51529
686.676	211.48246
687.115	229.52719
687.554	229.53245
687.993	220.47878
688.432	184.41606
688.871	177.39771
689.309	209.49055
689.748	198.41036
690.186	240.56099
690.625	167.38815
691.063	159.37844
691.501	234.5658
691.939	142.35188
692.377	186.44771
692.815	196.46175
693.253	195.46287
693.69	147.32284
694.128	163.39124
694.565	203.47703
695.003	219.54475
695.44	146.34182
695.877	147.3418
696.314	207.44024
696.751	243.5433
697.188	203.45968
697.625	206.46733
698.061	123.29501
698.498	179.42898
698.934	168.40132
699.371	109.25734
699.807	160.37621
700.243	153.36598
700.679	182.40886
701.115	248.57149
701.551	182.4246
701.987	230.5084
702.422	172.40474
702.858	190.44709
703.294	179.40253
703.729	186.44975
704.164	201.47674
704.599	164.36373
705.035	121.27166
705.47	93.22721
705.904	151.35027
706.339	199.45776
706.774	119.27932
707.209	148.34011
707.643	125.30026
708.078	187.44969
708.512	109.27252
708.946	164.39057
709.38	159.37466
709.814	139.31783
710.248	202.48511
710.682	132.31352
711.116	146.34623
711.549	169.43151
711.983	123.28476
712.416	156.36723
712.85	153.37893
713.283	147.34665
713.716	217.53564
714.149	150.3564
714.582	127.28595
715.015	187.46262
715.448	172.42917
715.881	194.42076
716.313	149.34782
716.746	118.27821
717.178	130.31209
717.61	159.39997
718.043	156.38614
718.475	124.30052
718.907	194.48459
719.339	109.24813
719.77	103.24497
720.202	135.33997
720.634	117.28456
721.065	164.38591
721.497	124.30368
721.928	122.29911
722.359	76.18454
722.79	131.31288
723.221	127.31902
723.652	175.44667
724.083	113.25589
724.514	116.26743
724.945	128.30074
725.375	80.18715
725.806	149.36997
726.236	133.33948
726.666	124.29372
727.096	148.36124
727.526	105.26679
727.956	95.2174
728.386	141.34575
728.816	103.26078
729.246	110.26749
729.675	108.26596
730.105	157.3837
730.534	114.26743
730.964	166.41585
731.393	202.4945
731.822	85.21803
732.251	139.35091
732.68	173.40431
733.109	113.27853
733.537	121.29198
733.966	121.30001
734.395	136.31354
734.823	147.33098
735.251	112.27011
735.68	171.42412
736.108	134.33763
736.536	135.31786
736.964	105.24463
737.392	127.31695
737.82	125.2998
738.247	123.29456
738.675	177.41885
739.102	107.26733
739.53	107.27225
739.957	88.22695
740.384	174.42501
740.811	114.28878
741.238	111.27108
741.665	167.3837
742.092	99.23754
742.519	58.14483
742.945	124.29735
743.372	94.23345
743.798	106.27242
744.225	101.24095
744.651	152.37845
745.077	146.36166
745.503	114.27825
745.929	126.3018
746.355	157.38769
746.781	129.31867
747.207	79.18659
747.632	105.25605
748.058	129.32078
748.483	169.38565
748.908	72.18012
749.334	115.28231
749.759	126.29661
750.184	98.23411
750.609	141.34473
751.033	172.40285
751.458	121.27199
751.883	150.36912
752.307	102.24077
752.732	48.12103
753.156	76.18882
753.58	130.30817
754.005	106.26909
754.429	87.20564
754.853	119.29408
755.277	134.31606
755.7	143.35248
756.124	112.27754
756.548	93.22127
756.971	111.27108
757.394	120.30808
757.818	127.32519
758.241	117.29601
758.664	91.23023
759.087	83.18658
759.51	116.28819
759.933	59.14329
760.356	104.26644
760.778	116.28472
761.201	86.21022
761.623	148.35679
762.046	154.36295
762.468	132.31617
762.89	117.28839
763.312	137.33283
763.734	84.20319
764.156	113.27864
764.578	106.24457
765	88.21551
765.421	69.176
765.843	125.326
766.264	120.28951
766.686	104.2612
767.107	106.25689
767.528	73.18496
767.949	124.31389
768.37	103.25286
768.791	127.30622
769.212	95.23855
769.632	42.0991
770.053	108.28354
770.473	108.26253
770.894	124.3093
771.314	170.40159
771.734	131.304
772.154	122.31179
772.575	157.36072
772.994	74.16931
773.414	121.28988
773.834	65.16346
774.254	89.21833
774.673	148.35746
775.093	89.22051
775.512	51.12668
775.931	100.25323
776.351	86.21389
776.77	86.21062
777.189	91.21693
777.607	87.2223
778.026	93.23168
778.445	36.09094
778.864	135.34361
779.282	86.20741
779.701	104.26157
780.119	75.18995
780.537	59.14805
780.955	161.40456
781.373	122.30011
781.791	77.17387
782.209	129.2958
782.627	106.2781
783.045	73.1688
783.462	93.2373
783.88	79.20448
784.297	116.29029
784.715	67.17246
785.132	95.22985
785.549	71.1781
785.966	74.18652
786.383	125.30539
786.8	116.26839
787.217	80.19009
787.633	67.1677
788.05	145.34127
788.466	151.35235
788.883	89.22661
789.299	59.14291
789.715	86.20913
790.131	129.3182
790.547	123.30508
790.963	106.2621
791.379	106.26679
791.795	136.30778
792.21	94.21965
792.626	112.26458
793.041	70.17321
793.457	91.22464
793.872	61.14419
794.287	67.16039
794.702	133.32481
795.117	104.25725
795.532	96.23981
795.947	103.24723
796.362	159.37466
796.776	175.40336
797.191	115.2798
797.605	46.10875
798.02	62.15145
798.434	134.29583
798.848	90.22123
799.262	86.21304
799.676	127.30738
800.09	103.25239
800.504	126.3033
800.918	80.18554
801.331	92.24055
801.745	98.22458
802.158	68.17029
802.572	126.30318
802.985	147.35109
803.398	116.27488
803.811	132.33616
804.224	116.28682
804.637	61.14586
805.05	102.23562
805.462	100.24481
805.875	96.24775
806.288	74.1786
806.7	78.19597
807.112	115.26497
807.525	101.24822
807.937	65.16099
808.349	65.16316
808.761	97.23777
809.173	122.29322
809.584	104.25583
809.996	39.09613
810.408	58.15
810.819	60.14163
811.231	11.02871
811.642	24.05777
812.053	43.1029
812.464	118.27832
812.875	95.24181
813.286	106.27118
813.697	155.35727
814.108	103.25042
814.519	80.17839
814.929	142.35778
815.34	124.29803
815.75	78.19794
816.16	96.23833
816.571	118.304
816.981	115.26961
817.391	82.19776
817.801	66.16409
818.211	129.30444
818.62	56.13526
819.03	90.21992
819.44	116.30061
819.849	66.16648
820.259	87.22207
820.668	48.11856
821.077	66.16403
821.486	118.28188
821.895	162.39378
822.304	78.20631
822.713	78.18426
823.122	99.24582
823.531	114.26816
823.939	109.26372
824.348	77.18707
824.756	151.37274
825.164	117.292
825.573	84.21021
825.981	116.28535
826.389	129.32066
826.797	91.22703
827.205	89.20359
827.612	90.22131
828.02	59.13887
828.428	79.2008
828.835	84.22038
829.243	120.28337
829.65	77.19113
830.057	122.29322
830.464	84.20411
830.871	131.31012
831.278	89.21436
831.685	111.24583
832.092	136.32885
832.499	105.22817
832.905	98.24675
833.312	128.28873
833.718	132.32506
834.124	144.32429
834.531	130.32403
834.937	103.26263
835.343	122.29144
835.749	85.19803
836.155	114.29594
836.561	98.23965
836.966	89.21679
837.372	89.22557
837.777	71.17668
838.183	121.2663
838.588	119.29257
838.993	110.26569
839.399	84.20465
839.804	40.09793
840.209	47.11997
840.613	83.18412
841.018	56.14201
841.423	72.1844
841.828	104.2611
842.232	150.36585
842.637	101.2367
843.041	30.07732
843.445	75.18772
843.849	43.10685
844.253	144.33714
844.657	54.13616
845.061	113.25401
845.465	82.19738
845.869	119.27364
846.272	69.16782
846.676	128.30589
847.079	71.18021
847.483	108.26724
847.886	146.34984
848.289	69.18382
848.692	76.19197
849.095	112.26653
849.498	140.34996
849.901	104.2367
850.304	133.31364
850.707	96.24327
851.109	90.22661
851.512	114.27742
851.914	61.15367
852.316	71.17925
852.718	35.09072
853.121	81.19774
853.523	71.16568
853.925	40.10466
854.326	92.22865
854.728	68.17458
855.13	74.19031
855.531	71.16932
855.933	108.25701
856.334	85.21091
856.736	92.20481
857.137	82.18988
857.538	53.13338
857.939	56.13842
858.34	127.30564
858.741	82.21346
859.142	65.15602
859.542	49.12945
859.943	82.2029
860.343	53.13136
860.744	113.27298
861.144	113.27288
861.544	46.11081
861.945	46.11748
862.345	55.13462
862.745	86.21265
863.145	123.29051
863.544	82.20632
863.944	95.2229
864.344	110.27069
864.743	142.34698
865.143	111.28243
865.542	65.1506
865.941	86.21179
866.34	94.22369
866.74	94.2507
867.139	71.16958
867.537	132.33187
867.936	56.13485
868.335	94.23761
868.734	125.31557
869.132	91.21009
869.531	110.26348
869.929	36.08243
870.327	74.17684
870.726	130.3199
871.124	100.23183
871.522	83.21044
871.92	98.23991
872.318	132.31822
872.715	117.28648
873.113	77.18693
873.511	81.20091
873.908	50.12634
874.306	62.15403
874.703	83.20669
875.1	78.19878
875.497	91.21676
875.894	42.10316
876.291	84.20511
876.688	71.18263
877.085	101.24031
877.482	109.27026
877.878	73.17515
878.275	89.22477
878.671	121.26596
879.068	97.23238
879.464	73.17589
879.86	85.1999
880.256	131.31885
880.652	55.13989
881.048	112.2747
881.444	128.3005
881.84	75.18995
882.236	113.2812
882.631	89.21711
883.027	154.36605
883.422	83.21119
883.817	28.0707
884.213	76.1943
884.608	67.16393
885.003	93.22263
885.398	71.1772
885.793	108.26851
886.188	48.11947
886.582	108.27446
886.977	96.22608
887.371	77.19398
887.766	52.12938
888.16	147.36073
888.554	150.36448
888.949	114.28322
889.343	98.23751
889.737	44.11743
890.131	111.27562
890.525	106.26861
890.918	65.16328
891.312	102.24189
891.706	92.23981
892.099	101.25489
892.492	100.21374
892.886	97.23548
893.279	69.17532
893.672	74.18772
894.065	76.18957
894.458	67.16812
894.851	120.29049
895.244	37.09478
895.637	91.21768
896.029	79.19229
896.422	96.23275
896.814	100.24654
897.206	62.14743
897.599	140.34082
897.991	91.21851
898.383	83.19505
898.775	62.13974
899.167	51.11901
899.559	86.21646
899.951	132.3065
900.342	99.24976
900.734	9.02251
901.125	101.26287
901.517	88.21463
901.908	100.2377
902.299	68.16579
902.69	118.27497
903.082	121.28933
903.473	60.1435
903.863	61.15543
904.254	63.14597
904.645	88.21751
905.036	54.13072
905.426	120.27113
905.817	92.22414
906.207	85.2013
906.597	67.15628
906.987	93.23939
907.378	91.22859
907.768	71.18713
908.158	86.20842
908.547	58.14969
908.937	72.18414
909.327	78.18854
909.717	114.28631
910.106	91.21701
910.495	105.25967
910.885	116.2905
911.274	68.16949
911.663	107.26897
912.052	133.32336
912.441	83.20992
912.83	96.2185
913.219	137.35337
913.608	102.24757
913.997	64.1601
914.385	131.30832
914.774	85.20573
915.162	93.21991
915.55	123.29366
915.939	66.16618
916.327	108.26685
916.715	42.10723
917.103	156.37664
917.491	122.298
917.878	99.24133
918.266	87.22425
918.654	78.19836
919.041	94.2436
919.429	103.24072
919.816	85.21421
920.203	86.20725
920.591	120.29388
920.978	108.26174
921.365	84.21919
921.752	79.18738
922.139	125.26724
922.525	43.10345
922.912	120.28896
923.299	53.1317
923.685	60.15629
924.072	120.27301
924.458	85.20929
924.844	93.22839
925.231	113.25984
925.617	51.12972
926.003	73.18587
926.389	90.22547
926.774	80.20172
927.16	90.22196
927.546	62.15795
927.931	88.21815
928.317	78.17875
928.702	117.27334
929.088	28.06653
929.473	77.19502
929.858	14.03408
930.243	77.18391
930.628	91.21975
931.013	58.14357
931.398	140.31632
931.783	74.19408
932.167	96.23275
932.552	90.22392
932.937	112.2749
933.321	79.19723
933.705	78.19569
934.09	129.32148
934.474	84.19828
934.858	64.16563
935.242	77.17756
935.626	80.20373
936.009	72.19082
936.393	124.31143
936.777	58.14833
937.16	109.28076
937.544	90.21047
937.927	41.10421
938.311	144.34544
938.694	144.37484
939.077	100.23715
939.46	145.34989
939.843	116.23859
940.226	65.16632
940.609	124.28051
940.991	83.21007
941.374	63.15363
941.757	124.30187
942.139	100.22234
942.522	109.25475
942.904	65.15584
943.286	106.2667
943.668	81.20872
944.05	75.18392
944.432	70.17213
944.814	81.19841
945.196	65.15797
945.578	35.08344
945.959	109.25255
946.341	123.29792
946.722	82.19131
947.104	118.27843
947.485	115.26423
947.866	80.20049
948.247	74.18592
948.628	90.21795
949.009	73.1862
949.39	91.22488
949.771	95.21906
950.152	98.2384
950.532	59.1449
950.913	100.23898
951.293	62.16716
951.674	111.26542
952.054	85.20929
952.434	62.15358
952.814	108.25414
953.194	98.2544
953.574	151.36505
953.954	97.2283
954.334	68.16894
954.714	62.15077
955.093	135.32674
955.473	83.20632
955.853	88.22632
956.232	95.25851
956.611	85.20255
956.99	72.18025
957.37	72.18278
957.749	90.2131
958.128	54.13596
958.506	90.23187
958.885	81.20332
959.264	64.15645
959.643	90.20318
960.021	77.18987
960.4	89.20014
960.778	117.28467
961.156	116.28735
961.535	114.2624
961.913	72.16778
962.291	45.11555
962.669	88.22141
963.047	98.24799
963.424	71.18053
963.802	83.20285
964.18	93.23353
964.557	125.28364
964.935	132.30783
965.312	90.23275
965.69	124.30638
966.067	109.26253
966.444	106.25853
966.821	115.29312
967.198	108.25918
967.575	104.25318
967.952	85.19897
968.329	87.21025
968.705	128.26991
969.082	102.25921
969.458	34.08181
969.835	81.19605
970.211	42.10794
970.587	84.20785
970.963	111.28173
971.339	83.2155
971.715	133.3271
972.091	106.25834
972.467	96.23746
972.843	70.17308
973.219	124.29361
973.594	82.21331
973.97	111.26115
974.345	73.17395
974.721	88.21159
975.096	85.20433
975.471	117.27398
975.846	116.2752
976.221	68.17213
976.596	105.24905
976.971	106.25902
977.346	113.25984
977.72	58.14755
978.095	79.20314
978.469	115.27109
978.844	114.28332
979.218	31.07458
979.593	68.16238
979.967	98.23661
980.341	81.18536
980.715	69.17327
981.089	65.16228
981.463	92.20948
981.837	72.17522
982.21	157.35769
982.584	55.13272
982.957	37.09261
983.331	90.21113
983.704	73.17861
984.078	76.1864
984.451	126.3104
984.824	50.12177
985.197	78.18847
985.57	85.21183
985.943	81.19892
986.316	112.27205
986.688	115.27393
987.061	119.27517
987.434	78.20228
987.806	106.25438
988.179	66.15525
988.551	106.26622
988.923	98.2392
989.295	152.3728
989.667	14.03367
990.039	43.10638
990.411	88.20102
990.783	113.25693
991.155	5.01212
991.527	132.32014
991.898	82.20313
992.27	86.21132
992.641	138.34072
993.012	69.16177
993.384	96.22696
993.755	76.19286
994.126	110.26157
994.497	71.17359
994.868	73.16692
995.239	83.19991
995.61	55.13826
995.98	126.30169
996.351	47.11645
996.722	72.16626
997.092	64.15113
997.462	17.03997
997.833	103.24167
998.203	142.33831
998.573	55.13682
998.943	98.22764
999.313	104.24663
999.683	69.16499
1000.053	105.23893
1000.423	97.23362
1000.792	87.22402
1001.162	87.21263
1001.531	79.19372
1001.901	65.16158
1002.27	90.19953
1002.639	102.2582
1003.009	74.17515
1003.378	71.18085
1003.747	96.22476
1004.116	65.15507
1004.485	102.24133
1004.853	77.19412
1005.222	120.29878
1005.591	109.25585
1005.959	61.13712
1006.328	69.15466
1006.696	68.16344
1007.064	87.21736
1007.433	80.19883
1007.801	124.30018
1008.169	95.23795
1008.537	107.2341
1008.905	78.18069
1009.273	99.24232
1009.64	103.24318
1010.008	80.18957
1010.375	102.24525
1010.743	181.40703
1011.11	102.2389
1011.478	67.16527
1011.845	144.33238
1012.212	108.24153
1012.579	102.24794
1012.946	111.26105
1013.313	133.31145
1013.68	98.21808
1014.047	92.21742
1014.414	73.17162
1014.78	59.14634
1015.147	86.20654
1015.513	78.1869
1015.88	113.28569
1016.246	102.24934
1016.612	130.29276
1016.978	58.14189
1017.344	107.26161
1017.71	106.25573
1018.076	96.22432
1018.442	108.27494
1018.808	62.1546
1019.174	71.17739
1019.539	185.41432
1019.905	59.13887
1020.27	85.20836
1020.636	116.27456
1021.001	117.27645
1021.366	49.11766
1021.731	95.24232
1022.096	43.10856
1022.461	104.24349
1022.826	80.18899
1023.191	69.18038
1023.556	97.22519
1023.92	55.13507
1024.285	96.23222
1024.649	140.33725
1025.014	83.20429
1025.378	91.22703
1025.742	85.20967
1026.107	76.17095
1026.471	109.25144
1026.835	96.23589
1027.199	59.14173
1027.562	101.23234
1027.926	80.19447
1028.29	81.20376
1028.654	108.24551
1029.017	118.2863
1029.381	82.19461
1029.744	93.23529
1030.107	129.30042
1030.471	81.19272
1030.834	80.18083
1031.197	116.27583
1031.56	87.20373
1031.923	95.2436
1032.286	66.15446
1032.648	113.26689
1033.011	71.16222
1033.374	144.33211
1033.736	59.15482
1034.099	104.25081
1034.461	38.09616
1034.823	70.17359
1035.185	99.2469
1035.548	60.14569
1035.91	86.2045
1036.272	81.18313
1036.634	122.29433
1036.995	71.16613
1037.357	93.22433
1037.719	112.26909
1038.08	104.24425
1038.442	91.21418
1038.803	90.21434
1039.165	97.24261
1039.526	106.25332
1039.887	102.24152
1040.248	64.1572
1040.609	109.2663
1040.97	51.12455
1041.331	83.20879
1041.692	89.20604
1042.053	115.25829
1042.413	134.30696
1042.774	105.2526
1043.134	172.39969
1043.495	112.27825
1043.855	96.23073
1044.215	103.25304
1044.576	94.22275
1044.936	79.17999
1045.296	120.29551
1045.656	77.18791
1046.016	110.26237
1046.375	85.20472
1046.735	71.16019
1047.095	72.16771
1047.454	148.30674
1047.814	85.20286
1048.173	161.37627
1048.533	57.13034
1048.892	75.17906
1049.251	94.23396
1049.61	97.23663
1049.969	101.23559
1050.328	120.25616
1050.687	54.13122
1051.046	137.32796
1051.405	113.27771
1051.763	67.15345
1052.122	52.12957
1052.48	96.23327
1052.839	100.23284
1053.197	128.29651
1053.555	164.36509
1053.914	136.32712
1054.272	151.35788
1054.63	49.11976
1054.988	87.20509
1055.345	69.1479
1055.703	118.28016
1056.061	96.24483
1056.419	65.16772
1056.776	112.26827
1057.134	99.22683
1057.491	93.23092
1057.848	88.21743
1058.206	94.21904
1058.563	93.20304
1058.92	110.25036
1059.277	87.21303
1059.634	99.23056
1059.991	87.20684
1060.348	82.18399
1060.704	55.13086
1061.061	130.29708
1061.418	52.12598
1061.774	62.15263
1062.131	82.2155
1062.487	63.14684
1062.843	75.18603
1063.199	81.20017
1063.555	68.1569
1063.911	77.19342
1064.267	118.24226
1064.623	43.10451
1064.979	97.22759
1065.335	116.2736
1065.691	112.26509
1066.046	127.27457
1066.402	59.13371
1066.757	77.19328
1067.112	87.21192
1067.468	45.10629
1067.823	116.2752
1068.178	102.24413
1068.533	85.20457
1068.888	112.26427
1069.243	60.14771
1069.598	112.26878
1069.952	51.11474
1070.307	80.19679
1070.662	75.17707
1071.016	48.10752
1071.371	70.15848
1071.725	86.20418
1072.079	81.19354
1072.434	48.11659
1072.788	93.21948
1073.142	152.36657
1073.496	69.16297
1073.85	62.14334
1074.203	62.14998
1074.557	48.1276
1074.911	131.3076
1075.265	82.18927
1075.618	115.27719
1075.971	91.2146
1076.325	75.18962
1076.678	81.18395
1077.031	58.13094
1077.385	70.15344
1077.738	65.14617
1078.091	104.23373
1078.444	108.2477
1078.796	106.25718
1079.149	106.26075
1079.502	82.19236
1079.855	50.11651
1080.207	92.22472
1080.56	74.19031
1080.912	109.26223
1081.264	64.15359
1081.617	97.23415
1081.969	68.17085
1082.321	87.21081
1082.673	80.18134
1083.025	119.27834
1083.377	-135.3011
1083.728	136.31166
1084.08	66.16415
1084.432	99.23636
1084.783	126.2906
1085.135	73.18206
1085.486	64.1459
1085.838	65.15951
1086.189	95.22846
1086.54	100.23633
1086.891	70.17625
1087.242	99.23862
1087.593	93.22441
1087.944	102.2282
1088.295	99.22263
1088.646	81.19501
1088.996	33.07969
1089.347	84.20465
1089.698	66.15537
1090.048	85.21925
1090.398	96.22044
1090.749	65.15495
1091.099	53.13309
1091.449	102.25147
1091.799	103.25519
1092.149	48.11699
1092.499	91.22009
1092.849	69.17463
1093.199	130.32085
1093.548	90.21442
1093.898	50.12499
1094.248	72.18414
1094.597	40.10219
1094.947	66.17544
1095.296	82.20112
1095.645	88.22719
1095.994	108.25632
1096.343	83.20744
1096.692	37.09732
1097.041	41.11107
1097.39	103.25566
1097.739	76.19648
1098.088	94.24979
1098.437	51.13383
1098.785	98.26189
1099.134	129.33769
1099.482	76.20797
1099.83	87.22698
1100.179	69.17922
1100.527	70.18521
1100.875	46.12159
1101.223	83.21898
1101.571	61.16812
1101.919	34.08899
1102.267	58.16294
1102.615	5.01607
1102.962	21.06753
1103.31	7.02249
1103.658	16.0515
