Data from N2 R14 sample 12_Subt2__5__14-20-40-094.txt Node

Date: Tue Sep 02 14:20:40 PDT 2025
User: uwsun
Spectrometer: HDX01956
Trigger mode: 0
Integration Time (sec): 5.000000E-1
Scans to average: 1
Nonlinearity correction enabled: true
Boxcar width: 0
Storing dark spectrum: false
XAxis mode: Wavelengths
Number of Pixels in Spectrum: 2068
>>>>>Begin Spectral Data<<<<<
194.03	-56.15853
194.578	-52.16548
195.127	-61.19155
195.676	-64.20164
196.225	4.0106
196.773	-17.04674
197.321	-43.11622
197.87	-34.08466
198.418	-69.17071
198.966	-79.19695
199.513	-125.2998
200.061	-131.31969
200.609	-69.17581
201.156	-119.25044
201.704	-115.27823
202.251	-136.34756
202.798	-103.25687
203.345	-35.08251
203.892	-74.17806
204.438	-90.20708
204.985	-146.33297
205.532	-122.30871
206.078	-87.20477
206.624	-144.34149
207.17	-63.13987
207.716	-122.28485
208.262	-54.10205
208.808	-113.26555
209.354	-109.25435
209.899	-2.0048
210.445	-122.29077
210.99	-114.26345
211.535	-26.05805
212.08	-80.17861
212.625	-64.15312
213.17	-34.08191
213.715	-109.23162
214.259	-58.12923
214.804	-71.16834
215.348	-51.11149
215.892	-69.15847
216.436	-27.05967
216.98	-34.07192
217.524	-95.21591
218.068	-71.17146
218.612	-14.03348
219.155	-47.10552
219.698	-30.06803
220.242	-46.10997
220.785	-55.12328
221.328	-72.17253
221.871	-23.05575
222.414	-51.122
222.956	-123.28645
223.499	-35.07528
224.041	18.03984
224.583	-4.00827
225.126	-95.20301
225.668	-70.16331
226.21	-75.18105
226.751	-74.15529
227.293	-32.07003
227.835	-102.2403
228.376	6.01319
228.918	-51.12362
229.459	-82.19574
230	-87.19957
230.541	-47.10387
231.082	-85.19827
231.622	2.00437
232.163	-94.21913
232.704	-66.15646
233.244	-77.1832
233.784	-74.17495
234.324	-97.20423
234.864	-94.20562
235.404	-52.11859
235.944	-36.08154
236.484	-36.08577
237.023	-109.24844
237.563	-74.16371
238.102	-66.14937
238.641	-90.21869
239.18	-50.11094
239.719	-64.15359
240.258	-39.08363
240.797	-50.11371
241.335	-45.10505
241.874	-33.06027
242.412	-104.24015
242.95	-105.24019
243.488	-36.07808
244.026	-70.15383
244.564	-61.12012
245.102	-70.14994
245.64	-29.06645
246.177	-90.19379
246.715	6.01358
247.252	-65.14281
247.789	-7.01255
248.326	-110.25228
248.863	-81.16949
249.4	-37.07975
249.936	-44.08589
250.473	-54.11927
251.009	-73.15884
251.546	-62.12982
252.082	-52.10816
252.618	-64.13519
253.154	-119.27364
253.69	-50.10664
254.226	-83.18849
254.761	-80.17114
255.297	-62.12856
255.832	-100.22567
256.367	-24.05314
256.903	-61.12679
257.438	-72.16089
257.972	-46.09674
258.507	-147.3227
259.042	-77.15891
259.576	-96.19567
260.111	-41.08948
260.645	4.00809
261.179	-109.242
261.713	-75.15784
262.247	-101.22209
262.781	-70.13845
263.315	-92.21312
263.849	-105.24905
264.382	-77.16797
264.915	-92.20354
265.449	-157.36332
265.982	-45.09637
266.515	-58.13281
267.048	-110.22135
267.58	-51.1053
268.113	-96.19611
268.646	-106.2474
269.178	-91.19151
269.71	-32.06537
270.243	-62.13332
270.775	-105.25241
271.307	-69.15682
271.838	-15.03334
272.37	-67.15462
272.902	-62.13258
273.433	-69.14163
273.965	-93.21334
274.496	-83.19474
275.027	-104.2432
275.558	-101.23067
276.089	-138.31916
276.62	-81.19413
277.15	-107.24988
277.681	-60.12229
278.211	-46.10537
278.741	-104.21487
279.272	-119.25584
279.802	-59.13751
280.332	-81.17819
280.861	-75.16866
281.391	-111.23628
281.921	-62.13951
282.45	-62.14459
282.98	-91.22207
283.509	-93.19564
284.038	-133.28569
284.567	-63.13731
285.096	-59.1323
285.625	-107.22707
286.153	-64.13863
286.682	-100.213
287.21	-114.256
287.739	-159.35404
288.267	-158.35917
288.795	-91.22307
289.323	-120.26038
289.851	-77.1669
290.378	-95.19782
290.906	-157.35436
291.433	-128.29745
291.961	-113.23687
292.488	-144.33476
293.015	-131.28564
293.542	-136.31891
294.069	-92.2077
294.596	-97.22207
295.122	-93.20407
295.649	-103.20989
296.175	-93.20794
296.702	-105.23525
297.228	-99.22208
297.754	-110.22716
298.28	-163.34319
298.806	-134.29658
299.332	-146.29704
299.857	-130.26943
300.383	-93.21599
300.908	-185.41346
301.433	-124.2749
301.958	-119.25297
302.483	-161.36843
303.008	-125.28352
303.533	-113.26948
304.058	-71.15179
304.582	-128.27418
305.107	-176.42027
305.631	-104.21603
306.155	-197.42116
306.679	-151.32002
307.203	-189.40161
307.727	-118.25287
308.251	-130.29097
308.775	-167.35749
309.298	-188.40775
309.822	-159.364
310.345	-175.37623
310.868	-177.38283
311.391	-151.33595
311.914	-176.39733
312.437	-121.24747
312.96	-180.38123
313.482	-175.37202
314.005	-197.44573
314.527	-196.46211
315.049	-133.29983
315.571	-184.36172
316.093	-162.356
316.615	-177.37807
317.137	-159.30468
317.659	-124.26538
318.18	-149.31758
318.702	-142.28824
319.223	-158.28266
319.744	-197.38737
320.265	-203.42985
320.786	-225.48643
321.307	-187.4048
321.828	-152.29571
322.348	-181.36732
322.869	-230.46879
323.389	-358.52334
323.909	-232.46189
324.43	-160.3322
324.95	-230.45087
325.47	-275.5823
325.989	-212.42247
326.509	-221.40671
327.029	-218.40976
327.548	-242.45421
328.067	-293.59651
328.587	-254.53466
329.106	-267.50744
329.625	-264.59354
330.144	-269.51448
330.662	-300.57613
331.181	-204.38742
331.7	-268.51517
332.218	-224.38875
332.736	-255.48439
333.255	-296.55968
333.773	-282.53947
334.291	-251.50821
334.808	-327.58488
335.326	-252.44757
335.844	-339.62232
336.361	-379.76773
336.879	-358.65671
337.396	-356.67478
337.913	-346.61775
338.43	-327.56377
338.947	-376.69599
339.464	-360.58253
339.981	-425.77905
340.497	-384.73355
341.014	-394.73405
341.53	-425.7238
342.046	-430.80313
342.562	-393.74547
343.078	-417.73551
343.594	-413.73759
344.11	-369.64436
344.626	-422.79091
345.141	-450.75173
345.657	-352.57376
346.172	-417.73089
346.687	-440.72574
347.202	-429.68072
347.717	-437.74625
348.232	-407.72575
348.747	-476.77426
349.261	-482.71522
349.776	-450.73647
350.29	-561.97929
350.805	-440.76332
351.319	-470.75376
351.833	-510.78036
352.347	-477.75999
352.861	-464.72088
353.374	-457.70812
353.888	-537.89101
354.401	-508.77638
354.915	-564.82484
355.428	-517.85401
355.941	-558.85035
356.454	-431.61674
356.967	-540.83956
357.48	-515.76401
357.993	-533.85951
358.505	-611.98096
359.018	-522.81629
359.53	-614.94974
360.042	-506.68683
360.554	-520.79049
361.066	-604.93151
361.578	-523.6786
362.09	-596.88731
362.602	-591.77749
363.113	-565.78395
363.625	-595.79015
364.136	-554.70399
364.647	-685.92277
365.158	-610.82828
365.669	-586.81812
366.18	-621.85128
366.691	-612.75584
367.201	-623.8518
367.712	-669.84849
368.222	-670.84711
368.733	-710.81678
369.243	-723.844
369.753	-701.87013
370.263	-669.84731
370.773	-747.00222
371.282	-739.90456
371.792	-822.90326
372.301	-835.00725
372.811	-835.12536
373.32	-865.78848
373.829	-961.04061
374.338	-903.83467
374.847	-988.94491
375.356	-978.92955
375.865	-1021.71265
376.373	-1040.78699
376.882	-1035.98231
377.39	-1055.85445
377.898	-1257.97405
378.407	-1248.70656
378.915	-1164.50741
379.423	-1310.69115
379.93	-1308.52279
380.438	-1545.66927
380.946	-1507.43105
381.453	-1547.33565
381.96	-1819.30041
382.468	-1977.04289
382.975	-1900.99955
383.482	-1963.75547
383.989	-2069.95787
384.495	-2132.57307
385.002	-2311.1991
385.509	-2451.21967
386.015	-2548.86249
386.521	-2642.85904
387.028	-2882.72707
387.534	-2920.65775
388.04	-2969.66421
388.546	-3301.58571
389.051	-3563.67796
389.557	-3791.84019
390.063	-3516.0604
390.568	-3805.363
391.073	-4133.10143
391.578	-4320.32499
392.084	-4538.6643
392.589	-5068.74368
393.093	-5764.49746
393.598	-5919.49218
394.103	-6352.43517
394.607	-6985.67396
395.112	-7275.12338
395.616	-7780.47258
396.12	-8807.06958
396.624	-9871.6563
397.128	-10466.30586
397.632	-11207.09693
398.136	-12580.98213
398.639	-14712.07577
399.143	-17258.16205
399.646	-18916.56775
400.15	-21105.36904
400.653	-24155.87924
401.156	-27820.78444
401.659	-33386.21704
402.162	-31816.18479
402.664	-21601.55265
403.167	-6453.90473
403.67	-1192.78663
404.172	0
404.674	0
405.176	0
405.678	0
406.18	0
406.682	0
407.184	0
407.686	0
408.187	0
408.688	0
409.19	0
409.691	-7065.32313
410.192	-15088.97427
410.693	-21290.25573
411.194	-24862.29341
411.694	-23075.64736
412.195	-20617.63311
412.696	-20567.38801
413.196	-21287.81451
413.696	-22390.86298
414.196	-21044.06247
414.696	-17725.55916
415.196	-14334.53885
415.696	-8876.65276
416.196	-6728.38999
416.695	-7817.37294
417.195	-8953.743
417.694	-8550.118
418.194	-7595.65155
418.693	-7891.17757
419.192	-7529.31667
419.691	-7466.56295
420.19	-7259.28846
420.688	-6529.67869
421.187	-6067.73956
421.685	-5269.80344
422.184	-4417.11655
422.682	-4021.58206
423.18	-3947.07682
423.678	-3781.63558
424.176	-3618.42872
424.674	-3391.7013
425.172	-3006.07094
425.669	-2649.82754
426.167	-2299.86302
426.664	-2278.85877
427.161	-2211.96445
427.659	-1973.221
428.156	-1976.18148
428.652	-1869.61975
429.149	-1787.65271
429.646	-1666.65361
430.143	-1499.92149
430.639	-1509.03871
431.135	-1544.32659
431.632	-1302.1758
432.128	-1328.41632
432.624	-1373.65515
433.12	-1462.48881
433.616	-1310.40748
434.111	-1457.71385
434.607	-1317.73431
435.103	-1126.4956
435.598	-1068.48489
436.093	-1056.76609
436.588	-968.69644
437.083	-893.68989
437.578	-906.78878
438.073	-1015.05503
438.568	-892.98228
439.062	-888.78525
439.557	-884.99614
440.051	-913.98184
440.546	-860.92622
441.04	-840.00347
441.534	-841.13349
442.028	-751.93837
442.522	-803.02176
443.015	-735.81436
443.509	-750.01059
444.002	-778.06164
444.496	-739.86276
444.989	-784.10341
445.482	-792.14734
445.975	-772.96642
446.468	-755.89463
446.961	-692.80796
447.454	-685.8791
447.947	-793.1087
448.439	-722.05851
448.931	-734.96198
449.424	-657.01243
449.916	-697.03522
450.408	-733.99089
450.9	-747.12391
451.392	-726.15767
451.884	-667.94968
452.375	-772.22985
452.867	-644.91947
453.358	-721.0276
453.849	-589.75402
454.341	-674.96421
454.832	-653.88013
455.323	-696.11285
455.814	-621.92375
456.304	-640.96681
456.795	-655.991
457.285	-613.91183
457.776	-585.90084
458.266	-609.9672
458.756	-626.03373
459.247	-687.12628
459.737	-630.0231
460.226	-613.93623
460.716	-579.95281
461.206	-614.03858
461.695	-573.02247
462.185	-593.99542
462.674	-550.89775
463.163	-539.84266
463.653	-491.7133
464.142	-566.9862
464.63	-521.92911
465.119	-498.82238
465.608	-503.83502
466.096	-552.89042
466.585	-479.81757
467.073	-518.93594
467.561	-492.89076
468.05	-443.76751
468.538	-507.95612
469.026	-488.89253
469.513	-494.78642
470.001	-501.86989
470.489	-471.85295
470.976	-416.73317
471.463	-432.83926
471.951	-422.83039
472.438	-471.87035
472.925	-513.95368
473.412	-379.73822
473.899	-411.75072
474.385	-458.91354
474.872	-445.83382
475.359	-416.81935
475.845	-356.58126
476.331	-338.58975
476.817	-347.68715
477.303	-374.70821
477.789	-402.80109
478.275	-403.8283
478.761	-336.66708
479.247	-327.60422
479.732	-418.87326
480.218	-349.76093
480.703	-342.71196
481.188	-360.64674
481.673	-372.72028
482.158	-438.78933
482.643	-330.71814
483.128	-363.70167
483.612	-356.7124
484.097	-278.57977
484.581	-303.60367
485.066	-346.72477
485.55	-348.65607
486.034	-344.64184
486.518	-318.64048
487.002	-377.80454
487.486	-348.74153
487.969	-300.6337
488.453	-336.74826
488.936	-309.6076
489.42	-271.52232
489.903	-285.63273
490.386	-716.16776
490.869	-211.39905
491.352	-234.50513
491.835	-279.51113
492.318	-274.54449
492.8	-227.41061
493.283	-318.72166
493.765	-289.6328
494.247	-226.46986
494.73	-271.53438
495.212	-238.5153
495.694	-288.60115
496.175	-315.66816
496.657	-251.53404
497.139	-177.27385
497.62	-346.74303
498.102	-297.66512
498.583	-244.55038
499.064	-290.58301
499.545	-269.55514
500.026	-247.49737
500.507	-228.47571
500.988	-230.5152
501.469	-268.60673
501.949	-218.48691
502.43	-266.57051
502.91	-220.40802
503.39	-231.52606
503.87	-200.42062
504.35	-210.45002
504.83	-185.36257
505.31	-171.37032
505.79	-181.38746
506.269	-193.40814
506.749	-145.29426
507.228	-164.34385
507.707	-100.19556
508.187	-74.15673
508.666	-124.27043
509.145	-135.28086
509.623	-65.13426
510.102	-39.08302
510.581	29.06098
511.059	-44.09669
511.538	1.00227
512.016	34.07044
512.494	101.21022
512.972	32.06626
513.45	88.17234
513.928	132.27113
514.406	89.18161
514.884	177.38446
515.361	246.48748
515.839	298.55132
516.316	278.55012
516.793	366.75615
517.27	415.80912
517.747	446.9144
518.224	425.78258
518.701	478.82971
519.178	406.8053
519.654	501.9397
520.131	481.94226
520.607	532.03776
521.083	452.81456
521.56	499.92488
522.036	501.85606
522.512	495.9729
522.987	441.82959
523.463	415.7922
523.939	446.8801
524.414	426.79053
524.89	351.68173
525.365	331.61253
525.84	228.45223
526.315	253.51015
526.79	265.4975
527.265	309.58097
527.74	214.44193
528.215	162.32719
528.689	206.38454
529.164	208.38211
529.638	149.33232
530.112	104.21236
530.587	119.21767
531.061	60.12674
531.534	94.19979
532.008	57.12038
532.482	127.25314
532.956	-19.04325
533.429	59.12619
533.903	56.10941
534.376	65.12624
534.849	32.06588
535.322	45.09408
535.795	12.02622
536.268	2.0043
536.741	-29.06288
537.213	-11.02285
537.686	-40.08772
538.158	-24.04807
538.631	-45.09941
539.103	-113.23152
539.575	-16.03004
540.047	-28.05551
540.519	15.03215
540.991	-14.03096
541.463	-35.07671
541.934	-59.12264
542.406	-77.16697
542.877	-59.12094
543.348	-41.08989
543.82	-55.12292
544.291	-65.13866
544.762	-64.13757
545.233	-77.1755
545.703	-95.19156
546.174	-91.19328
546.645	-126.27433
547.115	-104.22855
547.585	-74.15453
548.056	-130.28496
548.526	-101.21471
548.996	-57.12355
549.466	-77.17067
549.935	-104.22171
550.405	-73.1432
550.875	-78.16564
551.344	-52.11158
551.814	-29.05923
552.283	-32.06205
552.752	-68.14062
553.221	-55.10555
553.69	-23.04499
554.159	-42.09086
554.628	-17.03319
555.096	-9.02002
555.565	68.13078
556.033	92.18811
556.502	77.16291
556.97	81.15687
557.438	98.20338
557.906	181.37152
558.374	143.28609
558.842	190.39255
559.31	243.46498
559.777	264.54249
560.245	356.70249
560.712	403.77414
561.18	362.66405
561.647	425.77983
562.114	511.93579
562.581	579.14433
563.048	607.10788
563.514	668.28138
563.981	761.32525
564.448	852.41206
564.914	994.66547
565.381	1045.68136
565.847	1150.86312
566.313	1212.91472
566.779	1291.91093
567.245	1434.13716
567.711	1475.24043
568.176	1685.18167
568.642	1805.65051
569.108	1948.66336
569.573	2131.5928
570.038	2161.15103
570.504	2335.39992
570.969	2502.96271
571.434	2665.30792
571.899	2803.70374
572.363	3126.42792
572.828	3303.42204
573.293	3452.36289
573.757	3667.28018
574.222	3763.04882
574.686	4012.93994
575.15	4154.22307
575.614	4385.8872
576.078	4534.93436
576.542	4677.69257
577.006	4844.53037
577.469	5131.99103
577.933	5173.29568
578.396	5273.63436
578.86	5261.58428
579.323	5473.52497
579.786	5538.9697
580.249	5499.25265
580.712	5610.65356
581.175	5547.72619
581.637	5596.3272
582.1	5755.01136
582.563	5627.95475
583.025	5592.5974
583.487	5592.64963
583.95	5494.95881
584.412	5570.85931
584.874	5500.66174
585.336	5304.61047
585.797	5200.15179
586.259	5173.68391
586.721	4946.74237
587.182	4947.77708
587.643	4732.69595
588.105	4631.9965
588.566	4477.43417
589.027	4299.26228
589.488	4233.00142
589.949	4099.44442
590.41	3966.31115
590.87	3895.20717
591.331	3880.90707
591.791	3633.35078
592.252	3442.36168
592.712	3439.67824
593.172	3269.36309
593.632	3157.2888
594.092	3119.36678
594.552	2890.25068
595.011	2823.54011
595.471	2669.45441
595.931	2645.4344
596.39	2483.74578
596.849	2449.62112
597.308	2296.32081
597.768	2222.95973
598.227	2187.71747
598.685	2127.51555
599.144	2079.5486
599.603	2043.59051
600.062	1924.09298
600.52	1913.29322
600.978	1834.48665
601.437	1851.37586
601.895	1799.08527
602.353	1810.24778
602.811	1778.22392
603.269	1724.44676
603.727	1618.36861
604.184	1588.14467
604.642	1586.41724
605.099	1489.16894
605.557	1512.34255
606.014	1442.91502
606.471	1387.27286
606.928	1444.88987
607.385	1311.1084
607.842	1436.07364
608.299	1416.11892
608.755	1414.20462
609.212	1315.89158
609.668	1315.87052
610.125	1368.17789
610.581	1387.17652
611.037	1356.04165
611.493	1370.14531
611.949	1308.11477
612.405	1298.65895
612.861	1390.16439
613.316	1321.11624
613.772	1272.97339
614.227	1269.03467
614.683	1308.84942
615.138	1211.95642
615.593	1227.96019
616.048	1231.94102
616.503	1148.02491
616.958	1195.1218
617.412	1140.91834
617.867	1164.78071
618.321	1172.66598
618.776	1115.75211
619.23	1088.84936
619.684	1094.78291
620.138	1143.90832
620.592	1001.82339
621.046	1077.85665
621.5	994.81928
621.954	1042.73289
622.407	957.60632
622.861	930.73696
623.314	936.62616
623.768	812.49227
624.221	873.30407
624.674	926.6376
625.127	839.54701
625.58	909.61038
626.033	844.46824
626.485	800.53062
626.938	798.52605
627.39	715.36081
627.843	819.51383
628.295	739.39361
628.747	726.41762
629.199	662.25152
629.651	658.24455
630.103	673.28198
630.555	698.21561
631.006	657.29513
631.458	699.37354
631.909	660.28063
632.361	599.19556
632.812	600.18342
633.263	592.09054
633.714	629.1429
634.165	551.16526
634.616	589.2104
635.067	609.1621
635.518	571.18653
635.968	662.11999
636.419	563.06428
636.869	562.17014
637.319	554.11967
637.769	532.04366
638.219	603.25536
638.669	514.0857
639.119	486.06097
639.569	466.00864
640.019	498.02746
640.468	504.0012
640.918	545.16412
641.367	491.98596
641.816	471.94798
642.265	498.03023
642.714	457.95663
643.163	454.94551
643.612	417.91186
644.061	433.82977
644.51	439.90838
644.958	452.89906
645.406	425.92857
645.855	419.94213
646.303	479.0123
646.751	401.83719
647.199	472.97163
647.647	404.85411
648.095	434.90829
648.543	485.89668
648.99	408.89652
649.438	460.98695
649.885	399.91333
650.333	409.7278
650.78	409.9106
651.227	421.94236
651.674	430.89872
652.121	387.87376
652.568	367.82997
653.015	352.83433
653.461	337.75126
653.908	378.81978
654.354	336.75446
654.801	293.65049
655.247	378.77359
655.693	336.82458
656.139	350.78718
656.585	364.81732
657.031	320.70259
657.477	278.57178
657.922	325.70561
658.368	349.81076
658.813	322.71025
659.259	250.57541
659.704	322.70936
660.149	276.6144
660.594	287.64987
661.039	298.6463
661.484	337.76245
661.929	343.75799
662.373	235.5711
662.818	263.62618
663.262	259.59886
663.707	238.58196
664.151	277.64912
664.595	255.59196
665.039	246.59122
665.483	264.64625
665.927	276.62509
666.371	216.48483
666.814	287.65806
667.258	225.51571
667.701	272.5675
668.145	277.66381
668.588	230.54815
669.031	238.54167
669.474	197.46401
669.917	248.53374
670.36	233.56115
670.803	255.5964
671.245	184.38271
671.688	240.56913
672.13	204.44773
672.573	240.59252
673.015	210.49319
673.457	269.5671
673.899	250.58826
674.341	219.51623
674.783	179.42211
675.225	202.4864
675.666	204.47947
676.108	264.55693
676.549	267.61343
676.991	226.48786
677.432	231.45058
677.873	178.40692
678.314	198.46464
678.755	186.44533
679.196	173.39175
679.637	227.54256
680.078	229.52487
680.518	250.56874
680.959	222.52055
681.399	188.45869
681.839	222.52888
682.28	170.414
682.72	200.45058
683.16	204.49828
683.6	236.52733
684.039	198.40816
684.479	151.36739
684.919	140.32096
685.358	198.49404
685.798	200.51415
686.237	204.48563
686.676	171.39415
687.115	200.4631
687.554	155.36566
687.993	170.3739
688.432	159.36137
688.871	172.38687
689.309	190.44761
689.748	177.36856
690.186	200.47117
690.625	145.33848
691.063	117.28072
691.501	200.48669
691.939	136.33738
692.377	165.39875
692.815	155.36807
693.253	189.44915
693.69	164.35888
694.128	124.29984
694.565	166.3929
695.003	187.46786
695.44	181.42085
695.877	127.29646
696.314	153.32922
696.751	210.47272
697.188	160.36548
697.625	194.44118
698.061	141.33702
698.498	180.4313
698.934	172.41056
699.371	134.31483
699.807	157.36937
700.243	175.41684
700.679	222.49461
701.115	120.28359
701.551	165.38622
701.987	224.49576
702.422	136.32227
702.858	150.35572
703.294	173.38952
703.729	155.37698
704.164	169.40332
704.599	142.31638
705.035	132.29569
705.47	137.33196
705.904	99.23201
706.339	212.4864
706.774	114.26784
707.209	141.32448
707.643	165.39332
708.078	128.31126
708.512	106.26517
708.946	111.26704
709.38	116.27562
709.814	144.32893
710.248	152.36851
710.682	135.32046
711.116	115.27435
711.549	125.32164
711.983	127.29378
712.416	102.24264
712.85	181.44597
713.283	131.30988
713.716	151.37725
714.149	145.34486
714.582	143.32092
715.015	143.35662
715.448	151.37821
715.881	159.34743
716.313	140.32739
716.746	148.34691
717.178	144.34478
717.61	194.48494
718.043	180.44359
718.475	123.29815
718.907	199.49662
719.339	139.31451
719.77	89.21224
720.202	135.33997
720.634	146.35317
721.065	143.33788
721.497	160.38921
721.928	118.28952
722.359	101.24409
722.79	135.32218
723.221	119.29935
723.652	162.41444
724.083	146.32839
724.514	145.33235
724.945	85.20138
725.375	87.20325
725.806	166.4109
726.236	156.39657
726.666	127.30065
727.096	133.32553
727.526	116.29416
727.956	124.28211
728.386	134.32902
728.816	121.30537
729.246	86.21007
729.675	85.21021
730.105	121.2977
730.534	103.24214
730.964	182.45461
731.393	163.40192
731.822	127.32337
732.251	126.31884
732.68	142.33389
733.109	99.24465
733.537	120.28962
733.966	113.28058
734.395	119.27528
734.823	128.28932
735.251	110.26538
735.68	148.36862
736.108	125.31546
736.536	112.26489
736.964	91.2126
737.392	108.27046
737.82	169.40193
738.247	136.32488
738.675	161.38217
739.102	92.23048
739.53	133.33685
739.957	106.27252
740.384	170.41555
740.811	128.32343
741.238	101.24712
741.665	119.27604
742.092	180.42521
742.519	91.22587
742.945	105.2527
743.372	123.30385
743.798	162.41226
744.225	92.21986
744.651	107.26859
745.077	106.2645
745.503	113.27586
745.929	117.28072
746.355	132.32746
746.781	121.29935
747.207	68.16095
747.632	87.21287
748.058	129.32078
748.483	141.32357
748.908	72.18012
749.334	113.27751
749.759	89.21102
750.184	90.21533
750.609	151.36849
751.033	165.38698
751.458	137.30695
751.883	120.29693
752.307	73.17329
752.732	65.1634
753.156	157.38427
753.58	114.27108
754.005	132.33354
754.429	89.21029
754.853	86.21381
755.277	134.31606
755.7	118.29219
756.124	85.21167
756.548	80.19082
756.971	131.31873
757.394	93.23989
757.818	123.31517
758.241	98.24878
758.664	72.18278
759.087	108.24153
759.51	154.37994
759.933	52.12645
760.356	137.34895
760.778	106.26065
761.201	160.38572
761.623	98.23849
762.046	173.40622
762.468	137.32783
762.89	99.24483
763.312	193.46394
763.734	87.21033
764.156	106.26171
764.578	140.32083
765	111.27068
765.421	48.12289
765.843	123.32089
766.264	130.31304
766.686	127.31764
767.107	80.19483
767.528	40.10194
767.949	103.2617
768.37	85.20936
768.791	149.35777
769.212	94.23608
769.632	95.22185
770.053	106.27838
770.473	83.2027
770.894	131.32634
771.314	122.29088
771.734	104.24263
772.154	123.31429
772.575	101.23466
772.994	92.20973
773.414	152.36199
773.834	84.21051
774.254	119.29029
774.673	108.26282
775.093	63.15683
775.512	73.1806
775.931	92.2333
776.351	100.24808
776.77	81.19856
777.189	125.29603
777.607	78.19962
778.026	102.25369
778.445	46.11599
778.864	124.31623
779.282	74.17887
779.701	107.26897
780.119	79.19994
780.537	76.19012
780.955	125.31614
781.373	85.21052
781.791	75.16942
782.209	144.3292
782.627	102.26779
783.045	39.09079
783.462	84.21468
783.88	94.24268
784.297	63.15917
784.715	37.09574
785.132	64.15575
785.549	74.18552
785.966	94.23608
786.383	121.29583
786.8	107.24801
787.217	84.19944
787.633	64.16028
788.05	176.41173
788.466	159.37043
788.883	111.28153
789.299	66.15965
789.715	89.2163
790.131	136.33504
790.547	107.26617
790.963	102.25239
791.379	102.25691
791.795	133.30117
792.21	91.21276
792.626	116.27382
793.041	69.17077
793.457	128.31382
793.872	114.26669
794.287	57.13671
794.702	87.21429
795.117	80.19875
795.532	108.26919
795.947	99.23781
796.362	134.31729
796.776	148.34297
797.191	89.2176
797.605	36.08528
798.02	69.16832
798.434	118.26138
798.848	104.25498
799.262	117.28818
799.676	115.27897
800.09	115.28116
800.504	99.23952
800.918	104.24005
801.331	116.30206
801.745	146.33135
802.158	59.14799
802.572	125.30083
802.985	109.26223
803.398	81.19324
803.811	114.29124
804.224	113.27956
804.637	83.19763
805.05	83.19246
805.462	121.29506
805.875	73.18915
806.288	48.11642
806.7	103.25762
807.112	83.19246
807.525	119.29148
807.937	76.18785
808.349	101.25188
808.761	80.19672
809.173	101.24372
809.584	84.2074
809.996	51.12543
810.408	46.11921
810.819	96.22502
811.231	34.08839
811.642	37.08885
812.053	80.19009
812.464	100.23669
812.875	130.32884
813.286	90.2309
813.697	163.37511
814.108	128.30974
814.519	87.19372
814.929	105.26631
815.34	82.19866
815.75	80.20294
816.16	102.25295
816.571	84.21769
816.981	140.32662
817.391	105.25212
817.801	47.11726
818.211	99.235
818.62	88.21127
819.03	94.22952
819.44	103.26752
819.849	72.18142
820.259	94.23964
820.668	117.28531
821.077	73.1812
821.486	131.31216
821.895	89.2193
822.304	98.25833
822.713	122.28574
823.122	98.24338
823.531	68.16139
823.939	66.16098
824.348	113.27267
824.756	93.23202
825.164	111.27732
825.573	86.21514
825.981	110.27089
826.389	136.33763
826.797	77.19259
827.205	64.14714
827.612	137.33395
828.02	49.11555
828.428	96.24327
828.835	79.20744
829.243	141.3316
829.65	62.15431
830.057	83.20097
830.464	124.29905
830.871	113.26844
831.278	143.34088
831.685	112.24799
832.092	92.22431
832.499	107.23242
832.905	122.30585
833.312	78.17774
833.718	133.32747
834.124	114.25831
834.531	113.28252
834.937	90.23001
835.343	128.30542
835.749	145.33382
836.155	77.20116
836.561	59.14532
836.966	98.23831
837.372	87.22058
837.777	107.26452
838.183	106.23402
838.588	94.23217
838.993	109.26332
839.399	90.21902
839.804	16.03934
840.209	90.22799
840.613	110.24265
841.018	126.31554
841.423	101.25735
841.828	47.11921
842.232	121.29671
842.637	89.20907
843.041	34.08756
843.445	94.23447
843.849	98.24107
844.253	155.36211
844.657	61.15362
845.061	94.21213
845.465	62.14981
845.869	99.22856
846.272	67.16302
846.676	96.23082
847.079	63.16013
847.483	125.30834
847.886	113.27247
848.289	83.2206
848.692	74.18699
849.095	105.25021
849.498	151.37671
849.901	88.20094
850.304	126.29754
850.707	103.26068
851.109	112.28088
851.512	68.1669
851.914	66.16612
852.316	95.23881
852.718	27.07008
853.121	87.21216
853.523	88.20466
853.925	70.18222
854.326	67.16727
854.728	73.18725
855.13	48.12401
855.531	89.21151
855.933	117.27794
856.334	51.12733
856.736	92.20481
857.137	85.19671
857.538	51.12839
857.939	51.12617
858.34	118.28447
858.741	88.22884
859.142	123.29197
859.542	84.22061
859.943	98.24178
860.343	68.16808
860.744	97.23504
861.144	106.25631
861.544	53.12751
861.945	109.27528
862.345	91.22125
862.745	115.28284
863.145	140.32957
863.544	111.27783
863.944	139.32333
864.344	121.29715
864.743	132.32315
865.143	100.25494
865.542	55.12768
865.941	91.22389
866.34	117.2772
866.74	96.25595
867.139	97.23052
867.537	72.18297
867.936	92.22003
868.335	118.297
868.734	100.25359
869.132	106.24399
869.531	117.27987
869.929	42.09606
870.327	103.24478
870.726	158.38679
871.124	107.24771
871.522	93.23538
871.92	118.2878
872.318	96.23301
872.715	129.31516
873.113	59.14371
873.511	50.12472
873.908	32.08112
874.306	76.18833
874.703	73.18212
875.1	121.30602
875.497	65.1556
875.894	27.0665
876.291	105.25538
876.688	82.21052
877.085	107.25429
877.482	102.25322
877.878	134.31778
878.275	80.20237
878.671	152.33192
879.068	121.28855
879.464	90.21615
879.86	55.13011
880.256	85.20867
880.652	61.15499
881.048	110.26989
881.444	87.20588
881.84	87.21988
882.236	89.22244
882.631	123.29815
883.027	90.21656
883.422	52.13304
883.817	43.10829
884.213	111.28203
884.608	47.11543
885.003	101.24141
885.398	61.15252
885.793	79.19745
886.188	60.14901
886.582	113.28691
886.977	113.26523
887.371	99.24842
887.766	52.12938
888.16	80.19875
888.554	95.23322
888.949	133.32928
889.343	99.23988
889.737	26.0696
890.131	57.14293
890.525	84.21369
890.918	91.22752
891.312	125.29512
891.706	74.19349
892.099	100.25242
892.492	100.21374
892.886	83.20202
893.279	98.24772
893.672	62.15762
894.065	86.21413
894.458	116.2885
894.851	129.31175
895.244	55.14044
895.637	48.11576
896.029	118.28512
896.422	97.23513
896.814	66.16373
897.206	51.12153
897.599	115.28127
897.991	41.09938
898.383	121.28224
898.775	62.13974
899.167	45.10513
899.559	74.18666
899.951	132.3065
900.342	95.23984
900.734	35.08713
901.125	121.31384
901.517	66.16164
901.908	146.34396
902.299	74.18022
902.69	85.19936
903.082	95.22829
903.473	47.11269
903.863	81.20566
904.254	71.16424
904.645	42.10469
905.036	46.11153
905.426	143.32158
905.817	88.21455
906.207	62.14749
906.597	63.14707
906.987	116.29739
907.378	64.16155
907.768	61.16104
908.158	107.25829
908.547	78.2006
908.937	85.21689
909.327	83.20044
909.717	111.27893
910.106	78.18647
910.495	122.30077
910.885	118.2954
911.274	45.11263
911.663	122.30585
912.052	115.28054
912.441	106.26699
912.83	86.19613
913.219	94.24427
913.608	67.16369
913.997	11.02778
914.385	129.30373
914.774	95.2295
915.162	75.17797
915.55	93.22331
915.939	46.11624
916.327	110.27169
916.715	46.11735
917.103	127.30831
917.491	105.25729
917.878	91.22216
918.266	63.16307
918.654	54.13791
919.041	61.15898
919.429	79.1855
919.816	83.20924
920.203	109.26153
920.591	114.2795
920.978	99.24034
921.365	60.1572
921.752	76.18037
922.139	123.26307
922.525	70.16754
922.912	104.25119
923.299	72.17829
923.685	66.17175
924.072	136.30841
924.458	47.11653
924.844	57.14091
925.231	74.17149
925.617	42.107
926.003	64.16322
926.389	81.20325
926.774	87.21909
927.16	120.29432
927.546	36.09213
927.931	125.30777
928.317	71.16294
928.702	73.17202
929.088	63.14868
929.473	107.26955
929.858	15.03651
930.243	80.19096
930.628	57.13853
931.013	103.25286
931.398	165.3709
931.783	81.21219
932.167	86.20889
932.552	98.24347
932.937	125.30607
933.321	68.17011
933.705	60.15102
934.09	152.37721
934.474	93.21914
934.858	55.14256
935.242	72.16619
935.626	80.20373
936.009	64.16984
936.393	60.15242
936.777	79.20129
937.16	65.16871
937.544	116.26988
937.927	86.21685
938.311	137.32908
938.694	94.24679
939.077	81.1928
939.46	137.33108
939.843	111.22856
940.226	104.26429
940.609	112.25398
940.991	95.23992
941.374	87.2112
941.757	94.23012
942.139	40.09005
942.522	128.29803
942.904	113.26844
943.286	86.21716
943.668	108.27698
944.05	88.21527
944.432	85.20844
944.814	126.30605
945.196	65.15797
945.578	35.08344
945.959	78.18183
946.341	140.33801
946.722	79.18442
947.104	98.23214
947.485	81.18737
947.866	47.11849
948.247	60.15113
948.628	88.21319
949.009	58.14833
949.39	97.23945
949.771	144.3288
950.152	67.16393
950.532	22.0544
950.913	106.25303
951.293	80.21506
951.674	127.30274
952.054	82.20201
952.434	103.25323
952.814	94.2218
953.194	122.3154
953.574	83.20323
953.954	55.13051
954.334	67.16649
954.714	70.16997
955.093	110.26749
955.473	42.10518
955.853	94.2415
956.232	120.32522
956.611	125.29558
956.99	94.23438
957.37	65.16521
957.749	85.20146
958.128	73.18318
958.506	107.27485
958.885	72.18103
959.264	60.14678
959.643	58.1318
960.021	87.21413
960.4	102.22877
960.778	99.24169
961.156	71.17733
961.535	87.20133
961.913	92.21354
962.291	47.12064
962.669	58.14672
963.047	108.2728
963.424	98.24799
963.802	83.20285
964.18	106.26555
964.557	85.19444
964.935	104.24387
965.312	68.17653
965.69	79.1968
966.067	101.24363
966.444	76.1864
966.821	59.15187
967.198	74.17874
967.575	80.19563
967.952	131.30388
968.329	91.21975
968.705	97.20594
969.082	81.20661
969.458	61.14603
969.835	90.21746
970.211	43.11049
970.587	86.21272
970.963	77.19661
971.339	94.2436
971.715	89.22067
972.091	113.27504
972.467	132.32435
972.843	59.14618
973.219	94.22387
973.594	68.17732
973.97	148.34569
974.345	58.13861
974.721	103.24695
975.096	129.30751
975.471	75.17707
975.846	74.17698
976.221	80.20208
976.596	60.14355
976.971	82.20127
977.346	108.24859
977.72	109.27479
978.095	90.23098
978.469	123.2895
978.844	82.20498
979.218	47.11273
979.593	93.22102
979.967	103.24845
980.341	102.23243
980.715	81.20296
981.089	95.23589
981.463	90.20501
981.837	46.11249
982.21	141.32228
982.584	43.104
982.957	91.22554
983.331	101.23642
983.704	83.2027
984.078	114.27763
984.451	114.28146
984.824	76.18419
985.197	94.22644
985.57	85.21183
985.943	92.22548
986.316	157.37813
986.688	94.22481
987.061	134.30893
987.434	75.1946
987.806	60.14525
988.179	50.11798
988.551	105.26376
988.923	90.22
989.295	111.27431
989.667	72.17128
990.039	75.18446
990.411	84.19204
990.783	70.16055
991.155	72.17226
991.527	160.38601
991.898	80.19825
992.27	98.24027
992.641	97.24129
993.012	144.33264
993.384	96.22696
993.755	91.23031
994.126	79.18897
994.497	56.1373
994.868	138.31142
995.239	86.20701
995.61	85.21252
995.98	75.18132
996.351	94.23089
996.722	24.05595
997.092	50.11839
997.462	62.14448
997.833	74.17461
998.203	104.24958
998.573	66.16385
998.943	96.22309
999.313	98.23267
999.683	78.18619
1000.053	136.30753
1000.423	89.21468
1000.792	97.24933
1001.162	79.19337
1001.531	82.20097
1001.901	100.24699
1002.27	103.22773
1002.639	91.23081
1003.009	94.22163
1003.378	98.24843
1003.747	89.20866
1004.116	81.19265
1004.485	101.23901
1004.853	114.28549
1005.222	54.13606
1005.591	89.20972
1005.959	81.18133
1006.328	44.09913
1006.696	52.12536
1007.064	99.24681
1007.433	87.21595
1007.801	99.24079
1008.169	106.26498
1008.537	93.20407
1008.905	95.21932
1009.273	90.22066
1009.64	74.17569
1010.008	81.19191
1010.375	117.28051
1010.743	158.35698
1011.11	110.25724
1011.478	88.21623
1011.845	87.20309
1012.212	50.11316
1012.579	52.12759
1012.946	103.24261
1013.313	79.18695
1013.68	105.23332
1014.047	93.21974
1014.414	62.14607
1014.78	73.1806
1015.147	97.23247
1015.513	92.21986
1015.88	129.32521
1016.246	94.23012
1016.612	146.32772
1016.978	84.2045
1017.344	65.16016
1017.71	99.23916
1018.076	123.28589
1018.442	105.26745
1018.808	111.27431
1019.174	39.098
1019.539	159.358
1019.905	56.13188
1020.27	64.15749
1020.636	145.34127
1021.001	113.2672
1021.366	72.17213
1021.731	59.15145
1022.096	53.13357
1022.461	96.22511
1022.826	86.20293
1023.191	89.23188
1023.556	92.21379
1023.92	119.28878
1024.285	104.25119
1024.649	121.29253
1025.014	103.25258
1025.378	90.22457
1025.742	102.25082
1026.107	101.22601
1026.471	132.3031
1026.835	126.30789
1027.199	85.20317
1027.562	90.20749
1027.926	100.24217
1028.29	89.22357
1028.654	109.24773
1029.017	157.37813
1029.381	82.19461
1029.744	67.1703
1030.107	109.25485
1030.471	133.31327
1030.834	103.23172
1031.197	93.22212
1031.56	67.15751
1031.923	105.26877
1032.286	119.2756
1032.648	111.26227
1033.011	20.04616
1033.374	110.25542
1033.736	38.10007
1034.099	115.27677
1034.461	59.14874
1034.823	80.19803
1035.185	110.27378
1035.548	130.3115
1035.91	77.18342
1036.272	95.21416
1036.634	117.28254
1036.995	91.21209
1037.357	76.18391
1037.719	95.22898
1038.08	79.18644
1038.442	66.1561
1038.803	89.212
1039.165	99.24752
1039.526	125.29763
1039.887	135.31761
1040.248	56.13776
1040.609	121.29495
1040.97	52.12697
1041.331	82.20632
1041.692	70.16267
1042.053	77.1743
1042.413	105.24193
1042.774	129.30893
1043.134	152.35461
1043.495	124.30739
1043.855	85.20472
1044.215	93.2289
1044.576	51.12186
1044.936	140.31503
1045.296	130.31955
1045.656	127.30703
1046.016	80.19191
1046.375	77.18574
1046.735	24.05467
1047.095	111.25657
1047.454	116.24214
1047.814	77.18405
1048.173	147.3445
1048.533	73.16638
1048.892	41.09852
1049.251	143.35274
1049.61	108.26292
1049.969	115.2675
1050.328	110.23532
1050.687	99.23853
1051.046	81.19598
1051.405	117.28733
1051.763	63.1444
1052.122	65.16158
1052.48	58.14194
1052.839	105.24424
1053.197	120.27842
1053.555	190.42069
1053.914	93.22552
1054.272	157.37167
1054.63	109.26342
1054.988	117.27419
1055.345	105.22331
1055.703	92.21952
1056.061	91.23228
1056.419	80.20589
1056.776	141.33586
1057.134	109.24924
1057.491	112.27714
1057.848	111.2731
1058.206	87.20301
1058.563	74.16221
1058.92	82.18769
1059.277	99.24187
1059.634	118.27378
1059.991	94.22318
1060.348	74.16631
1060.704	46.10964
1061.061	161.36562
1061.418	80.19279
1061.774	87.21318
1062.131	41.1085
1062.487	49.11452
1062.843	121.29759
1063.199	99.24385
1063.555	56.12952
1063.911	97.24279
1064.267	191.38567
1064.623	55.13337
1064.979	115.26887
1065.335	124.29202
1065.691	91.21626
1066.046	112.24292
1066.402	89.20047
1066.757	82.20565
1067.112	135.32588
1067.468	70.16453
1067.823	109.25894
1068.178	95.22768
1068.533	100.23998
1068.888	91.2156
1069.243	63.155
1069.598	96.23108
1069.952	77.17231
1070.307	41.10158
1070.662	48.11392
1071.016	48.10752
1071.371	87.19629
1071.725	100.23678
1072.079	82.19589
1072.434	83.20028
1072.788	101.23799
1073.142	139.33604
1073.496	96.22555
1073.85	110.25188
1074.203	106.25428
1074.557	70.18539
1074.911	133.31218
1075.265	91.20967
1075.618	101.24409
1075.971	114.26763
1076.325	28.07138
1076.678	59.13458
1077.031	73.1643
1077.385	126.27293
1077.738	80.17935
1078.091	58.13158
1078.444	123.28125
1078.796	95.23097
1079.149	85.2099
1079.502	78.18312
1079.855	64.14873
1080.207	94.22952
1080.56	89.22829
1080.912	93.22441
1081.264	80.1914
1081.617	95.22941
1081.969	52.13102
1082.321	64.15575
1082.673	42.09594
1083.025	49.11618
1083.377	-120.26681
1083.728	118.27139
1084.08	76.18868
1084.432	94.22464
1084.783	134.30856
1085.135	86.21397
1085.486	52.11883
1085.838	89.21744
1086.189	46.11165
1086.54	91.21543
1086.891	54.13635
1087.242	87.21017
1087.593	117.28104
1087.944	77.17316
1088.295	134.29918
1088.646	118.2821
1088.996	15.03635
1089.347	85.20705
1089.698	42.09933
1090.048	86.22179
1090.398	93.21368
1090.749	97.22981
1091.099	42.10567
1091.449	86.21265
1091.799	88.21863
1092.149	18.04412
1092.499	55.13392
1092.849	36.09165
1093.199	96.23842
1093.548	78.18626
1093.898	64.15958
1094.248	100.25449
1094.597	28.07168
1094.947	53.14119
1095.296	95.23244
1095.645	82.21192
1095.994	85.20263
1096.343	77.19266
1096.692	66.17275
1097.041	42.11376
1097.39	81.20186
1097.739	96.24732
1098.088	80.21308
1098.437	69.18051
1098.785	67.17997
1099.134	111.29147
1099.482	102.27796
1099.83	94.24494
1100.179	60.15608
1100.527	66.17474
1100.875	34.09005
1101.223	58.15366
1101.571	52.14352
1101.919	25.06554
1102.267	80.22399
1102.615	3.00965
1102.962	18.0579
1103.31	-6.0193
1103.658	8.02578
