Data from N2 R14 sample 4_Subt2__5__14-28-41-577.txt Node

Date: Tue Sep 02 14:28:41 PDT 2025
User: uwsun
Spectrometer: HDX01956
Trigger mode: 0
Integration Time (sec): 5.000000E-1
Scans to average: 1
Nonlinearity correction enabled: true
Boxcar width: 0
Storing dark spectrum: false
XAxis mode: Wavelengths
Number of Pixels in Spectrum: 2068
>>>>>Begin Spectral Data<<<<<
194.03	16.0448
194.578	10.03159
195.127	24.07456
195.676	26.081
196.225	125.32466
196.773	85.22988
197.321	90.23796
197.87	152.3656
198.418	143.33997
198.966	63.153
199.513	26.06056
200.061	40.09449
200.609	126.30995
201.156	88.17675
201.704	48.11256
202.251	54.13338
202.798	83.19998
203.345	149.33864
203.892	113.26223
204.438	157.34335
204.985	74.16125
205.532	81.19752
206.078	96.21788
206.624	79.17926
207.17	175.36926
207.716	92.20575
208.262	97.17653
208.808	51.11601
209.354	129.28688
209.899	156.3628
210.445	101.23039
210.99	57.12724
211.535	123.26615
212.08	126.26931
212.625	127.29273
213.17	153.35547
213.715	76.15498
214.259	146.31152
214.804	121.27623
215.348	151.31596
215.892	84.187
216.436	172.36429
216.98	195.39175
217.524	73.16025
218.068	168.38731
218.612	118.27508
219.155	94.20492
219.698	121.26596
220.242	152.34958
220.785	137.29492
221.328	149.34193
221.871	133.31291
222.414	126.29118
222.956	82.18323
223.499	116.24138
224.041	160.34361
224.583	183.36255
225.126	190.38092
225.668	99.22327
226.21	85.19897
226.751	74.15021
227.293	154.32374
227.835	119.26827
228.376	190.40135
228.918	135.31576
229.459	96.22132
230	151.32981
230.541	149.31578
231.082	91.20489
231.622	157.33216
232.163	131.29181
232.704	115.26306
233.244	150.34126
233.784	142.32162
234.324	58.11795
234.864	120.2506
235.404	139.30475
235.944	165.3584
236.484	115.26602
237.023	130.28196
237.563	124.26297
238.102	142.30772
238.641	133.30962
239.18	99.21284
239.719	118.27334
240.258	158.32438
240.797	102.22481
241.335	123.27762
241.874	62.11051
242.412	121.26686
242.95	85.18699
243.488	177.36643
244.026	103.2181
244.564	167.31119
245.102	130.26642
245.64	143.3163
246.177	101.20853
246.715	119.2631
247.252	151.31666
247.789	224.37782
248.326	78.17213
248.863	151.29972
249.4	151.31232
249.936	157.29183
250.473	141.2987
251.009	117.24428
251.546	107.21566
252.082	98.19702
252.618	107.21754
253.154	107.23489
253.69	135.27635
254.226	142.30772
254.761	146.29704
255.297	152.30008
255.832	124.26699
256.367	168.35706
256.903	113.22576
257.438	137.29289
257.972	108.21943
258.507	45.09479
259.042	127.25008
259.576	110.21369
260.111	151.3161
260.645	161.31389
261.179	50.10733
261.713	96.19442
262.247	121.25364
262.781	122.23044
263.315	74.16576
263.849	78.17846
264.382	150.31144
264.915	72.15383
265.449	73.1612
265.982	150.30768
266.515	120.26493
267.048	112.21384
267.58	161.31658
268.113	99.19329
268.646	114.25452
269.178	105.21143
269.71	138.27103
270.243	140.28795
270.775	114.26261
271.307	149.32365
271.838	146.31368
272.37	86.19241
272.902	152.30995
273.433	161.31329
273.965	81.17931
274.496	88.19956
275.027	104.23325
275.558	105.22982
276.089	70.15519
276.62	108.24948
277.15	133.2959
277.681	153.29673
278.211	113.25057
278.741	103.20291
279.272	79.1626
279.802	117.26322
280.332	96.20332
280.861	160.34243
281.391	105.21299
281.921	109.23666
282.45	129.2895
282.98	99.23301
283.509	152.30248
284.038	127.2575
284.567	151.31414
285.096	128.27596
285.625	142.28495
286.153	46.0973
286.682	138.27871
287.21	89.19151
287.739	129.27005
288.267	100.21541
288.795	112.26417
289.323	117.24102
289.851	136.28136
290.378	156.30667
290.906	103.22011
291.433	121.2673
291.961	117.23277
292.488	85.18864
293.015	125.25773
293.542	96.21487
294.069	75.16354
294.596	138.30097
295.122	117.24536
295.649	127.24525
296.175	127.27104
296.702	151.32044
297.228	117.25078
297.754	128.2502
298.28	155.30349
298.806	80.16914
299.332	96.18454
299.857	98.19274
300.383	127.28208
300.908	58.12311
301.433	130.27293
301.958	114.23003
302.483	118.25484
303.008	118.2544
303.533	91.2085
304.058	156.31709
304.582	110.22349
305.107	20.04596
305.631	189.3669
306.155	108.21562
306.679	129.25665
307.203	100.19909
307.727	135.27347
308.251	120.25471
308.775	72.14615
309.298	52.107
309.822	125.26978
310.345	135.27084
310.868	127.25679
311.391	104.21911
311.914	113.24001
312.437	149.28607
312.96	104.20657
313.482	131.2599
314.005	77.16447
314.527	98.21781
315.049	122.26065
315.571	58.10751
316.093	110.22788
316.615	67.13554
317.137	122.21791
317.659	138.27859
318.18	125.25054
318.702	140.26587
319.223	167.27378
319.744	102.18643
320.265	51.10199
320.786	97.19523
321.307	94.19124
321.828	101.18465
322.348	86.16388
322.869	131.24508
323.389	154.18994
323.909	66.12228
324.43	160.30845
324.95	113.20356
325.47	150.28806
325.989	85.15768
326.509	68.11607
327.029	132.22677
327.548	91.15679
328.067	91.16906
328.587	168.32076
329.106	129.22155
329.625	176.35987
330.144	127.21964
330.662	74.12931
331.181	114.19973
331.7	85.14951
332.218	113.17863
332.736	89.1549
333.255	84.14407
333.773	68.11907
334.291	142.26165
334.808	97.15458
335.326	98.15828
335.844	107.17443
336.361	58.10574
336.879	109.17649
337.396	97.16356
337.913	112.17639
338.43	136.20565
338.947	105.17107
339.464	116.16264
339.981	96.15294
340.497	63.10733
341.014	27.04505
341.53	65.09614
342.046	88.14334
342.562	97.16204
343.078	156.2342
343.594	122.18792
344.11	165.24779
344.626	107.17443
345.141	125.1761
345.657	167.23288
346.172	89.13535
346.687	52.07412
347.202	108.14514
347.717	97.14198
348.232	108.16704
348.747	98.13389
349.261	35.04383
349.776	142.19426
350.29	25.03693
350.805	124.18312
351.319	126.1681
351.833	63.08017
352.347	86.11511
352.861	89.11609
353.374	104.13487
353.888	100.13698
354.401	82.10358
354.915	89.10428
355.428	51.07107
355.941	75.09299
356.454	152.17818
356.967	94.11932
357.48	93.1127
357.993	107.14156
358.505	61.0794
359.018	151.19042
359.53	116.14144
360.042	87.0954
360.554	156.18995
361.066	73.09038
361.578	138.1394
362.09	111.13025
362.602	64.06589
363.113	68.07535
363.625	121.12289
364.136	183.17434
364.647	15.0156
365.158	143.14705
365.669	147.1578
366.18	140.14521
366.691	140.12772
367.201	46.04935
367.712	114.10607
368.222	121.11173
368.733	-12.01025
369.243	133.10714
369.753	137.12085
370.263	181.16311
370.773	81.07959
371.282	126.10769
371.792	46.03387
372.301	19.01603
372.811	29.0282
373.32	6.00338
373.829	-91.0656
374.338	28.01544
374.847	1.00056
375.356	-27.0153
375.865	-41.01354
376.373	-10.00364
376.882	96.04782
377.39	-3.00121
377.898	-101.03371
378.407	2.00025
378.915	-17.00088
379.423	29.00196
379.93	-19.9996
380.438	-59.99688
380.946	7.99865
381.453	-64.98627
381.96	-208.94141
382.468	-311.87984
382.975	-130.94583
383.482	-30.98456
383.989	-167.92494
384.495	-136.92664
385.002	-325.81531
385.509	-243.86158
386.015	-299.8459
386.521	-180.90871
387.028	-258.8854
387.534	-339.87563
388.04	-312.87755
388.546	-571.87822
389.051	-714.99765
389.557	-630.15153
390.063	-249.11168
390.568	-488.3167
391.073	-613.66211
391.578	-645.78577
392.084	-853.46994
392.589	-1139.72546
393.093	-1563.77794
393.598	-1311.55306
394.103	-1439.59915
394.607	-1479.10777
395.112	-1381.99382
395.616	-1545.16135
396.12	-2046.57542
396.624	-2421.59956
397.128	-2276.02603
397.632	-2334.59119
398.136	-2749.64931
398.639	-4346.55575
399.143	-5744.26443
399.646	-6115.13741
400.15	-6819.00022
400.653	-8745.1295
401.156	-10543.88294
401.659	-13141.42677
402.162	-7549.58216
402.664	-1357.81564
403.167	0
403.67	0
404.172	0
404.674	0
405.176	0
405.678	0
406.18	0
406.682	0
407.184	0
407.686	0
408.187	0
408.688	0
409.19	0
409.691	0
410.192	0
410.693	0
411.194	435.30976
411.694	3948.64174
412.195	6476.02343
412.696	4648.1642
413.196	1826.2754
413.696	488.1174
414.196	2320.48668
414.696	5186.27476
415.196	7427.33228
415.696	11075.18973
416.196	9527.51687
416.695	4701.65731
417.195	1675.21349
417.694	1352.65439
418.194	1923.54602
418.693	998.81515
419.192	987.24682
419.691	952.59123
420.19	1183.08729
420.688	1536.6937
421.187	1601.65864
421.685	1843.3814
422.184	2244.1063
422.682	1624.11368
423.18	969.48978
423.678	549.26354
424.176	321.49807
424.674	369.40219
425.172	651.38905
425.669	733.11028
426.167	847.93463
426.664	561.82169
427.161	464.78447
427.659	311.82546
428.156	286.84081
428.652	324.82304
429.149	234.87548
429.646	316.83216
430.143	280.87773
430.639	226.91263
431.135	162.95703
431.632	240.93346
432.128	112.98569
432.624	60.99995
433.12	-80.99203
433.616	-16.99846
434.111	-157.00725
434.607	-149.02144
435.103	47.00227
435.598	133.00698
436.093	130.03692
436.588	89.02879
437.083	60.02443
437.578	11.00559
438.073	-144.0979
438.568	3.00218
439.062	-24.01296
439.557	-5.00379
440.051	-89.06508
440.546	-150.1168
441.04	-9.00758
441.534	-71.07186
442.028	-24.02245
442.522	-127.12448
443.015	-48.03926
443.509	-34.0352
444.002	-42.04381
444.496	-125.11305
444.989	-114.12682
445.482	-168.19694
445.975	-172.17041
446.468	-113.10275
446.961	-160.15022
447.454	-198.2118
447.947	-170.19104
448.439	-127.15269
448.931	-113.11735
449.424	-160.21105
449.916	-101.12328
450.408	-77.08186
450.9	-247.31654
451.392	-252.34817
451.884	-175.21071
452.375	-184.24451
452.867	-169.20541
453.358	-149.17472
453.849	-155.16891
454.341	-129.15318
454.832	-147.16525
455.323	-170.23166
455.814	-135.17132
456.304	-144.18535
456.795	-150.1928
457.285	-83.10371
457.776	-83.109
458.266	-170.23607
458.756	-131.18714
459.247	-201.28553
459.737	-188.26799
460.226	-157.20744
460.716	-239.35613
461.206	-132.19458
461.695	-152.2423
462.185	-175.26027
462.674	-159.23116
463.163	-144.19932
463.653	-136.17589
464.142	-222.35168
464.63	-164.26548
465.119	-189.28538
465.608	-180.27219
466.096	-140.19956
466.585	-129.19946
467.073	-147.24045
467.561	-169.28078
468.05	-108.17048
468.538	-132.22604
469.026	-126.20939
469.513	-189.27461
470.001	-185.29432
470.489	-136.22526
470.976	-144.23574
471.463	-96.17156
471.951	-137.25148
472.438	-161.27444
472.925	-146.24665
473.412	-107.19493
473.899	-107.18042
474.385	-109.19978
474.872	-182.31887
475.359	-171.31738
475.845	-128.19565
476.331	-73.11847
476.817	-149.28138
477.303	-70.1227
477.789	-119.22153
478.275	-174.33915
478.761	-112.21073
479.247	-79.13692
479.732	-205.40804
480.218	-155.32405
480.703	-156.3113
481.188	-144.24433
481.673	-133.24279
482.158	-185.31178
482.643	-93.19219
483.128	-178.32881
483.612	-68.12699
484.097	-91.18189
484.581	-89.16848
485.066	-150.30058
485.55	-127.22643
486.034	-186.33344
486.518	-156.30248
487.002	-173.35285
487.486	-165.33761
487.969	-158.32336
488.453	-144.30792
488.936	-180.34317
489.42	-83.15274
489.903	-89.18953
490.386	-549.85482
490.869	-56.10189
491.352	-129.2722
491.835	-100.17492
492.318	-156.30146
492.8	-138.24394
493.283	-139.30398
493.765	-195.41851
494.247	-129.26239
494.73	-146.27943
495.212	-97.20369
495.694	-160.32448
496.175	-215.44609
496.657	-105.2163
497.139	-54.08053
497.62	-162.3341
498.102	-160.34821
498.583	-170.37767
499.064	-159.30999
499.545	-124.24756
500.026	-186.36927
500.507	-145.29695
500.988	-137.301
501.469	-218.48852
501.949	-128.28058
502.43	-176.37015
502.91	-139.25258
503.39	-134.29918
503.87	-146.3034
504.35	-119.25
504.83	-178.34827
505.31	-164.35463
505.79	-209.4501
506.269	-122.25398
506.749	-184.37674
507.228	-220.46697
507.707	-158.31324
508.187	-115.24575
508.666	-185.40868
509.145	-186.39135
509.623	-174.3682
510.102	-179.39261
510.581	-104.22508
511.059	-218.49655
511.538	-98.2271
512.016	-157.33913
512.494	-114.24863
512.972	-140.30105
513.45	-212.44468
513.928	-172.3775
514.406	-215.46899
514.884	-156.3628
515.361	-114.24493
515.839	-178.36858
516.316	-148.32209
516.793	-119.27254
517.27	-101.22107
517.747	-204.47947
518.224	-149.31399
518.701	-136.27467
519.178	-204.46223
519.654	-149.32434
520.131	-142.31913
520.607	-146.33108
521.083	-150.31213
521.56	-127.27222
522.036	-111.22104
522.512	-81.18081
522.987	-179.38815
523.463	-100.21476
523.939	-98.21808
524.414	-50.10381
524.89	-130.28147
525.365	-129.26622
525.84	-208.45459
526.315	-119.26046
526.79	-97.19838
527.265	-120.24948
527.74	-117.25955
528.215	-102.21849
528.689	-131.265
529.164	-88.17373
529.638	-94.22016
530.112	-89.18969
530.587	-122.23678
531.061	-157.34741
531.534	-68.14962
532.008	-114.24978
532.482	-89.18631
532.956	-107.24791
533.429	-84.18522
533.903	-41.08195
534.376	-79.15871
534.849	-18.03747
535.322	-39.08305
535.795	-74.1646
536.268	-30.06487
536.741	-61.13318
537.213	-30.06259
537.686	-59.1299
538.158	-47.09464
538.631	-14.03073
539.103	-57.11531
539.575	43.07957
540.047	10.01965
540.519	42.0895
540.991	44.09612
541.463	41.08841
541.934	46.09337
542.406	41.08667
542.877	76.15103
543.348	109.23141
543.82	125.26897
544.291	136.27745
544.762	119.24569
545.233	159.34507
545.703	132.25227
546.174	180.3597
546.645	168.34289
547.115	205.42116
547.585	224.43682
548.056	222.45042
548.526	310.59994
548.996	371.73055
549.466	397.79278
549.935	396.75244
550.405	456.78312
550.875	481.89684
551.344	514.96813
551.814	592.03767
552.283	659.06703
552.752	643.11695
553.221	779.19618
553.69	792.25175
554.159	882.53048
554.628	957.44137
555.096	1059.8323
555.565	1197.68848
556.033	1213.85779
556.502	1352.07073
556.97	1406.88265
557.438	1570.20983
557.906	1786.37662
558.374	1818.27676
558.842	1965.50063
559.31	2203.33645
559.777	2243.64895
560.245	2562.61944
560.712	2769.54712
561.18	2885.28229
561.647	3156.28909
562.114	3371.31172
562.581	3763.65297
563.048	4034.12634
563.514	4346.31401
563.981	4530.8132
564.448	4957.45013
564.914	5357.47798
565.381	5742.18935
565.847	6100.2333
566.313	6632.13686
566.779	7033.06615
567.245	7533.44062
567.711	8127.02635
568.176	8354.19502
568.642	8841.11919
569.108	9627.82587
569.573	10234.76654
570.038	10812.60471
570.504	11347.86193
570.969	12233.88943
571.434	12676.16836
571.899	13416.66225
572.363	14021.27107
572.828	14778.11382
573.293	15555.03397
573.757	16165.7144
574.222	16758.32833
574.686	17445.7105
575.15	17934.49032
575.614	18484.57252
576.078	19048.63791
576.542	19560.42161
577.006	19898.48615
577.469	20325.797
577.933	20480.04999
578.396	20818.07437
578.86	20839.64227
579.323	20983.50703
579.786	20870.47788
580.249	21078.12159
580.712	20671.13557
581.175	20505.57386
581.637	20661.54745
582.1	20003.42169
582.563	20114.52753
583.025	19761.5255
583.487	19236.86176
583.95	18959.59027
584.412	18791.64371
584.874	18576.21438
585.336	18037.73898
585.797	17520.22982
586.259	17173.82436
586.721	16757.04203
587.182	16469.55278
587.643	15984.74991
588.105	15634.15128
588.566	15170.37253
589.027	14671.2696
589.488	14345.02883
589.949	13925.43184
590.41	13667.32649
590.87	13336.41648
591.331	13136.55396
591.791	12544.63765
592.252	12303.17391
592.712	11977.69894
593.172	11651.38356
593.632	11418.27974
594.092	11017.19841
594.552	10650.73861
595.011	10393.44405
595.471	10002.11424
595.931	9676.09736
596.39	9445.37512
596.849	9234.88213
597.308	9251.97301
597.768	8805.08724
598.227	8652.76168
598.685	8518.49096
599.144	8270.15662
599.603	8217.11969
600.062	7980.60626
600.52	7853.5733
600.978	7678.60224
601.437	7538.39538
601.895	7441.10067
602.353	7193.09719
602.811	7149.06965
603.269	6949.31487
603.727	6969.31647
604.184	6828.01153
604.642	6617.40654
605.099	6588.13425
605.557	6457.40286
606.014	6480.7876
606.471	6249.53598
606.928	6290.74858
607.385	6132.38851
607.842	6232.07701
608.299	6148.2074
608.755	6142.37596
609.212	6007.97285
609.668	5975.93973
610.125	5984.45803
610.581	5967.42295
611.037	5879.23732
611.493	5765.46583
611.949	5737.54509
612.405	5754.61851
612.861	5661.50876
613.316	5575.58913
613.772	5523.40007
614.227	5404.60606
614.683	5556.04657
615.138	5353.58849
615.593	5285.59071
616.048	5262.54654
616.503	5211.02989
616.958	5039.22833
617.412	4986.88976
617.867	4902.51401
618.321	4859.23858
618.776	4768.64648
619.23	4632.07094
619.684	4467.96144
620.138	4440.16256
620.592	4371.46848
621.046	4274.3281
621.5	4234.55815
621.954	4154.164
622.407	4096.12818
622.861	3879.75446
623.314	3828.40415
623.768	3696.58822
624.221	3761.68272
624.674	3637.56253
625.127	3554.69529
625.58	3479.60887
626.033	3474.44175
626.485	3233.92997
626.938	3293.91165
627.39	3222.80102
627.843	3094.8071
628.295	3058.81536
628.747	2957.98332
629.199	2881.75931
629.651	2862.7585
630.103	2834.81003
630.555	2757.45045
631.006	2754.95478
631.458	2678.98128
631.909	2661.87916
632.361	2567.93371
632.812	2571.88105
633.263	2535.57437
633.714	2481.55195
634.165	2480.13791
634.616	2381.01454
635.067	2358.71087
635.518	2307.02175
635.968	2289.29742
636.419	2258.60569
636.869	2182.9709
637.319	2146.82403
637.769	2094.66528
638.219	2147.99189
638.669	1999.89127
639.119	2023.01686
639.569	1988.94243
640.019	1982.77495
640.468	1978.63478
640.918	1941.9257
641.367	1945.63966
641.816	1912.61306
642.265	1941.76144
642.714	1855.71038
643.163	1857.69041
643.612	1845.83617
644.061	1727.30938
644.51	1753.58388
644.958	1726.44204
645.406	1739.75658
645.855	1695.82006
646.303	1747.69138
646.751	1745.57965
647.199	1707.55756
647.647	1650.55128
648.095	1678.56212
648.543	1685.21393
648.99	1691.72366
649.438	1680.66885
649.885	1606.78477
650.333	1679.04596
650.78	1614.70098
651.227	1523.63656
651.674	1547.4438
652.121	1527.64629
652.568	1530.64112
653.015	1565.8347
653.461	1499.54043
653.908	1570.54752
654.354	1487.55096
654.801	1424.41965
655.247	1536.33336
655.693	1434.7921
656.139	1490.56897
656.585	1437.51559
657.031	1394.37091
657.477	1390.1519
657.922	1453.40148
658.368	1417.59268
658.813	1513.50957
659.259	1358.43045
659.704	1380.36702
660.149	1345.33052
660.594	1355.39974
661.039	1398.32453
661.484	1340.41032
661.929	1368.37617
662.373	1322.5482
662.818	1365.55454
663.262	1320.40433
663.707	1361.62168
664.151	1345.4875
664.595	1264.34358
665.039	1352.55794
665.483	1302.56202
665.927	1338.37377
666.371	1295.26115
666.814	1311.38488
667.258	1250.27181
667.701	1381.17946
668.145	1339.55104
668.588	1297.45064
669.031	1291.30947
669.474	1264.35283
669.917	1263.12686
670.36	1234.3997
670.803	1329.4481
671.245	1271.00921
671.688	1247.37533
672.13	1188.06648
672.573	1251.50334
673.015	1229.30606
673.457	1222.03914
673.899	1211.30992
674.341	1186.26374
674.783	1161.20898
675.225	1236.38434
675.666	1172.22836
676.108	1179.99015
676.549	1272.33054
676.991	1217.07003
677.432	1188.79841
677.873	1150.11052
678.314	1178.22899
678.755	1164.25902
679.196	1161.09729
679.637	1188.31006
680.078	1164.16295
680.518	1234.24489
680.959	1184.24797
681.399	1113.23802
681.839	1126.20993
682.28	1145.27094
682.72	1151.08548
683.16	1144.29573
683.6	1094.00842
684.039	1152.86951
684.479	1090.17718
684.919	1094.02347
685.358	1108.29763
685.798	1132.42321
686.237	1168.25823
686.676	1125.09491
687.115	1115.10794
687.554	1152.18495
687.993	1122.97397
688.432	1124.05132
688.871	1110.01349
689.309	1150.19697
689.748	1135.86292
690.186	1222.30016
690.625	1147.14441
691.063	1133.18469
691.501	1152.29489
691.939	1178.35434
692.377	1146.24821
692.815	1124.16368
693.253	1153.2244
693.69	1196.04666
694.128	1204.30922
694.565	1238.31562
695.003	1171.39673
695.44	1171.18512
695.877	1170.16556
696.314	1209.01239
696.751	1252.21485
697.188	1276.25633
697.625	1299.29066
698.061	1207.28899
698.498	1281.41681
698.934	1267.3822
699.371	1170.187
699.807	1261.32243
700.243	1272.38407
700.679	1289.23654
701.115	1346.4187
701.551	1343.41268
701.987	1329.26398
702.422	1318.40308
702.858	1289.3777
703.294	1382.34161
703.729	1301.47489
704.164	1321.449
704.599	1344.25003
705.035	1323.23688
705.47	1308.46131
705.904	1363.39907
706.339	1427.47465
706.774	1375.43031
707.209	1338.33964
707.643	1426.56957
708.078	1410.59462
708.512	1311.55036
708.946	1468.61352
709.38	1420.51992
709.814	1419.40789
710.248	1422.61418
710.682	1420.52897
711.116	1357.45897
711.549	1439.83274
711.983	1403.42007
712.416	1507.61007
712.85	1431.70064
713.283	1415.50907
713.716	1489.80228
714.149	1418.53959
714.582	1413.34516
715.015	1442.73265
715.448	1404.70534
715.881	1422.28248
716.313	1387.44531
716.746	1306.36204
717.178	1314.43538
717.61	1342.64333
718.043	1370.6234
718.475	1332.48468
718.907	1354.65709
719.339	1324.27167
719.77	1254.31466
720.202	1303.57891
720.634	1285.43143
721.065	1219.27273
721.497	1211.35655
721.928	1169.29932
722.359	1234.33524
722.79	1166.22547
723.221	1179.38825
723.652	1206.50437
724.083	1113.00417
724.514	1144.09214
724.945	1057.02713
725.375	1046.97905
725.806	1052.17171
726.236	1038.21519
726.666	1042.02366
727.096	1021.07807
727.526	1011.14499
727.956	987.85044
728.386	979.01945
728.816	884.9196
729.246	926.90178
729.675	861.82014
730.105	935.94825
730.534	860.71934
730.964	867.89104
731.393	933.96813
731.822	864.90631
732.251	864.89204
732.68	858.73195
733.109	815.74385
733.537	747.58517
733.966	732.60757
734.395	797.59214
734.823	787.53728
735.251	738.56504
735.68	740.64011
736.108	725.62847
736.536	666.40299
736.964	657.36127
737.392	674.51106
737.82	661.42018
738.247	651.39867
738.675	648.39072
739.102	598.35754
739.53	574.3361
739.957	611.42817
740.384	647.4377
740.811	605.39478
741.238	551.23226
741.665	515.09851
742.092	547.19764
742.519	540.22721
742.945	531.17184
743.372	526.20017
743.798	543.28542
744.225	513.1245
744.651	464.08695
745.077	430.00716
745.503	473.07451
745.929	495.09956
746.355	543.24275
746.781	464.07295
747.207	461.00566
747.632	392.90433
748.058	459.06997
748.483	435.93916
748.908	402.94508
749.334	456.04606
749.759	390.87065
750.184	374.84597
750.609	389.90687
751.033	433.96203
751.458	358.76549
751.883	398.93422
752.307	345.77577
752.732	329.78749
753.156	378.88695
753.58	381.85916
754.005	345.83836
754.429	335.7536
754.853	315.75025
755.277	370.83249
755.7	362.85604
756.124	308.73569
756.548	296.67665
756.971	336.78596
757.394	276.68912
757.818	329.81233
758.241	279.68536
758.664	312.75804
759.087	284.612
759.51	265.64038
759.933	259.60528
760.356	289.71621
760.778	264.63013
761.201	283.66629
761.623	317.73964
762.046	254.58695
762.468	297.68889
762.89	327.77464
763.312	232.55355
763.734	226.532
764.156	227.54794
764.578	249.5581
765	240.5711
765.421	178.44527
765.843	245.62575
766.264	274.64171
766.686	239.5856
767.107	214.50806
767.528	174.4329
767.949	230.57117
768.37	181.4379
768.791	225.53243
769.212	175.43309
769.632	179.4111
770.053	183.4743
770.473	253.59821
770.894	228.55793
771.314	230.53699
771.734	174.40034
772.154	214.53802
772.575	208.47301
772.994	155.34885
773.414	240.56187
773.834	217.53072
774.254	189.45502
774.673	254.60116
775.093	163.39837
775.512	149.36347
775.931	177.44205
776.351	132.32554
776.77	123.29916
777.189	181.42401
777.607	117.29738
778.026	171.41994
778.445	108.26929
778.864	163.41282
779.282	138.32953
779.701	171.4249
780.119	154.38454
780.537	127.31477
780.955	163.40944
781.373	146.35755
781.791	155.34441
782.209	185.41943
782.627	131.34223
783.045	167.37893
783.462	154.38871
783.88	114.29329
784.297	137.34154
784.715	108.27601
785.132	153.36612
785.549	103.25687
785.966	117.29263
786.383	112.27429
786.8	131.30219
787.217	141.33108
787.633	92.22923
788.05	182.42526
788.466	165.38395
788.883	138.34833
789.299	116.27795
789.715	172.4115
790.131	139.34224
790.547	106.26373
790.963	116.2863
791.379	121.30373
791.795	115.26137
792.21	157.36231
792.626	132.31062
793.041	96.23641
793.457	142.34724
793.872	127.29635
794.287	83.19809
794.702	98.24089
795.117	94.23294
795.532	107.26675
795.947	138.32903
796.362	171.40199
796.776	156.36093
797.191	131.31778
797.605	103.24082
798.02	119.28759
798.434	174.38092
798.848	122.29811
799.262	83.20572
799.676	161.38717
800.09	136.33121
800.504	132.31738
800.918	102.23553
801.331	127.33008
801.745	96.22009
802.158	81.20237
802.572	166.39639
802.985	101.24335
803.398	116.27488
803.811	166.42019
804.224	130.32061
804.637	75.17886
805.05	115.26497
805.462	78.19173
805.875	61.15838
806.288	78.18811
806.7	114.28456
807.112	109.25144
807.525	112.2747
807.937	62.15364
808.349	56.1408
808.761	100.24499
809.173	117.28147
809.584	83.20496
809.996	71.17398
810.408	56.14487
810.819	91.21351
811.231	36.09355
811.642	29.06974
812.053	122.28753
812.464	144.33793
812.875	162.40744
813.286	133.33864
813.697	186.42607
814.108	126.30502
814.519	117.2589
814.929	121.30602
815.34	75.18194
815.75	85.21543
816.16	110.27239
816.571	113.29137
816.981	157.36505
817.391	113.27092
817.801	112.27612
818.211	119.28139
818.62	122.29099
819.03	84.20549
819.44	148.38141
819.849	117.29242
820.259	105.26716
820.668	68.16734
821.077	92.22756
821.486	132.31448
821.895	138.33696
822.304	82.21674
822.713	75.17728
823.122	122.30166
823.531	65.15436
823.939	136.32737
824.348	84.20381
824.756	77.19266
825.164	143.3552
825.573	62.15577
825.981	120.29497
826.389	112.27926
826.797	105.26129
827.205	83.19009
827.612	112.27429
828.02	44.10386
828.428	94.23829
828.835	94.2462
829.243	116.27414
829.65	78.19357
830.057	88.21287
830.464	108.26125
830.871	138.32625
831.278	65.15726
831.685	152.33375
832.092	103.25061
832.499	94.20475
832.905	118.29604
833.312	105.23796
833.718	111.27441
834.124	160.35914
834.531	121.30209
834.937	149.37683
835.343	93.2234
835.749	112.25955
836.155	102.26533
836.561	92.22523
836.966	111.26926
837.372	108.2728
837.777	69.17177
838.183	142.31113
838.588	70.17366
838.993	114.27514
839.399	71.1734
839.804	68.16561
840.209	74.18799
840.613	129.28343
841.018	87.21941
841.423	97.24733
841.828	90.22653
842.232	134.3278
842.637	95.2229
843.041	48.12332
843.445	85.21237
843.849	77.19015
844.253	120.28227
844.657	66.16606
845.061	84.18995
845.465	88.21159
845.869	152.34721
846.272	76.1846
846.676	102.24497
847.079	53.13495
847.483	137.33719
847.886	115.27719
848.289	98.25981
848.692	89.22429
849.095	142.33597
849.498	142.35483
849.901	91.20766
850.304	85.20232
850.707	97.24576
851.109	109.27351
851.512	87.21279
851.914	5.01272
852.316	87.21901
852.718	49.1267
853.121	58.1422
853.523	80.18635
853.925	71.18479
854.326	95.23597
854.728	92.2352
855.13	35.09063
855.531	79.18811
855.933	146.3449
856.334	63.15695
856.736	60.13446
857.137	43.10034
857.538	55.13836
857.939	74.1823
858.34	140.3361
858.741	93.24163
859.142	102.2431
859.542	79.20765
859.943	108.26596
860.343	50.12399
860.744	134.32243
861.144	93.22543
861.544	56.13465
861.945	117.29506
862.345	101.2451
862.745	78.19315
863.145	105.24886
863.544	107.26801
863.944	111.25962
864.344	84.2077
864.743	113.27761
865.143	92.23487
865.542	90.20749
865.941	129.31516
866.34	123.29107
866.74	80.21386
867.139	77.1837
867.537	123.30975
867.936	90.21533
868.335	110.27726
868.734	63.16081
869.132	100.23045
869.531	100.23998
869.929	66.15022
870.327	79.18861
870.726	132.32471
871.124	103.23864
871.522	97.24532
871.92	82.20134
872.318	83.20195
872.715	135.32945
873.113	105.25356
873.511	108.26655
873.908	39.09874
874.306	44.10967
874.703	130.32097
875.1	103.26133
875.497	97.23079
875.894	35.08608
876.291	92.22431
876.688	117.29854
877.085	145.34207
877.482	108.26782
877.878	95.22699
878.275	102.257
878.671	142.31074
879.068	109.26053
879.464	68.164
879.86	64.15113
880.256	94.23038
880.652	88.22252
881.048	135.32969
881.444	135.3165
881.84	111.27933
882.236	107.26656
882.631	86.20991
883.027	126.30111
883.422	97.2462
883.817	41.10329
884.213	95.24206
884.608	50.12272
885.003	136.32289
885.398	70.17473
885.793	38.09568
886.188	69.17108
886.582	123.31174
886.977	113.26523
887.371	109.27302
887.766	51.12691
888.16	104.25725
888.554	136.33133
888.949	105.26129
889.343	135.3249
889.737	41.10948
890.131	71.17758
890.525	110.27855
890.918	75.18806
891.312	104.24654
891.706	87.22698
892.099	111.27963
892.492	125.26573
892.886	95.23071
893.279	89.22533
893.672	85.21521
894.065	95.23615
894.458	107.26656
894.851	109.26441
895.244	76.19334
895.637	61.14675
896.029	80.19469
896.422	99.23988
896.814	82.20283
897.206	50.11917
897.599	90.22115
897.991	83.1996
898.383	93.21812
898.775	59.13306
899.167	29.06796
899.559	131.32705
899.951	120.2793
900.342	154.38468
900.734	49.12167
901.125	82.21411
901.517	63.15437
901.908	139.32792
902.299	88.21375
902.69	96.22467
903.082	100.24007
903.473	71.16945
903.863	70.17808
904.254	80.18473
904.645	114.28043
905.036	29.07053
905.426	184.41029
905.817	89.21695
906.207	59.14043
906.597	68.15858
906.987	115.29488
907.378	84.21127
907.768	69.18192
908.158	97.2346
908.547	64.165
908.937	106.26947
909.327	122.29244
909.717	157.39125
910.106	83.19824
910.495	111.27421
910.885	89.22397
911.274	89.22099
911.663	114.28621
912.052	137.33283
912.441	72.18245
912.83	68.15565
913.219	110.28506
913.608	100.24281
913.997	23.05796
914.385	99.23446
914.774	95.2295
915.162	114.26847
915.55	104.2492
915.939	74.18605
916.327	104.25715
916.715	75.19036
917.103	148.35787
917.491	134.32658
917.878	111.26997
918.266	79.20392
918.654	122.30783
919.041	67.17444
919.429	75.17625
919.816	85.21421
920.203	85.20488
920.591	98.24098
920.978	142.34194
921.365	98.2551
921.752	112.26397
922.139	111.23802
922.525	70.16754
922.912	97.2346
923.299	93.22941
923.685	73.18973
924.072	92.21049
924.458	86.21171
924.844	72.17751
925.231	81.18745
925.617	30.07659
926.003	79.20094
926.389	98.24516
926.774	69.17432
927.16	104.25583
927.546	77.19564
927.931	138.33896
928.317	110.25046
928.702	124.28929
929.088	78.18355
929.473	88.22244
929.858	65.15673
930.243	100.23779
930.628	93.2245
931.013	102.25045
931.398	102.23225
931.783	75.19667
932.167	79.19214
932.552	131.32349
932.937	120.2941
933.321	80.19969
933.705	82.20558
934.09	141.35061
934.474	123.28814
934.858	92.23694
935.242	67.1548
935.626	90.2288
936.009	41.10922
936.393	63.15996
936.777	56.14327
937.16	82.21221
937.544	106.2471
937.927	38.09664
938.311	135.3244
938.694	114.29828
939.077	90.21385
939.46	114.2767
939.843	89.18417
940.226	90.22928
940.609	53.12163
940.991	80.20258
941.374	60.1464
941.757	83.20361
942.139	91.20271
942.522	89.20882
942.904	106.25215
943.286	116.29134
943.668	83.2138
944.05	69.16939
944.432	117.2852
944.814	94.22969
945.196	53.1291
945.578	52.12356
945.959	94.21844
946.341	114.27659
946.722	100.23247
947.104	147.3449
947.485	84.1942
947.866	103.25706
948.247	96.24024
948.628	117.2819
949.009	47.12043
949.39	127.31177
949.771	121.27757
950.152	119.28834
950.532	17.04207
950.913	100.23898
951.293	31.084
951.674	107.25605
952.054	28.06967
952.434	106.26046
952.814	118.27713
953.194	135.34822
953.574	128.31079
953.954	91.21443
954.334	100.24699
954.714	84.20342
955.093	132.31966
955.473	83.20632
955.853	97.24907
956.232	61.1669
956.611	118.2794
956.99	67.16788
957.37	114.28724
957.749	67.15935
958.128	66.16582
958.506	85.21918
958.885	55.13871
959.264	76.18537
959.643	115.25829
960.021	79.19473
960.4	80.18024
960.778	114.27753
961.156	88.21911
961.535	81.18767
961.913	85.19756
962.291	36.09259
962.669	99.2486
963.047	76.19307
963.424	56.14277
963.802	101.24602
964.18	110.27537
964.557	102.23253
964.935	150.34857
965.312	71.18422
965.69	80.19926
966.067	99.23889
966.444	98.23938
966.821	108.27562
967.198	115.27561
967.575	123.29837
967.952	63.14811
968.329	118.2835
968.705	108.22874
969.082	74.18899
969.458	57.13656
969.835	100.24117
970.211	118.29923
970.587	62.15403
970.963	140.3535
971.339	81.21038
971.715	56.13969
972.091	103.25117
972.467	92.22773
972.843	78.19258
973.219	99.23555
973.594	46.1204
973.97	91.21493
974.345	79.18803
974.721	133.31705
975.096	61.14731
975.471	124.28997
975.846	63.15099
976.221	105.26404
976.596	54.12934
976.971	124.30198
977.346	114.26209
977.72	86.2177
978.095	81.20821
978.469	101.23873
978.844	103.2565
979.218	47.11273
979.593	112.2652
979.967	84.20335
980.341	90.20559
980.715	132.3277
981.089	122.30144
981.463	105.23845
981.837	70.17041
982.21	131.30002
982.584	91.21809
982.957	66.16433
983.331	125.29122
983.704	87.21231
984.078	50.12322
984.451	144.35357
984.824	73.17702
985.197	140.33431
985.57	105.26072
985.943	128.31161
986.316	152.36643
986.688	97.23185
987.061	79.18413
987.434	71.18435
987.806	93.22374
988.179	101.23596
988.551	93.23412
988.923	78.19109
989.295	132.32494
989.667	47.11234
990.039	56.13821
990.411	76.17403
990.783	106.24135
991.155	53.12726
991.527	164.39536
991.898	99.24447
992.27	31.07695
992.641	134.33108
993.012	109.25355
993.384	102.24086
993.755	78.19787
994.126	94.22421
994.497	96.23362
994.868	100.22742
995.239	129.30798
995.61	88.2199
995.98	82.19798
996.351	50.12381
996.722	73.16853
997.092	33.0784
997.462	82.19033
997.833	122.28518
998.203	129.3081
998.573	82.20298
998.943	112.25944
999.313	114.26983
999.683	100.2377
1000.053	81.18521
1000.423	110.26428
1000.792	96.24681
1001.162	85.20782
1001.531	114.27773
1001.901	102.25184
1002.27	117.25793
1002.639	122.30772
1003.009	103.24242
1003.378	92.23347
1003.747	106.24769
1004.116	102.24161
1004.485	132.3105
1004.853	73.18417
1005.222	121.30121
1005.591	118.27648
1005.959	59.13268
1006.328	83.1855
1006.696	94.22481
1007.064	106.26392
1007.433	115.28398
1007.801	131.3167
1008.169	123.30652
1008.537	122.26607
1008.905	106.24418
1009.273	153.37072
1009.64	28.06707
1010.008	99.23374
1010.375	150.35736
1010.743	185.41568
1011.11	105.24578
1011.478	131.31933
1011.845	107.2488
1012.212	135.30022
1012.579	69.16876
1012.946	107.25184
1013.313	142.33193
1013.68	139.30668
1014.047	51.12148
1014.414	81.19013
1014.78	85.20983
1015.147	141.33509
1015.513	80.19162
1015.88	162.40598
1016.246	133.32324
1016.612	134.30152
1016.978	123.29725
1017.344	67.16503
1017.71	120.28874
1018.076	116.26999
1018.442	101.25744
1018.808	96.23789
1019.174	100.24853
1019.539	169.37973
1019.905	25.05923
1020.27	85.20836
1020.636	91.21643
1021.001	90.21376
1021.366	49.11766
1021.731	89.22725
1022.096	9.02286
1022.461	99.23201
1022.826	95.22377
1023.191	80.20875
1023.556	90.20923
1023.92	130.31482
1024.285	82.19888
1024.649	105.25461
1025.014	114.27898
1025.378	89.22212
1025.742	104.25564
1026.107	116.25877
1026.471	131.30087
1026.835	104.25517
1027.199	108.25701
1027.562	86.19843
1027.926	110.26589
1028.29	63.15899
1028.654	113.25662
1029.017	105.25538
1029.381	64.15242
1029.744	87.22035
1030.107	134.31176
1030.471	101.23938
1030.834	95.21408
1031.197	129.30598
1031.56	72.1691
1031.923	88.22592
1032.286	131.30267
1032.648	108.25533
1033.011	37.08512
1033.374	128.29615
1033.736	61.16001
1034.099	99.23898
1034.461	80.20092
1034.823	118.29005
1035.185	91.22727
1035.548	106.25515
1035.91	75.17872
1036.272	66.14967
1036.634	111.26835
1036.995	73.17075
1037.357	63.15283
1037.719	115.27614
1038.08	141.32876
1038.442	86.20261
1038.803	60.14372
1039.165	71.17842
1039.526	112.26735
1039.887	95.22525
1040.248	64.1572
1040.609	95.2327
1040.97	121.29165
1041.331	75.18894
1041.692	48.11203
1042.053	125.28018
1042.413	95.21932
1042.774	77.18623
1043.134	99.23337
1043.495	101.25143
1043.855	115.2754
1044.215	91.22406
1044.576	50.11949
1044.936	104.23575
1045.296	90.22286
1045.656	91.2215
1046.016	105.25069
1046.375	110.26368
1046.735	51.11554
1047.095	92.21345
1047.454	126.26243
1047.814	84.20051
1048.173	141.33082
1048.533	91.20666
1048.892	39.09375
1049.251	107.26568
1049.61	73.17888
1049.969	111.2584
1050.328	117.24992
1050.687	108.25977
1051.046	107.25761
1051.405	76.18806
1051.763	89.20293
1052.122	75.18609
1052.48	70.17092
1052.839	91.21226
1053.197	86.20088
1053.555	154.34354
1053.914	148.35517
1054.272	157.37167
1054.63	51.1246
1054.988	70.16556
1055.345	96.20457
1055.703	129.30562
1056.061	116.29479
1056.419	74.19065
1056.776	102.24478
1057.134	73.16813
1057.491	82.20402
1057.848	112.27551
1058.206	100.23275
1058.563	114.24778
1058.92	103.23476
1059.277	111.27058
1059.634	112.26016
1059.991	120.28348
1060.348	83.18619
1060.704	53.12615
1061.061	152.34581
1061.418	115.2753
1061.774	101.24685
1062.131	44.11638
1062.487	84.19497
1062.843	130.3192
1063.199	99.24385
1063.555	93.21351
1063.911	56.1412
1064.267	125.25623
1064.623	40.09727
1064.979	148.34379
1065.335	137.32182
1065.691	116.27435
1066.046	116.25138
1066.402	102.22914
1066.757	84.21059
1067.112	103.25014
1067.468	6.01428
1067.823	120.28447
1068.178	116.27689
1068.533	133.31717
1068.888	119.28041
1069.243	113.27545
1069.598	117.28051
1069.952	36.08124
1070.307	53.13103
1070.662	70.16543
1071.016	95.21074
1071.371	99.22282
1071.725	109.25764
1072.079	123.29152
1072.434	66.15977
1072.788	124.29088
1073.142	116.28166
1073.496	55.13026
1073.85	128.29203
1074.203	136.32438
1074.557	72.19063
1074.911	163.38035
1075.265	104.239
1075.618	108.26066
1075.971	116.27222
1076.325	104.26157
1076.678	99.224
1077.031	75.16873
1077.385	98.21355
1077.738	111.24726
1078.091	77.17401
1078.444	107.24545
1078.796	94.22858
1079.149	132.32315
1079.502	51.12036
1079.855	83.19215
1080.207	118.28684
1080.56	82.21059
1080.912	94.22678
1081.264	80.1914
1081.617	130.31186
1081.969	49.12353
1082.321	143.34284
1082.673	39.08914
1083.025	113.26461
1083.377	-114.25316
1083.728	151.34499
1084.08	79.19602
1084.432	100.2387
1084.783	145.33315
1085.135	94.23353
1085.486	79.17955
1085.838	92.22464
1086.189	112.26847
1086.54	79.18746
1086.891	38.09623
1087.242	104.25044
1087.593	147.35109
1087.944	93.20845
1088.295	99.22263
1088.646	110.26338
1088.996	59.14178
1089.347	83.20225
1089.698	81.19013
1090.048	115.29509
1090.398	85.19561
1090.749	121.28534
1091.099	72.18018
1091.449	82.2029
1091.799	55.13746
1092.149	55.13387
1092.499	91.22009
1092.849	62.15711
1093.199	138.34009
1093.548	120.28425
1093.898	98.24285
1094.248	107.27196
1094.597	48.12246
1094.947	86.22785
1095.296	62.15263
1095.645	113.29046
1095.994	83.19793
1096.343	66.16546
1096.692	15.0396
1097.041	67.18073
1097.39	82.20432
1097.739	129.33043
1098.088	109.28892
1098.437	49.12862
1098.785	93.24874
1099.134	123.32232
1099.482	104.28332
1099.83	123.31892
1100.179	116.29885
1100.527	72.19044
1100.875	37.09795
1101.223	90.23716
1101.571	92.25232
1101.919	59.15377
1102.267	60.16851
1102.615	3.00965
1102.962	23.07394
1103.31	0
1103.658	27.0868
