Data from N2 R14 sample 6_Subt2__5__14-25-15-085.txt Node

Date: Tue Sep 02 14:25:15 PDT 2025
User: uwsun
Spectrometer: HDX01956
Trigger mode: 0
Integration Time (sec): 5.000000E-1
Scans to average: 1
Nonlinearity correction enabled: true
Boxcar width: 0
Storing dark spectrum: false
XAxis mode: Wavelengths
Number of Pixels in Spectrum: 2068
>>>>>Begin Spectral Data<<<<<
194.03	38.10604
194.578	50.15715
195.127	32.09932
195.676	49.15221
196.225	88.23002
196.773	110.29629
197.321	149.39005
197.87	168.40285
198.418	126.30053
198.966	102.2459
199.513	82.1889
200.061	112.26088
200.609	156.38161
201.156	85.17084
201.704	63.1473
202.251	123.29994
202.798	114.27306
203.345	178.40217
203.892	137.31641
204.438	177.38545
204.985	115.24841
205.532	122.29522
206.078	140.3149
206.624	102.23037
207.17	169.35707
207.716	122.27115
208.262	214.3779
208.808	77.17422
209.354	141.31279
209.899	220.50516
210.445	79.181
210.99	102.22557
211.535	172.36827
212.08	144.30659
212.625	147.33748
213.17	183.42264
213.715	94.1909
214.259	177.37512
214.804	157.35581
215.348	138.28959
215.892	142.31232
216.436	225.47101
216.98	192.38599
217.524	170.36556
218.068	210.48007
218.612	154.35645
219.155	132.28544
219.698	168.36561
220.242	145.33395
220.785	159.34066
221.328	137.31515
221.871	193.44875
222.414	165.37834
222.956	81.18103
223.499	164.33761
224.041	119.25782
224.583	183.36255
225.126	189.379
225.668	143.3196
226.21	139.32192
226.751	135.27021
227.293	166.34804
227.835	97.21966
228.376	152.32376
228.918	185.42845
229.459	88.2032
230	161.3509
230.541	148.31373
231.082	154.34226
231.622	155.32807
232.163	114.25484
232.704	130.29648
233.244	152.34567
233.784	181.40669
234.324	108.21712
234.864	134.27896
235.404	187.40584
235.944	135.29511
236.484	136.31329
237.023	181.38829
237.563	125.26503
238.102	157.33913
238.641	146.33901
239.18	119.25474
239.719	128.29592
240.258	187.38141
240.797	133.29123
241.335	180.40154
241.874	158.27464
242.412	136.29899
242.95	82.1805
243.488	151.31442
244.026	123.25931
244.564	165.30762
245.102	188.38022
245.64	203.44338
246.177	100.20651
246.715	213.46167
247.252	158.33083
247.789	276.45896
248.326	127.27739
248.863	117.23408
249.4	177.36397
249.936	182.3362
250.473	128.27193
251.009	172.35472
251.546	209.41135
252.082	158.31324
252.618	129.26096
253.154	130.284
253.69	131.2684
254.226	110.24
254.761	144.2931
255.297	86.17241
255.832	111.23967
256.367	172.36524
256.903	177.34837
257.438	215.45187
257.972	171.34243
258.507	108.22434
259.042	147.28809
259.576	79.15461
260.111	147.308
260.645	192.37157
261.179	143.30081
261.713	113.22796
262.247	165.3425
262.781	170.31733
263.315	150.33074
263.849	100.22778
264.382	170.35138
264.915	120.25371
265.449	106.23245
265.982	191.38815
266.515	152.33333
267.048	129.24528
267.58	145.28619
268.113	144.27814
268.646	120.26759
269.178	175.3467
269.71	178.34629
270.243	149.30584
270.775	134.30745
271.307	113.24733
271.838	180.3839
272.37	146.3226
272.902	178.36082
273.433	178.34497
273.965	140.3061
274.496	160.35752
275.027	141.31383
275.558	172.37114
276.089	80.17699
276.62	134.30794
277.15	195.42825
277.681	179.345
278.211	178.38935
278.741	64.12724
279.272	133.2704
279.802	149.33301
280.332	141.29569
280.861	172.36716
281.391	159.31855
281.921	134.28939
282.45	168.374
282.98	155.36083
283.509	152.30248
284.038	159.32002
284.567	180.37205
285.096	206.43668
285.625	131.26354
286.153	111.23144
286.682	172.34467
287.21	108.23144
287.739	194.40027
288.267	146.31139
288.795	154.36027
289.323	72.14982
289.851	161.33121
290.378	109.21665
290.906	85.18235
291.433	154.33785
291.961	141.27895
292.488	149.32626
293.015	134.27573
293.542	113.25203
294.069	194.41232
294.596	187.40359
295.122	194.39991
295.649	180.34317
296.175	159.33698
296.702	175.36943
297.228	205.43104
297.754	136.26534
298.28	201.38927
298.806	166.34435
299.332	154.29189
299.857	141.2745
300.383	211.46046
300.908	90.1897
301.433	126.26476
301.958	221.43497
302.483	110.23797
303.008	190.40329
303.533	160.3615
304.058	194.39091
304.582	107.21754
305.107	141.31617
305.631	190.36876
306.155	169.33262
306.679	148.29314
307.203	156.30653
307.727	147.29696
308.251	165.34679
308.775	150.29905
309.298	165.33087
309.822	172.36747
310.345	177.35165
310.868	159.31914
311.391	223.45752
311.914	147.30991
312.437	201.38107
312.96	201.3902
313.482	120.23869
314.005	147.30923
314.527	148.32551
315.049	156.33083
315.571	134.24368
316.093	180.36705
316.615	178.35091
317.137	228.39611
317.659	206.40936
318.18	189.37321
318.702	172.32409
319.223	171.28002
319.744	229.40514
320.265	121.23804
320.786	158.31354
321.307	229.45156
321.828	208.37
322.348	201.37232
322.869	168.31142
323.389	242.2892
323.909	192.34455
324.43	224.42519
324.95	162.28817
325.47	179.34135
325.989	169.30694
326.509	146.24397
327.029	197.33255
327.548	165.27868
328.067	124.22848
328.587	225.42365
329.106	192.3242
329.625	238.4798
330.144	164.28084
330.662	190.32187
331.181	192.3295
331.7	204.34765
332.218	222.33995
332.736	212.357
333.255	159.26723
333.773	184.31238
334.291	243.43641
334.808	176.27414
335.326	282.43185
335.844	167.26767
336.361	164.29097
336.879	180.28563
337.396	167.27623
337.913	148.23066
338.43	174.26012
338.947	182.29013
339.464	195.26652
339.981	207.31933
340.497	194.31885
341.014	213.33732
341.53	194.27567
342.046	118.19058
342.562	206.33386
343.078	197.2921
343.594	169.25671
344.11	247.3618
344.626	222.35026
345.141	196.2699
345.657	276.37148
346.172	212.31061
346.687	187.25525
347.202	202.26306
347.717	214.30198
348.232	205.30805
348.747	248.32232
349.261	189.22395
349.776	254.33486
350.29	187.26262
350.805	319.44321
351.319	246.31515
351.833	207.25034
352.347	271.34062
352.861	188.23701
353.374	312.37618
353.888	253.32939
354.401	211.25463
354.915	218.24331
355.428	215.2839
355.941	242.28246
356.454	275.30779
356.967	243.29262
357.48	228.26294
357.993	252.31729
358.505	191.23769
359.018	243.29666
359.53	246.28606
360.042	279.28321
360.554	290.33625
361.066	262.30286
361.578	257.24682
362.09	258.28642
362.602	248.2362
363.113	289.29313
363.625	241.23265
364.136	371.32482
364.647	161.15755
365.158	328.31194
365.669	329.32792
366.18	308.29778
366.691	278.23794
367.201	285.27708
367.712	333.28007
368.222	260.22528
368.733	218.16596
369.243	289.21491
369.753	250.20906
370.263	270.23351
370.773	292.26144
371.282	301.23609
371.792	197.13342
372.301	221.16851
372.811	233.20693
373.32	208.10153
373.829	221.13269
374.338	237.11251
374.847	256.11886
375.356	224.10625
375.865	192.04845
376.373	268.0725
376.882	337.13886
377.39	304.09064
377.898	176.04244
378.407	245.0134
378.915	322.98625
379.423	369.9897
379.93	403.9478
380.438	282.96059
380.946	251.9436
381.453	287.9177
381.96	154.94575
382.468	112.94926
382.975	408.80267
383.482	356.81058
383.989	287.85615
384.495	276.84566
385.002	87.9504
385.509	212.88092
386.015	416.82091
386.521	328.85387
387.028	401.86523
387.534	201.94694
388.04	406.89603
388.546	215.99651
389.051	-32.00639
389.557	20.00935
390.063	595.46883
390.568	468.49687
391.073	172.2503
391.578	388.67339
392.084	114.2565
392.589	-169.50152
393.093	-515.91064
393.598	-374.8201
394.103	-71.44419
394.607	-39.30743
395.112	206.86422
395.616	81.83355
396.12	-470.58921
396.624	-720.59992
397.128	-574.09111
397.632	-227.3064
398.136	-173.45152
398.639	-1751.92866
399.143	-2926.97065
399.646	-2920.48431
400.15	-3634.23834
400.653	-4579.46305
401.156	-6442.07691
401.659	-8150.28752
402.162	-1639.00484
402.664	-799.09186
403.167	0
403.67	0
404.172	0
404.674	0
405.176	0
405.678	0
406.18	0
406.682	0
407.184	0
407.686	0
408.187	0
408.688	0
409.19	0
409.691	0
410.192	0
410.693	0
411.194	435.30976
411.694	4082.94878
412.195	8864.71461
412.696	11168.24352
413.196	7538.33033
413.696	5888.61242
414.196	7950.00656
414.696	10610.24455
415.196	12818.2819
415.696	16207.02046
416.196	13976.84441
416.695	7956.67259
417.195	4391.47766
417.694	4078.36132
418.194	4617.42274
418.693	3501.87694
419.192	3251.39147
419.691	3221.54221
420.19	3565.16395
420.688	3524.57512
421.187	3862.68645
421.685	3844.51554
422.184	3740.73595
422.682	3174.18481
423.18	1934.19258
423.678	1453.12789
424.176	1370.90764
424.674	1295.00701
425.172	1365.23928
425.669	1451.59629
426.167	1638.28444
426.664	1368.8327
427.161	1109.6044
427.659	1044.47503
428.156	842.56901
428.652	806.55066
429.149	922.48888
429.646	797.56104
430.143	752.63338
430.639	707.68159
431.135	558.81126
431.632	651.77175
432.128	593.86042
432.624	400.96369
433.12	302.94209
433.616	313.94611
434.111	87.99796
434.607	121.00755
435.103	355.98676
435.598	380.99371
436.093	302.06886
436.588	370.08548
437.083	370.11146
437.578	346.13441
438.073	110.06405
438.568	313.19019
439.062	255.11187
439.557	246.16216
440.051	188.11723
440.546	154.10147
441.04	87.06987
441.534	54.05182
442.028	180.15327
442.522	117.10282
443.015	88.06718
443.509	139.1338
444.002	66.06583
444.496	119.09576
444.989	57.05924
445.482	94.09957
445.975	20.01821
446.468	75.06242
446.961	23.01985
447.454	133.1237
447.947	10.01046
448.439	37.04184
448.931	-34.03417
449.424	30.03705
449.916	72.08246
450.408	-21.02182
450.9	50.05756
451.392	-73.09502
451.884	18.02016
452.375	-94.12115
452.867	4.00456
453.358	-88.10086
453.849	-31.03214
454.341	-25.02855
454.832	-54.05854
455.323	-42.05484
455.814	14.01685
456.304	-49.06101
456.795	-4.00488
457.285	-23.02813
457.776	42.05283
458.266	-93.12594
458.756	-44.06114
459.247	-104.1432
459.737	-37.05023
460.226	-36.04563
460.716	-83.11782
461.206	-79.11456
461.695	-121.19117
462.185	-80.11554
462.674	-18.02503
463.163	-58.07805
463.653	-35.0437
464.142	-68.10295
464.63	-19.0295
465.119	-65.09449
465.608	-92.13545
466.096	-49.06784
466.585	20.02957
467.073	-34.05386
467.561	-116.1899
468.05	3.00458
468.538	-80.13508
469.026	-40.0649
469.513	-42.05824
470.001	-82.1266
470.489	-99.1623
470.976	-49.07809
471.463	-81.14419
471.951	-36.0644
472.438	-54.08939
472.925	-86.14292
473.412	-63.11349
473.899	-43.07124
474.385	-52.09394
474.872	-58.0983
475.359	-117.21423
475.845	-81.12208
476.331	-25.04002
476.817	-40.07352
477.303	-93.16401
477.789	-93.17201
478.275	-134.2587
478.761	-63.1171
479.247	-76.13161
479.732	-130.25423
480.218	-106.2192
480.703	-48.09338
481.188	-101.16938
481.673	-53.09479
482.158	-134.22269
482.643	-71.146
483.128	-42.07494
483.612	-74.13841
484.097	-62.12309
484.581	-64.12041
485.066	-73.14368
485.55	-125.22275
486.034	-122.2151
486.518	-101.19326
487.002	-136.27505
487.486	-101.20366
487.969	-155.317
488.453	-104.22046
488.936	-100.18694
489.42	-80.14711
489.903	-92.19605
490.386	-545.84759
490.869	-40.07248
491.352	-46.09529
491.835	-55.09507
492.318	-126.24174
492.8	-80.13928
493.283	-129.28152
493.765	-131.27727
494.247	-58.11606
494.73	-109.20675
495.212	-26.05374
495.694	-87.17349
496.175	-191.39417
496.657	-95.19526
497.139	-33.0489
497.62	-165.34051
498.102	-137.29669
498.583	-116.25481
499.064	-87.16671
499.545	-85.16816
500.026	-116.22653
500.507	-148.3033
500.988	-93.20244
501.469	-146.32233
501.949	-88.19127
502.43	-178.37452
502.91	-106.191
503.39	-57.12524
503.87	-181.37907
504.35	-69.14336
504.83	-85.16264
505.31	-146.3145
505.79	-107.22538
506.269	-109.22626
506.749	-167.34061
507.228	-125.25982
507.707	-85.16564
508.187	-123.2633
508.666	-138.30186
509.145	-170.35643
509.623	-76.15737
510.102	-150.327
510.581	-58.12429
511.059	-109.24281
511.538	-101.2342
512.016	-108.23084
512.494	-87.18865
512.972	-123.26353
513.45	-205.42933
513.928	-188.41401
514.406	-179.38748
514.884	-171.39886
515.361	-125.2692
515.839	-119.24316
516.316	-98.21101
516.793	-101.23048
517.27	-86.18764
517.747	-176.41141
518.224	-112.2341
518.701	-128.25804
519.178	-165.3709
519.654	-52.11086
520.131	-132.29605
520.607	-149.33809
521.083	-114.23532
521.56	-133.28545
522.036	-136.2724
522.512	-94.21039
522.987	-145.31214
523.463	-141.30549
523.939	-74.16385
524.414	-102.21424
524.89	-128.27703
525.365	-133.27472
525.84	-159.3439
526.315	-84.1825
526.79	-82.16713
527.265	-111.23031
527.74	-134.29831
528.215	-112.24043
528.689	-102.20496
529.164	-65.12763
529.638	-108.25365
530.112	-149.32172
530.587	-85.16351
531.061	-131.2883
531.534	-105.23283
532.008	-119.26102
532.482	-86.17991
532.956	-157.36736
533.429	-88.1942
533.903	-39.07792
534.376	-105.21221
534.849	-51.10695
535.322	-63.13486
535.795	-75.16686
536.268	-63.13719
536.741	-45.09791
537.213	-12.02494
537.686	-100.22207
538.158	-56.113
538.631	-3.00657
539.103	-91.18552
539.575	-1.00187
540.047	24.047
540.519	20.04282
540.991	-25.05541
541.463	39.08414
541.934	-17.035
542.406	-16.03424
542.877	6.01212
543.348	87.18559
543.82	71.15455
544.291	66.13679
544.762	49.10276
545.233	103.22621
545.703	75.14532
546.174	139.28041
546.645	86.1788
547.115	158.32805
547.585	222.43313
548.056	180.36872
548.526	232.45737
548.996	271.5462
549.466	341.68981
549.935	284.55436
550.405	328.58258
550.875	433.81694
551.344	428.82316
551.814	495.89094
552.283	554.92457
552.752	570.00898
553.221	635.01591
553.69	720.16118
554.159	727.31267
554.628	856.32766
555.096	882.59685
555.565	968.46281
556.033	1036.66823
556.502	1071.77497
556.97	1178.69348
557.438	1363.0407
557.906	1404.09828
558.374	1477.06221
558.842	1611.29044
559.31	1803.20091
559.777	1828.47036
560.245	2079.51848
560.712	2209.4994
561.18	2392.31361
561.647	2584.38227
562.114	2687.45986
562.581	2923.87572
563.048	3200.472
563.514	3310.76189
563.981	3645.27459
564.448	3964.00153
564.914	4192.11689
565.381	4450.84524
565.847	4800.81873
566.313	5033.65146
566.779	5386.28355
567.245	5732.34294
567.711	6069.35884
568.176	6260.96371
568.642	6778.50391
569.108	7185.46807
569.573	7649.55365
570.038	8097.75818
570.504	8424.29788
570.969	8867.16647
571.434	9384.3229
571.899	9898.65243
572.363	10251.95894
572.828	10731.81458
573.293	11045.21733
573.757	11632.1824
574.222	12133.39945
574.686	12402.09763
575.15	12813.25403
575.614	13280.10418
576.078	13482.40966
576.542	13831.64952
577.006	14077.95883
577.469	14265.08689
577.933	14437.39337
578.396	14637.18054
578.86	14642.38256
579.323	14737.15742
579.786	14678.18181
580.249	14710.65945
580.712	14579.15304
581.175	14310.60825
581.637	14088.60057
582.1	14171.04697
582.563	13959.45865
583.025	13766.20596
583.487	13312.90147
583.95	13159.95911
584.412	13153.08092
584.874	12727.36507
585.336	12343.08421
585.797	12185.93494
586.259	11758.61083
586.721	11471.15097
587.182	11144.50299
587.643	10954.81338
588.105	10590.07303
588.566	10420.87674
589.027	9923.70094
589.488	9774.34513
589.949	9517.54643
590.41	9399.57586
590.87	9050.47329
591.331	8705.77099
591.791	8436.36075
592.252	8263.09739
592.712	8065.98429
593.172	7815.56328
593.632	7635.34954
594.092	7381.207
594.552	7146.97005
595.011	6911.10566
595.471	6723.98755
595.931	6431.9555
596.39	6324.31179
596.849	6126.21255
597.308	6013.90601
597.768	5765.86282
598.227	5711.55858
598.685	5638.3325
599.144	5421.5022
599.603	5276.65976
600.062	5154.03219
600.52	4968.44418
600.978	5003.80879
601.437	4809.71392
601.895	4735.3141
602.353	4693.59928
602.811	4606.63545
603.269	4491.15057
603.727	4393.20246
604.184	4309.86377
604.642	4228.4356
605.099	4189.12118
605.557	4112.47349
606.014	4080.74042
606.471	3991.63745
606.928	3988.73754
607.385	3871.50102
607.842	3851.18977
608.299	3958.26517
608.755	3764.53835
609.212	3705.09141
609.668	3658.06834
610.125	3757.57841
610.581	3715.55403
611.037	3720.32828
611.493	3608.56623
611.949	3590.64052
612.405	3465.74366
612.861	3577.57821
613.316	3414.67615
613.772	3420.47115
614.227	3460.60023
614.683	3532.09243
615.138	3254.6238
615.593	3302.58086
616.048	3308.52758
616.503	3246.95475
616.958	3270.04065
617.412	3131.74734
617.867	3051.3953
618.321	3114.11135
618.776	2993.4582
619.23	3040.747
619.684	2946.58967
620.138	2925.74831
620.592	2831.97407
621.046	2769.81853
621.5	2704.98335
621.954	2673.63524
622.407	2684.58151
622.861	2577.98865
623.314	2618.69594
623.768	2499.78521
624.221	2461.08916
624.674	2268.69793
625.127	2334.79174
625.58	2274.69003
626.033	2267.56053
626.485	2154.83673
626.938	2182.84468
627.39	2167.7436
627.843	2001.65664
628.295	1969.64216
628.747	2006.77599
629.199	1952.57728
629.651	1905.55098
630.103	1854.55809
630.555	1922.3232
631.006	1830.64659
631.458	1735.60162
631.909	1815.58534
632.361	1723.56807
632.812	1675.4941
633.263	1691.28993
633.714	1650.25009
634.165	1595.61644
634.616	1530.49035
635.067	1601.34269
635.518	1499.48212
635.968	1587.04001
636.419	1511.21346
636.869	1450.43257
637.319	1394.28504
637.769	1301.09809
638.219	1363.36434
638.669	1191.14624
639.119	1314.37057
639.569	1232.23448
640.019	1323.23208
640.468	1171.97126
640.918	1217.22443
641.367	1210.0289
641.816	1190.00061
642.265	1132.01314
642.714	1108.98578
643.163	1151.02549
643.612	1050.9876
644.061	1099.77064
644.51	1091.92875
644.958	1041.78773
645.406	1028.95817
645.855	999.97686
646.303	1086.99404
646.751	999.80873
647.199	1045.87401
647.647	1015.85827
648.095	1013.84809
648.543	1031.64845
648.99	915.79443
649.438	953.82605
649.885	947.92619
650.333	1005.51584
650.78	929.84332
651.227	944.88312
651.674	927.72325
652.121	869.7666
652.568	919.84209
653.015	1027.11106
653.461	890.75478
653.908	953.81201
654.354	908.797
654.801	872.70075
655.247	919.65006
655.693	847.87774
656.139	852.71669
656.585	845.70763
657.031	877.69799
657.477	851.52379
657.922	846.63125
658.368	814.71434
658.813	872.69995
659.259	803.64119
659.704	844.65385
660.149	800.58523
660.594	806.62985
661.039	773.5049
661.484	854.72623
661.929	818.62622
662.373	791.71794
662.818	823.74506
663.262	786.62417
663.707	765.68325
664.151	814.70384
664.595	762.58858
665.039	741.60996
665.483	764.69263
665.927	780.58297
666.371	721.44812
666.814	766.58492
667.258	688.4278
667.701	799.4709
668.145	779.6847
668.588	736.58046
669.031	693.42956
669.474	764.59769
669.917	769.46802
670.36	747.62026
670.803	793.65583
671.245	759.37547
671.688	762.6216
672.13	704.38045
672.573	770.71158
673.015	718.51597
673.457	721.36759
673.899	732.5577
674.341	714.51805
674.783	696.47332
675.225	722.56367
675.666	720.51887
676.108	723.37006
676.549	717.49633
676.991	726.39752
677.432	715.23381
677.873	724.47053
678.314	719.51244
678.755	650.41538
679.196	691.39736
679.637	733.57908
680.078	698.44665
680.518	697.43975
680.959	694.4742
681.399	720.57855
681.839	689.49119
682.28	733.59324
682.72	738.4772
683.16	710.56705
683.6	758.50889
684.039	707.2895
684.479	710.54289
684.919	699.42001
685.358	764.70595
685.798	731.70016
686.237	781.64947
686.676	764.54976
687.115	794.61874
687.554	729.52476
687.993	773.4828
688.432	754.5044
688.871	787.54455
689.309	779.62154
689.748	780.40535
690.186	880.79507
690.625	767.56824
691.063	830.7167
691.501	826.77006
691.939	775.69315
692.377	788.67624
692.815	828.70722
693.253	836.73529
693.69	868.61537
694.128	771.63259
694.565	828.70493
695.003	865.89303
695.44	911.80925
695.877	881.74797
696.314	950.69322
696.751	956.8208
697.188	877.71092
697.625	944.8179
698.061	855.76018
698.498	969.9674
698.934	1011.01864
699.371	913.81491
699.807	996.95578
700.243	938.90225
700.679	1022.89786
701.115	1053.03201
701.551	1007.96397
701.987	1071.95022
702.422	935.86902
702.858	1030.02114
703.294	1087.9874
703.729	1088.17518
704.164	1052.0789
704.599	1120.98889
705.035	1065.92559
705.47	1077.13979
705.904	1050.99821
706.339	1201.20498
706.774	1137.13192
707.209	1063.99222
707.643	1177.25354
708.078	1097.17456
708.512	1141.30803
708.946	1137.19451
709.38	1232.29083
709.814	1188.13918
710.248	1210.34073
710.682	1142.17746
711.116	1160.20548
711.549	1204.49911
711.983	1161.12918
712.416	1259.32104
712.85	1262.47855
713.283	1221.27199
713.716	1259.50091
714.149	1240.32051
714.582	1205.11212
715.015	1215.42785
715.448	1237.47755
715.881	1269.12319
716.313	1222.24534
716.746	1163.17868
717.178	1159.22962
717.61	1213.46055
718.043	1172.34986
718.475	1161.25585
718.907	1242.50067
719.339	1161.07712
719.77	1084.08451
720.202	1122.31331
720.634	1141.23366
721.065	1166.20195
721.497	1165.29143
721.928	1074.15898
722.359	1009.01278
722.79	1072.09191
723.221	1094.25853
723.652	1068.28514
724.083	1012.86996
724.514	1032.94113
724.945	978.91229
725.375	959.85257
725.806	1037.14785
726.236	974.10707
726.666	996.9567
727.096	984.01937
727.526	940.02482
727.956	961.8131
728.386	948.97056
728.816	947.02731
729.246	876.81919
729.675	906.89655
730.105	898.88641
730.534	872.73854
730.964	906.95989
731.393	907.92411
731.822	848.87723
732.251	827.82504
732.68	824.67617
733.109	781.68328
733.537	810.69546
733.966	787.70853
734.395	808.61005
734.823	839.61889
735.251	751.58813
735.68	754.66631
736.108	718.61505
736.536	766.57856
736.964	744.51189
737.392	709.5782
737.82	711.51133
738.247	694.4774
738.675	744.56406
739.102	666.49128
739.53	658.50654
739.957	664.53608
740.384	708.55352
740.811	657.49913
741.238	667.45642
741.665	656.35707
742.092	633.36112
742.519	644.4331
742.945	630.36192
743.372	651.4484
743.798	648.50318
744.225	575.2442
744.651	626.42059
745.077	573.30519
745.503	610.34783
745.929	558.22355
746.355	618.39335
746.781	529.20775
747.207	482.04689
747.632	510.14676
748.058	578.31633
748.483	524.10783
748.908	487.12377
749.334	513.16364
749.759	525.13731
750.184	454.00812
750.609	535.2092
751.033	565.21889
751.458	525.08012
751.883	493.13358
752.307	420.92986
752.732	421.98993
753.156	463.06618
753.58	455.00846
754.005	466.10439
754.429	410.9081
754.853	412.96292
755.277	417.92918
755.7	416.97341
756.124	419.97947
756.548	354.79976
756.971	417.95988
757.394	427.03452
757.818	386.94304
758.241	399.95826
758.664	381.91366
759.087	365.77285
759.51	407.95702
759.933	352.80755
760.356	380.92597
760.778	352.82596
761.201	348.80892
761.623	369.85213
762.046	355.80381
762.468	395.89836
762.89	395.92339
763.312	310.72856
763.734	282.65657
764.156	332.78542
764.578	360.7884
765	315.73872
765.421	263.64774
765.843	314.79219
766.264	316.73397
766.686	283.68773
767.107	279.65406
767.528	212.52378
767.949	292.71689
768.37	274.65124
768.791	298.69518
769.212	252.61482
769.632	198.45301
770.053	272.69409
770.473	235.55759
770.894	322.77412
771.314	250.58138
771.734	264.59646
772.154	236.59097
772.575	228.51639
772.994	222.49277
773.414	261.60852
773.834	197.4836
774.254	201.4828
774.673	232.55143
775.093	179.43616
775.512	249.59604
775.931	216.53562
776.351	241.58239
776.77	172.41449
777.189	165.38774
777.607	228.56806
778.026	186.4555
778.445	162.39997
778.864	240.59947
779.282	159.37815
779.701	243.59584
780.119	181.44974
780.537	160.39416
780.955	190.47494
781.373	182.44273
781.791	186.41063
782.209	194.43903
782.627	165.42854
783.045	145.33048
783.462	199.49824
783.88	132.33853
784.297	161.39961
784.715	120.30603
785.132	167.39855
785.549	172.42356
785.966	151.37534
786.383	158.38363
786.8	170.3891
787.217	184.42842
787.633	142.35059
788.05	195.45447
788.466	217.49977
788.883	124.31377
789.299	126.30134
789.715	161.386
790.131	179.43747
790.547	149.36781
790.963	164.40118
791.379	131.32824
791.795	170.38206
792.21	160.36901
792.626	162.37898
793.041	159.387
793.457	158.38521
793.872	109.25525
794.287	76.18162
794.702	136.33195
795.117	124.30559
795.532	132.32758
795.947	132.31509
796.362	146.3449
796.776	164.37884
797.191	124.30119
797.605	74.174
798.02	148.35571
798.434	183.39987
798.848	98.24054
799.262	93.23008
799.676	136.32861
800.09	104.25479
800.504	152.36407
800.918	139.3186
801.331	127.33008
801.745	107.24476
802.158	126.31223
802.572	115.27729
802.985	147.35109
803.398	142.3348
803.811	137.34858
804.224	106.26258
804.637	85.20232
805.05	165.37637
805.462	129.3141
805.875	65.16865
806.288	63.15237
806.7	95.23795
807.112	120.27621
807.525	143.34871
807.937	67.16588
808.349	125.31038
808.761	133.32384
809.173	122.29322
809.584	149.36347
809.996	52.12787
810.408	41.10634
810.819	94.22042
811.231	44.11418
811.642	71.16938
812.053	67.1596
812.464	161.37657
812.875	167.41964
813.286	126.32122
813.697	215.48962
814.108	120.29082
814.519	148.32537
814.929	145.36515
815.34	122.29333
815.75	66.16784
816.16	130.32073
816.571	95.24572
816.981	107.25125
817.391	133.31765
817.801	47.11726
818.211	130.30674
818.62	109.26063
819.03	121.29396
819.44	141.36382
819.849	129.32171
820.259	149.37616
820.668	84.2061
821.077	79.19587
821.486	147.34921
821.895	137.33458
822.304	110.28938
822.713	162.37645
823.122	80.19933
823.531	113.26586
823.939	106.2566
824.348	134.32206
824.756	144.35592
825.164	100.25034
825.573	89.22252
825.981	124.30458
826.389	124.30851
826.797	77.19259
827.205	82.18784
827.612	142.34582
828.02	53.12489
828.428	136.34218
828.835	95.24878
829.243	96.22775
829.65	65.16169
830.057	118.28382
830.464	141.33895
830.871	161.37893
831.278	119.28498
831.685	93.20674
832.092	89.21711
832.499	94.20475
832.905	116.29113
833.312	141.31721
833.718	137.33707
834.124	92.20939
834.531	87.21854
834.937	136.34475
835.343	134.31937
835.749	109.25275
836.155	91.23717
836.561	99.24205
836.966	75.18317
837.372	112.2827
837.777	73.18159
838.183	119.26201
838.588	120.29497
838.993	125.30106
839.399	107.25956
839.804	59.14393
840.209	71.18046
840.613	63.14034
841.018	64.16207
841.423	97.24733
841.828	56.14181
842.232	164.39894
842.637	147.3414
843.041	69.17662
843.445	38.09575
843.849	86.21202
844.253	131.30748
844.657	73.18344
845.061	102.2298
845.465	69.1665
845.869	110.2534
846.272	53.12929
846.676	111.26613
847.079	77.19523
847.483	113.27935
847.886	131.31479
848.289	81.21535
848.692	101.25398
849.095	102.2432
849.498	149.37185
849.901	104.2367
850.304	130.30674
850.707	98.24825
851.109	103.25873
851.512	98.2392
851.914	45.11369
852.316	100.25115
852.718	27.07008
853.121	121.29319
853.523	70.16338
853.925	30.07863
854.326	57.14257
854.728	72.18472
855.13	69.17761
855.531	59.14102
855.933	103.24535
856.334	48.1199
856.736	71.15875
857.137	91.21034
857.538	44.11091
857.939	78.19202
858.34	108.26086
858.741	99.25696
859.142	91.21735
859.542	105.27478
859.943	111.2732
860.343	83.20459
860.744	120.28951
861.144	70.17041
861.544	47.1132
861.945	94.23803
862.345	43.10548
862.745	86.21265
863.145	137.3227
863.544	111.27783
863.944	89.20907
864.344	95.23442
864.743	89.21962
865.143	104.26495
865.542	74.17115
865.941	87.21421
866.34	115.27256
866.74	83.22177
867.139	39.09372
867.537	111.28013
867.936	95.22707
868.335	80.20273
868.734	79.20108
869.132	62.14396
869.531	137.32646
869.929	78.1771
870.327	62.14851
870.726	110.27169
871.124	114.26355
871.522	59.15023
871.92	83.20376
872.318	78.18996
872.715	133.32469
873.113	65.15815
873.511	105.25929
873.908	52.13135
874.306	75.18589
874.703	122.30166
875.1	122.30849
875.497	93.22144
875.894	72.17587
876.291	106.25776
876.688	65.16737
877.085	110.26127
877.482	88.21903
877.878	95.22699
878.275	68.17238
878.671	136.29799
879.068	108.25819
879.464	90.21615
879.86	61.14413
880.256	122.29745
880.652	60.15248
881.048	117.28669
881.444	111.26146
881.84	60.15237
882.236	110.27388
882.631	113.27442
883.027	135.32206
883.422	63.16087
883.817	18.04553
884.213	111.28203
884.608	72.176
885.003	93.22263
885.398	81.20179
885.793	61.15296
886.188	40.0997
886.582	127.32165
886.977	89.20988
887.371	101.25334
887.766	48.11951
888.16	104.25725
888.554	130.31707
888.949	99.24663
889.343	144.34596
889.737	38.10152
890.131	97.24147
890.525	91.23121
890.918	99.24716
891.312	138.32499
891.706	128.33159
892.099	97.24497
892.492	110.23461
892.886	124.2995
893.279	88.22284
893.672	54.13747
894.065	110.27268
894.458	66.16564
894.851	122.29522
895.244	76.19334
895.637	133.31559
896.029	117.28275
896.422	92.22322
896.814	97.23927
897.206	76.18023
897.599	160.38805
897.991	87.20906
898.383	110.25713
898.775	82.18406
899.167	73.16961
899.559	108.27076
899.951	95.2222
900.342	89.22493
900.734	37.09207
901.125	95.24751
901.517	80.19541
901.908	127.30031
902.299	71.17301
902.69	109.25445
903.082	151.35899
903.473	62.14822
903.863	92.23313
904.254	137.31276
904.645	138.33796
905.036	54.13072
905.426	146.32812
905.817	102.24804
906.207	80.18965
906.597	61.14245
906.987	115.29488
907.378	89.22365
907.768	60.15843
908.158	103.24883
908.547	66.1701
908.937	110.27944
909.327	96.23126
909.717	134.33533
910.106	76.18176
910.495	84.20854
910.885	60.15178
911.274	126.31075
911.663	91.22941
912.052	94.23021
912.441	68.17244
912.83	107.24299
913.219	106.27489
913.608	87.21176
913.997	85.21183
914.385	100.23678
914.774	120.28852
915.162	66.15688
915.55	129.30763
915.939	69.17364
916.327	123.30307
916.715	64.16276
917.103	111.27027
917.491	140.34082
917.878	116.28187
918.266	88.22679
918.654	98.24834
919.041	73.18987
919.429	86.20166
919.816	97.24392
920.203	96.23091
920.591	117.28669
920.978	99.24034
921.365	91.23717
921.752	82.19439
922.139	127.27139
922.525	83.19816
922.912	79.19171
923.299	105.25843
923.685	74.1923
924.072	133.30179
924.458	95.23348
924.844	36.08934
925.231	102.23506
925.617	59.14986
926.003	130.32767
926.389	126.3136
926.774	106.26603
927.16	121.29671
927.546	53.13524
927.931	117.2885
928.317	130.2948
928.702	95.2229
929.088	79.18587
929.473	98.24728
929.858	23.0559
930.243	75.1792
930.628	58.14094
931.013	88.21663
931.398	146.32947
931.783	142.36811
932.167	54.13195
932.552	83.20677
932.937	107.26287
933.321	64.16022
933.705	75.18826
934.09	120.29954
934.474	93.21914
934.858	96.24707
935.242	52.12051
935.626	39.10004
936.009	105.27674
936.393	62.15745
936.777	73.1862
937.16	91.23513
937.544	140.32417
937.927	115.28846
938.311	159.38033
938.694	116.30341
939.077	90.21385
939.46	140.33814
939.843	120.24659
940.226	106.26928
940.609	47.10799
940.991	75.19009
941.374	69.16807
941.757	97.23733
942.139	71.15881
942.522	113.26389
942.904	65.15584
943.286	94.23702
943.668	83.2138
944.05	90.22008
944.432	90.22049
944.814	121.29418
945.196	51.12427
945.578	54.12826
945.959	141.32461
946.341	146.3521
946.722	107.2484
947.104	114.2692
947.485	125.28663
947.866	64.16085
948.247	102.25498
948.628	109.26302
949.009	60.15339
949.39	101.24914
949.771	160.36416
950.152	80.19527
950.532	39.09613
950.913	108.2577
951.293	79.21241
951.674	101.24197
952.054	83.20444
952.434	74.18291
952.814	114.26795
953.194	81.21089
953.574	124.30131
953.954	62.14692
954.334	117.28807
954.714	68.16517
955.093	119.28889
955.473	73.18179
955.853	64.16528
956.232	79.21553
956.611	134.3163
956.99	107.26617
957.37	70.17776
957.749	75.1781
958.128	73.18318
958.506	77.19882
958.885	62.15616
959.264	53.12982
959.643	90.20318
960.021	71.17527
960.4	74.16692
960.778	129.31316
961.156	78.19456
961.535	101.23308
961.913	78.18155
962.291	50.12828
962.669	66.16671
963.047	107.27033
963.424	94.23803
963.802	92.22447
964.18	121.30231
964.557	133.3013
964.935	99.23237
965.312	92.23784
965.69	110.27249
966.067	104.25072
966.444	88.21535
966.821	67.17222
967.198	118.28264
967.575	133.32202
967.952	103.24025
968.329	71.1721
968.705	93.19762
969.082	78.19906
969.458	69.16493
969.835	85.20558
970.211	72.18407
970.587	131.32135
970.963	104.26429
971.339	64.16671
971.715	87.21579
972.091	93.22721
972.467	100.24717
972.843	78.19258
973.219	92.21919
973.594	89.23124
973.97	132.30929
974.345	62.14805
974.721	128.30542
975.096	70.16876
975.471	99.23265
975.846	119.28215
976.221	80.20208
976.596	104.24673
976.971	98.23983
977.346	141.32241
977.72	102.25746
978.095	96.24612
978.469	136.31928
978.844	95.23692
979.218	59.14119
979.593	98.23267
979.967	98.23661
980.341	75.17184
980.715	80.20049
981.089	94.23345
981.463	107.24289
981.837	65.15839
982.21	141.32228
982.584	99.2369
982.957	68.16925
983.331	95.22264
983.704	53.13016
984.078	66.16218
984.451	144.35357
984.824	67.16265
985.197	105.25241
985.57	93.23143
985.943	110.26869
986.316	138.33356
986.688	126.2995
987.061	102.23666
987.434	91.23546
987.806	97.23318
988.179	108.25196
988.551	88.22173
988.923	92.22481
989.295	141.34652
989.667	59.1407
990.039	77.18931
990.411	121.27456
990.783	121.27467
991.155	29.06995
991.527	145.35081
991.898	58.14431
992.27	83.20406
992.641	129.31902
993.012	114.26491
993.384	84.19905
993.755	69.17532
994.126	84.20074
994.497	37.09103
994.868	51.11713
995.239	119.28465
995.61	107.26646
995.98	63.15266
996.351	94.23089
996.722	95.21836
997.092	98.22989
997.462	2.00472
997.833	115.26919
998.203	129.3081
998.573	82.20298
998.943	55.12885
999.313	82.19529
999.683	83.19793
1000.053	82.18746
1000.423	100.24071
1000.792	62.16034
1001.162	42.10351
1001.531	107.26102
1001.901	105.2591
1002.27	89.19735
1002.639	85.21582
1003.009	53.12596
1003.378	60.15312
1003.747	113.26368
1004.116	29.06966
1004.485	80.19009
1004.853	79.19909
1005.222	55.13856
1005.591	170.39426
1005.959	45.10149
1006.328	92.20524
1006.696	112.26694
1007.064	61.15312
1007.433	127.31293
1007.801	119.28834
1008.169	82.20587
1008.537	144.31259
1008.905	61.14178
1009.273	96.23511
1009.64	85.20138
1010.008	99.23374
1010.375	155.36892
1010.743	162.36572
1011.11	97.22741
1011.478	79.19444
1011.845	115.26697
1012.212	47.10643
1012.579	97.23601
1012.946	96.22643
1013.313	120.28172
1013.68	156.34296
1014.047	86.20348
1014.414	70.16466
1014.78	57.14143
1015.147	111.26532
1015.513	87.20811
1015.88	122.30794
1016.246	110.26849
1016.612	145.32554
1016.978	127.30669
1017.344	90.22074
1017.71	119.28639
1018.076	129.29947
1018.442	113.28742
1018.808	103.25491
1019.174	61.15268
1019.539	168.37756
1019.905	83.19444
1020.27	87.21318
1020.636	108.25602
1021.001	120.28337
1021.366	80.19096
1021.731	72.1844
1022.096	71.17835
1022.461	104.24349
1022.826	86.20293
1023.191	107.27791
1023.556	99.22974
1023.92	110.26739
1024.285	96.23222
1024.649	83.2021
1025.014	116.28377
1025.378	79.19752
1025.742	95.23391
1026.107	117.26095
1026.471	141.32318
1026.835	147.35779
1027.199	35.08446
1027.562	117.26828
1027.926	129.31069
1028.29	63.15899
1028.654	118.2677
1029.017	115.27918
1029.381	61.14536
1029.744	85.21536
1030.107	145.33662
1030.471	86.20442
1030.834	130.29085
1031.197	135.31984
1031.56	101.23586
1031.923	78.2006
1032.286	121.28013
1032.648	131.30832
1033.011	95.216
1033.374	130.30066
1033.736	70.18334
1034.099	98.23661
1034.461	61.15373
1034.823	55.13677
1035.185	82.20513
1035.548	92.22204
1035.91	121.28579
1036.272	80.1809
1036.634	156.37394
1036.995	99.23038
1037.357	66.16001
1037.719	91.21951
1038.08	63.14915
1038.442	117.27398
1038.803	99.23537
1039.165	61.15356
1039.526	90.21574
1039.887	88.20893
1040.248	63.15478
1040.609	96.23511
1040.97	96.23248
1041.331	78.19639
1041.692	59.1374
1042.053	89.20097
1042.413	115.26444
1042.774	100.2408
1043.134	127.29775
1043.495	96.2392
1043.855	81.19524
1044.215	95.23374
1044.576	67.1596
1044.936	86.19566
1045.296	154.37686
1045.656	100.24299
1046.016	105.25069
1046.375	116.27774
1046.735	96.21549
1047.095	80.18605
1047.454	145.30072
1047.814	112.26591
1048.173	149.34905
1048.533	89.2022
1048.892	69.16493
1049.251	91.22662
1049.61	67.16436
1049.969	79.18507
1050.328	119.25408
1050.687	78.18868
1051.046	97.23398
1051.405	133.32565
1051.763	62.14214
1052.122	96.23728
1052.48	117.28318
1052.839	72.16857
1053.197	95.2215
1053.555	117.263
1053.914	132.31774
1054.272	76.18273
1054.63	66.1608
1054.988	87.20509
1055.345	84.17947
1055.703	118.28016
1056.061	82.20964
1056.419	62.16006
1056.776	105.25184
1057.134	87.19981
1057.491	101.25042
1057.848	123.30195
1058.206	88.2053
1058.563	115.2499
1058.92	127.28806
1059.277	119.28965
1059.634	104.24196
1059.991	98.2325
1060.348	76.17074
1060.704	64.15201
1061.061	152.34581
1061.418	64.1547
1061.774	90.22041
1062.131	48.12687
1062.487	101.23364
1062.843	94.23234
1063.199	80.19774
1063.555	50.11578
1063.911	110.27468
1064.267	159.32341
1064.623	66.15971
1064.979	148.34379
1065.335	118.27821
1065.691	104.24654
1066.046	112.24292
1066.402	139.30989
1066.757	101.25243
1067.112	100.24299
1067.468	27.06399
1067.823	88.2099
1068.178	108.25819
1068.533	65.15703
1068.888	119.28041
1069.243	94.22995
1069.598	130.31091
1069.952	64.1436
1070.307	76.18709
1070.662	60.14207
1071.016	62.13848
1071.371	102.22943
1071.725	101.2391
1072.079	76.18176
1072.434	41.09972
1072.788	56.13311
1073.142	130.31482
1073.496	81.19087
1073.85	106.24291
1074.203	108.25898
1074.557	114.2997
1074.911	131.3076
1075.265	95.21871
1075.618	86.20842
1075.971	85.20068
1076.325	55.13955
1076.678	23.05285
1077.031	51.1153
1077.385	117.25392
1077.738	79.17715
1078.091	44.1001
1078.444	100.22972
1078.796	94.22858
1079.149	117.28722
1079.502	111.25891
1079.855	82.18988
1080.207	116.28208
1080.56	75.19285
1080.912	110.26458
1081.264	76.18197
1081.617	64.15546
1081.969	78.19562
1082.321	61.14853
1082.673	72.16347
1083.025	78.18391
1083.377	101.21424
1083.728	99.22856
1084.08	110.27139
1084.432	108.2574
1084.783	114.26355
1085.135	54.13514
1085.486	102.23074
1085.838	78.19095
1086.189	101.24261
1086.54	105.2479
1086.891	58.14635
1087.242	57.13848
1087.593	108.25987
1087.944	78.17537
1088.295	118.26433
1088.646	86.20686
1088.996	55.13227
1089.347	70.17099
1089.698	41.09699
1090.048	122.31266
1090.398	48.11128
1090.749	74.1761
1091.099	46.11566
1091.449	76.18826
1091.799	112.27703
1092.149	3.00737
1092.499	80.19388
1092.849	65.16463
1093.199	76.18943
1093.548	105.24944
1093.898	94.23311
1094.248	66.16897
1094.597	47.11993
1094.947	98.25912
1095.296	98.23965
1095.645	90.23227
1095.994	79.18854
1096.343	87.21728
1096.692	82.21404
1097.041	53.14329
1097.39	74.18465
1097.739	84.21686
1098.088	97.25763
1098.437	60.1572
1098.785	65.17465
1099.134	108.28373
1099.482	99.26992
1099.83	117.30367
1100.179	85.22016
1100.527	103.27101
1100.875	74.19467
1101.223	72.19031
1101.571	56.15447
1101.919	3.00789
1102.267	51.14343
1102.615	8.02571
1102.962	17.05469
1103.31	6.01928
1103.658	20.06435
