Data from N2 R11 sample 10_Subt2__4__16-03-58-537.txt Node

Date: Mon Sep 01 16:03:58 PDT 2025
User: uwsun
Spectrometer: HDX01956
Trigger mode: 0
Integration Time (sec): 5.000000E-1
Scans to average: 1
Nonlinearity correction enabled: true
Boxcar width: 0
Storing dark spectrum: false
XAxis mode: Wavelengths
Number of Pixels in Spectrum: 2068
>>>>>Begin Spectral Data<<<<<
194.03	-14.03938
194.578	-21.06658
195.127	-11.03433
195.676	-19.05953
196.225	64.16797
196.773	33.09
197.321	-5.01343
197.87	40.09825
198.418	16.03897
198.966	0
199.513	-50.11821
200.061	-58.13961
200.609	41.10244
201.156	-36.07438
201.704	3.0071
202.251	-7.01748
202.798	-36.08869
203.345	22.05129
203.892	9.02131
204.438	42.09408
204.985	-37.08252
205.532	-4.00991
206.078	4.00925
206.624	-1.00231
207.17	39.08475
207.716	11.02501
208.262	59.10841
208.808	-70.16312
209.354	-11.02517
209.899	45.10694
210.445	-9.02098
210.99	8.01804
211.535	45.099
212.08	31.06762
212.625	28.06581
213.17	72.16996
213.715	-39.08161
214.259	17.03729
214.804	45.1043
215.348	32.06872
215.892	33.07424
216.436	57.12376
216.98	45.09354
217.524	4.00891
218.068	30.07106
218.612	22.05225
219.155	46.1013
219.698	18.04042
220.242	16.0378
220.785	1.00222
221.328	26.06114
221.871	31.07438
222.414	55.1289
222.956	3.00681
223.499	41.08674
224.041	92.20048
224.583	83.16829
225.126	10.02088
225.668	-11.02537
226.21	13.03086
226.751	-1.00206
227.293	-7.01524
227.835	40.09163
228.376	73.15816
228.918	40.0953
229.459	41.09556
230	10.02249
230.541	43.09324
231.082	16.03658
231.622	12.02619
232.163	15.03422
232.704	20.04662
233.244	63.14585
233.784	76.17445
234.324	-25.0518
234.864	-6.01288
235.404	60.13374
235.944	29.06481
236.484	42.09856
237.023	-5.01116
237.563	24.05201
238.102	5.01115
238.641	-3.00717
239.18	-46.10198
239.719	55.129
240.258	33.06966
240.797	45.10037
241.335	25.05756
241.874	11.01987
242.412	9.02031
242.95	-53.11997
243.488	31.06627
244.026	2.00433
244.564	58.11101
245.102	21.0441
245.64	24.0544
246.177	-8.01692
246.715	55.12323
247.252	40.08594
247.789	81.14195
248.326	17.03799
248.863	6.01231
249.4	-9.01928
249.936	39.07462
250.473	13.02831
251.009	16.03415
251.546	2.00413
252.082	-3.00617
252.618	-4.00834
253.154	8.01793
253.69	3.00632
254.226	54.11922
254.761	14.02934
255.297	-27.05555
255.832	-22.04886
256.367	11.02418
256.903	-7.01437
257.438	15.03292
257.972	1.00208
258.507	-26.05562
259.042	57.11409
259.576	-14.028
260.111	22.04737
260.645	6.01213
261.179	-9.01957
261.713	-15.03115
262.247	46.09802
262.781	-22.04302
263.315	9.02043
263.849	5.01161
264.382	-11.02366
264.915	2.00434
265.449	-28.06314
265.982	37.07783
266.515	9.02033
267.048	0
267.58	21.04266
268.113	29.05756
268.646	18.04098
269.178	-4.00826
269.71	-23.04689
270.243	3.00636
270.775	-8.01888
271.307	52.11528
271.838	69.15071
272.37	19.0431
272.902	26.05454
273.433	29.05821
273.965	8.01798
274.496	29.06655
275.027	1.00229
275.558	36.07994
276.089	-48.10903
276.62	-5.01181
277.15	76.17109
277.681	38.07572
278.211	12.02717
278.741	-34.06914
279.272	-38.08027
279.802	26.05958
280.332	-32.06967
280.861	28.06164
281.391	16.03312
281.921	54.11862
282.45	14.03216
282.98	38.0905
283.509	-4.00825
284.038	11.02289
284.567	29.06197
285.096	-14.0311
285.625	-6.01245
286.153	-40.0862
286.682	24.04974
287.21	-17.03741
287.739	2.0043
288.267	-24.05307
288.795	13.03125
289.323	-21.0446
289.851	23.04879
290.378	0
290.906	-31.06817
291.433	12.02711
291.961	-30.06173
292.488	-38.08649
293.015	6.0127
293.542	-13.02975
294.069	-1.00222
294.596	-19.04282
295.122	26.05562
295.649	0
296.175	42.09129
296.702	6.01314
297.228	-4.0088
297.754	-42.08541
298.28	8.01621
298.806	-30.06496
299.332	28.05471
299.857	-9.01815
300.383	13.02956
300.908	-46.09985
301.433	-44.09592
301.958	-16.03325
302.483	-53.11865
303.008	35.0768
303.533	-14.03275
304.058	47.09791
304.582	-46.09679
305.107	-71.16613
305.631	-11.02237
306.155	-42.08677
306.679	-96.20101
307.203	-42.08638
307.727	-21.04406
308.251	-23.05034
308.775	-51.10643
309.298	-73.15444
309.822	-22.04898
310.345	-28.05829
310.868	-29.06074
311.391	-42.09133
311.914	-48.10553
312.437	30.05925
312.96	-29.05939
313.482	15.03057
314.005	-83.18343
314.527	-55.12612
315.049	-13.02859
315.571	-31.05874
316.093	9.01907
316.615	-12.02471
317.137	2.00368
317.659	31.06412
318.18	-15.03104
318.702	-49.09735
319.223	-29.05015
319.744	-17.03201
320.265	-66.13556
320.786	-27.0559
321.307	-57.11996
321.828	-37.07001
322.348	-37.07262
322.869	-111.22011
323.389	29.03736
323.909	-46.08761
324.43	-10.02007
324.95	-97.18417
325.47	-80.16217
325.989	-65.1251
326.509	-93.16564
327.029	-85.15453
327.548	-78.14047
328.067	-64.1235
328.587	16.03168
329.106	-61.11011
329.625	-21.04486
330.144	-98.17967
330.662	-131.24132
331.181	-119.22131
331.7	-111.2053
332.218	-76.12672
332.736	-57.10305
333.255	-116.20966
333.773	-62.11229
334.291	-25.048
334.808	-98.16493
335.326	-69.11673
335.844	-98.16899
336.361	-127.24242
336.879	-113.19449
337.396	-171.30947
337.913	-69.11438
338.43	-103.16697
338.947	-123.21329
339.464	-137.20772
339.981	-154.263
340.497	-167.30223
341.014	-145.25344
341.53	-175.27793
342.046	-142.2463
342.562	-150.26765
343.078	-123.20029
343.594	-154.25663
344.11	-96.15558
344.626	-164.28779
345.141	-191.29638
345.657	-82.12355
346.172	-117.18891
346.687	-174.2658
347.202	-167.24505
347.717	-157.24791
348.232	-153.2549
348.747	-169.25119
349.261	-235.32247
349.776	-118.17522
350.29	-189.29758
350.805	-152.24355
351.319	-134.19438
351.833	-274.38988
352.347	-152.21968
352.861	-148.2087
353.374	-92.12734
353.888	-204.30738
354.401	-162.2222
354.915	-206.26808
355.428	-238.36273
355.941	-232.31928
356.454	-138.17933
356.967	-166.22992
357.48	-198.26541
357.993	-180.26128
358.505	-217.30943
359.018	-185.26097
359.53	-180.24304
360.042	-172.20793
360.554	-177.2416
361.066	-234.32162
361.578	-170.19412
362.09	-168.21773
362.602	-191.21753
363.113	-242.30086
363.625	-245.28734
364.136	-148.16172
364.647	-330.39243
365.158	-184.21506
365.669	-195.23821
366.18	-230.27525
366.691	-239.25619
367.201	-276.33468
367.712	-252.27348
368.222	-287.31457
368.733	-253.24128
369.243	-284.27765
369.753	-279.29482
370.263	-230.24703
370.773	-301.34498
371.282	-273.27873
371.792	-383.34891
372.301	-358.35823
372.811	-256.28002
373.32	-338.23504
373.829	-419.3577
374.338	-309.21037
374.847	-422.30459
375.356	-446.3255
375.865	-413.19108
376.373	-407.20669
376.882	-393.26895
377.39	-465.26678
377.898	-581.2946
378.407	-604.19713
378.915	-550.1201
379.423	-549.13756
379.93	-638.10593
380.438	-733.10829
380.946	-733.02296
381.453	-771.97762
381.96	-815.88781
382.468	-1024.75385
382.975	-770.77184
383.482	-793.68906
383.989	-875.7148
384.495	-976.5704
385.002	-1112.41575
385.509	-1193.38182
386.015	-1172.35832
386.521	-1342.26834
387.028	-1300.31834
387.534	-1361.3434
388.04	-1365.31929
388.546	-1632.37265
389.051	-1787.58006
389.557	-1915.81275
390.063	-1591.05265
390.568	-1916.33062
391.073	-2044.05929
391.578	-2106.30953
392.084	-2473.44389
392.589	-2758.32362
393.093	-3213.90472
393.598	-3162.79294
394.103	-3308.43223
394.607	-3565.30352
395.112	-3833.07012
395.616	-4133.69211
396.12	-4872.21
396.624	-5356.45699
397.128	-5586.37512
397.632	-5788.26213
398.136	-6696.37896
398.639	-8414.66824
399.143	-10128.05144
399.646	-11052.26961
400.15	-12309.58242
400.653	-14568.83605
401.156	-17184.69273
401.659	-20993.69897
402.162	-16812.1794
402.664	-2596.76515
403.167	-612.18072
403.67	0
404.172	0
404.674	0
405.176	0
405.678	0
406.18	0
406.682	0
407.184	0
407.686	0
408.187	0
408.688	0
409.19	0
409.691	0
410.192	0
410.693	-2584.58762
411.194	-7629.37067
411.694	-6273.31486
412.195	-4754.46368
412.696	-6320.90573
413.196	-8104.65776
413.696	-9264.27375
414.196	-7486.61196
414.696	-4609.50362
415.196	-2515.75028
415.696	1954.86153
416.196	1912.9737
416.695	-1123.25859
417.195	-3105.30074
417.694	-2816.44856
418.194	-2387.68171
418.693	-2815.03894
419.192	-2687.90179
419.691	-2751.80863
420.19	-2413.51638
420.688	-2082.28535
421.187	-1675.41503
421.685	-1276.16916
422.184	-814.8747
422.682	-790.14803
423.18	-1197.74332
423.678	-1457.83795
424.176	-1275.04051
424.674	-1230.53871
425.172	-821.06987
425.669	-796.79779
426.167	-589.77127
426.664	-625.69239
427.161	-644.64397
427.659	-685.62222
428.156	-652.63582
428.652	-737.67824
429.149	-650.71998
429.646	-572.75303
430.143	-461.85668
430.639	-563.86995
431.135	-552.94824
431.632	-480.94772
432.128	-551.03085
432.624	-556.10368
433.12	-660.04305
433.616	-557.03415
434.111	-698.15095
434.607	-703.23098
435.103	-472.09876
435.598	-468.11246
436.093	-377.17406
436.588	-414.20828
437.083	-376.21338
437.578	-406.27078
438.073	-567.48229
438.568	-387.34267
439.062	-379.25639
439.557	-410.37849
440.051	-434.37817
440.546	-422.37565
441.04	-501.52521
441.534	-442.51812
442.028	-425.47007
442.522	-420.46435
443.015	-351.33107
443.509	-400.47752
444.002	-379.4506
444.496	-358.35883
444.989	-406.50352
445.482	-364.4581
445.975	-465.51919
446.468	-430.4486
446.961	-365.37434
447.454	-427.49921
447.947	-474.5959
448.439	-420.55949
448.931	-408.47572
449.424	-390.5547
449.916	-377.50635
450.408	-477.59024
450.9	-427.58157
451.392	-444.65196
451.884	-421.55279
452.375	-496.72885
452.867	-402.53013
453.358	-458.59961
453.849	-391.46625
454.341	-420.55278
454.832	-393.4841
455.323	-426.62974
455.814	-362.49603
456.304	-403.56543
456.795	-377.52284
457.285	-330.44862
457.776	-277.38781
458.266	-365.53901
458.756	-384.59267
459.247	-469.72332
459.737	-496.7765
460.226	-352.49587
460.716	-448.71028
461.206	-379.60134
461.695	-362.61198
462.185	-391.62004
462.674	-383.59583
463.163	-320.46834
463.653	-374.52353
464.142	-324.52841
464.63	-346.58906
465.119	-373.59454
465.608	-310.48716
466.096	-325.4905
466.585	-295.47853
467.073	-295.50262
467.561	-310.53517
468.05	-347.58582
468.538	-285.50817
469.026	-284.49263
469.513	-320.48397
470.001	-316.52172
470.489	-314.54584
470.976	-310.53118
471.463	-339.64397
471.951	-273.51833
472.438	-307.544
472.925	-324.57398
473.412	-283.53863
473.899	-254.4455
474.385	-294.56407
474.872	-331.60274
475.359	-308.59121
475.845	-292.46819
476.331	-222.37547
476.817	-313.61488
477.303	-262.48253
477.789	-261.50305
478.275	-307.61733
478.761	-247.48019
479.247	-216.38802
479.732	-267.53913
480.218	-240.51119
480.703	-307.63412
481.188	-242.42155
481.673	-274.51808
482.158	-311.5422
482.643	-236.50333
483.128	-248.46616
483.612	-243.47354
484.097	-236.48758
484.581	-251.49401
485.066	-244.49959
485.55	-289.53694
486.034	-257.46916
486.518	-265.52722
487.002	-270.56283
487.486	-269.56336
487.969	-251.52451
488.453	-237.51698
488.936	-215.41339
489.42	-200.37889
489.903	-208.45439
490.386	-657.05361
490.869	-241.45914
491.352	-197.42189
491.835	-190.34026
492.318	-250.49402
492.8	-141.24944
493.283	-214.47541
493.765	-281.61424
494.247	-188.38754
494.73	-216.42042
495.212	-206.44297
495.694	-256.53056
496.175	-292.61627
496.657	-142.29496
497.139	-139.21265
497.62	-321.68564
498.102	-220.48488
498.583	-237.53382
499.064	-259.51697
499.545	-211.42977
500.026	-280.5681
500.507	-255.53523
500.988	-196.43597
501.469	-253.57102
501.949	-207.46129
502.43	-264.56598
502.91	-241.44932
503.39	-210.47621
503.87	-248.52708
504.35	-170.36115
504.83	-231.45765
505.31	-247.54358
505.79	-247.53627
506.269	-209.44352
506.749	-261.54371
507.228	-251.53636
507.707	-186.37117
508.187	-195.42392
508.666	-261.58571
509.145	-217.45969
509.623	-228.48817
510.102	-223.49365
510.581	-157.34364
511.059	-250.57312
511.538	-177.41658
512.016	-182.39524
512.494	-139.30475
512.972	-203.44244
513.45	-257.54443
513.928	-210.46458
514.406	-252.554
514.884	-231.54514
515.361	-169.3674
515.839	-200.41617
516.316	-181.39667
516.793	-159.36707
517.27	-142.3135
517.747	-193.45265
518.224	-189.40178
518.701	-193.3949
519.178	-171.38486
519.654	-143.31088
520.131	-206.46903
520.607	-188.42996
521.083	-207.43621
521.56	-219.47873
522.036	-166.3348
522.512	-168.38174
522.987	-204.44471
523.463	-178.38869
523.939	-153.34435
524.414	-160.34036
524.89	-180.39389
525.365	-201.42152
525.84	-221.48432
526.315	-212.47312
526.79	-149.30832
527.265	-204.43206
527.74	-199.44897
528.215	-185.40338
528.689	-182.37247
529.164	-184.37145
529.638	-181.43113
530.112	-191.41611
530.587	-196.38713
531.061	-236.53081
531.534	-168.37741
532.008	-168.37229
532.482	-176.37553
532.956	-250.59558
533.429	-154.34454
533.903	-86.17369
534.376	-167.34232
534.849	-161.34584
535.322	-177.38823
535.795	-151.34124
536.268	-210.47156
536.741	-133.29479
537.213	-166.35681
537.686	-162.36438
538.158	-173.35847
538.631	-127.28536
539.103	-150.30991
539.575	-107.20543
540.047	-127.25762
540.519	-117.25793
540.991	-76.17024
541.463	-109.24261
541.934	-117.24634
542.406	-134.2941
542.877	-80.16476
543.348	-22.04804
543.82	-104.23479
544.291	-57.12138
544.762	-88.19013
545.233	-53.12021
545.703	-73.14645
546.174	15.03112
546.645	-73.15715
547.115	-18.03884
547.585	-26.05372
548.056	-18.03852
548.526	-19.03967
548.996	25.05324
549.466	52.11216
549.935	72.14762
550.405	38.07259
550.875	43.0889
551.344	81.16882
551.814	124.24446
552.283	172.31725
552.752	148.29122
553.221	149.27186
553.69	223.4108
554.159	197.40436
554.628	263.47938
555.096	269.56361
555.565	347.62258
556.033	361.69312
556.502	375.74155
556.97	440.77913
557.438	473.89943
557.906	546.02679
558.374	540.98119
558.842	599.12252
559.31	720.21838
559.777	678.26181
560.245	811.42892
560.712	846.45158
561.18	890.41692
561.647	950.51454
562.114	1011.62001
562.581	1090.90055
563.048	1258.92774
563.514	1272.09074
563.981	1403.04107
564.448	1544.08839
564.914	1659.2939
565.381	1735.27037
565.847	1828.42257
566.313	1923.44907
566.779	2117.39974
567.245	2226.58021
567.711	2349.71082
568.176	2454.42562
568.642	2554.96365
569.108	2756.88097
569.573	2997.66477
570.038	3164.0454
570.504	3252.29711
570.969	3443.89999
571.434	3560.05831
571.899	3826.41561
572.363	3948.10008
572.828	4155.04118
573.293	4262.97432
573.757	4389.90887
574.222	4541.62803
574.686	4895.44766
575.15	4832.84422
575.614	4983.55106
576.078	5157.58769
576.542	5242.38652
577.006	5318.28271
577.469	5551.77355
577.933	5610.09775
578.396	5483.53084
578.86	5491.47186
579.323	5551.48897
579.786	5533.97167
580.249	5442.27807
580.712	5504.70318
581.175	5443.77677
581.637	5380.42505
582.1	5362.1692
582.563	5365.0622
583.025	5215.78425
583.487	5244.78471
583.95	5046.16712
584.412	5092.07004
584.874	4954.94924
585.336	4778.8966
585.797	4726.40259
586.259	4612.99631
586.721	4577.95065
587.182	4472.04597
587.643	4349.9127
588.105	4164.25558
588.566	4114.6388
589.027	3959.43793
589.488	3839.20591
589.949	3740.61212
590.41	3677.46665
590.87	3584.34845
591.331	3427.11666
591.791	3258.48665
592.252	3128.46023
592.712	3091.76689
593.172	2967.44051
593.632	2985.33294
594.092	2813.42702
594.552	2802.26625
595.011	2610.55011
595.471	2584.45636
595.931	2475.43291
596.39	2399.73137
596.849	2318.59876
597.308	2348.32702
597.768	2179.94123
598.227	2160.70764
598.685	2140.51976
599.144	2038.53241
599.603	2045.59136
600.062	1946.09993
600.52	1877.27766
600.978	1909.52825
601.437	1809.35361
601.895	1763.06938
602.353	1774.22951
602.811	1702.18269
603.269	1688.4217
603.727	1709.43494
604.184	1660.19133
604.642	1651.46965
605.099	1623.27049
605.557	1609.4247
606.014	1596.01506
606.471	1544.42308
606.928	1508.93278
607.385	1547.32746
607.842	1537.15256
608.299	1581.25279
608.755	1576.3456
609.212	1557.07689
609.668	1476.99712
610.125	1560.35211
610.581	1644.39552
611.037	1549.20247
611.493	1492.2565
611.949	1474.2752
612.405	1570.82801
612.861	1504.26678
613.316	1443.23403
613.772	1487.16599
614.227	1436.19669
614.683	1437.95189
615.138	1352.09866
615.593	1382.11212
616.048	1437.13462
616.503	1379.28962
616.958	1310.25825
617.412	1268.06001
617.867	1341.94726
618.321	1326.79647
618.776	1298.93474
619.23	1209.98935
619.684	1264.96431
620.138	1250.02606
620.592	1113.97082
621.046	1181.98064
621.5	1086.94226
621.954	1085.78346
622.407	1112.78916
622.861	993.82611
623.314	1087.81446
623.768	1001.75363
624.221	984.4217
624.674	968.69344
625.127	961.7186
625.58	1005.73674
626.033	963.62346
626.485	871.6382
626.938	919.70666
627.39	941.69398
627.843	900.63034
628.295	897.62695
628.747	894.67701
629.199	875.56928
629.651	897.59894
630.103	846.54476
630.555	871.44881
631.006	802.52779
631.458	856.62059
631.909	841.56232
632.361	872.63165
632.812	856.58826
633.263	811.41329
633.714	855.46589
634.165	875.72073
634.616	842.63284
635.067	880.57059
635.518	897.73015
635.968	900.42636
636.419	942.61851
636.869	900.73471
637.319	941.73548
637.769	973.71335
638.219	1030.94304
638.669	916.76643
639.119	989.93155
639.569	973.88055
640.019	1039.88705
640.468	1045.81851
640.918	1113.08679
641.367	1041.82581
641.816	1086.87768
642.265	1134.01567
642.714	1151.03916
643.163	1164.04155
643.612	1179.16122
644.061	1150.82665
644.51	1262.13263
644.958	1248.02619
645.406	1264.27079
645.855	1275.36112
646.303	1283.2401
646.751	1240.10879
647.199	1350.23444
647.647	1305.21695
648.095	1376.28398
648.543	1361.97779
648.99	1299.31909
649.438	1430.42991
649.885	1422.58306
650.333	1434.89545
650.78	1367.43852
651.227	1345.43592
651.674	1398.30049
652.121	1396.50129
652.568	1324.40802
653.015	1387.62371
653.461	1393.42678
653.908	1398.37522
654.354	1445.50604
654.801	1348.33635
655.247	1414.22369
655.693	1341.66774
656.139	1352.41473
656.585	1339.40302
657.031	1262.22111
657.477	1346.10986
657.922	1309.24759
658.368	1402.57473
658.813	1409.40233
659.259	1334.40192
659.704	1328.30877
660.149	1324.3066
660.594	1313.35018
661.039	1338.26056
661.484	1395.47472
661.929	1359.36602
662.373	1302.52149
662.818	1369.55954
663.262	1373.46805
663.707	1359.61906
664.151	1343.48501
664.595	1351.45176
665.039	1396.61337
665.483	1416.713
665.927	1435.48339
666.371	1350.32388
666.814	1455.55255
667.258	1426.47874
667.701	1566.3445
668.145	1494.7416
668.588	1481.67517
669.031	1445.48505
669.474	1478.60856
669.917	1579.43822
670.36	1551.79372
670.803	1639.79123
671.245	1623.31635
671.688	1654.84759
672.13	1535.43294
672.573	1614.96417
673.015	1686.81787
673.457	1629.42619
673.899	1700.86904
674.341	1686.83915
674.783	1697.82036
675.225	1692.91652
675.666	1682.81265
676.108	1674.45914
676.549	1721.80799
676.991	1772.58172
677.432	1714.20584
677.873	1716.71589
678.314	1765.87573
678.755	1705.89369
679.196	1791.73453
679.637	1746.95674
680.078	1743.78796
680.518	1817.83463
680.959	1778.90271
681.399	1799.06009
681.839	1744.93762
682.28	1730.97468
682.72	1781.72857
683.16	1812.08973
683.6	1930.82955
684.039	1797.41115
684.479	1806.0242
684.919	1755.72891
685.358	1877.23952
685.798	1892.39764
686.237	1891.04358
686.676	1966.92838
687.115	1965.97291
687.554	1963.01436
687.993	1951.72124
688.432	1907.81966
688.871	1932.80359
689.309	1912.00197
689.748	2017.5427
690.186	1987.06413
690.625	1968.96272
691.063	2026.10104
691.501	2069.27336
691.939	2110.33831
692.377	2113.23565
692.815	2074.11722
693.253	2176.21245
693.69	2170.80056
694.128	2153.2241
694.565	2194.18007
695.003	2278.53846
695.44	2252.13488
695.877	2220.08718
696.314	2236.73972
696.751	2321.03278
697.188	2319.05394
697.625	2365.08226
698.061	2323.26782
698.498	2400.35345
698.934	2406.32678
699.371	2450.21724
699.807	2396.22996
700.243	2471.34214
700.679	2502.04653
701.115	2522.2555
701.551	2546.25758
701.987	2553.02509
702.422	2626.31369
702.858	2579.32249
703.294	2619.0706
703.729	2612.48349
704.164	2649.39672
704.599	2643.9844
705.035	2699.0073
705.47	2679.45744
705.904	2763.22948
706.339	2788.23873
706.774	2859.26931
707.209	2776.17345
707.643	2822.41421
708.078	2854.49811
708.512	2827.65121
708.946	2948.41633
709.38	2895.34207
709.814	2860.13831
710.248	3008.51838
710.682	2896.35879
711.116	2923.3672
711.549	2909.88045
711.983	2960.19247
712.416	3076.33176
712.85	3057.66427
713.283	3047.33311
713.716	3078.723
714.149	3012.38554
714.582	2955.03314
715.015	3090.70047
715.448	3051.73959
715.881	3044.89137
716.313	3018.27291
716.746	2950.29815
717.178	2993.42715
717.61	3028.77844
718.043	3034.66343
718.475	2995.48113
718.907	2972.76842
719.339	2898.07762
719.77	2836.32878
720.202	2814.7273
720.634	2939.49344
721.065	2892.33955
721.497	2892.54282
721.928	2822.53901
722.359	2846.42617
722.79	2830.38688
723.221	2786.6955
723.652	2787.85905
724.083	2726.04733
724.514	2709.14888
724.945	2676.26535
725.375	2648.18279
725.806	2665.61739
726.236	2555.7351
726.666	2588.28968
727.096	2526.47023
727.526	2552.67428
727.956	2499.05006
728.386	2478.4724
728.816	2416.59252
729.246	2375.35137
729.675	2363.41394
730.105	2305.39429
730.534	2343.15107
730.964	2340.55865
731.393	2346.46948
731.822	2333.60817
732.251	2280.54162
732.68	2260.15613
733.109	2216.34866
733.537	2248.26221
733.966	2145.34428
734.395	2175.01442
734.823	2159.90786
735.251	2071.15008
735.68	2136.38767
736.108	2110.41696
736.536	2051.04495
736.964	1972.92181
737.392	2072.33431
737.82	1981.07582
738.247	1965.05583
738.675	1991.06687
739.102	1866.15916
739.53	1795.17781
739.957	1834.26304
740.384	1901.14146
740.811	1778.14671
741.238	1837.03459
741.665	1736.74323
742.092	1734.86134
742.519	1704.96814
742.945	1660.81001
743.372	1650.91831
743.798	1643.06204
744.225	1632.74606
744.651	1619.93883
745.077	1559.84788
745.503	1574.78461
745.929	1588.73611
746.355	1608.89761
746.781	1538.80167
747.207	1451.50991
747.632	1433.61684
748.058	1428.69562
748.483	1470.47433
748.908	1426.67751
749.334	1429.64209
749.759	1415.48976
750.184	1349.44319
750.609	1364.5645
751.033	1389.47288
751.458	1314.23053
751.883	1344.56612
752.307	1259.29801
752.732	1229.42883
753.156	1194.34913
753.58	1250.31525
754.005	1187.42081
754.429	1187.20093
754.853	1147.2886
755.277	1158.18149
755.7	1142.28647
756.124	1097.21789
756.548	1013.97848
756.971	1153.25932
757.394	1044.23471
757.818	1036.21757
758.241	1062.22261
758.664	982.07934
759.087	938.7364
759.51	1027.11767
759.933	926.87704
760.356	943.04989
760.778	947.9602
761.201	973.97911
761.623	886.83263
762.046	886.7869
762.468	915.85936
762.89	856.81705
763.312	884.84152
763.734	773.62258
764.156	779.6804
764.578	828.63238
765	797.6899
765.421	730.63938
765.843	755.75048
766.264	746.58271
766.686	705.57447
767.107	656.42181
767.528	654.48119
767.949	638.46305
768.37	649.42843
768.791	677.45896
769.212	550.26458
769.632	618.29205
770.053	619.4796
770.473	553.22911
770.894	599.36173
771.314	615.32463
771.734	502.07699
772.154	561.31939
772.575	575.20813
772.994	529.09716
773.414	554.21477
773.834	554.26719
774.254	499.12818
774.673	469.06153
775.093	436.00888
775.512	432.99777
775.931	464.09584
776.351	428.99756
776.77	412.94743
777.189	412.92127
777.607	429.0273
778.026	387.91213
778.445	294.70816
778.864	405.98115
779.282	387.87982
779.701	394.93889
780.119	320.77486
780.537	316.75595
780.955	368.89004
781.373	313.74263
781.791	315.67661
782.209	330.72607
782.627	298.75613
783.045	321.70553
783.462	316.77437
783.88	312.77475
784.297	254.61969
784.715	253.62999
785.132	268.62717
785.549	265.64134
785.966	260.63338
786.383	233.55775
786.8	269.60341
787.217	219.50638
787.633	232.56328
788.05	303.69111
788.466	257.58715
788.883	212.52801
789.299	237.55474
789.715	210.49876
790.131	223.54052
790.547	234.56857
790.963	232.56033
791.379	175.43499
791.795	220.48935
792.21	184.42233
792.626	192.44651
793.041	168.40822
793.457	200.48378
793.872	197.45335
794.287	162.38076
794.702	206.49622
795.117	151.37027
795.532	138.34209
795.947	196.46211
796.362	207.4832
796.776	220.50253
797.191	175.421
797.605	138.32043
798.02	144.34636
798.434	191.41664
798.848	119.29094
799.262	151.36959
799.676	173.41508
800.09	118.28834
800.504	137.32908
800.918	129.29627
801.331	153.39587
801.745	139.31591
802.158	146.36047
802.572	127.30553
802.985	138.33016
803.398	124.29338
803.811	149.37831
804.224	168.41142
804.637	139.32741
805.05	122.2807
805.462	127.30935
805.875	105.27056
806.288	131.31276
806.7	144.35749
807.112	118.27172
807.525	103.25304
807.937	120.29421
808.349	133.32976
808.761	180.43442
809.173	147.35163
809.584	159.38714
809.996	99.24133
810.408	55.14231
810.819	98.22962
811.231	63.16296
811.642	85.20224
812.053	94.22275
812.464	133.31279
812.875	125.31647
813.286	97.24855
813.697	175.40176
814.108	115.27897
814.519	101.22424
814.929	95.24138
815.34	111.26744
815.75	113.28497
816.16	98.2432
816.571	92.23809
816.981	117.27419
817.391	154.36633
817.801	86.21304
818.211	132.31134
818.62	76.18287
819.03	148.35773
819.44	109.28281
819.849	122.30464
820.259	136.34414
820.668	65.16004
821.077	66.16403
821.486	133.3168
821.895	126.30834
822.304	98.25833
822.713	103.24214
823.122	120.29682
823.531	120.28194
823.939	74.18022
824.348	120.28918
824.756	84.20991
825.164	108.26998
825.573	92.2299
825.981	130.31896
826.389	130.32309
826.797	42.10571
827.205	80.18333
827.612	142.34582
828.02	63.14816
828.428	86.21832
828.835	40.10573
829.243	118.27875
829.65	62.15431
830.057	77.18665
830.464	85.2065
830.871	98.23348
831.278	85.20488
831.685	91.20238
832.092	65.15928
832.499	72.15756
832.905	140.34984
833.312	88.20013
833.718	135.33227
834.124	76.17354
834.531	141.35074
834.937	91.23252
835.343	74.1784
835.749	133.30693
836.155	91.23717
836.561	91.22282
836.966	83.2024
837.372	103.26041
837.777	70.17423
838.183	97.21455
838.588	109.26848
838.993	97.23486
839.399	82.19985
839.804	73.17762
840.209	84.21301
840.613	55.12272
841.018	100.2516
841.423	79.20207
841.828	44.11166
842.232	109.26788
842.637	77.1813
843.041	50.12841
843.445	100.24916
843.849	68.1682
844.253	111.26156
844.657	43.10864
845.061	75.16991
845.465	62.14981
845.869	78.18083
846.272	46.11236
846.676	106.25438
847.079	85.21521
847.483	105.25996
847.886	121.29132
848.289	53.14157
848.692	49.12437
849.095	95.22681
849.498	137.34265
849.901	112.2545
850.304	111.26288
850.707	70.1782
851.109	110.27597
851.512	56.13776
851.914	42.10617
852.316	61.15428
852.718	-9.0235
853.121	52.12763
853.523	67.15647
853.925	44.11505
854.326	56.14009
854.728	51.13132
855.13	38.09834
855.531	37.08881
855.933	92.21961
856.334	32.08017
856.736	51.1145
857.137	80.18532
857.538	65.16322
857.939	102.24998
858.34	133.31972
858.741	78.20318
859.142	100.23843
859.542	77.20246
859.943	73.18093
860.343	35.08703
860.744	107.25878
861.144	74.18002
861.544	27.06528
861.945	60.15286
862.345	76.1853
862.745	82.2029
863.145	88.20926
863.544	80.20136
863.944	87.20445
864.344	107.26345
864.743	108.26557
865.143	83.21223
865.542	89.20523
865.941	97.23839
866.34	109.25864
866.74	63.16889
867.139	66.15779
867.537	105.26527
867.936	120.28546
868.335	75.19023
868.734	93.23613
869.132	56.13019
869.531	125.29855
869.929	62.14123
870.327	66.15797
870.726	86.21335
871.124	118.27258
871.522	95.24035
871.92	100.24472
872.318	142.34168
872.715	117.28648
873.113	88.21319
873.511	83.20579
873.908	39.09874
874.306	84.20785
874.703	98.24338
875.1	104.26382
875.497	26.0627
875.894	56.1372
876.291	85.20751
876.688	55.14187
877.085	77.18405
877.482	83.20677
877.878	49.11811
878.275	79.19987
878.671	130.2852
879.068	62.14953
879.464	72.17351
879.86	40.0949
880.256	95.23279
880.652	47.11972
881.048	121.29627
881.444	70.1662
881.84	126.31622
882.236	95.23718
882.631	53.13016
883.027	133.31741
883.422	107.2711
883.817	46.11578
884.213	107.27206
884.608	61.14942
885.003	72.17305
885.398	26.06542
885.793	54.13557
886.188	22.05502
886.582	107.27196
886.977	136.31778
887.371	93.23361
887.766	38.09479
888.16	122.30077
888.554	68.16777
888.949	86.21475
889.343	89.21606
889.737	46.12273
890.131	58.14541
890.525	70.17852
890.918	82.20535
891.312	128.30203
891.706	84.21926
892.099	95.24001
892.492	90.19278
892.886	70.1708
893.279	103.26013
893.672	65.16515
894.065	86.21413
894.458	81.20274
894.851	100.24299
895.244	75.19083
895.637	77.18468
896.029	63.1538
896.422	101.24464
896.814	52.12933
897.206	34.08128
897.599	127.30993
897.991	63.15208
898.383	101.23651
898.775	73.16416
899.167	51.11901
899.559	84.2115
899.951	127.29518
900.342	73.18502
900.734	30.07475
901.125	112.29095
901.517	90.21943
901.908	115.27256
902.299	68.16579
902.69	79.1855
903.082	100.24007
903.473	53.12693
903.863	79.20065
904.254	104.239
904.645	100.24663
905.036	36.08744
905.426	88.20013
905.817	54.13249
906.207	53.1263
906.597	80.18613
906.987	112.28734
907.378	70.1765
907.768	72.18973
908.158	61.14853
908.547	55.14202
908.937	111.28193
909.327	100.24071
909.717	105.26414
910.106	47.11303
910.495	75.1865
910.885	99.24869
911.274	62.15471
911.663	95.23932
912.052	96.23502
912.441	61.15488
912.83	67.15339
913.219	122.3155
913.608	119.28791
913.997	33.08302
914.385	92.21818
914.774	89.21525
915.162	46.10976
915.55	103.24685
915.939	23.05836
916.327	111.27411
916.715	62.15773
917.103	145.35081
917.491	104.25489
917.878	82.20052
918.266	49.12714
918.654	53.13538
919.041	24.06295
919.429	104.24301
919.816	83.20924
920.203	55.13332
920.591	91.22406
920.978	98.23795
921.365	70.18309
921.752	114.26857
922.139	86.18541
922.525	44.10583
922.912	94.22747
923.299	97.2391
923.685	54.14081
924.072	100.22843
924.458	50.1239
924.844	51.12622
925.231	50.11642
925.617	46.11711
926.003	83.21096
926.389	52.13116
926.774	82.20669
927.16	74.18304
927.546	49.12512
927.931	74.18391
928.317	78.17875
928.702	98.2298
929.088	78.18355
929.473	86.21747
929.858	70.16863
930.243	91.21676
930.628	68.16493
931.013	82.20209
931.398	151.3404
931.783	92.24055
932.167	59.14404
932.552	67.1674
932.937	67.16582
933.321	62.15527
933.705	62.156
934.09	117.29221
934.474	73.17269
934.858	90.23187
935.242	32.07445
935.626	84.21377
936.009	71.1882
936.393	79.20001
936.777	73.1862
937.16	40.10427
937.544	71.16665
937.927	38.09664
938.311	96.2324
938.694	111.29058
939.077	55.13156
939.46	125.30277
939.843	132.27051
940.226	75.19157
940.609	83.18933
940.991	68.17256
941.374	50.12222
941.757	84.20602
942.139	61.13673
942.522	121.28213
942.904	83.19831
943.286	68.17226
943.668	69.17817
944.05	53.1305
944.432	75.18426
944.814	85.20805
945.196	28.06852
945.578	52.12356
945.959	71.16574
946.341	116.28134
946.722	88.20506
947.104	107.25301
947.485	57.13248
947.866	28.07083
948.247	67.16855
948.628	105.25356
949.009	66.16856
949.39	92.22731
949.771	92.21227
950.152	85.20728
950.532	53.1303
950.913	106.25303
951.293	33.0894
951.674	82.19716
952.054	48.11899
952.434	90.2218
952.814	123.28859
953.194	109.28242
953.574	77.18875
953.954	66.15628
954.334	45.11227
954.714	41.10009
955.093	72.17633
955.473	44.11015
955.853	98.2516
956.232	73.19935
956.611	69.16493
956.99	91.22703
957.37	68.17275
957.749	91.21543
958.128	41.10347
958.506	36.09362
958.885	67.16861
959.264	64.15645
959.643	128.28673
960.021	64.15819
960.4	84.18909
960.778	94.22969
961.156	48.12038
961.535	107.24663
961.913	110.25441
962.291	53.1359
962.669	75.18914
963.047	107.27033
963.424	71.18053
963.802	82.20045
964.18	75.18894
964.557	111.25258
964.935	108.25305
965.312	61.15855
965.69	125.30879
966.067	79.19135
966.444	52.12811
966.821	75.19252
967.198	104.24977
967.575	103.2508
967.952	116.26988
968.329	116.2788
968.705	95.20178
969.082	94.23922
969.458	33.07942
969.835	76.18412
970.211	51.13087
970.587	55.13682
970.963	83.21171
971.339	54.14091
971.715	55.13722
972.091	128.31068
972.467	83.20579
972.843	49.12163
973.219	163.38304
973.594	70.18247
973.97	92.21725
974.345	40.09592
974.721	95.22811
975.096	60.14492
975.471	115.2694
975.846	83.19816
976.221	59.14959
976.596	41.09845
976.971	122.29722
977.346	81.18745
977.72	55.13999
978.095	44.11383
978.469	69.16411
978.844	98.24427
979.218	31.07458
979.593	108.25592
979.967	101.24372
980.341	96.21903
980.715	104.25951
981.089	47.11772
981.463	69.15784
981.837	24.05893
982.21	99.22819
982.584	46.11119
982.957	40.10006
983.331	102.23871
983.704	66.1617
984.078	79.19365
984.451	121.29836
984.824	60.14585
985.197	81.19561
985.57	104.25828
985.943	92.22548
986.316	93.2267
986.688	71.17055
987.061	96.223
987.434	80.20739
987.806	75.18105
988.179	77.18074
988.551	86.21677
988.923	92.22481
989.295	78.19393
989.667	30.07194
990.039	76.18689
990.411	55.12647
990.783	80.18311
991.155	45.10822
991.527	148.35787
991.898	80.19825
992.27	66.16277
992.641	95.2364
993.012	120.27853
993.384	82.19439
993.755	35.08946
994.126	67.16064
994.497	50.12272
994.868	73.16692
995.239	76.18329
995.61	78.19527
995.98	62.15026
996.351	52.12872
996.722	52.12055
997.092	46.10901
997.462	45.10521
997.833	95.22325
998.203	96.23073
998.573	72.17855
998.943	96.22309
999.313	54.1293
999.683	84.20028
1000.053	77.17621
1000.423	40.09738
1000.792	84.21641
1001.162	18.04456
1001.531	80.19614
1001.901	77.19099
1002.27	69.15364
1002.639	64.1631
1003.009	81.19146
1003.378	45.11515
1003.747	115.26824
1004.116	42.10064
1004.485	107.25292
1004.853	56.14171
1005.222	88.22038
1005.591	71.16789
1005.959	41.09254
1006.328	57.12808
1006.696	51.12297
1007.064	73.18285
1007.433	97.24033
1007.801	113.27412
1008.169	68.17115
1008.537	88.19331
1008.905	38.08872
1009.273	69.16983
1009.64	42.10033
1010.008	73.17322
1010.375	112.26878
1010.743	117.26656
1011.11	83.19512
1011.478	39.0967
1011.845	82.19161
1012.212	10.02282
1012.579	54.13244
1012.946	104.24492
1013.313	98.23106
1013.68	94.20935
1014.047	63.14972
1014.414	49.11573
1014.78	99.24376
1015.147	121.28866
1015.513	81.19398
1015.88	82.20846
1016.246	110.26849
1016.612	143.32118
1016.978	79.1925
1017.344	75.18446
1017.71	86.20827
1018.076	77.1806
1018.442	89.22733
1018.808	97.24033
1019.174	73.18232
1019.539	169.37973
1019.905	80.18752
1020.27	47.11602
1020.636	125.29535
1021.001	79.18803
1021.366	82.19566
1021.731	77.19703
1022.096	47.11857
1022.461	79.18587
1022.826	49.11645
1023.191	81.21132
1023.556	50.11716
1023.92	98.23876
1024.285	118.28425
1024.649	73.17808
1025.014	118.28855
1025.378	70.1753
1025.742	81.19995
1026.107	110.24569
1026.471	101.23336
1026.835	76.18744
1027.199	48.11554
1027.562	87.20069
1027.926	106.25641
1028.29	60.1515
1028.654	71.16261
1029.017	118.2863
1029.381	65.15477
1029.744	64.16276
1030.107	55.12995
1030.471	57.13624
1030.834	58.13169
1031.197	105.25021
1031.56	112.26099
1031.923	45.1164
1032.286	101.23475
1032.648	92.21818
1033.011	66.15095
1033.374	100.23266
1033.736	34.0896
1034.099	65.15792
1034.461	13.03304
1034.823	26.065
1035.185	40.10082
1035.548	52.12645
1035.91	67.1599
1036.272	104.23402
1036.634	115.27781
1036.995	76.17766
1037.357	66.16001
1037.719	59.14318
1038.08	91.21426
1038.442	78.18405
1038.803	103.24469
1039.165	41.10358
1039.526	114.27202
1039.887	59.14086
1040.248	56.13776
1040.609	73.17954
1040.97	82.1991
1041.331	80.20136
1041.692	23.05394
1042.053	106.23852
1042.413	104.23967
1042.774	58.14078
1043.134	85.20092
1043.495	105.26119
1043.855	80.19286
1044.215	75.18521
1044.576	74.17603
1044.936	66.15076
1045.296	100.24717
1045.656	104.25252
1046.016	93.22255
1046.375	92.22129
1046.735	21.04786
1047.095	68.15852
1047.454	103.21562
1047.814	41.09867
1048.173	82.19461
1048.533	50.11449
1048.892	52.1247
1049.251	90.22417
1049.61	55.13522
1049.969	82.19198
1050.328	74.15954
1050.687	95.22907
1051.046	90.21738
1051.405	103.2536
1051.763	79.1805
1052.122	63.15666
1052.48	79.19258
1052.839	53.12455
1053.197	42.09895
1053.555	149.33273
1053.914	96.23266
1054.272	107.25575
1054.63	31.07602
1054.988	72.17022
1055.345	43.09269
1055.703	77.18426
1056.061	40.10302
1056.419	56.14472
1056.776	79.19042
1057.134	46.10652
1057.491	84.20892
1057.848	92.22715
1058.206	73.17081
1058.563	98.21373
1058.92	115.26147
1059.277	96.23467
1059.634	81.18931
1059.991	91.21618
1060.348	33.07479
1060.704	39.09308
1061.061	110.25238
1061.418	54.13077
1061.774	101.24685
1062.131	35.09271
1062.487	60.13993
1062.843	49.12211
1063.199	73.18067
1063.555	92.21126
1063.911	74.18599
1064.267	130.26617
1064.623	62.15015
1064.979	105.24598
1065.335	108.25513
1065.691	65.15525
1066.046	97.21106
1066.402	71.16052
1066.757	75.18833
1067.112	108.26204
1067.468	53.12499
1067.823	87.20755
1068.178	60.14476
1068.533	104.24939
1068.888	57.13593
1069.243	64.15744
1069.598	59.14302
1069.952	7.01589
1070.307	11.0274
1070.662	92.21649
1071.016	44.09864
1071.371	124.27765
1071.725	109.25764
1072.079	85.20294
1072.434	58.14062
1072.788	56.13311
1073.142	133.3219
1073.496	77.18158
1073.85	66.15246
1074.203	106.25428
1074.557	78.20631
1074.911	117.27548
1075.265	79.18246
1075.618	116.27954
1075.971	59.14
1076.325	86.217
1076.678	20.04598
1077.031	51.1153
1077.385	75.16423
1077.738	63.14173
1078.091	40.09108
1078.444	101.23197
1078.796	59.14441
1079.149	106.26075
1079.502	22.05221
1079.855	54.12574
1080.207	94.22952
1080.56	46.11888
1080.912	102.24571
1081.264	93.22195
1081.617	67.16265
1081.969	76.19067
1082.321	85.20604
1082.673	67.15228
1083.025	67.15831
1083.377	-146.32637
1083.728	87.20133
1084.08	67.16661
1084.432	85.20348
1084.783	108.24998
1085.135	75.18698
1085.486	79.17955
1085.838	41.10106
1086.189	70.16914
1086.54	56.13347
1086.891	58.14635
1087.242	73.17682
1087.593	89.21492
1087.944	83.18642
1088.295	82.18505
1088.646	81.19501
1088.996	38.09168
1089.347	99.24052
1089.698	64.15072
1090.048	87.22433
1090.398	74.17067
1090.749	48.1148
1091.099	41.10318
1091.449	58.14415
1091.799	99.24546
1092.149	33.08065
1092.499	79.1915
1092.849	40.10176
1093.199	85.21152
1093.548	50.12004
1093.898	61.15218
1094.248	81.20683
1094.597	31.07932
1094.947	92.2435
1095.296	58.14289
1095.645	99.2551
1095.994	99.23537
1096.343	75.18772
1096.692	40.10516
1097.041	37.1003
1097.39	63.15752
1097.739	66.17092
1098.088	100.26547
1098.437	17.04487
1098.785	53.14269
1099.134	86.22678
1099.482	62.17004
1099.83	101.26287
1100.179	31.08104
1100.527	70.18521
1100.875	64.16865
1101.223	81.21377
1101.571	44.1216
1101.919	4.01052
1102.267	45.12667
1102.615	2.00643
1102.962	9.02898
1103.31	5.01607
1103.658	13.04186
