Data from N2 R11 sample 9_Subt2__0__16-03-33-028.txt Node

Date: Mon Sep 01 16:03:33 PDT 2025
User: uwsun
Spectrometer: HDX01956
Trigger mode: 0
Integration Time (sec): 5.000000E-1
Scans to average: 1
Nonlinearity correction enabled: true
Boxcar width: 0
Storing dark spectrum: false
XAxis mode: Wavelengths
Number of Pixels in Spectrum: 2068
>>>>>Begin Spectral Data<<<<<
194.03	-19.05348
194.578	-7.02216
195.127	-16.04996
195.676	-15.04697
196.225	42.11064
196.773	21.05738
197.321	18.04817
197.87	21.05176
198.418	19.04625
198.966	-46.11399
199.513	-45.10629
200.061	-20.0478
200.609	26.06514
201.156	-77.16055
201.704	-49.11708
202.251	-45.11316
202.798	3.00734
203.345	3.00702
203.892	-18.04285
204.438	-2.00452
204.985	-42.09377
205.532	-37.09221
206.078	13.03
206.624	-42.09764
207.17	21.04581
207.716	-18.04117
208.262	-8.01495
208.808	-81.18916
209.354	-15.03435
209.899	-7.0168
210.445	-35.08203
210.99	-57.13023
211.535	41.09027
212.08	41.08925
212.625	20.04708
213.17	-15.036
213.715	-60.12613
214.259	-2.0044
214.804	23.05354
215.348	6.01296
215.892	45.10099
216.436	33.07202
216.98	38.07911
217.524	-15.03354
218.068	-9.02148
218.612	7.01667
219.155	-2.00445
219.698	-1.00225
220.242	-27.06431
220.785	12.02653
221.328	1.00236
221.871	43.10294
222.414	14.03307
222.956	-12.02733
223.499	-1.00214
224.041	37.08157
224.583	22.04523
225.126	4.00836
225.668	-50.11619
226.21	14.03323
226.751	-19.03939
227.293	22.04759
227.835	18.04142
228.376	39.08511
228.918	16.0383
229.459	-27.06377
230	-11.02485
230.541	16.0349
231.082	-2.00459
231.622	21.04575
232.163	-20.04594
232.704	-2.00468
233.244	-19.0447
233.784	61.14044
234.324	-47.09787
234.864	-19.0409
235.404	32.07174
235.944	16.03586
236.484	31.07291
237.023	2.00446
237.563	15.03257
238.102	5.01115
238.641	-4.00956
239.18	-30.06629
239.719	-5.01186
240.258	9.0191
240.797	10.02247
241.335	37.08498
241.874	0
242.412	-20.04541
242.95	6.01342
243.488	23.04926
244.026	13.02807
244.564	1.00194
245.102	-9.01902
245.64	39.08814
246.177	-7.0148
246.715	59.13208
247.252	42.0902
247.789	7.01251
248.326	-34.07679
248.863	-28.0579
249.4	-2.00428
249.936	1.00193
250.473	-3.00656
251.009	-47.1017
251.546	-37.07704
252.082	-20.0413
252.618	3.00624
253.154	-5.01123
253.69	-17.036
254.226	-28.06288
254.761	-7.01474
255.297	-20.04108
255.832	-14.03104
256.367	54.11762
256.903	17.03472
257.438	3.0066
257.972	55.1131
258.507	-52.11187
259.042	4.0081
259.576	-55.11106
260.111	31.06662
260.645	23.04631
261.179	-27.05892
261.713	-12.0249
262.247	26.05565
262.781	-10.0195
263.315	-40.0917
263.849	-23.05369
264.382	46.09773
264.915	-35.07651
265.449	-92.21015
265.982	27.05692
266.515	-17.03861
267.048	-41.08119
267.58	37.07488
268.113	-27.05429
268.646	-53.12241
269.178	-44.09164
269.71	7.01417
270.243	11.02328
270.775	-36.08541
271.307	30.06681
271.838	57.12481
272.37	-12.02739
272.902	1.00211
273.433	-10.02025
273.965	-17.0384
274.496	0
275.027	-8.01836
275.558	-32.07207
276.089	-53.12051
276.62	-9.02127
277.15	10.02282
277.681	49.0974
278.211	-5.01136
278.741	-33.06709
279.272	-50.1059
279.802	13.02987
280.332	-21.04562
280.861	-20.04447
281.391	1.00208
281.921	35.07719
282.45	-33.07652
282.98	24.05731
283.509	-3.00619
284.038	-21.04402
284.567	2.0043
285.096	-6.01331
285.625	-35.07311
286.153	-57.12328
286.682	-15.03136
287.21	-38.084
287.739	-36.07811
288.267	-52.11567
288.795	-13.03141
289.323	-68.14591
289.851	-22.04713
290.378	-19.03889
290.906	-69.15294
291.433	-23.05234
291.961	-38.07833
292.488	-20.04535
293.015	-38.08122
293.542	-42.09668
294.069	-37.08259
294.596	-24.05414
295.122	16.0343
295.649	-26.05205
296.175	-18.03962
296.702	7.01532
297.228	-27.05967
297.754	-39.07926
298.28	-51.10473
298.806	-83.18175
299.332	7.01374
299.857	-21.04246
300.383	-5.01141
300.908	-72.15716
301.433	-55.12018
301.958	3.00621
302.483	-87.19613
303.008	-31.06897
303.533	14.03257
304.058	-38.08066
304.582	-58.12236
305.107	-80.18752
305.631	9.01822
306.155	-19.03905
306.679	-91.19033
307.203	-31.0636
307.727	-80.17003
308.251	-28.06135
308.775	-101.21312
309.298	-60.12658
309.822	-46.10292
310.345	-39.08139
310.868	-71.15008
311.391	-37.08037
311.914	-54.11887
312.437	-46.09248
312.96	-75.1552
313.482	-70.1454
314.005	-83.18343
314.527	-61.14004
315.049	-36.07955
315.571	-65.12419
316.093	-29.06195
316.615	-67.1397
317.137	-53.09896
317.659	-28.05868
318.18	-52.1085
318.702	-59.11749
319.223	-33.05713
319.744	-37.07001
320.265	-142.29667
320.786	-78.16332
321.307	-69.1456
321.828	-97.18623
322.348	-100.19918
322.869	-84.16552
323.389	17.02199
323.909	-80.15363
324.43	-33.06657
324.95	-100.19
325.47	-158.326
325.989	-62.11924
326.509	-123.22078
327.029	-71.12862
327.548	-126.22972
328.067	-122.2387
328.587	-61.12294
329.106	-101.18418
329.625	-54.11617
330.144	-83.15159
330.662	-144.26613
331.181	-101.18699
331.7	-84.15431
332.218	-118.19902
332.736	-95.17342
333.255	-129.23393
333.773	-132.24334
334.291	-71.13783
334.808	-191.32963
335.326	-87.1479
335.844	-146.25499
336.361	-197.38243
336.879	-161.28067
337.396	-178.32271
337.913	-165.2808
338.43	-180.29815
338.947	-180.31686
339.464	-202.31226
339.981	-196.33853
340.497	-194.35352
341.014	-163.28626
341.53	-235.37968
342.046	-183.32088
342.562	-209.37863
343.078	-185.30651
343.594	-212.35894
344.11	-179.2969
344.626	-168.29512
345.141	-133.20287
345.657	-147.22582
346.172	-249.41714
346.687	-277.43617
347.202	-203.30119
347.717	-215.3452
348.232	-184.30917
348.747	-181.27002
349.261	-258.35669
349.776	-235.36146
350.29	-289.46827
350.805	-168.27042
351.319	-177.2602
351.833	-310.44615
352.347	-282.42418
352.861	-238.34528
353.374	-215.30948
353.888	-272.41827
354.401	-276.39273
354.915	-286.3824
355.428	-241.36763
355.941	-324.45931
356.454	-231.30976
356.967	-250.35572
357.48	-283.39013
357.993	-290.43543
358.505	-348.51688
359.018	-251.36155
359.53	-280.39063
360.042	-247.30675
360.554	-292.41367
361.066	-375.53925
361.578	-268.31748
362.09	-279.3754
362.602	-300.35594
363.113	-317.40463
363.625	-361.44179
364.136	-275.31563
364.647	-393.47825
365.158	-315.38628
365.669	-229.28318
366.18	-281.34259
366.691	-324.3592
367.201	-319.39287
367.712	-297.32809
368.222	-393.44885
368.733	-330.32545
369.243	-392.40124
369.753	-375.41178
370.263	-317.35239
370.773	-300.3437
371.282	-402.4327
371.792	-457.43053
372.301	-474.49784
372.811	-421.49072
373.32	-506.38595
373.829	-575.5283
374.338	-429.31254
374.847	-538.41349
375.356	-587.46193
375.865	-553.28473
376.373	-558.31533
376.882	-558.41873
377.39	-488.28429
377.898	-804.47645
378.407	-746.28122
378.915	-654.16572
379.423	-711.21779
379.93	-763.15812
380.438	-911.18805
380.946	-819.04703
381.453	-978.03124
381.96	-1004.91305
382.468	-1227.76597
382.975	-1092.75665
383.482	-1157.62777
383.989	-1181.69398
384.495	-1208.5148
385.002	-1415.30239
385.509	-1399.30663
386.015	-1483.19788
386.521	-1511.18438
387.028	-1639.13562
387.534	-1746.12837
388.04	-1756.10401
388.546	-2046.13838
389.051	-2250.32378
389.557	-2357.58053
390.063	-1947.90317
390.568	-2277.18473
391.073	-2537.92596
391.578	-2582.20356
392.084	-2773.42516
392.589	-3361.39691
393.093	-3834.10392
393.598	-3833.45216
394.103	-4003.5745
394.607	-4383.40269
395.112	-4512.28575
395.616	-4799.46965
396.12	-5679.67875
396.624	-6452.3705
397.128	-6747.4222
397.632	-6986.18992
398.136	-7921.27291
398.639	-9871.68525
399.143	-11931.51676
399.646	-12849.30636
400.15	-14138.66715
400.653	-16745.38821
401.156	-19677.09019
401.659	-23651.95316
402.162	-19783.157
402.664	-5296.59686
403.167	-1019.485
403.67	0
404.172	0
404.674	0
405.176	0
405.678	0
406.18	0
406.682	0
407.184	0
407.686	0
408.187	0
408.688	0
409.19	0
409.691	0
410.192	0
410.693	-7106.90545
411.194	-11459.24912
411.694	-10095.38674
412.195	-8708.54217
412.696	-9707.78369
413.196	-11428.23497
413.696	-12153.59668
414.196	-10556.2525
414.696	-7568.86308
415.196	-5024.41065
415.696	-402.39888
416.196	-190.42345
416.695	-2782.31197
417.195	-4267.762
417.694	-4089.72758
418.194	-3508.94044
418.693	-3969.10111
419.192	-3665.55682
419.691	-3881.37496
420.19	-3291.44371
420.688	-3027.14352
421.187	-2700.67576
421.685	-2150.85309
422.184	-1720.22585
422.682	-1559.45302
423.18	-1859.60531
423.678	-1844.01387
424.176	-1921.10485
424.674	-1656.497
425.172	-1388.91474
425.669	-1184.61933
426.167	-986.56736
426.664	-1032.4639
427.161	-1012.43867
427.659	-976.4827
428.156	-1032.44848
428.652	-985.61054
429.149	-1002.62927
429.646	-825.6786
430.143	-674.82116
430.639	-755.86044
431.135	-701.96304
431.632	-661.96054
432.128	-767.09444
432.624	-791.20997
433.12	-852.10684
433.616	-814.11549
434.111	-938.28017
434.607	-814.29971
435.103	-661.18041
435.598	-625.18365
436.093	-538.2807
436.588	-550.305
437.083	-504.31089
437.578	-491.34401
438.073	-656.58233
438.568	-504.47097
439.062	-529.38952
439.557	-474.45034
440.051	-489.4373
440.546	-514.47736
441.04	-484.50384
441.534	-461.54424
442.028	-440.48952
442.522	-541.62669
443.015	-540.55271
443.509	-459.55989
444.002	-500.62117
444.496	-428.44179
444.989	-468.59329
445.482	-502.66265
445.975	-567.65837
446.468	-450.47334
446.961	-451.47919
447.454	-505.60773
447.947	-524.67041
448.439	-444.59624
448.931	-571.70682
449.424	-450.65226
449.916	-452.62231
450.408	-496.61793
450.9	-530.74646
451.392	-524.78851
451.884	-420.55129
452.375	-456.66179
452.867	-454.60928
453.358	-473.62242
453.849	-484.59701
454.341	-423.5573
454.832	-503.64416
455.323	-498.7525
455.814	-424.59283
456.304	-434.615
456.795	-398.55573
457.285	-384.53135
457.776	-350.50154
458.266	-426.64092
458.756	-420.65514
459.247	-513.80151
459.737	-477.74261
460.226	-471.68889
460.716	-506.8157
461.206	-444.71771
461.695	-435.75004
462.185	-439.70582
462.674	-372.57685
463.163	-432.65426
463.653	-361.50322
464.142	-424.711
464.63	-412.71397
465.119	-456.74421
465.608	-418.67757
466.096	-352.53558
466.585	-276.44531
467.073	-361.62606
467.561	-347.60497
468.05	-318.53261
468.538	-323.5816
469.026	-352.62164
469.513	-358.54764
470.001	-357.59615
470.489	-383.67799
470.976	-304.52005
471.463	-375.71862
471.951	-300.57335
472.438	-339.60572
472.925	-376.67514
473.412	-326.62698
473.899	-297.52682
474.385	-316.6095
474.872	-341.62252
475.359	-307.58915
475.845	-281.44914
476.331	-291.50143
476.817	-315.6191
477.303	-320.59795
477.789	-329.64449
478.275	-360.73275
478.761	-347.69069
479.247	-267.48594
479.732	-312.6365
480.218	-318.68879
480.703	-269.5509
481.188	-265.46443
481.673	-315.60159
482.158	-320.55922
482.643	-234.49885
483.128	-345.664
483.612	-307.60737
484.097	-256.53128
484.581	-251.49401
485.066	-300.62203
485.55	-266.49137
486.034	-261.47694
486.518	-293.58673
487.002	-298.62506
487.486	-250.52137
487.969	-312.66078
488.453	-245.53533
488.936	-277.54056
489.42	-246.47129
489.903	-198.43163
490.386	-718.17168
490.869	-208.39309
491.352	-196.41966
491.835	-193.3459
492.318	-280.55719
492.8	-241.4375
493.283	-281.63292
493.765	-297.65141
494.247	-212.43938
494.73	-211.4102
495.212	-206.44297
495.694	-266.55252
496.175	-309.65457
496.657	-157.32721
497.139	-181.28037
497.62	-297.63108
498.102	-311.69847
498.583	-283.64342
499.064	-287.57658
499.545	-266.54858
500.026	-250.50376
500.507	-241.50428
500.988	-228.51051
501.469	-294.6691
501.949	-211.47059
502.43	-244.52084
502.91	-254.47508
503.39	-219.49752
503.87	-296.63567
504.35	-196.41875
504.83	-226.44722
505.31	-239.52509
505.79	-273.596
506.269	-217.4613
506.749	-247.51294
507.228	-255.54538
507.707	-245.49561
508.187	-168.36313
508.666	-244.54565
509.145	-217.45969
509.623	-213.45457
510.102	-241.5355
510.581	-169.37084
511.059	-249.57071
511.538	-200.47282
512.016	-209.45648
512.494	-180.39805
512.972	-194.42202
513.45	-299.63921
513.928	-181.39801
514.406	-249.54706
514.884	-203.47647
515.361	-196.42854
515.839	-189.39232
516.316	-161.35135
516.793	-196.45582
517.27	-155.34313
517.747	-215.5064
518.224	-176.37309
518.701	-153.31022
519.178	-212.48113
519.654	-133.28852
520.131	-198.45009
520.607	-158.35917
521.083	-197.41422
521.56	-173.3745
522.036	-132.26415
522.512	-189.43129
522.987	-227.49726
523.463	-179.39096
523.939	-191.43321
524.414	-139.29433
524.89	-189.41437
525.365	-176.36705
525.84	-270.59781
526.315	-184.40826
526.79	-191.39895
527.265	-140.29236
527.74	-209.47249
528.215	-231.50859
528.689	-213.43898
529.164	-158.31705
529.638	-206.49303
530.112	-229.50291
530.587	-201.39747
531.061	-238.53553
531.534	-195.44049
532.008	-215.4811
532.482	-149.31606
532.956	-239.56818
533.429	-174.39089
533.903	-157.32226
534.376	-182.37433
534.849	-166.35696
535.322	-182.39962
535.795	-171.38801
536.268	-193.43188
536.741	-150.33365
537.213	-158.33903
537.686	-218.49595
538.158	-181.37572
538.631	-153.34562
539.103	-208.43533
539.575	-124.23905
540.047	-131.26597
540.519	-130.28736
540.991	-148.33644
541.463	-129.28831
541.934	-158.33566
542.406	-122.26709
542.877	-95.19632
543.348	-94.2084
543.82	-90.2026
544.291	-95.20398
544.762	-105.22769
545.233	-113.25942
545.703	-113.2288
546.174	-52.10951
546.645	-159.3486
547.115	-58.12623
547.585	-79.16516
548.056	-43.09253
548.526	-25.05227
548.996	6.01283
549.466	25.05423
549.935	-32.06715
550.405	7.01347
550.875	7.01459
551.344	51.107
551.814	107.21179
552.283	125.23327
552.752	130.25689
553.221	164.29809
553.69	142.26691
554.159	168.3471
554.628	246.45033
555.096	248.52203
555.565	316.57147
556.033	365.70013
556.502	387.76313
556.97	445.78696
557.438	500.94453
557.906	548.03005
558.374	565.01857
558.842	699.2781
559.31	653.12477
559.777	795.43719
560.245	918.57296
560.712	992.63679
561.18	1045.59156
561.647	1126.70702
562.114	1248.8686
562.581	1422.2671
563.048	1550.17718
563.514	1557.36352
563.981	1796.31218
564.448	1865.27227
564.914	2090.51538
565.381	2288.48166
565.847	2392.62459
566.313	2536.61359
566.779	2687.4641
567.245	2956.61793
567.711	3128.70949
568.176	3367.27443
568.642	3538.85986
569.108	3757.6555
569.573	4151.23274
570.038	4294.50039
570.504	4587.64362
570.969	4897.19924
571.434	5092.23834
571.899	5278.63179
572.363	5759.16604
572.828	5879.17143
573.293	6152.09194
573.757	6451.05666
574.222	6545.90219
574.686	6945.97993
575.15	7245.32246
575.614	7483.3229
576.078	7579.458
576.542	7740.50416
577.006	7802.53085
577.469	8102.09407
577.933	7995.71097
578.396	8089.96276
578.86	8123.97922
579.323	8208.09527
579.786	8209.93921
580.249	7975.72968
580.712	8140.0931
581.175	7902.88383
581.637	7909.70967
582.1	7854.5438
582.563	7622.27825
583.025	7509.5443
583.487	7555.07518
583.95	7347.04565
584.412	7367.02071
584.874	7138.40187
585.336	6962.2514
585.797	6787.84467
586.259	6793.23022
586.721	6555.17147
587.182	6440.20775
587.643	6295.05626
588.105	6109.30361
588.566	6054.75179
589.027	5819.47068
589.488	5767.21222
589.949	5707.58941
590.41	5492.53856
590.87	5380.40429
591.331	5133.21998
591.791	5048.59793
592.252	5029.53932
592.712	4879.96361
593.172	4693.66236
593.632	4665.55774
594.092	4448.75659
594.552	4310.64043
595.011	4238.01194
595.471	4124.95508
595.931	3992.99932
596.39	3884.4576
596.849	3792.34482
597.308	3802.97153
597.768	3643.94328
598.227	3618.63244
598.685	3591.38859
599.144	3417.52448
599.603	3429.60063
600.062	3421.94747
600.52	3382.26413
600.978	3296.64412
601.437	3247.47541
601.895	3302.05388
602.353	3286.30021
602.811	3267.2946
603.269	3158.72486
603.727	3203.71231
604.184	3216.36518
604.642	3230.83377
605.099	3263.52392
605.557	3228.81445
606.014	3213.13898
606.471	3165.92091
606.928	3148.11204
607.385	3236.73131
607.842	3317.41025
608.299	3455.48369
608.755	3405.67394
609.212	3349.24003
609.668	3449.15849
610.125	3577.65058
610.581	3622.59185
611.037	3572.39124
611.493	3533.59467
611.949	3655.61532
612.405	3590.68489
612.861	3798.48637
613.316	3739.55439
613.772	3676.37072
614.227	3808.46075
614.683	3894.92003
615.138	3720.45773
615.593	3837.37367
616.048	3777.34649
616.503	3832.76387
616.958	3793.87826
617.412	3707.56527
617.867	3740.14555
618.321	3612.91517
618.776	3534.29117
619.23	3630.57831
619.684	3517.43307
620.138	3640.55873
620.592	3379.89492
621.046	3306.74052
621.5	3304.92924
621.954	3270.54375
622.407	3106.52663
622.861	3080.99268
623.314	3106.65431
623.768	2978.78866
624.221	2899.0258
624.674	2811.75925
625.127	2783.84748
625.58	2772.74951
626.033	2724.60404
626.485	2601.95983
626.938	2623.95821
627.39	2528.83727
627.843	2454.80863
628.295	2440.80803
628.747	2429.94039
629.199	2451.74285
629.651	2312.71169
630.103	2334.76028
630.555	2225.42
631.006	2243.85665
631.458	2283.89774
631.909	2306.81528
632.361	2186.83127
632.812	2132.76282
633.263	2179.51334
633.714	2175.49573
634.165	2163.01803
634.616	2119.91134
635.067	2220.67415
635.518	2169.96493
635.968	2102.26168
636.419	2135.56881
636.869	2199.97852
637.319	2100.8035
637.769	2079.65899
638.219	2224.02736
638.669	2131.96347
639.119	2199.11553
639.569	2152.03509
640.019	2280.91035
640.468	2291.7584
640.918	2310.12215
641.367	2332.79514
641.816	2402.80222
642.265	2424.96576
642.714	2393.96158
643.163	2436.94618
643.612	2508.16004
644.061	2443.56216
644.51	2452.90462
644.958	2559.75504
645.406	2595.18414
645.855	2550.31706
646.303	2658.09365
646.751	2591.93058
647.199	2668.94745
647.647	2644.00188
648.095	2677.9878
648.543	2733.46969
648.99	2651.20543
649.438	2713.14709
649.885	2659.41915
650.333	2770.22425
650.78	2687.28289
651.227	2682.32479
651.674	2630.97204
652.121	2704.33767
652.568	2650.31423
653.015	2745.58627
653.461	2655.20388
653.908	2728.11263
654.354	2641.23914
654.801	2619.12739
655.247	2605.81224
655.693	2588.73225
656.139	2603.25581
656.585	2620.26599
657.031	2543.08507
657.477	2593.72841
657.922	2618.04649
658.368	2594.42975
658.813	2661.13164
659.259	2543.2568
659.704	2480.0896
660.149	2601.11992
660.594	2588.21976
661.039	2561.00302
661.484	2568.26525
661.929	2640.1616
662.373	2595.56301
662.818	2590.47282
663.262	2713.3278
663.707	2644.61821
664.151	2742.43087
664.595	2699.3436
665.039	2699.53703
665.483	2725.67678
665.927	2850.24305
666.371	2854.12189
666.814	2907.33069
667.258	2834.25148
667.701	2999.77893
668.145	2968.59534
668.588	2943.50096
669.031	2966.22833
669.474	3022.3879
669.917	3018.91605
670.36	3076.57651
670.803	3098.41286
671.245	3106.64006
671.688	3086.48347
672.13	3161.95359
672.573	3101.75417
673.015	3267.36617
673.457	3177.801
673.899	3286.42841
674.341	3285.39991
674.783	3323.34443
675.225	3226.5288
675.666	3265.36387
676.108	3347.75674
676.549	3350.28204
676.991	3358.83953
677.432	3377.2829
677.873	3397.12299
678.314	3375.32701
678.755	3359.45138
679.196	3399.05484
679.637	3383.4898
680.078	3424.20043
680.518	3430.1779
680.959	3362.35583
681.399	3481.56591
681.839	3444.44888
682.28	3412.54098
682.72	3404.05617
683.16	3436.60425
683.6	3417.04763
684.039	3451.51016
684.479	3339.52068
684.919	3455.07678
685.358	3582.72722
685.798	3483.98208
686.237	3509.40476
686.676	3455.15317
687.115	3529.20259
687.554	3544.26581
687.993	3591.80749
688.432	3623.99319
688.871	3635.93806
689.309	3573.29576
689.748	3638.46902
690.186	3684.27609
690.625	3641.14988
691.063	3679.29431
691.501	3712.50508
691.939	3774.54283
692.377	3752.39092
692.815	3690.26862
693.253	3837.27073
693.69	3762.70153
694.128	3731.3444
694.565	3809.21898
695.003	3862.65587
695.44	3767.12829
695.877	3935.01404
696.314	3952.49519
696.751	3939.87452
697.188	3967.89287
697.625	4010.89037
698.061	3917.21433
698.498	3987.26058
698.934	4062.18805
699.371	3954.0625
699.807	4042.06698
700.243	4006.20063
700.679	4021.78422
701.115	4206.96966
701.551	4096.0166
701.987	4165.67224
702.422	4117.05596
702.858	4177.05396
703.294	4128.73575
703.729	4248.22353
704.164	4131.1513
704.599	4262.55198
705.035	4262.57454
705.47	4179.19963
705.904	4242.85911
706.339	4299.83891
706.774	4318.86117
707.209	4260.77792
707.643	4345.03316
708.078	4371.12133
708.512	4328.34147
708.946	4416.98727
709.38	4392.91087
709.814	4398.65674
710.248	4483.07569
710.682	4388.93362
711.116	4453.90842
711.549	4506.52814
711.983	4449.696
712.416	4483.85094
712.85	4526.22968
713.283	4537.82182
713.716	4543.29159
714.149	4482.91383
714.582	4421.51804
715.015	4419.32723
715.448	4387.39202
715.881	4455.34071
716.313	4372.83611
716.746	4372.8654
717.178	4286.06565
717.61	4290.48716
718.043	4303.34135
718.475	4231.15743
718.907	4294.4792
719.339	4151.71027
719.77	4204.9939
720.202	4166.51545
720.634	4138.21843
721.065	4034.08201
721.497	4087.30569
721.928	4058.32401
722.359	3980.21444
722.79	4040.14269
723.221	3939.5735
723.652	3935.7786
724.083	3839.8237
724.514	3759.98197
724.945	3732.14092
725.375	3759.03454
725.806	3701.59032
726.236	3654.79852
726.666	3653.21986
727.096	3613.48273
727.526	3463.76072
727.956	3534.98228
728.386	3501.53448
728.816	3362.74467
729.246	3382.45537
729.675	3213.56353
730.105	3275.56828
730.534	3195.24555
730.964	3198.76176
731.393	3243.6419
731.822	3125.82916
732.251	3149.78311
732.68	3120.30386
733.109	3020.58063
733.537	3034.44943
733.966	2939.62489
734.395	2929.18341
734.823	2915.05846
735.251	2856.42714
735.68	2889.68237
736.108	2753.71624
736.536	2756.2974
736.964	2581.17477
737.392	2685.62965
737.82	2642.37503
738.247	2636.36254
738.675	2634.35319
739.102	2529.5648
739.53	2476.65394
739.957	2408.68341
740.384	2494.49126
740.811	2443.61987
741.238	2357.36816
741.665	2371.10863
742.092	2278.2255
742.519	2187.34726
742.945	2148.17966
743.372	2183.35064
743.798	2112.49729
744.225	2137.12647
744.651	2094.36092
745.077	2040.29117
745.503	2040.18968
745.929	2022.0984
746.355	1992.25
746.781	1887.14343
747.207	1776.81669
747.632	1793.98619
748.058	1756.0552
748.483	1885.82996
748.908	1728.00925
749.334	1767.99975
749.759	1651.73139
750.184	1636.75284
750.609	1730.96843
751.033	1604.7015
751.458	1684.58341
751.883	1599.86897
752.307	1505.58066
752.732	1481.75747
753.156	1455.69033
753.58	1494.60302
754.005	1462.79868
754.429	1460.52755
754.853	1342.55861
755.277	1336.40919
755.7	1360.58804
756.124	1307.51743
756.548	1280.34291
756.971	1258.40498
757.394	1314.65064
757.818	1188.46043
758.241	1199.43432
758.664	1183.39637
759.087	1133.99701
759.51	1222.41105
759.933	1093.13047
760.356	1081.28176
760.778	1078.16505
761.201	1100.17193
761.623	1043.08074
762.046	1112.12624
762.468	1023.02665
762.89	968.0034
763.312	986.00626
763.734	970.94844
764.156	882.8609
764.578	911.76139
765	832.75075
765.421	841.84591
765.843	862.95641
766.264	837.74084
766.686	816.78089
767.107	782.64978
767.528	732.63178
767.949	813.79936
768.37	688.502
768.791	721.53925
769.212	640.44535
769.632	634.32087
770.053	659.56328
770.473	666.44596
770.894	670.50147
771.314	673.43172
771.734	590.24215
772.154	566.32987
772.575	644.33281
772.994	522.08431
773.414	590.28404
773.834	575.30975
774.254	538.20685
774.673	578.2797
775.093	531.206
775.512	456.04606
775.931	525.22551
776.351	477.09891
776.77	480.08669
777.189	496.08786
777.607	443.05806
778.026	468.0835
778.445	374.88715
778.864	446.0699
779.282	418.94431
779.701	407.96744
780.119	356.85616
780.537	352.83626
780.955	397.95491
781.373	349.82228
781.791	335.71647
782.209	416.89872
782.627	349.87747
783.045	355.77467
783.462	327.79968
783.88	333.82371
784.297	306.73929
784.715	279.69144
785.132	288.67133
785.549	302.72578
785.966	289.7002
786.383	271.64399
786.8	346.76382
787.217	276.63093
787.633	228.55399
788.05	330.74859
788.466	307.6943
788.883	227.56382
789.299	276.64108
789.715	272.63827
790.131	225.54516
790.547	237.57553
790.963	223.53951
791.379	217.53525
791.795	238.5274
792.21	258.58338
792.626	208.48219
793.041	230.55235
793.457	259.6195
793.872	231.52797
794.287	144.33964
794.702	216.51932
795.117	186.45313
795.532	142.35175
795.947	210.49376
796.362	244.56542
796.776	230.52431
797.191	194.46502
797.605	121.2819
798.02	146.35104
798.434	204.44377
798.848	192.46303
799.262	120.29541
799.676	166.39882
800.09	175.42307
800.504	172.4104
800.918	162.3696
801.331	166.42854
801.745	161.36428
802.158	155.38205
802.572	188.44703
802.985	193.45689
803.398	174.40769
803.811	185.4667
804.224	149.36618
804.637	102.24199
805.05	186.42247
805.462	155.37557
805.875	97.25029
806.288	99.23781
806.7	171.42242
807.112	118.27172
807.525	143.34871
807.937	120.29421
808.349	143.3539
808.761	160.38761
809.173	129.30963
809.584	101.24859
809.996	113.27473
810.408	89.22893
810.819	113.26399
811.231	68.17574
811.642	42.10076
812.053	68.16195
812.464	101.23901
812.875	155.39033
813.286	128.3262
813.697	171.39289
814.108	140.33801
814.519	174.38044
814.929	118.29859
815.34	81.19627
815.75	92.23289
816.16	116.28693
816.571	101.26097
816.981	124.2902
817.391	123.29433
817.801	108.26645
818.211	143.33657
818.62	92.2207
819.03	102.24869
819.44	77.20089
819.849	144.35814
820.259	122.30948
820.668	91.22298
821.077	61.15174
821.486	131.31216
821.895	131.32028
822.304	123.32286
822.713	89.2098
823.122	72.17966
823.531	120.28194
823.939	79.19222
824.348	105.25375
824.756	102.25405
825.164	142.35278
825.573	55.13836
825.981	101.24914
826.389	131.32551
826.797	66.1654
827.205	93.21257
827.612	124.303
828.02	59.13887
828.428	101.25571
828.835	67.17629
829.243	95.22542
829.65	89.22043
830.057	97.23424
830.464	49.11985
830.871	97.23114
831.278	85.20488
831.685	68.15195
832.092	83.2027
832.499	96.20901
832.905	116.29113
833.312	154.34553
833.718	66.16451
834.124	106.24057
834.531	102.25553
834.937	136.34475
835.343	85.20449
835.749	112.25955
836.155	71.18568
836.561	112.27317
836.966	83.2024
837.372	122.30739
837.777	82.20365
838.183	131.2877
838.588	90.22245
838.993	104.25148
839.399	72.17581
839.804	55.13427
840.209	70.17795
840.613	47.10504
841.018	107.26888
841.423	84.21468
841.828	114.28569
842.232	120.29432
842.637	93.21829
843.041	35.09012
843.445	118.29305
843.849	99.24349
844.253	123.28916
844.657	59.14863
845.061	92.2077
845.465	70.16888
845.869	107.24663
846.272	71.17262
846.676	97.23318
847.079	88.22268
847.483	62.15471
847.886	113.27247
848.289	68.18118
848.692	88.22181
849.095	97.2315
849.498	149.37185
849.901	70.16042
850.304	86.20466
850.707	126.31759
851.109	99.24886
851.512	80.19592
851.914	57.1437
852.316	114.28559
852.718	11.02863
853.121	116.28134
853.523	100.23201
853.925	37.09686
854.326	32.0804
854.728	72.18472
855.13	15.03897
855.531	31.07449
855.933	76.18197
856.334	71.17662
856.736	27.06092
857.137	71.16476
857.538	64.16074
857.939	31.07698
858.34	86.20858
858.741	114.29512
859.142	59.14178
859.542	54.14254
859.943	92.22723
860.343	14.03495
860.744	72.17528
861.144	74.18002
861.544	34.08209
861.945	91.23056
862.345	61.14914
862.745	70.17359
863.145	138.32499
863.544	118.29497
863.944	66.15573
864.344	101.24896
864.743	104.25593
865.143	85.21727
865.542	57.13228
865.941	51.12641
866.34	113.26793
866.74	93.24808
867.139	63.1507
867.537	73.18548
867.936	42.10141
868.335	71.18021
868.734	76.19355
869.132	50.11638
869.531	87.2093
869.929	53.12095
870.327	78.18626
870.726	105.25958
871.124	55.12864
871.522	89.22541
871.92	87.21342
872.318	54.1321
872.715	102.25045
873.113	50.122
873.511	62.15431
873.908	5.01274
874.306	33.08242
874.703	70.17473
875.1	93.23638
875.497	54.12954
875.894	15.03703
876.291	67.16412
876.688	64.16483
877.085	45.10822
877.482	55.13771
877.878	15.03639
878.275	62.15734
878.671	87.1926
879.068	75.18043
879.464	51.12339
879.86	73.17208
880.256	72.17718
880.652	32.08172
881.048	89.21922
881.444	76.18023
881.84	78.19745
882.236	64.16068
882.631	79.19308
883.027	105.25193
883.422	65.16591
883.817	30.07573
884.213	66.16903
884.608	38.09348
885.003	89.21322
885.398	42.10537
885.793	36.09068
886.188	47.117
886.582	90.22944
886.977	153.35631
887.371	75.18901
887.766	43.10716
888.16	90.22319
888.554	95.23322
888.949	89.22212
889.343	113.27309
889.737	14.03755
890.131	28.07058
890.525	80.20366
890.918	74.18559
891.312	119.28128
891.706	90.23468
892.099	85.21513
892.492	102.21792
892.886	35.08595
893.279	38.09708
893.672	57.14503
894.065	59.14762
894.458	97.24208
894.851	98.23822
895.244	63.16064
895.637	80.19177
896.029	31.07613
896.422	68.16573
896.814	41.10218
897.206	-5.01204
897.599	85.20905
897.991	76.18301
898.383	46.10888
898.775	92.20609
899.167	14.03291
899.559	76.19163
899.951	97.22679
900.342	132.33104
900.734	7.01751
901.125	94.24494
901.517	55.13497
901.908	124.29338
902.299	71.17301
902.69	76.17856
903.082	89.21411
903.473	30.07216
903.863	63.16047
904.254	55.12763
904.645	91.2248
905.036	43.10431
905.426	98.22242
905.817	67.16399
906.207	84.19898
906.597	72.16778
906.987	99.25456
907.378	96.24093
907.768	51.13487
908.158	104.25119
908.547	89.22845
908.937	89.22693
909.327	100.24071
909.717	103.2592
910.106	62.14868
910.495	112.27663
910.885	85.21406
911.274	61.15224
911.663	58.14708
912.052	129.31387
912.441	71.17995
912.83	58.13302
913.219	87.22635
913.608	88.21415
913.997	49.12291
914.385	101.2391
914.774	65.15792
915.162	92.21759
915.55	108.25859
915.939	80.20092
916.327	89.22067
916.715	61.15521
917.103	120.2917
917.491	78.19209
917.878	96.23415
918.266	73.18863
918.654	97.24585
919.041	23.06033
919.429	60.14141
919.816	70.17688
920.203	54.13092
920.591	81.19981
920.978	116.28071
921.365	56.14682
921.752	92.21767
922.139	84.18118
922.525	57.13676
922.912	60.14612
923.299	65.16116
923.685	65.16917
924.072	116.26412
924.458	64.15819
924.844	85.20905
925.231	69.16006
925.617	27.06897
926.003	84.21347
926.389	64.16109
926.774	107.26849
927.16	95.23408
927.546	51.13018
927.931	123.30296
928.317	97.22144
928.702	77.1813
929.088	54.12767
929.473	86.21747
929.858	-8.01956
930.243	93.22144
930.628	49.11927
931.013	68.16802
931.398	84.19196
931.783	103.26881
932.167	61.14886
932.552	92.22881
932.937	96.23633
933.321	24.06052
933.705	88.22038
934.09	128.31904
934.474	96.22608
934.858	88.22679
935.242	60.13882
935.626	66.1685
936.009	57.15144
936.393	54.13733
936.777	55.14074
937.16	62.16101
937.544	83.19436
937.927	26.06626
938.311	80.19425
938.694	109.28544
939.077	64.15283
939.46	90.21943
939.843	120.24659
940.226	70.17896
940.609	63.14429
940.991	50.12729
941.374	58.14157
941.757	83.20361
942.139	72.16102
942.522	122.2844
942.904	59.14162
943.286	115.28888
943.668	92.23661
944.05	41.10117
944.432	95.23253
944.814	91.22249
945.196	10.02455
945.578	29.06921
945.959	71.16574
946.341	141.34036
946.722	56.13132
947.104	47.11243
947.485	65.15084
947.866	50.12598
948.247	79.1983
948.628	63.15334
949.009	67.17108
949.39	94.23217
949.771	119.27309
950.152	57.13972
950.532	29.07161
950.913	123.29265
951.293	76.20444
951.674	67.16155
952.054	58.14352
952.434	72.17803
952.814	107.25184
953.194	107.27734
953.574	101.24648
953.954	125.2926
954.334	69.17139
954.714	23.05634
955.093	113.27463
955.473	39.09772
955.853	70.18059
956.232	76.20744
956.611	102.24226
956.99	84.20983
957.37	93.23521
957.749	95.22473
958.128	98.2448
958.506	57.14769
958.885	80.20085
959.264	36.08846
959.643	54.12281
960.021	76.18744
960.4	53.12007
960.778	89.21768
961.156	21.05292
961.535	83.19223
961.913	102.23628
962.291	78.19913
962.669	63.15922
963.047	81.20559
963.424	65.16545
963.802	77.1884
964.18	144.35827
964.557	108.24591
964.935	89.20931
965.312	67.17396
965.69	84.20907
966.067	65.15786
966.444	117.28478
966.821	69.1773
967.198	88.21199
967.575	99.24124
967.952	101.23568
968.329	83.20074
968.705	111.23494
969.082	83.21164
969.458	43.10329
969.835	80.19366
970.211	57.14611
970.587	63.15649
970.963	98.24931
971.339	58.15124
971.715	69.17171
972.091	76.18626
972.467	72.17888
972.843	55.13637
973.219	127.30054
973.594	88.22868
973.97	120.28183
974.345	62.14805
974.721	97.23283
975.096	99.23736
975.471	86.20261
975.846	81.19346
976.221	58.14708
976.596	41.09845
976.971	75.18432
977.346	125.28674
977.72	112.2822
978.095	40.10355
978.469	128.30097
978.844	113.28089
979.218	65.15537
979.593	88.20934
979.967	102.24608
980.341	74.16958
980.715	70.17574
981.089	71.17707
981.463	74.16911
981.837	73.17762
982.21	109.25074
982.584	89.21338
982.957	49.12238
983.331	107.25017
983.704	72.1762
984.078	79.19365
984.451	123.30318
984.824	64.15546
985.197	88.21223
985.57	134.33096
985.943	117.28542
986.316	103.25061
986.688	93.22246
987.061	89.20702
987.434	67.17408
987.806	114.27316
988.179	63.14828
988.551	121.30307
988.923	64.1572
989.295	89.22083
989.667	48.11471
990.039	62.15285
990.411	48.11053
990.783	135.30558
991.155	57.13676
991.527	135.32724
991.898	104.25659
992.27	74.18224
992.641	92.22906
993.012	122.28306
993.384	65.15459
993.755	57.14514
994.126	116.27552
994.497	23.05674
994.868	65.14887
995.239	53.12838
995.61	36.09081
995.98	44.107
996.351	67.16539
996.722	42.09756
997.092	13.031
997.462	25.05868
997.833	98.23016
998.203	77.18574
998.573	68.16876
998.943	54.12653
999.313	80.1906
999.683	55.13187
1000.053	106.24116
1000.423	107.25722
1000.792	77.19862
1001.162	80.19578
1001.531	67.16466
1001.901	75.18609
1002.27	89.19735
1002.639	56.14292
1003.009	66.15646
1003.378	11.02831
1003.747	87.20405
1004.116	47.11251
1004.485	57.13604
1004.853	65.16422
1005.222	65.16346
1005.591	87.20509
1005.959	35.0791
1006.328	90.20086
1006.696	36.08705
1007.064	75.18779
1007.433	71.17675
1007.801	87.21208
1008.169	96.24041
1008.537	139.30205
1008.905	57.13259
1009.273	96.23511
1009.64	43.1027
1010.008	35.08366
1010.375	123.29456
1010.743	130.2954
1011.11	60.14169
1011.478	59.14575
1011.845	99.23056
1012.212	66.14888
1012.579	67.16393
1012.946	85.20092
1013.313	83.19626
1013.68	90.20061
1014.047	23.05508
1014.414	39.09229
1014.78	59.14634
1015.147	117.27934
1015.513	87.20811
1015.88	113.28569
1016.246	140.3398
1016.612	101.22881
1016.978	105.25461
1017.344	45.11129
1017.71	108.26046
1018.076	88.20595
1018.442	96.24491
1018.808	74.18411
1019.174	49.12291
1019.539	136.30765
1019.905	70.1644
1020.27	32.07921
1020.636	76.18128
1021.001	91.2161
1021.366	31.07469
1021.731	111.28233
1022.096	13.033
1022.461	79.18587
1022.826	83.19596
1023.191	118.3059
1023.556	104.2411
1023.92	53.13021
1024.285	99.23934
1024.649	51.12492
1025.014	63.15563
1025.378	63.15797
1025.742	84.20724
1026.107	87.19525
1026.471	128.29415
1026.835	97.2383
1027.199	55.13222
1027.562	56.12998
1027.926	87.2112
1028.29	85.21367
1028.654	84.19188
1029.017	128.30998
1029.381	35.08382
1029.744	41.10469
1030.107	113.26399
1030.471	86.20442
1030.834	105.23613
1031.197	97.2315
1031.56	120.27919
1031.923	91.2335
1032.286	83.1936
1032.648	81.1925
1033.011	108.24491
1033.374	80.18686
1033.736	66.17298
1034.099	78.18904
1034.461	73.18357
1034.823	75.18582
1035.185	76.19033
1035.548	69.16726
1035.91	92.21851
1036.272	96.21637
1036.634	109.26362
1036.995	58.13606
1037.357	91.21959
1037.719	61.14798
1038.08	104.24425
1038.442	79.18637
1038.803	79.18854
1039.165	66.166
1039.526	60.14465
1039.887	79.18789
1040.248	73.17901
1040.609	76.18682
1040.97	77.18714
1041.331	72.18148
1041.692	86.19922
1042.053	91.2054
1042.413	88.20345
1042.774	80.19337
1043.134	91.21485
1043.495	83.20729
1043.855	83.19998
1044.215	93.2289
1044.576	56.13368
1044.936	110.24904
1045.296	102.25202
1045.656	84.20472
1046.016	101.24132
1046.375	39.09475
1046.735	34.07729
1047.095	59.13778
1047.454	107.2238
1047.814	94.22395
1048.173	133.31254
1048.533	67.15289
1048.892	19.04585
1049.251	135.33349
1049.61	43.10595
1049.969	66.15501
1050.328	78.16802
1050.687	82.19821
1051.046	108.25997
1051.405	110.27049
1051.763	31.07151
1052.122	63.15666
1052.48	65.15886
1052.839	88.20539
1053.197	69.16171
1053.555	107.24102
1053.914	99.23979
1054.272	140.33252
1054.63	56.13669
1054.988	61.14452
1055.345	90.19203
1055.703	82.19604
1056.061	63.1616
1056.419	53.13704
1056.776	101.24243
1057.134	52.12027
1057.491	60.14988
1057.848	83.20527
1058.206	71.1662
1058.563	77.16868
1058.92	107.24368
1059.277	61.15008
1059.634	83.19391
1059.991	58.13866
1060.348	34.07704
1060.704	47.112
1061.061	102.23441
1061.418	74.17853
1061.774	78.19145
1062.131	40.10587
1062.487	76.17668
1062.843	77.19092
1063.199	88.21719
1063.555	56.12952
1063.911	59.14869
1064.267	136.27808
1064.623	51.12376
1064.979	133.30986
1065.335	117.27591
1065.691	98.23259
1066.046	68.14887
1066.402	82.18497
1066.757	91.22785
1067.112	112.27154
1067.468	54.12732
1067.823	84.20051
1068.178	107.25585
1068.533	79.19034
1068.888	96.22722
1069.243	57.1404
1069.598	50.12141
1069.952	13.02947
1070.307	21.05222
1070.662	36.08564
1071.016	22.04955
1071.371	68.15402
1071.725	121.28534
1072.079	85.20294
1072.434	92.22162
1072.788	95.22412
1073.142	120.29115
1073.496	26.06192
1073.85	93.21368
1074.203	89.21419
1074.557	62.16443
1074.911	103.24318
1075.265	56.12993
1075.618	102.24646
1075.971	112.26304
1076.325	61.15461
1076.678	63.14359
1077.031	96.21505
1077.385	140.30235
1077.738	80.17935
1078.091	71.16065
1078.444	61.14122
1078.796	56.13715
1079.149	76.18799
1079.502	73.17155
1079.855	85.19671
1080.207	114.27732
1080.56	46.11888
1080.912	116.2787
1081.264	109.25934
1081.617	55.13382
1081.969	50.12603
1082.321	36.08807
1082.673	55.12531
1083.025	83.1955
1083.377	112.237
1083.728	80.18539
1084.08	74.18378
1084.432	73.17515
1084.783	87.20221
1085.135	86.21397
1085.486	51.11657
1085.838	79.19337
1086.189	82.19768
1086.54	97.22937
1086.891	26.06598
1087.242	61.14809
1087.593	103.24807
1087.944	58.13094
1088.295	68.15389
1088.646	61.14742
1088.996	69.16549
1089.347	66.16134
1089.698	35.08289
1090.048	97.24968
1090.398	69.1593
1090.749	81.1925
1091.099	63.15791
1091.449	70.17359
1091.799	93.23084
1092.149	15.03678
1092.499	106.25564
1092.849	95.23932
1093.199	94.23353
1093.548	47.1129
1093.898	58.14478
1094.248	91.23195
1094.597	-2.00515
1094.947	69.18333
1095.296	51.1258
1095.645	59.15308
1095.994	104.24702
1096.343	89.2222
1096.692	39.10255
1097.041	24.06519
1097.39	61.15257
1097.739	42.10922
1098.088	120.31749
1098.437	-8.0212
1098.785	65.17465
1099.134	93.24495
1099.482	74.20257
1099.83	130.33666
1100.179	56.14578
1100.527	-3.00803
1100.875	77.20246
1101.223	48.12738
1101.571	35.09686
1101.919	22.0577
1102.267	49.13785
1102.615	-1.00322
1102.962	11.03541
1103.31	-8.02575
1103.658	14.04508
