Data from N2 R11 sample 1_Subt2__0__16-04-13-534.txt Node

Date: Mon Sep 01 16:04:13 PDT 2025
User: uwsun
Spectrometer: HDX01956
Trigger mode: 0
Integration Time (sec): 5.000000E-1
Scans to average: 1
Nonlinearity correction enabled: true
Boxcar width: 0
Storing dark spectrum: false
XAxis mode: Wavelengths
Number of Pixels in Spectrum: 2068
>>>>>Begin Spectral Data<<<<<
194.03	-29.08176
194.578	-20.0634
195.127	-38.11899
195.676	-25.07839
196.225	56.14717
196.773	-12.03296
197.321	-14.03766
197.87	32.07872
198.418	-24.05889
198.966	-19.04685
199.513	-69.16373
200.061	-56.13475
200.609	-7.01764
201.156	-18.03704
201.704	-34.081
202.251	-53.13347
202.798	-55.13597
203.345	1.00234
203.892	-16.03808
204.438	-6.01357
204.985	-22.04892
205.532	-32.07968
206.078	-20.04646
206.624	-38.08827
207.17	15.03276
207.716	-29.06647
208.262	9.01675
208.808	-50.11605
209.354	-35.08048
209.899	-5.012
210.445	-56.13178
210.99	-39.08878
211.535	27.05962
212.08	-11.02421
212.625	25.0588
213.17	21.05006
213.715	-55.11549
214.259	31.0678
214.804	15.03497
215.348	-1.00216
215.892	5.01131
216.436	20.04377
216.98	16.03347
217.524	41.09061
218.068	14.03327
218.612	5.01191
219.155	13.02883
219.698	-3.00677
220.242	3.0071
220.785	9.01991
221.328	17.04004
221.871	27.06483
222.414	39.09169
222.956	-37.08471
223.499	-3.00641
224.041	49.10775
224.583	53.1082
225.126	40.08298
225.668	-20.0462
226.21	-4.00953
226.751	-46.09593
227.293	-4.0087
227.835	-59.13784
228.376	20.04382
228.918	39.09293
229.459	-18.04244
230	27.06052
230.541	5.01093
231.082	-31.07154
231.622	21.04575
232.163	14.03194
232.704	-28.06589
233.244	-2.00469
233.784	10.02326
234.324	-24.04972
234.864	-24.05172
235.404	-2.00452
235.944	-3.00675
236.484	31.07291
237.023	-14.0313
237.563	-24.05254
238.102	0
238.641	20.04759
239.18	-46.10198
239.719	-5.01186
240.258	11.02333
240.797	-8.01804
241.335	36.0827
241.874	31.0557
242.412	-18.04085
242.95	-55.12455
243.488	-7.01509
244.026	-34.07415
244.564	32.06163
245.102	76.15765
245.64	19.04311
246.177	-21.04455
246.715	19.04289
247.252	23.0496
247.789	103.17946
248.326	-40.09045
248.863	-40.08294
249.4	73.15363
249.936	-9.01742
250.473	-42.09253
251.009	9.01924
251.546	-5.01034
252.082	25.05111
252.618	-40.08405
253.154	-1.00225
253.69	15.03154
254.226	16.0356
254.761	-1.0021
255.297	-28.05762
255.832	-46.10266
256.367	-22.04869
256.903	-31.064
257.438	-6.01322
257.972	16.03319
258.507	-48.10317
259.042	-33.06743
259.576	-59.11924
260.111	-13.0282
260.645	-1.00202
261.179	1.00217
261.713	6.0124
262.247	-5.01077
262.781	-18.03517
263.315	-34.07785
263.849	-28.06543
264.382	17.03634
264.915	-22.04796
265.449	-69.15689
265.982	6.01271
266.515	-59.13513
267.048	-47.0932
267.58	18.03659
268.113	-2.004
268.646	-43.09912
269.178	-63.13177
269.71	18.03635
270.243	-11.02339
270.775	-1.00236
271.307	3.00672
271.838	64.13993
272.37	-20.04572
272.902	5.01054
273.433	-16.03245
273.965	-51.11601
274.496	10.02304
275.027	-27.06219
275.558	-8.01793
276.089	-107.24594
276.62	-3.00708
277.15	-12.0275
277.681	-18.03634
278.211	16.0362
278.741	-89.18326
279.272	-64.13597
279.802	-12.02771
280.332	-45.09825
280.861	20.0441
281.391	-8.01665
281.921	-25.05583
282.45	-17.03929
282.98	23.05493
283.509	-22.04556
284.038	-24.05034
284.567	-14.0302
285.096	-9.01997
285.625	-31.06469
286.153	-48.10362
286.682	5.01041
287.21	-35.07732
287.739	-35.07593
288.267	-81.18126
288.795	4.00963
289.323	-74.15899
289.851	-12.02565
290.378	-3.00612
290.906	-80.17773
291.433	-29.06607
291.961	-26.05345
292.488	-4.00904
293.015	-35.07476
293.542	-38.0874
294.069	-57.12776
294.596	24.05361
295.122	-30.06496
295.649	-11.02195
296.175	-3.00658
296.702	7.01532
297.228	7.01536
297.754	-17.03437
298.28	-71.14646
298.806	-28.0606
299.332	-61.1217
299.857	-89.18276
300.383	-14.03201
300.908	-92.20167
301.433	-59.12903
301.958	34.06987
302.483	-9.01997
303.008	-69.15472
303.533	-38.08932
304.058	-30.06357
304.582	-60.12663
305.107	-67.15665
305.631	24.04843
306.155	-82.17094
306.679	-70.14573
307.203	-23.0471
307.727	-13.02723
308.251	-34.07459
308.775	-62.12971
309.298	-108.23024
309.822	-49.1097
310.345	-24.04992
310.868	-22.046
311.391	-54.11772
311.914	-75.16582
312.437	-69.13945
312.96	-63.13002
313.482	-72.14962
314.005	-118.26269
314.527	-74.17033
315.049	-29.06398
315.571	-99.19072
316.093	-89.19258
316.615	-82.17155
317.137	-47.08762
317.659	-74.15666
318.18	-30.06229
318.702	-58.11547
319.223	-125.22171
319.744	-64.1219
320.265	-103.21333
320.786	-134.28406
321.307	-86.18215
321.828	-63.11996
322.348	-63.1244
322.869	-134.26715
323.389	-71.09463
323.909	-52.09919
324.43	-39.07879
324.95	-84.15898
325.47	-77.15598
325.989	-83.16043
326.509	-163.29559
327.029	-163.30223
327.548	-127.2316
328.067	-113.22062
328.587	-116.23676
329.106	-110.20105
329.625	-30.06421
330.144	-108.1985
330.662	-157.2911
331.181	-110.20411
331.7	-125.232
332.218	-65.10805
332.736	-165.30655
333.255	-123.22271
333.773	-164.30477
334.291	-110.21553
334.808	-124.21017
335.326	-115.19698
335.844	-211.37485
336.361	-192.37228
336.879	-200.35226
337.396	-225.41282
337.913	-164.27903
338.43	-152.24981
338.947	-173.30398
339.464	-147.22355
339.981	-143.24349
340.497	-200.36501
341.014	-215.38275
341.53	-198.31654
342.046	-241.42904
342.562	-187.33687
343.078	-209.34858
343.594	-182.30564
344.11	-188.31261
344.626	-188.33199
345.141	-173.26703
345.657	-181.28086
346.172	-215.35682
346.687	-236.36719
347.202	-241.36173
347.717	-193.30793
348.232	-255.4368
348.747	-200.30009
349.261	-260.35969
349.776	-270.41961
350.29	-282.45602
350.805	-219.35763
351.319	-268.40506
351.833	-341.49555
352.347	-269.40303
352.861	-229.33129
353.374	-210.30181
353.888	-262.40169
354.401	-257.36349
354.915	-294.39415
355.428	-298.46233
355.941	-290.40667
356.454	-229.30687
356.967	-308.44632
357.48	-310.43112
357.993	-278.41589
358.505	-345.51196
359.018	-203.28801
359.53	-314.44288
360.042	-248.3081
360.554	-293.41522
361.066	-348.49617
361.578	-282.3358
362.09	-253.33747
362.602	-311.3705
363.113	-331.42456
363.625	-268.31702
364.136	-255.29046
364.647	-381.46163
365.158	-339.4193
365.669	-307.39023
366.18	-343.42757
366.691	-251.27035
367.201	-395.49976
367.712	-335.37559
368.222	-370.41887
368.733	-369.37003
369.243	-319.3166
369.753	-335.36207
370.263	-386.44067
370.773	-383.45269
371.282	-349.36768
371.792	-537.52409
372.301	-485.51169
372.811	-467.55377
373.32	-466.3479
373.829	-518.46354
374.338	-510.3882
374.847	-517.39294
375.356	-472.34941
375.865	-587.30979
376.373	-567.32237
376.882	-594.45443
377.39	-640.41075
377.898	-794.46743
378.407	-746.28122
378.915	-641.15959
379.423	-736.23191
379.93	-735.14546
380.438	-887.17596
380.946	-886.06925
381.453	-972.02928
381.96	-1095.93323
382.468	-1123.75675
382.975	-1095.75678
383.482	-1059.63798
383.989	-1269.69749
384.495	-1269.50419
385.002	-1387.31153
385.509	-1543.26331
386.015	-1599.14301
386.521	-1547.1673
387.028	-1698.10559
387.534	-1747.12782
388.04	-1599.18861
388.546	-2113.101
389.051	-2199.3527
389.557	-2332.59437
390.063	-2004.87608
390.568	-2256.19427
391.073	-2596.90373
391.578	-2611.19401
392.084	-2953.39196
392.589	-3180.39828
393.093	-3776.09635
393.598	-3755.39571
394.103	-4008.58096
394.607	-4366.36685
395.112	-4492.22849
395.616	-4877.75818
396.12	-5697.76865
396.624	-6367.81877
397.128	-6782.6994
397.632	-6972.04699
398.136	-7874.73349
398.639	-9975.98148
399.143	-11711.48577
399.646	-13021.81373
400.15	-14456.16806
400.653	-16646.10795
401.156	-19858.02254
401.659	-23904.01314
402.162	-20189.60045
402.664	-5917.72557
403.167	-1056.19519
403.67	0
404.172	0
404.674	0
405.176	0
405.678	0
406.18	0
406.682	0
407.184	0
407.686	0
408.187	0
408.688	0
409.19	0
409.691	0
410.192	0
410.693	-7238.76048
411.194	-11729.74643
411.694	-10445.05364
412.195	-8828.21656
412.696	-9705.76287
413.196	-11242.60637
413.696	-12111.24211
414.196	-10402.91397
414.696	-7637.44066
415.196	-4880.26209
415.696	-657.5883
416.196	-112.42799
416.695	-2561.12724
417.195	-4171.5187
417.694	-4116.04956
418.194	-3406.78531
418.693	-3824.67828
419.192	-3725.10641
419.691	-3764.35638
420.19	-3427.58264
420.688	-2906.20451
421.187	-2490.09494
421.685	-2009.00311
422.184	-1641.89288
422.682	-1462.20119
423.18	-1792.53691
423.678	-1896.02928
424.176	-1749.11215
424.674	-1729.48087
425.172	-1294.94922
425.669	-1178.62236
426.167	-920.60305
426.664	-1053.45198
427.161	-1001.44463
427.659	-932.50251
428.156	-921.49997
428.652	-894.63242
429.149	-922.64521
429.646	-768.69312
430.143	-709.81745
430.639	-749.86044
431.135	-751.97105
431.632	-657.96005
432.128	-710.07459
432.624	-748.18752
433.12	-821.09482
433.616	-731.08429
434.111	-836.22
434.607	-783.27957
435.103	-644.17201
435.598	-548.14651
436.093	-512.26211
436.588	-482.25482
437.083	-523.32649
437.578	-493.34581
438.073	-587.50418
438.568	-510.47787
439.062	-488.35129
439.557	-437.40837
440.051	-546.50132
440.546	-540.50743
441.04	-531.56352
441.534	-505.60596
442.028	-438.48692
442.522	-505.57703
443.015	-453.44682
443.509	-432.52181
444.002	-431.52229
444.496	-453.47246
444.989	-364.44467
445.482	-463.60309
445.975	-508.57673
446.468	-475.50475
446.961	-455.48423
447.454	-473.56255
447.947	-477.6003
448.439	-444.59624
448.931	-461.54825
449.424	-451.65392
449.916	-482.67014
450.408	-481.59605
450.9	-488.67805
451.392	-454.66871
451.884	-435.5739
452.375	-531.78873
452.867	-379.49591
453.358	-512.68269
453.849	-413.49648
454.341	-449.59678
454.832	-419.52095
455.323	-551.84592
455.814	-487.69478
456.304	-438.62146
456.795	-410.57471
457.285	-373.51429
457.776	-386.55942
458.266	-471.71828
458.756	-382.58923
459.247	-493.76575
459.737	-424.64983
460.226	-430.62092
460.716	-449.71207
461.206	-430.69232
461.695	-420.72127
462.185	-398.63241
462.674	-380.59064
463.163	-346.51047
463.653	-407.57579
464.142	-399.66448
464.63	-361.61709
465.119	-363.57694
465.608	-402.64868
466.096	-335.50712
466.585	-336.55137
467.073	-328.56384
467.561	-380.6683
468.05	-324.54356
468.538	-320.57575
469.026	-349.61586
469.513	-386.59541
470.001	-358.59798
470.489	-348.61041
470.976	-285.48505
471.463	-302.5685
471.951	-321.61661
472.438	-349.6252
472.925	-374.6712
473.412	-255.48203
473.899	-230.40086
474.385	-351.6827
474.872	-340.62054
475.359	-322.62018
475.845	-262.41649
476.331	-238.40429
476.817	-284.55409
477.303	-286.52991
477.789	-287.55662
478.275	-374.76367
478.761	-274.53611
479.247	-241.43572
479.732	-301.61252
480.218	-288.61982
480.703	-303.6253
481.188	-266.46631
481.673	-348.66993
482.158	-302.52525
482.643	-263.5642
483.128	-246.46217
483.612	-265.51911
484.097	-185.37784
484.581	-201.39094
485.066	-230.46943
485.55	-292.54292
486.034	-262.47889
486.518	-279.55689
487.002	-305.64073
487.486	-276.57892
487.969	-296.62471
488.453	-238.51927
488.936	-270.52603
489.42	-234.44699
489.903	-235.51631
490.386	-657.05361
490.869	-223.42298
491.352	-208.4465
491.835	-187.33462
492.318	-257.50868
492.8	-231.41827
493.283	-265.59493
493.765	-237.51325
494.247	-199.41123
494.73	-265.52182
495.212	-217.46773
495.694	-250.51743
496.175	-297.6275
496.657	-207.43621
497.139	-137.20947
497.62	-291.61752
498.102	-256.56847
498.583	-224.5032
499.064	-249.49585
499.545	-245.50288
500.026	-267.54012
500.507	-250.52415
500.988	-221.49412
501.469	-275.62346
501.949	-193.42885
502.43	-287.61833
502.91	-265.49701
503.39	-212.48094
503.87	-258.54953
504.35	-211.45226
504.83	-258.51437
505.31	-247.54358
505.79	-262.57066
506.269	-211.44796
506.749	-244.50637
507.228	-241.51388
507.707	-198.39622
508.187	-210.45799
508.666	-247.5527
509.145	-242.51545
509.623	-246.52875
510.102	-209.46131
510.581	-200.44172
511.059	-222.50607
511.538	-220.52211
512.016	-197.42918
512.494	-199.44181
512.972	-220.48122
513.45	-273.58034
513.928	-226.50165
514.406	-254.55863
514.884	-219.51562
515.361	-232.51111
515.839	-186.38584
516.316	-186.40805
516.793	-247.58018
517.27	-186.41441
517.747	-209.4917
518.224	-201.42841
518.701	-203.4163
519.178	-274.62964
519.654	-165.36038
520.131	-243.5574
520.607	-140.31709
521.083	-206.43401
521.56	-196.42637
522.036	-113.22513
522.512	-132.29775
522.987	-229.50185
523.463	-197.43191
523.939	-192.43557
524.414	-166.35358
524.89	-157.34189
525.365	-180.37573
525.84	-234.51422
526.315	-213.47545
526.79	-170.35343
527.265	-143.29883
527.74	-194.43724
528.215	-197.43064
528.689	-222.45845
529.164	-191.3862
529.638	-197.47068
530.112	-208.45478
530.587	-217.43072
531.061	-241.54261
531.534	-178.40069
532.008	-190.42297
532.482	-154.32702
532.956	-206.48662
533.429	-182.40953
533.903	-125.25472
534.376	-163.33382
534.849	-183.39496
535.322	-177.38823
535.795	-217.49697
536.268	-155.34413
536.741	-186.41681
537.213	-141.30144
537.686	-208.47225
538.158	-208.43436
538.631	-174.39474
539.103	-197.4113
539.575	-136.26294
540.047	-127.25762
540.519	-129.28509
540.991	-157.35754
541.463	-143.32052
541.934	-144.30499
542.406	-155.34169
542.877	-105.21747
543.348	-81.17909
543.82	-86.19344
544.291	-75.16034
544.762	-156.34195
545.233	-117.26882
545.703	-134.27262
546.174	-69.14585
546.645	-138.30122
547.115	-66.14388
547.585	-78.16303
548.056	-105.22895
548.526	-102.21688
548.996	-21.04517
549.466	11.02393
549.935	-47.09896
550.405	-28.05434
550.875	37.0766
551.344	26.05485
551.814	81.1613
552.283	65.12311
552.752	61.12249
553.221	58.10827
553.69	103.19546
554.159	91.19126
554.628	138.25952
555.096	170.36399
555.565	273.49913
556.033	342.65965
556.502	342.68153
556.97	421.74916
557.438	445.85195
557.906	493.94066
558.374	558.00772
558.842	573.08058
559.31	611.06404
559.777	704.30185
560.245	861.4975
560.712	921.54907
561.18	999.54189
561.647	1079.65822
562.114	1195.81714
562.581	1285.1268
563.048	1472.11708
563.514	1520.33192
563.981	1691.25147
564.448	1809.24573
564.914	1924.44623
565.381	2112.43737
565.847	2401.62609
566.313	2405.59892
566.779	2644.46589
567.245	2766.6371
567.711	3032.72705
568.176	3099.35812
568.642	3265.93563
569.108	3590.72127
569.573	3751.42851
570.038	3975.67744
570.504	4181.87202
570.969	4538.4022
571.434	4663.47115
571.899	4956.80477
572.363	5194.41598
572.828	5499.31846
573.293	5727.2171
573.757	5911.15893
574.222	6100.93904
574.686	6339.92102
575.15	6577.20146
575.614	6710.04302
576.078	6849.15804
576.542	7069.10086
577.006	7149.08756
577.469	7248.53255
577.933	7390.17802
578.396	7466.4483
578.86	7471.41782
579.323	7347.37962
579.786	7555.21284
580.249	7311.19775
580.712	7381.52071
581.175	7145.46653
581.637	7222.23004
582.1	7091.00338
582.563	6864.85506
583.025	6709.32164
583.487	6745.5924
583.95	6474.75835
584.412	6409.69879
584.874	6191.40299
585.336	6035.30934
585.797	5887.88325
586.259	5733.41918
586.721	5462.47489
587.182	5543.47164
587.643	5147.46887
588.105	5195.68309
588.566	4963.16569
589.027	4728.02197
589.488	4657.76241
589.949	4408.27999
590.41	4324.10907
590.87	4246.0235
591.331	4038.82396
591.791	3995.1806
592.252	3805.20673
592.712	3704.57965
593.172	3578.24802
593.632	3473.17797
594.092	3406.27463
594.552	3304.1328
595.011	3109.4907
595.471	3041.4022
595.931	2995.38954
596.39	2901.75528
596.849	2844.62699
597.308	2755.32196
597.768	2608.0689
598.227	2670.81225
598.685	2639.59887
599.144	2612.65753
599.603	2506.71592
600.062	2453.17438
600.52	2431.41996
600.978	2341.68938
601.437	2374.54879
601.895	2321.21677
602.353	2302.40647
602.811	2326.40058
603.269	2242.69983
603.727	2317.7188
604.184	2164.41091
604.642	2212.78648
605.099	2306.57886
605.557	2283.79477
606.014	2162.23634
606.471	2173.8279
606.928	2167.19992
607.385	2185.7
607.842	2311.50316
608.299	2358.60673
608.755	2278.72187
609.212	2274.37179
609.668	2271.33771
610.125	2316.75949
610.581	2444.75588
611.037	2433.58094
611.493	2358.71481
611.949	2366.76809
612.405	2348.0244
612.861	2485.73785
613.316	2403.75621
613.772	2416.59657
614.227	2431.71316
614.683	2523.33211
615.138	2359.66775
615.593	2360.64437
616.048	2359.603
616.503	2408.9453
616.958	2326.99312
617.412	2430.75945
617.867	2322.43242
618.321	2458.21716
618.776	2260.46283
619.23	2300.71633
619.684	2363.58611
620.138	2258.69316
620.592	2180.84761
621.046	2131.70017
621.5	2143.84309
621.954	2122.54449
622.407	2007.4575
622.861	1963.76755
623.314	2049.56845
623.768	1954.60712
624.221	1990.0403
624.674	1844.51498
625.127	1864.59012
625.58	1875.52461
626.033	1835.39458
626.485	1779.62435
626.938	1782.62332
627.39	1699.48508
627.843	1708.47953
628.295	1678.45914
628.747	1678.55763
629.199	1666.40146
629.651	1595.34656
630.103	1591.37457
630.555	1571.12893
631.006	1567.44477
631.458	1531.43205
631.909	1622.44524
632.361	1518.39825
632.812	1476.32602
633.263	1532.17866
633.714	1489.13323
634.165	1487.51054
634.616	1496.45753
635.067	1462.22768
635.518	1475.45811
635.968	1460.95592
636.419	1523.22312
636.869	1456.43875
637.319	1405.29621
637.769	1471.26195
638.219	1519.52921
638.669	1457.45165
639.119	1474.55326
639.569	1509.54929
640.019	1546.4554
640.468	1550.34794
640.918	1537.58857
641.367	1569.38194
641.816	1571.37659
642.265	1567.48272
642.714	1563.48194
643.163	1632.52314
643.612	1621.65069
644.061	1584.21444
644.51	1671.52226
644.958	1694.41997
645.406	1661.6898
645.855	1794.90658
646.303	1805.73533
646.751	1768.59614
647.199	1831.64564
647.647	1752.63135
648.095	1878.70564
648.543	1850.30353
648.99	1869.86528
649.438	1896.83414
649.885	1874.02677
650.333	1990.17428
650.78	1911.94928
651.227	1917.98593
651.674	1949.74057
652.121	1944.01147
652.568	1945.00182
653.015	1990.22895
653.461	1970.93271
653.908	2025.88699
654.354	2008.98674
654.801	1942.85945
655.247	1973.62881
655.693	1960.35327
656.139	1996.99853
656.585	2044.03346
657.031	1993.86841
657.477	2008.57853
657.922	1990.82472
658.368	2030.163
658.813	2156.97757
659.259	2076.05997
659.704	2083.93508
660.149	2164.97951
660.594	2083.02386
661.039	2131.8691
661.484	2167.11256
661.929	2172.01298
662.373	2173.36759
662.818	2262.34035
663.262	2194.15515
663.707	2266.45766
664.151	2298.29056
664.595	2375.25283
665.039	2372.42627
665.483	2399.55928
665.927	2460.17633
666.371	2438.0618
666.814	2525.27134
667.258	2499.19588
667.701	2631.79279
668.145	2611.53222
668.588	2629.45232
669.031	2709.21411
669.474	2759.37134
669.917	2753.92786
670.36	2745.54454
670.803	2843.40699
671.245	2895.67373
671.688	2908.47928
672.13	2880.98245
672.573	2946.7433
673.015	2951.38497
673.457	2954.83571
673.899	3044.44687
674.341	3027.41985
674.783	3034.37292
675.225	3151.53407
675.666	3096.38045
676.108	3188.79623
676.549	3281.2943
676.991	3237.86939
677.432	3285.31487
677.873	3196.16217
678.314	3325.33626
678.755	3292.46151
679.196	3357.06506
679.637	3394.48789
680.078	3425.20019
680.518	3455.17167
680.959	3383.35182
681.399	3359.5869
681.839	3486.43988
682.28	3453.53341
682.72	3439.04702
683.16	3558.57951
683.6	3587.99719
684.039	3487.4972
684.479	3607.46493
684.919	3602.03276
685.358	3689.70155
685.798	3614.96095
686.237	3783.32403
686.676	3737.0647
687.115	3747.13279
687.554	3756.19897
687.993	3881.69077
688.432	3824.9178
688.871	3839.85935
689.309	3895.18608
689.748	3990.30757
690.186	4026.14591
690.625	3909.05032
691.063	4065.14613
691.501	4166.3329
691.939	4071.43341
692.377	4147.23494
692.815	4070.12075
693.253	4224.10473
693.69	4153.51891
694.128	4302.10513
694.565	4390.95624
695.003	4272.49241
695.44	4323.87903
695.877	4346.81756
696.314	4311.31089
696.751	4448.62113
697.188	4349.70584
697.625	4494.6454
698.061	4494.94024
698.498	4595.96402
698.934	4521.96175
699.371	4504.79234
699.807	4534.82048
700.243	4640.88514
700.679	4585.49077
701.115	4664.72817
701.551	4632.74
701.987	4705.38
702.422	4668.77067
702.858	4730.76302
703.294	4742.4053
703.729	4704.98637
704.164	4783.81163
704.599	4872.21342
705.035	4789.28348
705.47	4847.8485
705.904	4906.49666
706.339	4987.45954
706.774	4879.55348
707.209	4878.43893
707.643	4986.6816
708.078	4975.79129
708.512	5016.97178
708.946	5052.63505
709.38	5027.55893
709.814	5091.26876
710.248	5066.75185
710.682	5092.54311
711.116	5073.56287
711.549	5074.22037
711.983	5095.33372
712.416	5057.52996
712.85	5160.87756
713.283	5075.51977
713.716	5183.93635
714.149	5179.52412
714.582	5059.1595
715.015	5089.96155
715.448	5014.05481
715.881	5030.0165
716.313	4983.49739
716.746	4909.56916
717.178	4980.68804
717.61	4967.13172
718.043	4992.97293
718.475	4829.84037
718.907	4896.16534
719.339	4854.32724
719.77	4744.70727
720.202	4758.21995
720.634	4735.91127
721.065	4664.76095
721.497	4703.99609
721.928	4630.0427
722.359	4491.96875
722.79	4540.89465
723.221	4519.3133
723.652	4453.56065
724.083	4397.55104
724.514	4393.68541
724.945	4339.8708
725.375	4255.81214
725.806	4246.38323
726.236	4149.63443
726.666	4128.03059
727.096	4116.30185
727.526	4088.57823
727.956	3983.80736
728.386	4110.33104
728.816	3876.62493
729.246	3834.33143
729.675	3753.45277
730.105	3788.45271
730.534	3762.09965
730.964	3769.66481
731.393	3736.54602
731.822	3719.75363
732.251	3587.73454
732.68	3610.20597
733.109	3568.51913
733.537	3511.38801
733.966	3438.60119
734.395	3491.09853
734.823	3403.9836
735.251	3334.40806
735.68	3268.69248
736.108	3230.7606
736.536	3297.2813
736.964	3176.19262
737.392	3151.68516
737.82	3140.41036
738.247	3124.39884
738.675	3096.39045
739.102	2994.66371
739.53	2930.78307
739.957	2921.85299
740.384	2933.59021
740.811	2829.74457
741.238	2894.50937
741.665	2788.19502
742.092	2744.36685
742.519	2617.5362
742.945	2663.37732
743.372	2662.5553
743.798	2617.77206
744.225	2548.29485
744.651	2446.55957
745.077	2500.54524
745.503	2497.42361
745.929	2408.29849
746.355	2424.50771
746.781	2369.45583
747.207	2318.1413
747.632	2250.30254
748.058	2248.42964
748.483	2245.02867
748.908	2163.35564
749.334	2152.29174
749.759	2177.10636
750.184	2142.133
750.609	2141.28876
751.033	2026.03839
751.458	2040.81881
751.883	2060.27628
752.307	1914.93782
752.732	1871.15679
753.156	1897.13308
753.58	1908.97596
754.005	1906.2686
754.429	1776.82622
754.853	1692.95935
755.277	1743.82702
755.7	1721.99562
756.124	1698.97144
756.548	1623.72128
756.971	1723.9338
757.394	1616.03722
757.818	1551.95605
758.241	1561.91262
758.664	1541.87097
759.087	1441.33986
759.51	1476.74207
759.933	1420.55742
760.356	1415.7712
760.778	1403.6105
761.201	1371.53825
761.623	1400.56593
762.046	1332.41411
762.468	1336.45676
762.89	1297.48982
763.312	1246.38769
763.734	1194.27467
764.156	1144.27473
764.578	1164.11498
765	1199.31995
765.421	1056.21198
765.843	1083.34653
766.264	1164.24514
766.686	1017.12412
767.107	989.99256
767.528	927.9836
767.949	966.06848
768.37	968.98899
768.791	1001.00692
769.212	871.87495
769.632	829.65309
770.053	902.03789
770.473	835.74822
770.894	861.85421
771.314	856.74922
771.734	790.5909
772.154	819.82993
772.575	757.52751
772.994	705.40552
773.414	780.62974
773.834	690.53556
774.254	664.45139
774.673	657.43094
775.093	678.4945
775.512	603.34316
775.931	638.45662
776.351	601.35085
776.77	574.27506
777.189	565.22149
777.607	572.33301
778.026	561.27525
778.445	510.17576
778.864	530.25147
779.282	535.17773
779.701	527.22152
780.119	439.03689
780.537	489.12884
780.955	489.15342
781.373	465.06866
781.791	449.93656
782.209	504.0664
782.627	415.02867
783.045	454.96988
783.462	432.03351
783.88	392.95911
784.297	388.92283
784.715	374.91067
785.132	346.79728
785.549	345.82232
785.966	373.88938
786.383	337.79061
786.8	387.84699
787.217	322.72926
787.633	309.73935
788.05	392.878
788.466	358.80121
788.883	339.8247
789.299	287.66518
789.715	314.73077
790.131	285.68272
790.547	318.76045
790.963	253.60862
791.379	263.6432
791.795	291.63771
792.21	291.65356
792.626	285.65059
793.041	270.64346
793.457	277.66027
793.872	253.57569
794.287	208.48448
794.702	293.69412
795.117	245.59027
795.532	252.61161
795.947	278.64496
796.362	290.66587
796.776	299.67208
797.191	265.62658
797.605	191.43884
798.02	194.46218
798.434	257.55275
798.848	155.37642
799.262	181.44054
799.676	254.6
800.09	206.4951
800.504	204.48377
800.918	163.37181
801.331	209.53551
801.745	198.44462
802.158	168.4131
802.572	171.40794
802.985	209.49323
803.398	179.41899
803.811	191.48132
804.224	178.4351
804.637	132.31134
805.05	177.40276
805.462	198.47587
805.875	113.29076
806.288	104.24958
806.7	144.35749
807.112	142.32541
807.525	166.40305
807.937	136.33244
808.349	144.35631
808.761	131.31909
809.173	146.3493
809.584	151.36822
809.996	96.23415
810.408	123.31451
810.819	113.26399
811.231	71.18339
811.642	52.12451
812.053	147.34477
812.464	134.31508
812.875	146.36826
813.286	163.41282
813.697	134.31016
814.108	132.31918
814.519	157.34451
814.929	165.41402
815.34	115.27687
815.75	109.27508
816.16	93.23101
816.571	98.25335
816.981	148.34474
817.391	120.28732
817.801	73.18126
818.211	130.30674
818.62	170.40174
819.03	128.31056
819.44	153.39396
819.849	132.32901
820.259	112.28462
820.668	119.29008
821.077	92.22756
821.486	128.30519
821.895	86.21202
822.304	100.26352
822.713	112.26284
823.122	112.27744
823.531	111.26125
823.939	91.22092
824.348	145.34777
824.756	115.28576
825.164	141.35036
825.573	86.21514
825.981	115.28294
826.389	98.24498
826.797	91.22703
827.205	50.11527
827.612	109.26709
828.02	87.20365
828.428	100.25323
828.835	101.26422
829.243	118.27875
829.65	70.17397
830.057	118.28382
830.464	86.20889
830.871	66.15821
831.278	72.17397
831.685	88.19583
832.092	92.22431
832.499	101.21967
832.905	106.26651
833.312	119.26892
833.718	112.27683
834.124	116.26273
834.531	109.27272
834.937	76.19471
835.343	110.26338
835.749	99.23001
836.155	89.23203
836.561	98.23965
836.966	110.26689
837.372	111.28023
837.777	58.14467
838.183	129.28343
838.588	112.27571
838.993	111.26805
839.399	102.24766
839.804	63.15357
840.209	34.08698
840.613	61.13594
841.018	127.31799
841.423	84.21468
841.828	76.19177
842.232	124.3039
842.637	109.25505
843.041	83.21193
843.445	69.17289
843.849	81.19988
844.253	77.18264
844.657	74.18592
845.061	68.15427
845.465	93.2234
845.869	86.19906
846.272	66.16062
846.676	97.23318
847.079	54.13747
847.483	140.34438
847.886	107.25829
848.289	74.19697
848.692	80.20193
849.095	68.16319
849.498	163.40576
849.901	87.19869
850.304	92.21868
850.707	79.2008
851.109	113.28334
851.512	38.09379
851.914	44.11118
852.316	79.19916
852.718	50.12926
853.121	96.23371
853.523	85.1978
853.925	38.09946
854.326	59.14752
854.728	39.10063
855.13	43.11119
855.531	71.16932
855.933	98.23366
856.334	72.17907
856.736	96.21354
857.137	58.13494
857.538	55.13836
857.939	46.11391
858.34	105.25375
858.741	76.19804
859.142	92.21969
859.542	64.16865
859.943	94.23209
860.343	54.13382
860.744	93.22552
861.144	51.1246
861.544	36.08689
861.945	67.17048
862.345	92.22364
862.745	75.18582
863.145	116.27435
863.544	96.24093
863.944	90.21137
864.344	81.20039
864.743	85.2099
865.143	56.14387
865.542	45.10468
865.941	80.19723
866.34	107.25399
866.74	98.2612
867.139	38.09133
867.537	83.21052
867.936	117.27848
868.335	110.27726
868.734	75.19103
869.132	68.15771
869.531	114.27285
869.929	57.12997
870.327	69.16505
870.726	131.3223
871.124	84.19536
871.522	67.17036
871.92	114.27825
872.318	110.26629
872.715	104.25526
873.113	33.08077
873.511	46.11482
873.908	44.1113
874.306	57.14174
874.703	94.23362
875.1	80.20381
875.497	101.24012
875.894	48.11777
876.291	66.1617
876.688	74.19025
877.085	85.20286
877.482	52.13027
877.878	72.17279
878.275	67.16987
878.671	83.18389
879.068	94.22533
879.464	97.23265
879.86	54.12776
880.256	103.25201
880.652	72.18258
881.048	92.22648
881.444	99.23374
881.84	76.19245
882.236	96.23963
882.631	70.17137
883.027	109.26133
883.422	93.23621
883.817	63.15809
884.213	95.24206
884.608	48.11786
885.003	19.04613
885.398	6.01515
885.793	80.19991
886.188	-2.00502
886.582	100.25449
886.977	137.32006
887.371	74.18652
887.766	32.07991
888.16	143.35118
888.554	98.24045
888.949	112.27835
889.343	110.26599
889.737	-2.00538
890.131	66.16523
890.525	53.13557
890.918	55.13841
891.312	109.25814
891.706	52.13648
892.099	73.18515
892.492	129.27399
892.886	72.17561
893.279	90.22782
893.672	50.12738
894.065	45.11288
894.458	65.16316
894.851	101.24537
895.244	30.07694
895.637	65.15626
896.029	67.16345
896.422	89.21606
896.814	49.12194
897.206	37.08841
897.599	94.23081
897.991	105.25145
898.383	89.2089
898.775	83.18627
899.167	3.00707
899.559	60.15172
899.951	77.18074
900.342	111.27943
900.734	18.04495
901.125	85.22183
901.517	64.1568
901.908	128.30261
902.299	54.132
902.69	79.1855
903.082	81.19516
903.473	-12.02909
903.863	97.24559
904.254	62.14368
904.645	101.24905
905.036	51.12353
905.426	64.14625
905.817	55.13492
906.207	26.06228
906.597	36.08448
906.987	31.08066
907.378	94.236
907.768	81.21313
908.158	95.22985
908.547	3.00782
908.937	100.25449
909.327	83.20044
909.717	99.24931
910.106	46.11064
910.495	82.20365
910.885	68.17177
911.274	88.21855
911.663	128.32055
912.052	109.2662
912.441	84.21241
912.83	72.16467
913.219	110.28506
913.608	56.1371
913.997	37.09301
914.385	103.24374
914.774	108.26026
915.162	68.16157
915.55	119.28433
915.939	79.19845
916.327	89.22067
916.715	38.09708
917.103	97.2368
917.491	88.21631
917.878	73.17881
918.266	78.20137
918.654	107.27071
919.041	65.16929
919.429	42.09933
919.816	73.18436
920.203	81.19538
920.591	115.2819
920.978	71.17327
921.365	67.17534
921.752	73.17335
922.139	95.20442
922.525	65.15572
922.912	78.18932
923.299	69.17096
923.685	78.20256
924.072	114.25967
924.458	54.13372
924.844	82.20179
925.231	112.25759
925.617	32.08167
926.003	89.22597
926.389	41.10362
926.774	56.14181
927.16	111.2727
927.546	51.13018
927.931	95.2352
928.317	85.19452
928.702	92.21599
929.088	35.08305
929.473	43.10957
929.858	2.00488
930.243	80.19096
930.628	61.14814
931.013	90.22147
931.398	98.22332
931.783	59.15514
932.167	62.15128
932.552	102.25322
932.937	149.3632
933.321	23.058
933.705	48.12107
934.09	92.23081
934.474	81.19131
934.858	52.13485
935.242	25.05825
935.626	66.1685
936.009	50.133
936.393	58.1474
936.777	31.07966
937.16	61.15844
937.544	56.13183
937.927	35.08906
938.311	88.21335
938.694	99.25969
939.077	71.16932
939.46	82.20022
939.843	137.28044
940.226	60.15366
940.609	92.20948
940.991	70.17758
941.374	18.04426
941.757	95.23253
942.139	94.20926
942.522	73.17182
942.904	69.16531
943.286	87.21964
943.668	87.22394
944.05	89.21768
944.432	91.2229
944.814	91.22249
945.196	33.08068
945.578	73.17275
945.959	69.16114
946.341	123.29792
946.722	60.14059
947.104	92.21818
947.485	95.21915
947.866	63.15837
948.247	82.20572
948.628	102.24646
949.009	54.1382
949.39	83.20542
949.771	113.25963
950.152	65.1591
950.532	41.10103
950.913	89.21314
951.293	73.19647
951.674	85.20426
952.054	60.14841
952.434	93.22907
952.814	78.18462
953.194	86.22371
953.574	136.32972
953.954	75.17728
954.334	81.20076
954.714	71.17236
955.093	108.26272
955.473	73.18179
955.853	53.13714
956.232	47.12888
956.611	65.15548
956.99	79.19752
957.37	85.21528
957.749	79.18746
958.128	76.1906
958.506	66.17074
958.885	44.11118
959.264	49.12011
959.643	74.16761
960.021	64.15819
960.4	111.24849
960.778	124.30131
961.156	38.09547
961.535	122.28037
961.913	104.24082
962.291	40.1028
962.669	31.07879
963.047	77.19557
963.424	49.12507
963.802	41.10099
964.18	120.29986
964.557	102.23253
964.935	111.25993
965.312	79.20469
965.69	86.21397
966.067	88.21279
966.444	80.19607
966.821	80.20517
967.198	141.33625
967.575	89.21727
967.952	128.29709
968.329	53.12891
968.705	120.25349
969.082	66.16879
969.458	29.06985
969.835	81.19605
970.211	71.18155
970.587	92.22731
970.963	68.17391
971.339	76.19757
971.715	69.17171
972.091	76.18626
972.467	95.23503
972.843	90.22172
973.219	133.31437
973.594	37.09699
973.97	104.24502
974.345	74.1763
974.721	95.22811
975.096	59.14253
975.471	86.20261
975.846	83.19816
976.221	70.17713
976.596	39.09368
976.971	76.18675
977.346	75.17377
977.72	82.20772
978.095	55.14202
978.469	104.24568
978.844	108.26871
979.218	43.10321
979.593	119.28139
979.967	84.20335
980.341	108.24581
980.715	84.21036
981.089	70.17461
981.463	94.21394
981.837	26.06382
982.21	126.28886
982.584	78.1874
982.957	56.13969
983.331	66.15555
983.704	64.15685
984.078	53.13055
984.451	130.32002
984.824	44.10728
985.197	117.28062
985.57	95.23632
985.943	123.29972
986.316	152.36643
986.688	82.19656
987.061	102.23666
987.434	63.1638
987.806	100.24026
988.179	65.15293
988.551	100.25142
988.923	88.21519
989.295	105.25977
989.667	40.09574
990.039	43.10638
990.411	56.12875
990.783	100.22797
991.155	43.10345
991.527	94.22961
991.898	70.17378
992.27	47.11632
992.641	103.25594
993.012	118.27399
993.384	66.15694
993.755	86.21785
994.126	47.11311
994.497	62.15184
994.868	71.16241
995.239	72.17377
995.61	57.14324
995.98	55.13347
996.351	41.10169
996.722	54.12514
997.092	48.1137
997.462	42.09826
997.833	81.19087
998.203	83.19998
998.573	61.15158
998.943	53.12421
999.313	59.14113
999.683	52.12474
1000.053	85.1942
1000.423	85.20519
1000.792	70.18078
1001.162	51.12548
1001.531	85.20821
1001.901	102.25184
1002.27	127.27938
1002.639	52.1328
1003.009	63.14943
1003.378	44.11261
1003.747	94.22016
1004.116	16.03853
1004.485	68.16195
1004.853	82.20654
1005.222	71.17835
1005.591	83.19581
1005.959	47.10596
1006.328	112.24882
1006.696	78.18712
1007.064	51.12825
1007.433	87.21595
1007.801	115.27886
1008.169	43.10871
1008.537	84.18467
1008.905	24.05619
1009.273	86.21101
1009.64	95.22464
1010.008	120.28216
1010.375	115.27582
1010.743	162.36572
1011.11	51.12064
1011.478	31.07698
1011.845	106.24652
1012.212	61.13774
1012.579	66.16152
1012.946	85.20092
1013.313	79.18695
1013.68	106.23549
1014.047	54.12856
1014.414	45.10637
1014.78	70.17327
1015.147	94.22541
1015.513	82.19634
1015.88	109.27577
1016.246	107.26131
1016.612	103.23324
1016.978	81.1973
1017.344	84.20625
1017.71	128.30753
1018.076	76.17828
1018.442	81.20719
1018.808	98.24276
1019.174	63.15763
1019.539	98.22341
1019.905	56.13188
1020.27	86.21077
1020.636	124.29304
1021.001	93.22076
1021.366	61.14614
1021.731	65.16667
1022.096	43.10856
1022.461	89.20898
1022.826	91.21451
1023.191	92.23957
1023.556	102.23656
1023.92	119.28878
1024.285	85.20604
1024.649	54.1322
1025.014	102.25017
1025.378	41.10321
1025.742	66.16337
1026.107	93.20845
1026.471	107.24693
1026.835	71.17527
1027.199	43.10361
1027.562	78.18026
1027.926	110.26589
1028.29	46.11644
1028.654	105.23883
1029.017	125.30288
1029.381	70.16652
1029.744	67.1703
1030.107	100.23422
1030.471	74.1763
1030.834	89.2008
1031.197	131.3106
1031.56	87.20373
1031.923	79.20314
1032.286	99.23019
1032.648	116.27382
1033.011	36.08283
1033.374	71.16613
1033.736	25.06598
1034.099	58.14109
1034.461	-14.03575
1034.823	39.09726
1035.185	70.17549
1035.548	57.13848
1035.91	41.09834
1036.272	47.10699
1036.634	96.23275
1036.995	61.14301
1037.357	62.15043
1037.719	82.19813
1038.08	117.27409
1038.442	66.1561
1038.803	53.12712
1039.165	24.06082
1039.526	81.1945
1039.887	60.14322
1040.248	23.05692
1040.609	131.31873
1040.97	46.11245
1041.331	63.15905
1041.692	48.11203
1042.053	111.24952
1042.413	85.19663
1042.774	101.24317
1043.134	103.24261
1043.495	94.2343
1043.855	64.15476
1044.215	33.08212
1044.576	44.10527
1044.936	94.21351
1045.296	114.28105
1045.656	97.23583
1046.016	115.27403
1046.375	65.15715
1046.735	72.16241
1047.095	80.18605
1047.454	72.15176
1047.814	107.25429
1048.173	116.2735
1048.533	60.13711
1048.892	7.01693
1049.251	102.2535
1049.61	52.12792
1049.969	43.10144
1050.328	118.252
1050.687	79.19106
1051.046	66.16013
1051.405	78.19294
1051.763	63.1444
1052.122	42.10484
1052.48	45.11039
1052.839	89.20768
1053.197	31.07319
1053.555	100.22557
1053.914	77.18728
1054.272	88.2111
1054.63	52.12702
1054.988	63.1492
1055.345	68.14579
1055.703	117.27784
1056.061	63.1616
1056.419	53.13704
1056.776	100.24007
1057.134	52.12027
1057.491	75.18684
1057.848	65.16128
1058.206	47.11054
1058.563	90.19662
1058.92	121.27478
1059.277	128.31103
1059.634	141.32565
1059.991	96.22784
1060.348	42.09501
1060.704	44.10491
1061.061	109.25014
1061.418	67.16186
1061.774	92.22523
1062.131	51.13473
1062.487	59.13762
1062.843	87.21532
1063.199	81.20017
1063.555	66.15234
1063.911	83.20827
1064.267	133.27213
1064.623	50.12136
1064.979	128.2985
1065.335	99.23428
1065.691	70.16703
1066.046	52.11423
1066.402	74.1672
1066.757	102.25488
1067.112	50.12263
1067.468	57.13431
1067.823	81.19346
1068.178	94.22533
1068.533	105.25174
1068.888	102.24114
1069.243	44.10864
1069.598	50.12141
1069.952	-7.01594
1070.307	22.0547
1070.662	94.22111
1071.016	49.10974
1071.371	48.10916
1071.725	85.20185
1072.079	98.23339
1072.434	87.20978
1072.788	100.23568
1073.142	132.31954
1073.496	71.16763
1073.85	108.2474
1074.203	78.18811
1074.557	85.22456
1074.911	123.28927
1075.265	68.1574
1075.618	100.24172
1075.971	104.24463
1076.325	56.14206
1076.678	50.11426
1077.031	57.12871
1077.385	80.17499
1077.738	89.19916
1078.091	32.07298
1078.444	82.18905
1078.796	63.15409
1079.149	85.2099
1079.502	34.08051
1079.855	101.23299
1080.207	72.17653
1080.56	40.10348
1080.912	106.25515
1081.264	69.16543
1081.617	104.25072
1081.969	27.06834
1082.321	95.22985
1082.673	42.09594
1083.025	94.22094
1083.377	91.19345
1083.728	51.11887
1084.08	78.19357
1084.432	60.14432
1084.783	111.25677
1085.135	65.16234
1085.486	30.06886
1085.838	44.1084
1086.189	57.13806
1086.54	103.24327
1086.891	80.20107
1087.242	51.12404
1087.593	73.17682
1087.944	94.21065
1088.295	110.24681
1088.646	60.14503
1088.996	42.10125
1089.347	65.15892
1089.698	44.10402
1090.048	71.18358
1090.398	83.19109
1090.749	59.14081
1091.099	66.16534
1091.449	48.11951
1091.799	77.19168
1092.149	20.049
1092.499	67.16277
1092.849	49.12446
1093.199	92.22865
1093.548	33.07948
1093.898	53.13242
1094.248	91.23195
1094.597	8.02055
1094.947	57.15175
1095.296	82.20112
1095.645	112.28794
1095.994	103.24469
1096.343	62.15555
1096.692	36.09471
1097.041	28.07601
1097.39	64.15999
1097.739	73.18882
1098.088	104.2759
1098.437	33.08686
1098.785	87.23292
1099.134	100.26307
1099.482	76.20797
1099.83	75.19607
1100.179	65.16894
1100.527	71.18782
1100.875	29.07687
1101.223	64.16939
1101.571	34.09411
1101.919	9.02366
1102.267	46.12947
1102.615	4.01286
1102.962	21.06753
1103.31	8.0257
1103.658	29.09321
