Data from N2 R11 sample 7_Subt2__5__16-02-00-537.txt Node

Date: Mon Sep 01 16:02:00 PDT 2025
User: uwsun
Spectrometer: HDX01956
Trigger mode: 0
Integration Time (sec): 5.000000E-1
Scans to average: 1
Nonlinearity correction enabled: true
Boxcar width: 0
Storing dark spectrum: false
XAxis mode: Wavelengths
Number of Pixels in Spectrum: 2068
>>>>>Begin Spectral Data<<<<<
194.03	-68.19285
194.578	-58.18471
195.127	-69.21689
195.676	-67.21117
196.225	4.0106
196.773	-47.12983
197.321	-48.12984
197.87	-50.12485
198.418	-112.27926
198.966	-136.34254
199.513	-146.35157
200.061	-122.29722
200.609	-47.11929
201.156	-118.24828
201.704	-139.33782
202.251	-116.29541
202.798	-115.28742
203.345	-62.14692
203.892	-96.23196
204.438	-85.19538
204.985	-153.34942
205.532	-127.32165
206.078	-89.20956
206.624	-134.31716
207.17	-86.19185
207.716	-135.31601
208.262	-103.19699
208.808	-151.35747
209.354	-120.28062
209.899	-50.121
210.445	-160.38411
210.99	-156.36351
211.535	-107.24289
212.08	-71.15823
212.625	-104.25072
213.17	-109.2663
213.715	-134.28629
214.259	-95.21329
214.804	-84.19967
215.348	-107.23667
215.892	-88.20288
216.436	-83.18558
216.98	-62.13195
217.524	-128.29286
218.068	-70.16901
218.612	-90.21836
219.155	-51.1146
219.698	-99.22765
220.242	-77.18517
220.785	-85.1917
221.328	-64.15312
221.871	-55.13412
222.414	-36.08587
222.956	-113.26264
223.499	-82.17815
224.041	-90.20368
224.583	-50.10446
225.126	-83.17691
225.668	-66.15386
226.21	-136.33207
226.751	-132.28055
227.293	-93.20614
227.835	-106.24992
228.376	-22.04863
228.918	-42.10164
229.459	-150.3627
230	-140.32456
230.541	-69.15319
231.082	-76.17696
231.622	-59.13072
232.163	-82.1907
232.704	-85.20224
233.244	-110.26338
233.784	-38.08921
234.324	-142.30193
234.864	-99.21678
235.404	-62.14168
235.944	-91.20841
236.484	-74.17759
237.023	-51.11488
237.563	-115.2566
238.102	-92.20931
238.641	-64.15476
239.18	-107.24023
239.719	-71.17062
240.258	-87.18849
240.797	-87.19933
241.335	-94.22154
241.874	-130.24327
242.412	-103.23779
242.95	-114.26125
243.488	-93.20416
244.026	-118.26193
244.564	-79.15622
245.102	-114.24652
245.64	-36.0826
246.177	-115.24894
246.715	-56.12833
247.252	-62.13614
247.789	-16.02876
248.326	-136.31354
248.863	-102.21443
249.4	-76.16519
249.936	-95.18768
250.473	-80.17765
251.009	-108.23674
251.546	-112.23711
252.082	-75.1568
252.618	-69.14592
253.154	-104.23843
253.69	-77.16519
254.226	-97.22091
254.761	-46.09768
255.297	-119.24989
255.832	-125.28352
256.367	-98.22034
256.903	-119.25055
257.438	-82.18361
257.972	-113.24116
258.507	-138.30237
259.042	-80.16521
259.576	-117.23961
260.111	-93.20519
260.645	-54.11067
261.179	-120.26703
261.713	-112.23763
262.247	-82.17959
262.781	-98.19511
263.315	-105.24386
263.849	-118.28059
264.382	-80.17462
264.915	-94.20805
265.449	-189.44014
265.982	-94.20344
266.515	-96.2215
267.048	-164.33412
267.58	-114.2387
268.113	-94.19194
268.646	-113.26409
269.178	-162.34626
269.71	-99.20532
270.243	-91.19691
270.775	-124.29916
271.307	-81.18454
271.838	-49.1097
272.37	-85.19686
272.902	-93.2002
273.433	-123.25555
273.965	-90.20633
274.496	-93.21863
275.027	-143.33696
275.558	-153.35308
276.089	-203.47554
276.62	-89.21363
277.15	-89.20711
277.681	-104.2141
278.211	-131.3052
278.741	-115.23818
279.272	-167.36274
279.802	-133.31449
280.332	-150.33476
280.861	-96.21682
281.391	-117.24937
281.921	-128.29192
282.45	-124.2927
282.98	-107.2619
283.509	-116.24525
284.038	-144.31005
284.567	-113.2489
285.096	-118.26781
285.625	-132.28165
286.153	-149.32861
286.682	-129.2765
287.21	-139.31374
287.739	-177.39558
288.267	-147.33342
288.795	-134.33108
289.323	-169.37053
289.851	-146.32111
290.378	-158.33361
290.906	-174.39409
291.433	-119.27604
291.961	-162.34326
292.488	-118.27291
293.015	-198.43785
293.542	-145.34061
294.069	-163.37331
294.596	-132.30432
295.122	-125.27614
295.649	-139.28557
296.175	-166.37674
296.702	-136.30665
297.228	-157.35639
297.754	-135.28036
298.28	-133.27818
298.806	-175.39063
299.332	-164.33503
299.857	-189.39688
300.383	-147.34504
300.908	-196.43904
301.433	-164.36661
301.958	-162.34761
302.483	-219.50699
303.008	-128.2905
303.533	-139.33313
304.058	-150.32617
304.582	-173.37417
305.107	-206.49472
305.631	-124.25872
306.155	-188.40113
306.679	-210.4508
307.203	-215.45944
307.727	-161.34822
308.251	-162.36498
308.775	-258.56314
309.298	-221.48269
309.822	-202.46643
310.345	-161.34509
310.868	-188.40757
311.391	-187.41914
311.914	-231.52733
312.437	-175.36229
312.96	-228.48796
313.482	-261.56522
314.005	-222.50485
314.527	-232.55079
315.049	-200.45703
315.571	-249.49701
316.093	-220.48935
316.615	-221.47656
317.137	-197.38097
317.659	-186.40341
318.18	-204.43999
318.702	-185.37921
319.223	-254.46568
319.744	-216.42663
320.265	-281.60515
320.786	-267.58241
321.307	-273.6018
321.828	-227.44951
322.348	-222.45475
322.869	-258.52921
323.389	-406.60235
323.909	-268.53804
324.43	-206.4321
324.95	-291.57868
325.47	-300.6387
325.989	-287.5819
326.509	-348.66091
327.029	-280.53435
327.548	-365.70588
328.067	-321.65768
328.587	-293.62204
329.106	-335.64723
329.625	-277.62442
330.144	-351.68466
330.662	-339.65716
331.181	-360.70972
331.7	-311.60403
332.218	-319.56762
332.736	-317.61128
333.255	-381.73541
333.773	-369.72079
334.291	-328.67583
334.808	-389.70693
335.326	-383.70346
335.844	-407.75997
336.361	-439.90147
336.879	-388.71713
337.396	-442.85541
337.913	-380.68443
338.43	-435.77168
338.947	-453.85468
339.464	-459.76361
339.981	-482.89626
340.497	-472.92091
341.014	-489.93258
341.53	-505.87869
342.046	-465.87604
342.562	-423.80826
343.078	-484.86868
343.594	-499.91104
344.11	-461.82462
344.626	-470.89133
345.141	-502.85063
345.657	-409.67739
346.172	-513.92193
346.687	-538.91167
347.202	-493.79675
347.717	-582.03081
348.232	-494.90077
348.747	-566.9441
349.261	-562.85442
349.776	-581.98592
350.29	-585.02564
350.805	-506.89325
351.319	-594.98649
351.833	-625.98923
352.347	-581.95345
352.861	-656.07502
353.374	-554.88304
353.888	-628.06635
354.401	-592.9275
354.915	-660.9941
355.428	-676.16418
355.941	-670.05349
356.454	-548.81327
356.967	-601.95119
357.48	-613.93679
357.993	-621.0246
358.505	-695.1407
359.018	-623.0012
359.53	-678.06673
360.042	-679.97473
360.554	-644.01366
361.066	-692.09322
361.578	-702.9673
362.09	-753.17317
362.602	-711.97372
363.113	-697.00701
363.625	-714.98643
364.136	-731.98688
364.647	-815.14397
365.158	-689.96011
365.669	-769.13565
366.18	-708.99837
366.691	-712.91105
367.201	-738.04565
367.712	-777.02135
368.222	-775.0146
368.733	-803.95669
369.243	-856.04804
369.753	-788.00706
370.263	-762.99679
370.773	-873.22112
371.282	-865.1057
371.792	-1001.17711
372.301	-1006.29041
372.811	-945.32073
373.32	-1035.01704
373.829	-1168.37126
374.338	-1053.03938
374.847	-1090.08874
375.356	-1201.25542
375.865	-1163.8791
376.373	-1241.04125
376.882	-1166.17077
377.39	-1198.04062
377.898	-1478.28055
378.407	-1420.90073
378.915	-1410.74706
379.423	-1499.90216
379.93	-1577.79107
380.438	-1740.88379
380.946	-1751.65633
381.453	-1922.67478
381.96	-2020.47395
382.468	-2180.18881
382.975	-2132.15495
383.482	-2140.84139
383.989	-2389.19184
384.495	-2410.69756
385.002	-2640.27492
385.509	-2802.33501
386.015	-2915.86642
386.521	-2959.87595
387.028	-3266.7414
387.534	-3309.62009
388.04	-3295.65078
388.546	-3700.52582
389.051	-3994.57372
389.557	-4311.69715
390.063	-4128.81782
390.568	-4356.12535
391.073	-4723.81565
391.578	-4872.05831
392.084	-5146.33459
392.589	-5709.38576
393.093	-6343.17145
393.598	-6670.09762
394.103	-7045.13432
394.607	-7674.50077
395.112	-8077.0901
395.616	-8612.68261
396.12	-9689.81219
396.624	-10910.22193
397.128	-11529.72967
397.632	-12594.02813
398.136	-13859.07109
398.639	-16158.31298
399.143	-18784.33948
399.646	-20538.49928
400.15	-22849.56873
400.653	-26288.79047
401.156	-30235.33813
401.659	-35699.17291
402.162	-34709.50158
402.664	-25477.08153
403.167	-10626.65589
403.67	-1613.30323
404.172	0
404.674	0
405.176	0
405.678	0
406.18	0
406.682	0
407.184	0
407.686	0
408.187	0
408.688	0
409.19	-1567.51595
409.691	-14328.78002
410.192	-21615.7006
410.693	-26630.3937
411.194	-29576.50292
411.694	-27498.85393
412.195	-24942.43805
412.696	-24064.67149
413.196	-25467.69531
413.696	-26189.4332
414.196	-24622.43292
414.696	-21778.08133
415.196	-18410.84717
415.696	-12627.43591
416.196	-9809.88339
416.695	-10230.64124
417.195	-10945.09129
417.694	-10251.80475
418.194	-9344.08225
418.693	-9303.22103
419.192	-9106.12996
419.691	-8947.78384
420.19	-8435.1362
420.688	-7973.78304
421.187	-7275.35721
421.685	-6443.36466
422.184	-5519.80881
422.682	-4870.55525
423.18	-4790.68316
423.678	-4465.25412
424.176	-4199.10435
424.674	-3993.38238
425.172	-3487.83871
425.669	-3173.62278
426.167	-2815.67835
426.664	-2753.75093
427.161	-2533.9322
427.659	-2367.25184
428.156	-2354.19296
428.652	-2278.78992
429.149	-2096.7676
429.646	-2052.78597
430.143	-1825.08494
430.639	-1823.23034
431.135	-1808.55102
431.632	-1615.38962
432.128	-1586.64728
432.624	-1599.90331
433.12	-1663.67946
433.616	-1583.65087
434.111	-1578.84716
434.607	-1531.9837
435.103	-1373.73384
435.598	-1246.65024
436.093	-1232.98302
436.588	-1151.91455
437.083	-1118.96832
437.578	-1119.0739
438.073	-1171.29702
438.568	-1022.18221
439.062	-985.91143
439.557	-986.15377
440.051	-975.07338
440.546	-975.09757
441.04	-1029.31609
441.534	-964.35302
442.028	-930.23484
442.522	-925.22775
443.015	-944.13117
443.509	-878.23403
444.002	-894.26701
444.496	-850.0325
444.989	-894.30304
445.482	-922.39048
445.975	-936.23872
446.468	-868.07041
446.961	-847.04545
447.454	-836.12783
447.947	-888.27992
448.439	-824.24655
448.931	-852.16012
449.424	-814.31328
449.916	-829.2815
450.408	-827.1513
450.9	-814.24975
451.392	-879.46377
451.884	-795.17635
452.375	-907.50144
452.867	-723.05641
453.358	-792.15445
453.849	-736.99071
454.341	-772.13697
454.832	-750.04196
455.323	-810.33781
455.814	-697.05913
456.304	-747.16311
456.795	-713.09578
457.285	-687.04326
457.776	-691.09572
458.266	-786.31025
458.756	-675.12999
459.247	-749.24943
459.737	-712.18331
460.226	-740.17132
460.716	-709.20718
461.206	-704.22027
461.695	-700.29057
462.185	-649.10418
462.674	-661.11073
463.163	-619.99044
463.653	-652.99501
464.142	-695.2503
464.63	-617.1256
465.119	-656.12905
465.608	-616.0527
466.096	-595.97155
466.585	-552.96077
467.073	-567.03524
467.561	-540.98967
468.05	-494.8675
468.538	-551.04817
469.026	-573.06842
469.513	-538.86733
470.001	-524.91539
470.489	-513.93898
470.976	-537.97648
471.463	-536.0649
471.951	-483.96408
472.438	-518.96848
472.925	-530.98945
473.412	-475.94635
473.899	-484.90042
474.385	-462.92237
474.872	-505.96029
475.359	-480.95964
475.845	-505.85919
476.331	-365.64141
476.817	-424.85476
477.303	-405.77273
477.789	-423.84706
478.275	-461.95988
478.761	-429.8702
479.247	-396.74438
479.732	-497.05409
480.218	-452.0045
480.703	-381.80002
481.188	-419.76417
481.673	-415.81181
482.158	-478.87026
482.643	-361.79076
483.128	-381.73965
483.612	-380.76465
484.097	-362.76901
484.581	-360.72674
485.066	-375.79055
485.55	-389.74076
486.034	-411.77962
486.518	-413.85
487.002	-430.92817
487.486	-388.83393
487.969	-352.75201
488.453	-368.82494
488.936	-374.74668
489.42	-357.70232
489.903	-299.66574
490.386	-792.31956
490.869	-269.51597
491.352	-308.67539
491.835	-247.44885
492.318	-324.65136
492.8	-311.57465
493.283	-317.71925
493.765	-351.77858
494.247	-290.61151
494.73	-294.58287
495.212	-255.55411
495.694	-259.53714
496.175	-367.78728
496.657	-250.5318
497.139	-226.35472
497.62	-350.75227
498.102	-282.62958
498.583	-301.68683
499.064	-244.48533
499.545	-255.52459
500.026	-255.51442
500.507	-216.44947
500.988	-249.55993
501.469	-247.5568
501.949	-203.452
502.43	-207.43832
502.91	-182.33434
503.39	-150.336
503.87	-137.28413
504.35	-78.16238
504.83	-83.15874
505.31	-80.16988
505.79	-67.13989
506.269	11.02222
506.749	15.02933
507.228	34.06816
507.707	86.16077
508.187	189.37725
508.666	168.34367
509.145	281.5304
509.623	259.49607
510.102	367.71213
510.581	487.92065
511.059	529.02041
511.538	593.18301
512.016	667.18509
512.494	838.45778
512.972	884.48221
513.45	887.41091
513.928	1061.72552
514.406	1102.73606
514.884	1302.15333
515.361	1368.0122
515.839	1503.97022
516.316	1642.24044
516.793	1724.50158
517.27	1880.43759
517.747	1820.603
518.224	1975.29441
518.701	1972.14724
519.178	2039.56603
519.654	2110.47059
520.131	2022.57787
520.607	1970.58799
521.083	1987.25011
521.56	1936.36215
522.036	1930.1046
522.512	1848.51248
522.987	1722.25527
523.463	1710.27352
523.939	1650.3591
524.414	1660.16672
524.89	1422.07091
525.365	1369.89349
525.84	1278.92302
526.315	1188.88626
526.79	1149.69516
527.265	1096.6672
527.74	1012.71697
528.215	958.58311
528.689	894.38684
529.164	831.28912
529.638	798.53856
530.112	699.23373
530.587	645.02315
531.061	595.10788
531.534	585.10866
532.008	562.05383
532.482	563.00718
532.956	441.91007
533.429	441.86512
533.903	443.78628
534.376	444.78458
534.849	389.73644
535.322	305.60086
535.795	287.59042
536.268	294.5916
536.741	276.55947
537.213	280.54395
537.686	232.47953
538.158	175.33437
538.631	211.44112
539.103	191.36441
539.575	183.32679
540.047	200.37537
540.519	177.3661
540.991	222.46669
541.463	138.29138
541.934	135.26846
542.406	109.22697
542.877	112.2207
543.348	126.26651
543.82	144.30859
544.291	178.35967
544.762	102.2114
545.233	74.16351
545.703	42.08202
546.174	88.17961
546.645	45.09441
547.115	95.20002
547.585	87.17519
548.056	49.10335
548.526	90.18336
548.996	88.18483
549.466	130.2757
549.935	56.11523
550.405	121.22648
550.875	143.28901
551.344	155.31772
551.814	172.33526
552.283	236.42831
552.752	194.3776
553.221	193.34822
553.69	257.4694
554.159	234.47629
554.628	278.5048
555.096	348.71639
555.565	407.71899
556.033	502.93113
556.502	507.9716
556.97	568.97245
557.438	576.06632
557.906	628.15758
558.374	675.18321
558.842	787.4075
559.31	892.44038
559.777	849.51396
560.245	1094.78788
560.712	1136.80121
561.18	1275.8131
561.647	1324.89227
562.114	1407.00818
562.581	1584.41275
563.048	1718.29036
563.514	1750.51051
563.981	2000.40685
564.448	2141.37073
564.914	2330.58188
565.381	2595.51237
565.847	2811.64313
566.313	2958.5947
566.779	3159.38397
567.245	3298.54039
567.711	3615.56089
568.176	3862.05852
568.642	4095.62587
569.108	4358.36036
569.573	4707.92319
570.038	4983.11828
570.504	5274.27352
570.969	5565.84137
571.434	5815.93352
571.899	6328.2499
572.363	6548.01616
572.828	6926.09773
573.293	7226.19328
573.757	7618.43026
574.222	7970.67796
574.686	8073.8053
575.15	8504.49301
575.614	8763.89601
576.078	9033.43679
576.542	9362.21425
577.006	9591.85086
577.469	9704.02033
577.933	9926.90402
578.396	9983.919
578.86	9976.91831
579.323	10105.3188
579.786	10074.50293
580.249	9943.90574
580.712	10110.25609
581.175	9915.63457
581.637	9966.92737
582.1	9869.73465
582.563	9714.29228
583.025	9529.58272
583.487	9541.92479
583.95	9343.23951
584.412	9231.96761
584.874	9182.75937
585.336	9037.44753
585.797	8864.08785
586.259	8787.96642
586.721	8658.73157
587.182	8459.42523
587.643	8267.10054
588.105	8085.96161
588.566	8001.64285
589.027	7669.62683
589.488	7627.43976
589.949	7385.50828
590.41	7085.64841
590.87	7098.16869
591.331	6931.90693
591.791	6663.10247
592.252	6481.04666
592.712	6409.33614
593.172	6214.02143
593.632	6048.94983
594.092	5878.06168
594.552	5701.94256
595.011	5407.37598
595.471	5244.33922
595.931	5183.34422
596.39	4924.89401
596.849	4831.785
597.308	4643.51069
597.768	4503.53912
598.227	4515.18977
598.685	4362.00477
599.144	4181.17911
599.603	4077.3198
600.062	4036.64432
600.52	3855.05691
600.978	3718.4925
601.437	3731.29249
601.895	3655.90219
602.353	3527.20979
602.811	3403.24662
603.269	3349.67598
603.727	3293.68942
604.184	3150.3841
604.642	3142.85174
605.099	3106.56432
605.557	2980.85641
606.014	3011.1989
606.471	2785.95332
606.928	2757.20506
607.385	2746.79421
607.842	2713.52897
608.299	2626.6347
608.755	2578.77794
609.212	2553.39482
609.668	2425.35473
610.125	2569.80663
610.581	2546.77045
611.037	2496.58779
611.493	2323.70665
611.949	2258.73901
612.405	2249.02064
612.861	2288.69768
613.316	2198.70075
613.772	2157.53783
614.227	2157.64211
614.683	2150.2908
615.138	2032.5648
615.593	1981.52157
616.048	2050.5145
616.503	2003.78311
616.958	1854.75233
617.412	1903.56813
617.867	1776.24896
618.321	1785.07464
618.776	1731.2575
619.23	1707.43506
619.684	1696.31688
620.138	1721.43561
620.592	1586.47258
621.046	1606.3908
621.5	1540.44025
621.954	1456.1534
622.407	1405.07783
622.861	1414.33084
623.314	1446.18236
623.768	1322.12442
624.221	1322.71661
624.674	1262.03992
625.127	1264.08668
625.58	1256.02789
626.033	1212.90815
626.485	1141.0047
626.938	1146.00881
627.39	1129.9363
627.843	1064.84827
628.295	1037.81498
628.747	1110.97311
629.199	1071.82573
629.651	996.73071
630.103	1009.76768
630.555	919.50881
631.006	943.73571
631.458	962.77473
631.909	971.74633
632.361	875.63607
632.812	834.55581
633.263	870.49287
633.714	817.41479
634.165	868.70974
634.616	817.59371
635.067	883.57474
635.518	798.57537
635.968	827.33771
636.419	814.4458
636.869	778.54301
637.319	754.45499
637.769	630.20778
638.219	738.49083
638.669	632.30094
639.119	703.46513
639.569	670.38793
640.019	674.33647
640.468	651.24961
640.918	691.42989
641.367	645.2476
641.816	643.24135
642.265	701.38524
642.714	559.14193
643.163	568.15116
643.612	538.14443
644.061	517.97068
644.51	587.17265
644.958	568.09762
645.406	550.16796
645.855	564.22842
646.303	565.17196
646.751	509.03538
647.199	587.17536
647.647	510.05133
648.095	525.07479
648.543	558.01132
648.99	518.10994
649.438	581.21218
649.885	518.15526
650.333	567.96787
650.78	520.12909
651.227	488.07523
651.674	519.06152
652.121	521.14207
652.568	464.02653
653.015	484.11573
653.461	474.02468
653.908	563.17092
654.354	507.09638
654.801	417.90184
655.247	491.97913
655.693	495.17661
656.139	460.00919
656.585	514.11652
657.031	439.93967
657.477	453.89496
657.922	437.92609
658.368	484.09221
658.813	503.06544
659.259	476.04392
659.704	435.93554
660.149	462.98868
660.594	500.08099
661.039	467.97626
661.484	490.07197
661.929	486.03991
662.373	408.95918
662.818	452.0348
663.262	461.02094
663.707	423.9985
664.151	465.04734
664.595	421.94507
665.039	456.04982
665.483	431.01993
665.927	456.99481
666.371	392.84797
666.814	456.00796
667.258	417.91879
667.701	531.04243
668.145	458.05737
668.588	385.89013
669.031	383.84602
669.474	431.96871
669.917	511.03568
670.36	467.07241
670.803	455.02018
671.245	458.89444
671.688	464.05041
672.13	411.86263
672.573	427.0155
673.015	430.96626
673.457	422.85972
673.899	474.06438
674.341	467.04542
674.783	402.90669
675.225	431.99249
675.666	428.96177
676.108	415.84642
676.549	465.02382
676.991	446.91729
677.432	443.82065
677.873	427.92702
678.314	470.04199
678.755	480.08229
679.196	409.88152
679.637	483.09549
680.078	507.09498
680.518	490.05843
680.959	450.00584
681.399	446.03329
681.839	472.06812
682.28	437.0086
682.72	451.96369
683.16	474.09698
683.6	482.02021
684.039	461.89411
684.479	432.99539
684.919	451.96911
685.358	544.26918
685.798	465.13729
686.237	526.17216
686.676	527.12609
687.115	498.08262
687.554	438.97616
687.993	510.03954
688.432	476.01013
688.871	467.98663
689.309	505.11438
689.748	492.95265
690.186	524.1542
690.625	493.06969
691.063	491.09156
691.501	522.19103
691.939	454.05809
692.377	498.12523
692.815	466.03782
693.253	527.16834
693.69	521.05214
694.128	494.10846
694.565	526.15571
695.003	544.27017
695.44	544.17176
695.877	545.16512
696.314	577.12651
696.751	607.25305
697.188	572.19575
697.625	622.28952
698.061	549.20708
698.498	580.28094
698.934	566.24633
699.371	522.13104
699.807	636.3538
700.243	561.23453
700.679	584.20145
701.115	618.31657
701.551	604.2895
701.987	656.31891
702.422	637.36033
702.858	649.38779
703.294	639.29914
703.729	612.35788
704.164	657.41823
704.599	617.23724
705.035	661.31707
705.47	642.40444
705.904	647.35068
706.339	706.45673
706.774	616.30265
707.209	633.31089
707.643	710.51215
708.078	706.52704
708.512	642.44633
708.946	725.53711
709.38	683.44231
709.814	689.3984
710.248	700.51856
710.682	684.44852
711.116	675.43411
711.549	734.68266
711.983	679.39563
712.416	746.55107
712.85	722.59754
713.283	700.47018
713.716	745.65633
714.149	726.5302
714.582	768.49976
715.015	753.66513
715.448	760.68934
715.881	735.40843
716.313	735.51495
716.746	698.45696
717.178	697.48925
717.61	704.59322
718.043	774.69417
718.475	692.49418
718.907	741.66307
719.339	651.31696
719.77	682.43799
720.202	673.52703
720.634	645.41012
721.065	741.54442
721.497	699.52507
721.928	652.43774
722.359	623.35394
722.79	653.40056
723.221	660.49479
723.652	686.58888
724.083	607.23398
724.514	660.35378
724.945	600.27707
725.375	589.23759
725.806	640.443
726.236	637.47736
726.666	631.34518
727.096	571.28072
727.526	577.33967
727.956	587.20791
728.386	595.33297
728.816	598.37671
729.246	573.26941
729.675	519.17823
730.105	574.29088
730.534	539.15675
730.964	566.31229
731.393	573.30309
731.822	528.24578
732.251	532.24552
732.68	565.21628
733.109	495.13138
733.537	504.12538
733.966	479.10703
734.395	487.04183
734.823	542.11942
735.251	474.0622
735.68	549.26454
736.108	472.11433
736.536	507.10479
736.964	474.02162
737.392	471.09928
737.82	455.02018
738.247	444.99771
738.675	475.05681
739.102	422.99363
739.53	429.02651
739.957	424.02666
740.384	490.12375
740.811	426.01642
741.238	405.9345
741.665	402.88
742.092	412.92924
742.519	368.86686
742.945	397.90218
743.372	378.88972
743.798	400.97468
744.225	352.79913
744.651	399.94843
745.077	371.88088
745.503	397.9175
745.929	387.88053
746.355	445.03809
746.781	360.85131
747.207	296.66956
747.632	307.72025
748.058	367.87273
748.483	347.7633
748.908	341.81123
749.334	315.74449
749.759	343.77317
750.184	294.67586
750.609	354.83097
751.033	360.81198
751.458	374.79693
751.883	349.82706
752.307	294.66802
752.732	275.66504
753.156	307.73036
753.58	311.71136
754.005	315.76977
754.429	286.64984
754.853	256.61665
755.277	267.61343
755.7	307.73373
756.124	262.63134
756.548	255.58774
756.971	336.78596
757.394	270.67488
757.818	251.62864
758.241	236.58435
758.664	245.60275
759.087	237.51588
759.51	304.72919
759.933	239.56074
760.356	243.60729
760.778	223.53646
761.201	252.59689
761.623	292.68466
762.046	240.55615
762.468	299.69326
762.89	317.75241
763.312	247.58764
763.734	256.59909
764.156	191.46418
764.578	304.67364
765	261.61856
765.421	164.41129
765.843	237.60617
766.264	243.57257
766.686	273.66468
767.107	215.51034
767.528	148.36996
767.949	202.5042
768.37	171.41449
768.791	217.51429
769.212	155.385
769.632	174.40002
770.053	167.43403
770.473	175.42004
770.894	212.52032
771.314	245.57032
771.734	195.44677
772.154	174.4406
772.575	162.37184
772.994	183.4095
773.414	180.42636
773.834	168.41463
774.254	154.37322
774.673	172.41354
775.093	142.3484
775.512	124.3039
775.931	195.48541
776.351	163.3997
776.77	125.30391
777.189	172.40363
777.607	146.36918
778.026	147.3626
778.445	82.20543
778.864	164.41528
779.282	105.25232
779.701	134.33521
780.119	129.32358
780.537	111.27592
780.955	165.41432
781.373	114.28084
781.791	136.30339
782.209	159.36239
782.627	134.34989
783.045	108.24799
783.462	109.27734
783.88	94.24268
784.297	123.30741
784.715	77.19786
785.132	93.22509
785.549	137.33955
785.966	109.27302
786.383	105.25748
786.8	140.32237
787.217	110.25986
787.633	92.22923
788.05	155.3641
788.466	133.31145
788.883	80.20402
789.299	103.24742
789.715	143.34402
790.131	119.29408
790.547	95.23683
790.963	101.24996
791.379	119.29882
791.795	111.25248
792.21	93.21735
792.626	100.23678
793.041	95.23399
793.457	115.28263
793.872	89.20923
794.287	52.12484
794.702	75.18514
795.117	81.2012
795.532	60.15086
795.947	131.31276
796.362	119.28259
796.776	159.36766
797.191	84.20557
797.605	59.13914
798.02	87.21152
798.434	102.2267
798.848	77.18973
799.262	70.17391
799.676	124.30029
800.09	62.15308
800.504	102.24664
800.918	83.19238
801.331	99.25855
801.745	38.08813
802.158	107.26607
802.572	71.17262
802.985	96.23152
803.398	112.26561
803.811	114.29124
804.224	101.25042
804.637	82.19529
805.05	60.13976
805.462	93.22797
805.875	52.13522
806.288	51.12362
806.7	76.19101
807.112	83.19246
807.525	104.25545
807.937	82.20246
808.349	80.20027
808.761	92.22573
809.173	85.20573
809.584	104.25583
809.996	51.12543
810.408	39.10119
810.819	73.17188
811.231	15.03912
811.642	-5.0121
812.053	61.14547
812.464	113.26679
812.875	106.26928
813.286	96.24603
813.697	196.44807
814.108	99.24088
814.519	102.22641
814.929	106.2688
815.34	77.18672
815.75	79.20044
816.16	92.22856
816.571	49.12775
816.981	83.19581
817.391	92.22146
817.801	87.21547
818.211	82.19529
818.62	70.16863
819.03	78.19102
819.44	112.29045
819.849	56.14151
820.259	83.21201
820.668	57.14055
821.077	49.12216
821.486	99.23736
821.895	97.23866
822.304	72.19063
822.713	47.1117
823.122	102.25313
823.531	88.20805
823.939	74.18022
824.348	62.15105
824.756	80.20006
825.164	107.26752
825.573	38.09588
825.981	122.29978
826.389	77.19321
826.797	63.15797
827.205	21.04869
827.612	113.27669
828.02	37.08746
828.428	68.17317
828.835	92.24104
829.243	99.23473
829.65	67.16661
830.057	82.19858
830.464	75.18255
830.871	84.20067
831.278	60.1453
831.685	102.22632
832.092	113.27442
832.499	70.15325
832.905	59.14959
833.312	96.21797
833.718	107.26471
834.124	90.20492
834.531	50.12643
834.937	94.24006
835.343	83.19975
835.749	127.29343
836.155	53.13903
836.561	55.13557
836.966	95.23114
837.372	75.19056
837.777	71.17668
838.183	98.21672
838.588	53.13189
838.993	51.12455
839.399	29.07138
839.804	-13.03214
840.209	30.07681
840.613	92.20371
841.018	63.15956
841.423	69.17681
841.828	51.12926
842.232	125.30629
842.637	67.15806
843.041	58.14875
843.445	68.17042
843.849	55.13637
844.253	97.22919
844.657	61.15362
845.061	117.26279
845.465	74.1784
845.869	68.15796
846.272	59.14377
846.676	109.26143
847.079	57.14503
847.483	115.28419
847.886	127.30541
848.289	53.14157
848.692	85.21436
849.095	100.23852
849.498	137.34265
849.901	88.20094
850.304	82.19529
850.707	62.15806
851.109	95.23898
851.512	77.18868
851.914	26.06591
852.316	79.19916
852.718	56.14462
853.121	67.16399
853.523	58.13569
853.925	16.04204
854.326	39.09786
854.728	76.19484
855.13	58.14958
855.531	63.15047
855.933	110.26167
856.334	73.18153
856.736	39.08778
857.137	52.12113
857.538	72.18057
857.939	30.07451
858.34	120.28918
858.741	76.19804
859.142	85.20325
859.542	42.11109
859.943	67.16624
860.343	30.07467
860.744	99.23979
861.144	86.20874
861.544	1.00243
861.945	65.16545
862.345	72.17568
862.745	67.16624
863.145	156.36609
863.544	69.17401
863.944	61.14408
864.344	65.16128
864.743	92.2269
865.143	78.19962
865.542	87.20069
865.941	54.13377
866.34	116.27488
866.74	60.16093
867.139	53.12702
867.537	85.21551
867.936	72.17285
868.335	89.22517
868.734	98.2486
869.132	75.1737
869.531	83.19983
869.929	4.00922
870.327	56.13429
870.726	119.29343
871.124	100.23183
871.522	58.14771
871.92	91.22307
872.318	72.17554
872.715	138.33658
873.113	69.16776
873.511	60.14939
873.908	37.09371
874.306	60.14912
874.703	115.28471
875.1	134.33811
875.497	73.17449
875.894	20.04933
876.291	58.14231
876.688	60.15463
877.085	104.2473
877.482	85.21167
877.878	46.11094
878.275	45.11454
878.671	108.23804
879.068	80.19228
879.464	94.22558
879.86	5.01194
880.256	59.14554
880.652	47.11972
881.048	82.20223
881.444	90.21286
881.84	73.18496
882.236	86.21506
882.631	88.21471
883.027	107.25663
883.422	88.22371
883.817	29.07321
884.213	51.13096
884.608	26.0641
885.003	71.17068
885.398	82.20424
885.793	83.20729
886.188	32.07988
886.582	138.34883
886.977	71.16802
887.371	53.13409
887.766	32.07991
888.16	68.16931
888.554	114.27888
888.949	79.19752
889.343	71.17294
889.737	39.10417
890.131	47.11806
890.525	106.26861
890.918	78.19548
891.312	114.26972
891.706	43.11303
892.099	112.2821
892.492	101.21583
892.886	80.19483
893.279	62.15773
893.672	47.1198
894.065	93.23126
894.458	57.14329
894.851	153.36807
895.244	60.15307
895.637	81.19413
896.029	66.16104
896.422	60.14645
896.814	88.21743
897.206	63.14978
897.599	119.29084
897.991	86.2067
898.383	87.20429
898.775	92.20609
899.167	52.12132
899.559	86.21646
899.951	59.13897
900.342	87.21996
900.734	31.07723
901.125	124.32145
901.517	49.12038
901.908	103.24469
902.299	34.08342
902.69	103.24072
903.082	99.23772
903.473	61.14586
903.863	69.17557
904.254	42.09772
904.645	106.26114
905.036	28.06811
905.426	108.24461
905.817	69.16883
906.207	29.06942
906.597	51.11933
906.987	98.25204
907.378	73.18397
907.768	46.12175
908.158	55.13407
908.547	65.16755
908.937	94.23947
909.327	90.21705
909.717	123.30842
910.106	59.14156
910.495	84.20854
910.885	92.23139
911.274	72.17933
911.663	85.21452
912.052	99.24223
912.441	48.12216
912.83	58.13302
913.219	93.24172
913.608	74.18056
913.997	51.12788
914.385	86.20418
914.774	78.18904
915.162	96.22687
915.55	116.27732
915.939	41.10369
916.327	89.22067
916.715	60.15269
917.103	79.19351
917.491	107.26209
917.878	41.10103
918.266	84.21663
918.654	88.22339
919.041	73.18987
919.429	56.13209
919.816	88.22165
920.203	93.22382
920.591	76.18764
920.978	134.32316
921.365	55.14423
921.752	76.18037
922.139	89.19176
922.525	40.09629
922.912	81.19649
923.299	54.13416
923.685	70.18203
924.072	122.27745
924.458	78.1923
924.844	31.077
925.231	66.15319
925.617	41.10447
926.003	89.22597
926.389	52.13116
926.774	103.25864
927.16	90.22196
927.546	58.14786
927.931	75.18636
928.317	103.23485
928.702	101.2367
929.088	35.08305
929.473	66.16749
929.858	15.03651
930.243	52.12479
930.628	94.22687
931.013	63.1558
931.398	145.32728
931.783	76.19926
932.167	106.25651
932.552	66.16493
932.937	113.2773
933.321	61.15279
933.705	98.24498
934.09	106.26526
934.474	80.18899
934.858	111.28492
935.242	42.09752
935.626	85.21628
936.009	40.10658
936.393	111.27943
936.777	72.18368
937.16	39.10168
937.544	121.28124
937.927	31.07893
938.311	142.34077
938.694	94.24679
939.077	76.18107
939.46	122.29567
939.843	99.2044
940.226	50.12828
940.609	49.11254
940.991	50.12729
941.374	22.05406
941.757	70.17213
942.139	58.13008
942.522	88.20652
942.904	39.09397
943.286	64.16224
943.668	79.20363
944.05	82.20082
944.432	51.12585
944.814	68.16697
945.196	20.04902
945.578	35.08344
945.959	87.20245
946.341	135.32625
946.722	102.23703
947.104	118.27843
947.485	78.18054
947.866	51.12848
948.247	57.14365
948.628	111.26775
949.009	48.12297
949.39	94.23217
949.771	86.19866
950.152	45.11055
950.532	14.03467
950.913	54.13018
951.293	62.16716
951.674	88.21135
952.054	34.0845
952.434	50.12413
952.814	90.21253
953.194	104.2697
953.574	87.21287
953.954	62.14692
954.334	56.13943
954.714	56.13633
955.093	115.27939
955.473	29.0728
955.853	84.21618
956.232	62.16961
956.611	93.22127
956.99	79.19752
957.37	80.2028
957.749	61.14525
958.128	57.14344
958.506	57.14769
958.885	74.18599
959.264	34.08358
959.643	87.19653
960.021	35.08697
960.4	51.11558
960.778	121.29418
961.156	81.20193
961.535	95.2195
961.913	88.20442
962.291	54.13844
962.669	19.0484
963.047	66.16796
963.424	65.16545
963.802	66.16182
964.18	98.24586
964.557	103.23476
964.935	79.18615
965.312	46.11987
965.69	108.26763
966.067	87.21041
966.444	62.15246
966.821	74.18998
967.198	99.23799
967.575	60.14727
967.952	101.23568
968.329	47.11444
968.705	107.22667
969.082	40.10277
969.458	23.05546
969.835	76.18412
970.211	60.15372
970.587	65.1614
970.963	68.17391
971.339	52.13573
971.715	83.20602
972.091	60.14749
972.467	113.27864
972.843	48.11917
973.219	84.20043
973.594	62.16184
973.97	98.23115
974.345	89.21143
974.721	30.07293
975.096	94.22558
975.471	85.20029
975.846	72.17226
976.221	81.20457
976.596	89.21175
976.971	98.23983
977.346	98.22602
977.72	67.17018
978.095	42.10869
978.469	65.15471
978.844	115.28576
979.218	42.10083
979.593	106.25128
979.967	92.22238
980.341	56.1288
980.715	80.20049
981.089	90.22368
981.463	39.08975
981.837	73.17762
982.21	95.21915
982.584	65.15655
982.957	37.09261
983.331	60.14158
983.704	83.2027
984.078	52.12811
984.451	98.24267
984.824	37.09033
985.197	81.19561
985.57	100.24853
985.943	118.2878
986.316	89.21711
986.688	98.2342
987.061	95.22072
987.434	75.1946
987.806	113.27082
988.179	39.09222
988.551	113.28344
988.923	46.11337
989.295	130.32014
989.667	38.09099
990.039	88.21591
990.411	82.18754
990.783	63.14469
991.155	38.09151
991.527	135.32724
991.898	75.18603
992.27	58.14326
992.641	119.29483
993.012	106.24671
993.384	55.13106
993.755	47.11988
994.126	82.19604
994.497	86.20968
994.868	35.08064
995.239	64.1547
995.61	42.10583
995.98	25.06101
996.351	29.07209
996.722	77.17763
997.092	50.11839
997.462	27.06335
997.833	67.15831
998.203	96.23073
998.573	34.0849
998.943	68.15889
999.313	33.07933
999.683	85.20263
1000.053	55.12642
1000.423	85.20519
1000.792	83.21387
1001.162	62.15223
1001.531	87.21303
1001.901	59.14682
1002.27	106.23422
1002.639	59.15049
1003.009	78.18448
1003.378	74.18839
1003.747	65.15311
1004.116	15.03613
1004.485	51.12186
1004.853	103.25845
1005.222	57.14354
1005.591	76.17954
1005.959	59.13268
1006.328	55.12363
1006.696	56.1349
1007.064	76.19026
1007.433	111.27431
1007.801	98.2384
1008.169	88.2207
1008.537	74.16303
1008.905	89.20572
1009.273	69.16983
1009.64	63.14989
1010.008	108.25454
1010.375	143.34115
1010.743	140.31748
1011.11	37.08776
1011.478	37.09177
1011.845	113.26244
1012.212	60.13551
1012.579	40.09836
1012.946	83.19626
1013.313	110.25875
1013.68	66.14784
1014.047	49.11676
1014.414	31.07347
1014.78	61.15125
1015.147	85.20418
1015.513	63.15139
1015.88	106.26832
1016.246	108.26371
1016.612	120.2708
1016.978	102.24748
1017.344	80.19658
1017.71	131.31455
1018.076	92.21514
1018.442	91.23236
1018.808	82.20372
1019.174	40.1005
1019.539	143.32303
1019.905	41.09684
1020.27	33.08167
1020.636	119.2815
1021.001	41.0983
1021.366	47.1129
1021.731	72.1844
1022.096	20.0507
1022.461	73.17195
1022.826	79.18666
1023.191	78.2036
1023.556	81.18864
1023.92	86.20999
1024.285	64.15575
1024.649	48.11764
1025.014	79.19459
1025.378	48.12068
1025.742	87.21453
1026.107	72.16208
1026.471	117.26947
1026.835	52.12881
1027.199	45.10838
1027.562	100.23008
1027.926	55.13432
1028.29	65.16398
1028.654	101.22992
1029.017	85.20751
1029.381	44.10519
1029.744	70.17783
1030.107	97.22732
1030.471	73.17395
1030.834	56.1272
1031.197	116.27583
1031.56	125.29053
1031.923	63.16245
1032.286	99.23019
1032.648	81.1925
1033.011	43.0988
1033.374	77.17996
1033.736	60.15742
1034.099	62.15071
1034.461	49.12375
1034.823	61.15152
1035.185	54.13577
1035.548	40.09749
1035.91	52.12446
1036.272	77.17422
1036.634	135.3249
1036.995	56.13142
1037.357	77.1863
1037.719	79.19099
1038.08	97.22812
1038.442	77.18172
1038.803	63.15082
1039.165	80.20071
1039.526	97.23221
1039.887	71.16912
1040.248	26.06431
1040.609	103.25192
1040.97	81.19671
1041.331	84.21127
1041.692	50.11665
1042.053	106.23852
1042.413	98.22611
1042.774	78.18861
1043.134	97.22875
1043.495	77.19252
1043.855	58.14041
1044.215	58.14368
1044.576	73.17369
1044.936	86.19566
1045.296	145.35543
1045.656	73.17828
1046.016	96.22959
1046.375	66.15953
1046.735	24.05467
1047.095	77.17918
1047.454	122.25432
1047.814	70.16754
1048.173	148.34677
1048.533	86.1955
1048.892	2.00484
1049.251	93.23151
1049.61	54.13279
1049.969	72.1689
1050.328	70.15105
1050.687	64.15522
1051.046	50.12168
1051.405	59.14645
1051.763	46.1058
1052.122	35.08748
1052.48	105.25471
1052.839	50.11757
1053.197	74.17325
1053.555	111.24982
1053.914	112.27062
1054.272	112.26745
1054.63	55.13427
1054.988	98.23052
1055.345	71.15212
1055.703	76.1819
1056.061	72.1844
1056.419	60.15495
1056.776	101.24243
1057.134	65.14994
1057.491	62.15482
1057.848	90.22229
1058.206	91.21218
1058.563	72.15789
1058.92	85.19444
1059.277	91.22265
1059.634	81.18931
1059.991	92.21851
1060.348	64.14413
1060.704	66.1567
1061.061	93.21411
1061.418	55.13317
1061.774	96.23484
1062.131	54.14259
1062.487	45.10525
1062.843	70.17378
1063.199	79.1953
1063.555	60.13866
1063.911	64.16114
1064.267	130.26617
1064.623	55.13337
1064.979	138.32119
1065.335	97.22964
1065.691	84.1999
1066.046	79.17255
1066.402	72.16275
1066.757	77.19328
1067.112	93.22628
1067.468	29.06871
1067.823	89.21224
1068.178	104.24882
1068.533	97.23292
1068.888	85.20162
1069.243	30.07426
1069.598	76.18364
1069.952	57.12808
1070.307	70.17251
1070.662	68.16076
1071.016	24.05403
1071.371	51.11591
1071.725	118.27843
1072.079	107.25439
1072.434	33.08038
1072.788	122.2863
1073.142	95.23158
1073.496	79.18623
1073.85	69.1593
1074.203	60.14519
1074.557	75.19847
1074.911	136.31903
1075.265	84.19381
1075.618	69.16776
1075.971	79.18673
1076.325	62.15711
1076.678	73.16605
1077.031	49.11083
1077.385	55.12094
1077.738	76.17052
1078.091	47.10686
1078.444	38.08838
1078.796	68.16616
1079.149	74.18311
1079.502	52.1227
1079.855	78.18076
1080.207	122.29634
1080.56	52.13425
1080.912	99.23862
1081.264	80.1914
1081.617	67.16265
1081.969	81.20303
1082.321	81.19649
1082.673	60.13656
1083.025	42.09972
1083.377	121.25554
1083.728	66.15337
1084.08	57.142
1084.432	42.10137
1084.783	81.18849
1085.135	74.18452
1085.486	42.09617
1085.838	60.14738
1086.189	28.06819
1086.54	102.24096
1086.891	34.08616
1087.242	77.18637
1087.593	112.26929
1087.944	92.20625
1088.295	97.21822
1088.646	54.13068
1088.996	29.07009
1089.347	90.21902
1089.698	34.08054
1090.048	85.21925
1090.398	98.22494
1090.749	103.24374
1091.099	57.14303
1091.449	107.26355
1091.799	75.18677
1092.149	35.08551
1092.499	74.17954
1092.849	59.14959
1093.199	128.31603
1093.548	37.08905
1093.898	87.21602
1094.248	99.25199
1094.597	41.10473
1094.947	84.22262
1095.296	60.14776
1095.645	121.31059
1095.994	58.13898
1096.343	103.2565
1096.692	18.0475
1097.041	51.13793
1097.39	80.1994
1097.739	58.15041
1098.088	92.24456
1098.437	37.09732
1098.785	77.20649
1099.134	118.30948
1099.482	88.24035
1099.83	97.25263
1100.179	45.11736
1100.527	88.23213
1100.875	53.13992
1101.223	84.22158
1101.571	61.16812
1101.919	28.07336
1102.267	28.07902
1102.615	5.01607
1102.962	22.07073
1103.31	1.00321
1103.658	19.06114
