Data from N2 R11 sample 10_Subt2__5__16-03-59-534.txt Node

Date: Mon Sep 01 16:03:59 PDT 2025
User: uwsun
Spectrometer: HDX01956
Trigger mode: 0
Integration Time (sec): 5.000000E-1
Scans to average: 1
Nonlinearity correction enabled: true
Boxcar width: 0
Storing dark spectrum: false
XAxis mode: Wavelengths
Number of Pixels in Spectrum: 2068
>>>>>Begin Spectral Data<<<<<
194.03	1.00281
194.578	-12.038
195.127	-19.05935
195.676	-3.00938
196.225	80.20939
196.773	19.05194
197.321	2.00537
197.87	70.17099
198.418	32.0777
198.966	-33.08158
199.513	-25.05882
200.061	-23.055
200.609	40.09996
201.156	-14.02878
201.704	-43.10262
202.251	-18.04505
202.798	16.03904
203.345	19.04432
203.892	-37.08841
204.438	15.03379
204.985	3.00664
205.532	7.01731
206.078	19.0438
206.624	-26.06025
207.17	43.09336
207.716	-6.01369
208.262	-9.01682
208.808	-59.13719
209.354	-16.03665
209.899	46.1093
210.445	-16.03736
210.99	-59.13486
211.535	20.04423
212.08	9.01972
212.625	26.06114
213.17	16.03818
213.715	-32.06686
214.259	6.01319
214.804	49.11349
215.348	54.11542
215.892	37.08317
216.436	21.04595
216.98	33.06878
217.524	-28.06277
218.068	63.14828
218.612	20.04752
219.155	43.09475
219.698	41.09163
220.242	35.08238
220.785	44.09661
221.328	50.11702
221.871	67.15966
222.414	56.13121
222.956	-8.01821
223.499	22.04674
224.041	66.14461
224.583	87.17624
225.126	-20.04204
225.668	-15.03462
226.21	5.01189
226.751	1.00206
227.293	21.04544
227.835	5.01153
228.376	63.13679
228.918	66.15646
229.459	-38.08994
230	36.08054
230.541	28.06091
231.082	10.02289
231.622	42.09109
232.163	2.00457
232.704	-14.03285
233.244	-39.09211
233.784	37.08559
234.324	17.03489
234.864	-6.01288
235.404	46.10283
235.944	37.08256
236.484	35.08225
237.023	-23.05151
237.563	-17.03716
238.102	59.13012
238.641	35.08305
239.18	-42.09304
239.719	12.02838
240.258	21.04445
240.797	56.12462
241.335	42.09637
241.874	34.06104
242.412	25.05624
242.95	-35.07894
243.488	35.07476
244.026	-11.02387
244.564	47.09019
245.102	42.08779
245.64	54.12166
246.177	22.04623
246.715	27.06084
247.252	13.02809
247.789	125.21652
248.326	-17.03826
248.863	-34.0704
249.4	17.03622
249.936	61.1161
250.473	11.02396
251.009	-34.07337
251.546	54.11016
252.082	54.10966
252.618	30.06207
253.154	7.01569
253.69	45.09399
254.226	17.03782
254.761	14.02934
255.297	27.05487
255.832	6.01325
256.367	-16.03537
256.903	42.08529
257.438	69.14969
257.972	2.00416
258.507	-21.04488
259.042	13.02629
259.576	-48.09677
260.111	28.06021
260.645	30.06031
261.179	43.09245
261.713	-13.02699
262.247	44.0938
262.781	-1.00195
263.315	-11.02507
263.849	-22.05135
264.382	11.02355
264.915	-18.03921
265.449	-53.12012
265.982	22.04643
266.515	16.03609
267.048	-100.20076
267.58	46.0929
268.113	20.03978
268.646	2.00457
269.178	-40.08324
269.71	31.06242
270.243	18.03804
270.775	7.01647
271.307	46.10211
271.838	46.10096
272.37	35.07913
272.902	27.05662
273.433	15.0302
273.965	-22.04975
274.496	45.10294
275.027	4.00916
275.558	4.00894
276.089	-46.10444
276.62	19.04467
277.15	21.04781
277.681	58.11504
278.211	-6.01363
278.741	-35.07119
279.272	-5.01049
279.802	-5.01153
280.332	16.03448
280.861	19.0419
281.391	-42.08806
281.921	-11.02449
282.45	26.05958
282.98	22.05256
283.509	26.05326
284.038	35.07246
284.567	22.04708
285.096	13.02872
285.625	23.04742
286.153	-26.05586
286.682	-20.04186
287.21	-18.03962
287.739	14.03005
288.267	-9.01984
288.795	27.06473
289.323	-31.06599
289.851	35.07405
290.378	9.01831
290.906	-62.13722
291.433	41.09209
291.961	40.08101
292.488	-16.03625
293.015	-26.05543
293.542	-31.0712
294.069	11.02431
294.596	8.01793
295.122	55.11692
295.649	28.05536
296.175	53.11493
296.702	16.03495
297.228	61.13233
297.754	-36.07311
298.28	-27.05514
298.806	-35.07586
299.332	-38.07541
299.857	-42.08533
300.383	3.00683
300.908	-61.13284
301.433	-31.06739
301.958	17.03507
302.483	-56.12544
303.008	41.08985
303.533	58.13377
304.058	-10.0211
304.582	-28.05868
305.107	-39.09068
305.631	39.07842
306.155	-34.07012
306.679	-9.01848
307.203	-34.0698
307.727	15.03122
308.251	-22.04814
308.775	-73.15309
309.298	-17.03552
309.822	-15.03334
310.345	0
310.868	-13.02713
311.391	-38.08256
311.914	-34.07453
312.437	-28.05606
312.96	-20.04088
313.482	-24.04934
314.005	-39.0854
314.527	-60.13772
315.049	-3.00658
315.571	-72.1378
316.093	-40.08565
316.615	-32.0662
317.137	-56.10464
317.659	12.02493
318.18	-23.04768
318.702	-35.06931
319.223	-2.00343
319.744	23.04288
320.265	-125.26017
320.786	-64.13359
321.307	-42.0881
321.828	-50.09491
322.348	-53.10441
322.869	-93.18364
323.389	-14.0183
323.909	-28.0531
324.43	1.002
324.95	-49.09194
325.47	-79.1601
325.989	-39.07459
326.509	-93.16564
327.029	-41.07371
327.548	-110.19973
328.067	-100.19464
328.587	-18.03592
329.106	-73.13218
329.625	-15.032
330.144	-103.18907
330.662	-107.19592
331.181	-87.16051
331.7	-58.10585
332.218	-89.14892
332.736	-56.10122
333.255	-121.21898
333.773	-38.0684
334.291	-91.1775
334.808	-97.1632
335.326	-70.11845
335.844	-116.20099
336.361	-108.2052
336.879	-93.15921
337.396	-108.19231
337.913	-82.13642
338.43	-120.19546
338.947	-134.23304
339.464	-159.24267
339.981	-177.30416
340.497	-117.20904
341.014	-164.28809
341.53	-159.25136
342.046	-174.30437
342.562	-106.18698
343.078	-140.22906
343.594	-108.17769
344.11	-84.13567
344.626	-170.29879
345.141	-101.15259
345.657	-123.18761
346.172	-141.22922
346.687	-127.19129
347.202	-109.15708
347.717	-149.23473
348.232	-144.23931
348.747	-173.25745
349.261	-216.29455
349.776	-203.30928
350.29	-175.27442
350.805	-141.22522
351.319	-141.20498
351.833	-220.30769
352.347	-175.25474
352.861	-166.23543
353.374	-115.16036
353.888	-169.25196
354.401	-214.29853
354.915	-194.25143
355.428	-198.29816
355.941	-214.29278
356.454	-124.16037
356.967	-147.20235
357.48	-150.19786
357.993	-186.2705
358.505	-243.34936
359.018	-151.2107
359.53	-203.27619
360.042	-194.2364
360.554	-198.27212
361.066	-191.25883
361.578	-200.23099
362.09	-180.23424
362.602	-204.23349
363.113	-192.23446
363.625	-217.25185
364.136	-159.1745
364.647	-305.35936
365.158	-195.22885
365.669	-226.27917
366.18	-243.2922
366.691	-214.2271
367.201	-242.28983
367.712	-236.25449
368.222	-285.31213
368.733	-318.312
369.243	-206.19463
369.753	-143.14282
370.263	-241.25999
370.773	-339.39415
371.282	-316.32844
371.792	-316.27905
372.301	-359.35938
372.811	-306.34133
373.32	-410.29687
373.829	-435.37424
374.338	-365.25658
374.847	-383.27048
375.356	-435.31555
375.865	-422.19664
376.373	-401.20274
376.882	-419.29107
377.39	-456.26005
377.898	-723.40574
378.407	-584.1865
378.915	-543.11731
379.423	-517.12396
379.93	-568.08148
380.438	-707.09852
380.946	-675.00948
381.453	-755.97461
381.96	-841.88999
382.468	-935.75593
382.975	-878.76059
383.482	-820.68242
383.989	-976.70251
384.495	-963.57419
385.002	-1176.3893
385.509	-1211.37468
386.015	-1178.35508
386.521	-1199.34346
387.028	-1330.30164
387.534	-1372.33716
388.04	-1327.34081
388.546	-1702.33314
389.051	-1872.5346
389.557	-2002.76965
390.063	-1607.0468
390.568	-1839.35607
391.073	-2146.04036
391.578	-2143.30508
392.084	-2421.44204
392.589	-2768.32676
393.093	-3175.88339
393.598	-3206.8489
394.103	-3387.58792
394.607	-3550.25743
395.112	-3738.71615
395.616	-4114.6038
396.12	-4856.11178
396.624	-5442.1348
397.128	-5724.66404
397.632	-5981.4552
398.136	-6622.43683
398.639	-8466.36874
399.143	-10350.25004
399.646	-11063.42972
400.15	-12251.81845
400.653	-14543.54703
401.156	-17203.86601
401.659	-20961.43938
402.162	-16783.78756
402.664	-2628.22246
403.167	-596.85195
403.67	0
404.172	0
404.674	0
405.176	0
405.678	0
406.18	0
406.682	0
407.184	0
407.686	0
408.187	0
408.688	0
409.19	0
409.691	0
410.192	0
410.693	-2772.29404
411.194	-7454.80797
411.694	-6411.55668
412.195	-5162.15085
412.696	-6149.61363
413.196	-8223.97397
413.696	-9536.98564
414.196	-7526.03728
414.696	-4890.35054
415.196	-2446.14484
415.696	1692.77434
416.196	1922.07684
416.695	-1279.53122
417.195	-3116.45326
417.694	-2865.09362
418.194	-2091.98721
418.693	-2803.91525
419.192	-2710.1342
419.691	-2630.58007
420.19	-2466.01823
420.688	-2114.57339
421.187	-1716.77547
421.685	-1181.49062
422.184	-791.74897
422.682	-778.10613
423.18	-1222.78381
423.678	-1395.79901
424.176	-1336.05793
424.674	-1230.53871
425.172	-1016.03195
425.669	-832.78293
426.167	-550.78959
426.664	-601.70547
427.161	-675.62638
427.659	-632.64953
428.156	-734.59298
428.652	-643.71019
429.149	-627.72764
429.646	-637.73152
430.143	-494.84978
430.639	-575.86878
431.135	-538.94753
431.632	-480.94772
432.128	-499.02015
432.624	-627.13161
433.12	-650.04041
433.616	-561.03508
434.111	-651.1306
434.607	-696.22696
435.103	-405.07585
435.598	-456.10774
436.093	-473.23523
436.588	-411.20631
437.083	-393.22558
437.578	-420.28244
438.073	-522.4343
438.568	-387.34267
439.062	-405.27814
439.557	-387.35352
440.051	-394.33679
440.546	-454.4102
441.04	-466.4815
441.534	-406.46951
442.028	-321.34061
442.522	-368.39857
443.015	-348.3278
443.509	-374.44221
444.002	-428.51809
444.496	-406.41526
444.989	-437.54797
445.482	-417.53462
445.975	-409.44672
446.468	-419.43515
446.961	-357.36491
447.454	-362.41293
447.947	-395.48276
448.439	-410.54434
448.931	-455.53991
449.424	-359.50558
449.916	-372.4988
450.408	-415.50215
450.9	-431.58779
451.392	-435.63697
451.884	-376.48615
452.375	-443.64031
452.867	-330.42459
453.358	-426.55163
453.849	-391.46625
454.341	-386.50217
454.832	-418.51952
455.323	-455.67861
455.814	-381.52532
456.304	-432.61177
456.795	-387.53845
457.285	-360.49426
457.776	-305.43086
458.266	-394.58703
458.756	-354.54152
459.247	-398.60093
459.737	-395.60015
460.226	-390.5561
460.716	-428.67465
461.206	-398.63496
461.695	-342.57502
462.185	-351.55018
462.674	-369.57169
463.163	-326.478
463.653	-317.43561
464.142	-368.60761
464.63	-331.56123
465.119	-382.61046
465.608	-372.59516
466.096	-377.57792
466.585	-316.51564
467.073	-266.44965
467.561	-368.64516
468.05	-312.5217
468.538	-346.6267
469.026	-358.63323
469.513	-337.51229
470.001	-288.47179
470.489	-327.5704
470.976	-292.49791
471.463	-322.60914
471.951	-307.58773
472.438	-288.5078
472.925	-332.58938
473.412	-285.5427
473.899	-293.51919
474.385	-288.55175
474.872	-316.57323
475.359	-308.59121
475.845	-292.46819
476.331	-230.38985
476.817	-266.51675
477.303	-273.50418
477.789	-268.51741
478.275	-270.5383
478.761	-250.48637
479.247	-218.39181
479.732	-305.62123
480.218	-239.50895
480.703	-255.52057
481.188	-235.4086
481.673	-263.49594
482.158	-316.55164
482.643	-271.58236
483.128	-272.51429
483.612	-251.49006
484.097	-229.47238
484.581	-208.40523
485.066	-233.47588
485.55	-325.60925
486.034	-262.47889
486.518	-247.48935
487.002	-275.57389
487.486	-256.5346
487.969	-296.62471
488.453	-256.56067
488.936	-266.51774
489.42	-196.37095
489.903	-245.53941
490.386	-638.01753
490.869	-202.38119
491.352	-222.47799
491.835	-200.35909
492.318	-277.55084
492.8	-203.36495
493.283	-231.51498
493.765	-233.50416
494.247	-186.38325
494.73	-193.37359
495.212	-207.44522
495.694	-234.48258
496.175	-316.67043
496.657	-156.32505
497.139	-158.24308
497.62	-291.61752
498.102	-258.57315
498.583	-224.5032
499.064	-239.47483
499.545	-218.44473
500.026	-240.48249
500.507	-240.50208
500.988	-219.48945
501.469	-280.63544
501.949	-183.40578
502.43	-271.58186
502.91	-249.46515
503.39	-211.47857
503.87	-281.60151
504.35	-226.48598
504.83	-255.50804
505.31	-261.57608
505.79	-246.53399
506.269	-146.30557
506.749	-197.40454
507.228	-244.52062
507.707	-216.43404
508.187	-204.44433
508.666	-247.5527
509.145	-260.55596
509.623	-204.43452
510.102	-199.43832
510.581	-189.41647
511.059	-254.58275
511.538	-230.54689
512.016	-187.40653
512.494	-139.30475
512.972	-201.43789
513.45	-257.54443
513.928	-237.52727
514.406	-244.53551
514.884	-192.44968
515.361	-197.43082
515.839	-215.44888
516.316	-218.48148
516.793	-216.50431
517.27	-200.44689
517.747	-201.47214
518.224	-152.32052
518.701	-168.3418
519.178	-227.51674
519.654	-171.37396
520.131	-235.53819
520.607	-165.37561
521.083	-204.4296
521.56	-208.45362
522.036	-158.31808
522.512	-162.36766
522.987	-236.51796
523.463	-210.46167
523.939	-176.39798
524.414	-165.35137
524.89	-197.43264
525.365	-185.38659
525.84	-269.59547
526.315	-224.50114
526.79	-148.30619
527.265	-189.39898
527.74	-210.47485
528.215	-195.42608
528.689	-202.41528
529.164	-171.34417
529.638	-183.43606
530.112	-228.50061
530.587	-171.33577
531.061	-230.51668
531.534	-163.3658
532.008	-211.47176
532.482	-193.41332
532.956	-229.54336
533.429	-164.36767
533.903	-140.28626
534.376	-186.3829
534.849	-164.35251
535.322	-183.4019
535.795	-201.45885
536.268	-187.41793
536.741	-115.25394
537.213	-162.34791
537.686	-184.41572
538.158	-202.42127
538.631	-135.30384
539.103	-144.29711
539.575	-96.18382
540.047	-150.30587
540.519	-99.21742
540.991	-52.11591
541.463	-118.26313
541.934	-122.25715
542.406	-156.34397
542.877	-105.21747
543.348	-78.17235
543.82	-78.17516
544.291	-64.1365
544.762	-86.18573
545.233	-93.21265
545.703	-54.10786
546.174	-56.11804
546.645	-92.19886
547.115	-31.06708
547.585	-28.05788
548.056	-62.13396
548.526	-37.07756
548.996	72.15176
549.466	60.12919
549.935	45.09283
550.405	61.11587
550.875	84.17207
551.344	71.1483
551.814	109.21564
552.283	164.3031
552.752	126.24922
553.221	160.29111
553.69	217.40035
554.159	193.39651
554.628	254.46403
555.096	279.58327
555.565	304.55146
556.033	342.65965
556.502	388.76492
556.97	434.7697
557.438	431.82794
557.906	503.95742
558.374	579.04013
558.842	589.10647
559.31	677.15877
559.777	702.2988
560.245	826.44973
560.712	812.40573
561.18	888.41453
561.647	920.47907
562.114	1005.61309
562.581	1070.87536
563.048	1218.88798
563.514	1287.1068
563.981	1465.09194
564.448	1533.0807
564.914	1658.29322
565.381	1722.26276
565.847	1844.43141
566.313	1936.45522
566.779	2091.39192
567.245	2208.57518
567.711	2358.71284
568.176	2443.42484
568.642	2573.96662
569.108	2670.87759
569.573	2913.67627
570.038	3043.0832
570.504	3063.35111
570.969	3385.91634
571.434	3411.12063
571.899	3674.48251
572.363	3890.12927
572.828	4109.06583
573.293	4122.05099
573.757	4370.91953
574.222	4501.65075
574.686	4702.55506
575.15	4722.90647
575.614	4949.56963
576.078	4999.6727
576.542	5204.4057
577.006	5135.37391
577.469	5265.91853
577.933	5392.1903
578.396	5404.56868
578.86	5392.51883
579.323	5356.58166
579.786	5381.0357
580.249	5319.33575
580.712	5256.82868
581.175	5289.85563
581.637	5367.43131
582.1	5266.21442
582.563	5206.1365
583.025	5068.86375
583.487	4953.92367
583.95	4928.22896
584.412	4899.1699
584.874	4718.08328
585.336	4663.96187
585.797	4606.47006
586.259	4453.08667
586.721	4357.07496
587.182	4338.12072
587.643	4143.02656
588.105	4102.28804
588.566	3936.73547
589.027	3790.51638
589.488	3747.24928
589.949	3628.6573
590.41	3510.55033
590.87	3437.40555
591.331	3335.15213
591.791	3189.506
592.252	3127.46048
592.712	2981.78361
593.172	2917.44945
593.632	2873.35468
594.092	2756.4333
594.552	2651.28415
595.011	2520.54678
595.471	2535.45565
595.931	2358.42214
596.39	2355.72203
596.849	2379.61051
597.308	2264.31616
597.768	2167.93583
598.227	2048.66139
598.685	2096.50506
599.144	1990.51195
599.603	1947.54605
600.062	1969.10686
600.52	1852.26631
600.978	1821.479
601.437	1733.30999
601.895	1778.07611
602.353	1708.19351
602.811	1722.19396
603.269	1654.3971
603.727	1640.38525
604.184	1627.17044
604.642	1577.40972
605.099	1611.26198
605.557	1549.37479
606.014	1545.98436
606.471	1473.35769
606.928	1434.88288
607.385	1381.17821
607.842	1505.12844
608.299	1579.25129
608.755	1469.2549
609.212	1499.03652
609.668	1395.93603
610.125	1517.31573
610.581	1559.32903
611.037	1490.15651
611.493	1435.20609
611.949	1430.23492
612.405	1439.75365
612.861	1498.26165
613.316	1365.16016
613.772	1399.09136
614.227	1313.07963
614.683	1422.94066
615.138	1319.06662
615.593	1286.01975
616.048	1359.06508
616.503	1291.19422
616.958	1288.23304
617.412	1278.07058
617.867	1154.77051
618.321	1253.73702
618.776	1251.89052
619.23	1152.92499
619.684	1156.85193
620.138	1167.93583
620.592	1080.92853
621.046	1062.83799
621.5	1117.98201
621.954	1097.79729
622.407	1025.68911
622.861	960.77986
623.314	1005.71469
623.768	934.66463
624.221	952.38887
624.674	886.58295
625.127	912.65129
625.58	905.60493
626.033	912.55847
626.485	843.59632
626.938	845.59778
627.39	870.59428
627.843	882.60496
628.295	844.5512
628.747	825.57358
629.199	816.48537
629.651	768.41408
630.103	860.56484
630.555	805.36299
631.006	846.59461
631.458	835.58884
631.909	875.61191
632.361	771.47824
632.812	784.48044
633.263	783.37444
633.714	831.43376
634.165	823.63807
634.616	847.6406
635.067	787.4379
635.518	822.61371
635.968	880.40254
636.419	901.56478
636.869	878.70114
637.319	904.68249
637.769	849.54283
638.219	949.82536
638.669	909.75585
639.119	943.86158
639.569	967.87161
640.019	993.82429
640.468	932.66961
640.918	1062.01577
641.367	1063.85382
641.816	1032.80951
642.265	1063.92489
642.714	1092.96503
643.163	1094.9546
643.612	1087.03791
644.061	1057.72283
644.51	1133.98147
644.958	1202.97723
645.406	1138.10928
645.855	1243.31988
646.303	1214.15733
646.751	1198.05992
647.199	1274.15186
647.647	1281.18995
648.095	1242.13595
648.543	1357.97434
648.99	1279.29492
649.438	1316.30339
649.885	1291.42155
650.333	1339.82433
650.78	1324.38747
651.227	1334.42262
651.674	1355.25566
652.121	1337.43114
652.568	1289.36474
653.015	1374.60721
653.461	1363.39287
653.908	1350.32265
654.354	1319.36217
654.801	1295.27531
655.247	1365.17615
655.693	1275.57479
656.139	1325.38263
656.585	1293.3473
657.031	1257.21513
657.477	1287.05094
657.922	1255.18528
658.368	1299.44611
658.813	1313.29512
659.259	1248.29555
659.704	1255.22305
660.149	1293.2706
660.594	1275.30402
661.039	1246.15648
661.484	1361.43522
661.929	1357.36376
662.373	1289.50393
662.818	1236.38547
663.262	1284.35965
663.707	1298.5375
664.151	1307.4397
664.595	1305.39539
665.039	1328.52699
665.483	1363.64424
665.927	1371.41197
666.371	1345.31828
666.814	1317.39223
667.258	1444.49839
667.701	1416.21285
668.145	1425.65937
668.588	1453.64291
669.031	1437.47643
669.474	1454.58186
669.917	1512.37918
670.36	1491.72589
670.803	1507.65521
671.245	1505.22467
671.688	1560.75122
672.13	1513.41273
672.573	1522.85833
673.015	1589.72418
673.457	1607.40876
673.899	1608.77952
674.341	1591.74635
674.783	1594.722
675.225	1608.83196
675.666	1610.74368
676.108	1647.43869
676.549	1664.75682
676.991	1670.50661
677.432	1684.1884
677.873	1637.64763
678.314	1702.82032
678.755	1673.86314
679.196	1698.66126
679.637	1715.92781
680.078	1688.74076
680.518	1764.79271
680.959	1767.89329
681.399	1707.97417
681.839	1706.90232
682.28	1742.98603
682.72	1726.6856
683.16	1715.99905
683.6	1756.70621
684.039	1795.40998
684.479	1704.93119
684.919	1699.68337
685.358	1848.21318
685.798	1797.30316
686.237	1846.00745
686.676	1858.85395
687.115	1870.90591
687.554	1831.91722
687.993	1896.68869
688.432	1960.85361
688.871	1963.82266
689.309	1916.00493
689.748	2029.54784
690.186	2027.09095
690.625	1923.93222
691.063	1994.07952
691.501	1971.20213
691.939	2031.28279
692.377	2048.19331
692.815	2006.07347
693.253	2084.15826
693.69	2063.75367
694.128	2061.16739
694.565	2141.15122
695.003	2143.4531
695.44	2174.09723
695.877	2145.05023
696.314	2216.73312
696.751	2306.02732
697.188	2286.04142
697.625	2261.04312
698.061	2275.24587
698.498	2368.34017
698.934	2353.30514
699.371	2330.17417
699.807	2347.21123
700.243	2353.29699
700.679	2438.03082
701.115	2457.23624
701.551	2498.24446
701.987	2477.0094
702.422	2452.26611
702.858	2451.28468
703.294	2585.06511
703.729	2594.4784
704.164	2620.38995
704.599	2588.97741
705.035	2615.99841
705.47	2589.43499
705.904	2723.22494
706.339	2701.22879
706.774	2701.25356
707.209	2688.16422
707.643	2762.40638
708.078	2810.49254
708.512	2779.64228
708.946	2808.40556
709.38	2822.33692
709.814	2852.13813
710.248	2973.51715
710.682	2898.3589
711.116	2850.36282
711.549	2851.86921
711.983	2858.19194
712.416	2942.33412
712.85	2921.65478
713.283	2914.33334
713.716	3012.71968
714.149	2941.38468
714.582	2898.03551
715.015	2966.69364
715.448	2893.72413
715.881	2950.90155
716.313	2957.27411
716.746	2897.29699
717.178	2877.42184
717.61	2901.76423
718.043	2850.64541
718.475	2869.47352
718.907	2962.76733
719.339	2825.0773
719.77	2842.32926
720.202	2795.72339
720.634	2800.47939
721.065	2820.3344
721.497	2775.52686
721.928	2776.5317
722.359	2721.40889
722.79	2785.38177
723.221	2729.68242
723.652	2711.83773
724.083	2647.03945
724.514	2582.12943
724.945	2563.24233
725.375	2602.17461
725.806	2643.61114
726.236	2570.74101
726.666	2454.25207
727.096	2480.45391
727.526	2501.65386
727.956	2439.03521
728.386	2415.44717
728.816	2405.58728
729.246	2347.33921
729.675	2287.37715
730.105	2300.39178
730.534	2297.13276
730.964	2324.55009
731.393	2309.4508
731.822	2173.50988
732.251	2171.47388
732.68	2257.15476
733.109	2138.302
733.537	2147.20738
733.966	2156.35125
734.395	2081.96676
734.823	2105.88247
735.251	2078.1545
735.68	2055.33125
736.108	1998.33307
736.536	2017.02376
736.964	1946.90496
737.392	1959.2489
737.82	1976.07232
738.247	1841.96296
738.675	1917.01419
739.102	1819.11732
739.53	1822.20375
739.957	1800.22979
740.384	1816.06885
740.811	1744.11294
741.238	1735.945
741.665	1754.75788
742.092	1723.85155
742.519	1617.87942
742.945	1637.7878
743.372	1638.90588
743.798	1627.04393
744.225	1650.76318
744.651	1600.918
745.077	1574.86466
745.503	1543.7512
745.929	1515.65975
746.355	1533.81414
746.781	1471.72404
747.207	1433.49032
747.632	1405.58346
748.058	1453.72637
748.483	1501.50581
748.908	1376.61479
749.334	1401.60805
749.759	1339.4018
750.184	1289.36946
750.609	1318.5055
751.033	1406.4924
751.458	1329.24708
751.883	1306.5161
752.307	1218.24577
752.732	1197.38304
753.156	1267.45066
753.58	1246.3101
754.005	1194.43127
754.429	1144.14351
754.853	1129.26195
755.277	1154.17605
755.7	1123.25816
756.124	1073.18112
756.548	1060.04604
756.971	1086.16119
757.394	1093.31513
757.818	1006.16714
758.241	956.04704
758.664	911.96024
759.087	945.74635
759.51	941.97895
759.933	914.85775
760.356	949.06033
760.778	936.94215
761.201	915.88549
761.623	895.84755
762.046	920.84113
762.468	918.86419
762.89	837.78401
763.312	831.75132
763.734	779.63304
764.156	793.70551
764.578	811.60518
765	815.72133
765.421	738.65464
765.843	717.67479
766.264	698.49622
766.686	703.57064
767.107	676.45898
767.528	611.39576
767.949	665.51679
768.37	611.35538
768.791	673.45157
769.212	545.25432
769.632	574.21159
770.053	595.42868
770.473	624.36674
770.894	603.36973
771.314	601.29832
771.734	534.13787
772.154	553.30257
772.575	506.07905
772.994	512.06586
773.414	516.14035
773.834	479.11185
774.254	481.09139
774.673	479.08201
775.093	467.07412
775.512	413.9575
775.931	459.08505
776.351	415.96974
776.77	418.96007
777.189	386.86777
777.607	369.89565
778.026	364.86177
778.445	323.77373
778.864	388.94298
779.282	361.82504
779.701	355.8523
780.119	316.76575
780.537	348.8274
780.955	366.88554
781.373	322.76265
781.791	326.69858
782.209	377.82127
782.627	295.74892
783.045	297.65607
783.462	297.73038
783.88	257.64459
784.297	265.6452
784.715	273.67731
785.132	215.50837
785.549	238.57893
785.966	264.64265
786.383	234.56003
786.8	265.59493
787.217	232.53505
787.633	209.50964
788.05	289.66105
788.466	306.69218
788.883	218.54236
789.299	207.48737
789.715	228.53963
790.131	249.60058
790.547	196.47963
790.963	246.59256
791.379	233.57302
791.795	230.51053
792.21	178.40905
792.626	170.39707
793.041	212.51087
793.457	174.42295
793.872	159.36868
794.287	135.31897
794.702	210.50547
795.117	168.41066
795.532	196.4807
795.947	209.49151
796.362	189.44275
796.776	204.46748
797.191	164.39536
797.605	128.2978
798.02	157.37669
798.434	200.43544
798.848	125.30527
799.262	179.43584
799.676	187.44747
800.09	182.43941
800.504	159.38033
800.918	118.27161
801.331	142.36811
801.745	160.36209
802.158	162.39879
802.572	158.37787
802.985	144.34412
803.398	175.40995
803.811	189.47645
804.224	126.31098
804.637	123.29062
805.05	99.22883
805.462	162.39201
805.875	105.27056
806.288	102.24487
806.7	130.32356
807.112	126.28967
807.525	146.35582
807.937	93.22915
808.349	122.30309
808.761	148.35935
809.173	146.3493
809.584	125.30629
809.996	77.18847
810.408	86.22133
810.819	109.25485
811.231	52.13476
811.642	19.04578
812.053	118.27832
812.464	145.34021
812.875	105.26679
813.286	101.25862
813.697	145.33489
814.108	109.26471
814.519	125.27614
814.929	157.39451
815.34	131.31443
815.75	78.19794
816.16	135.33276
816.571	104.26858
816.981	115.26961
817.391	119.28498
817.801	88.21791
818.211	95.22568
818.62	83.19945
819.03	121.29396
819.44	96.24964
819.849	104.26054
820.259	151.38107
820.668	68.16734
821.077	95.23486
821.486	134.31912
821.895	127.31073
822.304	108.28421
822.713	110.25824
823.122	112.27744
823.531	94.22197
823.939	101.24473
824.348	117.28211
824.756	130.32214
825.164	99.24788
825.573	38.09588
825.981	84.20785
826.389	134.33278
826.797	91.22703
827.205	66.15167
827.612	88.21647
828.02	47.11088
828.428	89.22581
828.835	88.23072
829.243	87.20676
829.65	30.0751
830.057	96.23187
830.464	103.24939
830.871	104.24749
831.278	80.19301
831.685	124.27387
832.092	120.29104
832.499	66.14461
832.905	92.23189
833.312	130.29312
833.718	128.31545
834.124	40.092
834.531	100.25061
834.937	118.30008
835.343	94.22576
835.749	99.23001
836.155	93.2423
836.561	91.22282
836.966	99.2407
837.372	127.31971
837.777	64.15947
838.183	119.26201
838.588	95.2346
838.993	69.16795
839.399	66.16134
839.804	45.11006
840.209	62.15784
840.613	89.19719
841.018	132.33021
841.423	70.17934
841.828	82.20669
842.232	131.32064
842.637	99.2321
843.041	54.13859
843.445	89.2222
843.849	67.16576
844.253	101.23846
844.657	50.12616
845.061	89.20105
845.465	55.13307
845.869	92.21269
846.272	66.16062
846.676	125.29889
847.079	101.25499
847.483	73.18179
847.886	122.29367
848.289	61.16272
848.692	77.19447
849.095	86.20568
849.498	99.24931
849.901	50.11504
850.304	85.20232
850.707	104.26317
851.109	112.28088
851.512	91.22241
851.914	41.10366
852.316	68.17177
852.718	34.08814
853.121	86.20976
853.523	87.20237
853.925	56.14613
854.326	83.20662
854.728	73.18725
855.13	62.15979
855.531	51.12209
855.933	89.21257
856.334	72.17907
856.736	76.16975
857.137	109.25104
857.538	59.14831
857.939	35.08684
858.34	92.22288
858.741	95.24674
859.142	84.2009
859.542	77.20246
859.943	53.13184
860.343	51.12645
860.744	91.22075
861.144	107.25868
861.544	39.09407
861.945	47.12001
862.345	86.20929
862.745	99.24421
863.145	142.33415
863.544	66.16654
863.944	64.15107
864.344	79.19552
864.743	112.2752
865.143	110.27993
865.542	82.18935
865.941	63.1558
866.34	69.16499
866.74	77.20594
867.139	55.13177
867.537	103.26031
867.936	95.22707
868.335	107.26984
868.734	72.18349
869.132	61.14167
869.531	109.26113
869.929	73.16591
870.327	98.23312
870.726	134.3295
871.124	108.24998
871.522	87.22043
871.92	127.30923
872.318	118.28522
872.715	91.22389
873.113	78.18932
873.511	102.25202
873.908	23.0584
874.306	54.13435
874.703	104.258
875.1	94.23888
875.497	55.13192
875.894	39.09585
876.291	68.16653
876.688	54.13931
877.085	89.21224
877.482	48.12034
877.878	80.19169
878.275	67.16987
878.671	97.21428
879.068	87.20882
879.464	75.18064
879.86	79.18601
880.256	94.23038
880.652	65.16504
881.048	125.30584
881.444	70.1662
881.84	79.19994
882.236	82.20521
882.631	57.13988
883.027	119.28476
883.422	93.23621
883.817	22.05561
884.213	74.18925
884.608	23.05674
885.003	41.09912
885.398	77.19196
885.793	88.21958
886.188	52.12933
886.582	91.23195
886.977	99.23301
887.371	55.1391
887.766	13.03257
888.16	76.18895
888.554	117.28605
888.949	125.30992
889.343	91.22083
889.737	19.05092
890.131	65.16275
890.525	73.18607
890.918	63.15831
891.312	108.25582
891.706	90.23468
892.099	73.18515
892.492	98.20956
892.886	85.20681
893.279	54.13757
893.672	54.13747
894.065	91.22637
894.458	65.16316
894.851	86.20952
895.244	51.13032
895.637	76.18232
896.029	66.16104
896.422	92.22322
896.814	74.18331
897.206	46.10972
897.599	117.28605
897.991	85.20433
898.383	77.18116
898.775	90.20169
899.167	10.02352
899.559	80.20157
899.951	125.29065
900.342	81.20501
900.734	0
901.125	83.21669
901.517	48.11795
901.908	94.22369
902.299	48.11747
902.69	104.24301
903.082	155.36821
903.473	71.16945
903.863	78.19815
904.254	79.18246
904.645	76.18826
905.036	25.06085
905.426	109.24683
905.817	54.13249
906.207	93.21991
906.597	94.21809
906.987	116.29739
907.378	68.17152
907.768	81.21313
908.158	68.16536
908.547	50.12922
908.937	69.17656
909.327	112.26898
909.717	95.23941
910.106	74.17705
910.495	74.18405
910.885	58.14677
911.274	76.18916
911.663	87.21948
912.052	96.23502
912.441	43.10953
912.83	51.11713
913.219	69.18008
913.608	94.2285
913.997	52.13037
914.385	90.21352
914.774	107.2579
915.162	36.08607
915.55	104.2492
915.939	92.23056
916.327	93.23042
916.715	49.12494
917.103	134.32487
917.491	97.23804
917.878	70.17156
918.266	63.16307
918.654	37.09478
919.041	36.09423
919.429	96.22467
919.816	27.06875
920.203	67.16204
920.591	95.23374
920.978	104.25224
921.365	59.15461
921.752	57.13578
922.139	62.13436
922.525	51.12251
922.912	72.17495
923.299	46.11445
923.685	55.14339
924.072	138.31281
924.458	65.16063
924.844	58.14336
925.231	74.17149
925.617	67.16993
926.003	77.19592
926.389	80.20078
926.774	90.22653
927.16	86.21226
927.546	42.10738
927.931	93.23033
928.317	93.21248
928.702	73.17202
929.088	39.09247
929.473	70.17751
929.858	45.10892
930.243	45.10814
930.628	87.21025
931.013	42.10427
931.398	107.24338
931.783	90.2354
932.167	81.19693
932.552	76.18957
932.937	98.24116
933.321	68.17011
933.705	73.18331
934.09	116.28976
934.474	123.28814
934.858	62.16051
935.242	70.16164
935.626	86.21878
936.009	34.09068
936.393	91.2299
936.777	61.15592
937.16	49.12753
937.544	72.16897
937.927	35.08906
938.311	95.23002
938.694	104.27258
939.077	87.20684
939.46	98.23858
939.843	92.19025
940.226	58.14859
940.609	74.16911
940.991	53.13486
941.374	64.15604
941.757	73.17941
942.139	78.17422
942.522	121.28213
942.904	76.18183
943.286	88.22213
943.668	103.26439
944.05	89.21768
944.432	87.21326
944.814	69.16939
945.196	-1.00246
945.578	17.04067
945.959	76.17724
946.341	102.24804
946.722	99.23019
947.104	71.16906
947.485	44.10253
947.866	63.15837
948.247	55.13866
948.628	93.22509
949.009	70.17865
949.39	55.13682
949.771	75.17363
950.152	82.20007
950.532	38.09368
950.913	108.2577
951.293	57.15381
951.674	63.15202
952.054	11.02745
952.434	70.17315
952.814	76.17996
953.194	85.22115
953.574	93.22729
953.954	117.2743
954.334	100.24699
954.714	21.05146
955.093	100.24363
955.473	65.1621
955.853	68.17549
956.232	100.2719
956.611	125.29558
956.99	59.14805
957.37	75.19029
957.749	107.25252
958.128	78.19555
958.506	43.11169
958.885	39.09864
959.264	82.19978
959.643	78.17652
960.021	21.05232
960.4	39.0886
960.778	99.24169
961.156	37.09298
961.535	111.25565
961.913	99.22947
962.291	16.04129
962.669	66.16671
963.047	45.11495
963.424	59.15033
963.802	26.06422
964.18	70.1765
964.557	143.32329
964.935	57.13489
965.312	65.16883
965.69	69.17221
966.067	59.14345
966.444	99.24178
966.821	67.17222
967.198	119.28498
967.575	84.20526
967.952	106.2471
968.329	91.21975
968.705	33.07104
969.082	98.24922
969.458	66.15785
969.835	51.12414
970.211	58.14865
970.587	63.15649
970.963	115.29167
971.339	58.15124
971.715	76.18888
972.091	72.17659
972.467	65.16169
972.843	55.13637
973.219	122.28899
973.594	36.09439
973.97	93.21957
974.345	57.13624
974.721	111.26572
975.096	46.1114
975.471	79.18637
975.846	67.16045
976.221	56.14206
976.596	42.10083
976.971	72.17705
977.346	98.22602
977.72	52.13243
978.095	87.2234
978.469	93.22017
978.844	119.29548
979.218	7.01692
979.593	74.17651
979.967	93.22475
980.341	99.22573
980.715	100.24971
981.089	77.19182
981.463	86.19605
981.837	81.19679
982.21	79.18282
982.584	76.18266
982.957	62.15448
983.331	117.27301
983.704	78.19067
984.078	65.15975
984.451	135.33202
984.824	24.05873
985.197	68.16462
985.57	84.20937
985.943	111.27108
986.316	104.25299
986.688	79.18948
987.061	82.19101
987.434	90.23291
987.806	98.23554
988.179	37.08753
988.551	108.27115
988.923	41.10114
989.295	93.23059
989.667	73.17362
990.039	36.08918
990.411	85.19428
990.783	103.23467
991.155	28.06755
991.527	134.32487
991.898	62.15415
992.27	50.12368
992.641	107.26568
993.012	144.33264
993.384	73.17335
993.755	56.14261
994.126	41.09879
994.497	68.16635
994.868	77.17593
995.239	54.13077
995.61	31.07826
995.98	92.22171
996.351	53.13117
996.722	84.1935
997.092	9.02148
997.462	48.11216
997.833	85.20014
998.203	112.26837
998.573	80.1981
998.943	95.22081
999.313	45.10793
999.683	84.20028
1000.053	81.18521
1000.423	60.14552
1000.792	60.15522
1001.162	71.17404
1001.531	66.16224
1001.901	66.16403
1002.27	83.18428
1002.639	68.17317
1003.009	86.20308
1003.378	77.19592
1003.747	84.19713
1004.116	39.09351
1004.485	33.07912
1004.853	87.21894
1005.222	61.15351
1005.591	81.19116
1005.959	33.07461
1006.328	97.21617
1006.696	49.1182
1007.064	59.14815
1007.433	90.22327
1007.801	124.30018
1008.169	89.22316
1008.537	68.15
1008.905	62.14408
1009.273	89.21825
1009.64	24.05753
1010.008	77.18257
1010.375	126.30157
1010.743	151.34166
1011.11	19.04522
1011.478	70.17258
1011.845	71.16626
1012.212	82.18437
1012.579	73.17841
1012.946	72.17062
1013.313	107.25184
1013.68	82.18308
1014.047	62.14737
1014.414	72.1693
1014.78	83.20496
1015.147	114.27233
1015.513	79.18926
1015.88	131.33013
1016.246	100.24454
1016.612	128.28838
1016.978	114.27597
1017.344	39.09656
1017.71	116.27933
1018.076	97.22661
1018.442	76.19457
1018.808	31.07773
1019.174	75.18725
1019.539	147.33179
1019.905	63.14816
1020.27	68.16721
1020.636	142.33441
1021.001	79.18803
1021.366	54.12954
1021.731	62.15906
1022.096	63.15848
1022.461	50.1183
1022.826	60.14229
1023.191	77.20102
1023.556	80.18635
1023.92	102.24831
1024.285	103.24883
1024.649	62.15156
1025.014	100.24536
1025.378	72.18025
1025.742	99.24358
1026.107	105.23477
1026.471	104.24015
1026.835	69.17039
1027.199	26.06285
1027.562	34.07926
1027.926	99.23979
1028.29	45.11393
1028.654	90.20534
1029.017	117.28393
1029.381	91.2156
1029.744	66.16778
1030.107	92.21582
1030.471	89.21143
1030.834	54.12271
1031.197	69.16556
1031.56	71.16678
1031.923	37.09584
1032.286	122.28238
1032.648	104.24606
1033.011	27.06224
1033.374	102.23722
1033.736	63.1652
1034.099	44.10732
1034.461	36.09113
1034.823	73.18093
1035.185	66.16558
1035.548	99.23862
1035.91	94.22318
1036.272	84.18979
1036.634	91.22083
1036.995	62.14533
1037.357	64.15522
1037.719	81.19575
1038.08	125.29237
1038.442	80.18869
1038.803	74.17678
1039.165	51.12862
1039.526	49.11837
1039.887	96.22758
1040.248	57.14019
1040.609	111.27108
1040.97	72.17515
1041.331	93.23353
1041.692	81.18782
1042.053	91.2054
1042.413	120.27566
1042.774	98.23608
1043.134	124.29088
1043.495	68.17029
1043.855	85.20472
1044.215	79.19494
1044.576	37.08864
1044.936	119.26892
1045.296	80.19846
1045.656	117.28339
1046.016	46.11106
1046.375	66.15953
1046.735	62.14014
1047.095	92.21345
1047.454	57.12054
1047.814	65.15572
1048.173	119.28041
1048.533	77.17536
1048.892	9.02176
1049.251	87.21681
1049.61	65.15951
1049.969	66.15501
1050.328	57.12334
1050.687	43.1047
1051.046	73.17689
1051.405	68.16851
1051.763	31.07151
1052.122	38.09492
1052.48	95.23088
1052.839	54.12687
1053.197	70.16402
1053.555	133.29799
1053.914	98.23742
1054.272	109.26044
1054.63	31.07602
1054.988	43.10223
1055.345	81.17317
1055.703	91.21718
1056.061	70.17934
1056.419	66.17027
1056.776	79.19042
1057.134	48.1111
1057.491	72.17946
1057.848	56.13918
1058.206	53.1245
1058.563	63.13842
1058.92	108.24591
1059.277	83.20338
1059.634	103.23968
1059.991	64.15283
1060.348	41.09277
1060.704	41.09781
1061.061	84.19374
1061.418	58.14035
1061.774	34.08413
1062.131	26.06898
1062.487	23.05403
1062.843	71.17623
1063.199	35.08722
1063.555	74.17054
1063.911	77.19342
1064.267	143.29193
1064.623	62.15015
1064.979	114.26659
1065.335	101.23892
1065.691	65.15525
1066.046	66.14455
1066.402	60.13595
1066.757	73.18338
1067.112	113.27391
1067.468	45.10629
1067.823	91.21693
1068.178	74.17806
1068.533	101.24234
1068.888	116.2735
1069.243	77.18896
1069.598	73.17649
1069.952	84.1877
1070.307	37.09174
1070.662	75.17707
1071.016	30.06745
1071.371	79.17853
1071.725	113.26689
1072.079	60.14394
1072.434	86.20741
1072.788	73.17295
1073.142	86.20999
1073.496	45.10678
1073.85	49.11358
1074.203	32.07785
1074.557	55.14603
1074.911	133.31218
1075.265	40.0931
1075.618	92.22271
1075.971	76.17975
1076.325	47.11942
1076.678	49.112
1077.031	42.09513
1077.385	92.20073
1077.738	76.17052
1078.091	54.12261
1078.444	120.27456
1078.796	45.11043
1079.149	133.32553
1079.502	14.03328
1079.855	75.17391
1080.207	120.29159
1080.56	49.12657
1080.912	57.13848
1081.264	88.21022
1081.617	83.20089
1081.969	53.13352
1082.321	68.16536
1082.673	26.05958
1083.025	23.05481
1083.377	-149.33328
1083.728	103.2376
1084.08	43.10739
1084.432	75.17988
1084.783	93.2159
1085.135	82.20417
1085.486	55.12561
1085.838	63.15466
1086.189	19.04635
1086.54	142.33285
1086.891	68.17128
1087.242	68.16486
1087.593	97.23389
1087.944	81.18201
1088.295	116.25995
1088.646	83.19975
1088.996	46.11081
1089.347	27.06648
1089.698	87.20397
1090.048	69.17848
1090.398	85.19561
1090.749	50.11954
1091.099	43.10817
1091.449	112.27561
1091.799	113.27946
1092.149	24.05876
1092.499	35.08554
1092.849	66.16713
1093.199	107.2652
1093.548	56.13429
1093.898	91.22579
1094.248	84.21437
1094.597	37.09458
1094.947	93.2461
1095.296	58.14289
1095.645	66.17104
1095.994	93.22136
1096.343	98.24427
1096.692	43.11299
1097.041	64.17273
1097.39	77.19203
1097.739	92.23718
1098.088	84.22359
1098.437	28.07376
1098.785	103.27503
1099.134	122.31975
1099.482	76.20797
1099.83	94.24494
1100.179	47.12254
1100.527	34.0905
1100.875	39.10321
1101.223	36.09573
1101.571	69.18993
1101.919	30.07858
1102.267	24.06778
1102.615	7.0225
1102.962	8.02576
1103.31	10.03211
1103.658	15.04829
