Data from N2 R11 sample 8_Subt2__1__16-02-33-536.txt Node

Date: Mon Sep 01 16:02:33 PDT 2025
User: uwsun
Spectrometer: HDX01956
Trigger mode: 0
Integration Time (sec): 5.000000E-1
Scans to average: 1
Nonlinearity correction enabled: true
Boxcar width: 0
Storing dark spectrum: false
XAxis mode: Wavelengths
Number of Pixels in Spectrum: 2068
>>>>>Begin Spectral Data<<<<<
194.03	-52.14712
194.578	-61.19434
195.127	-62.19472
195.676	-58.18261
196.225	17.04497
196.773	-44.12148
197.321	-79.21477
197.87	-51.12737
198.418	-113.28181
198.966	-108.27066
199.513	-119.28509
200.061	-110.26739
200.609	-71.18097
201.156	-121.25476
201.704	-102.24618
202.251	-137.35018
202.798	-86.21381
203.345	-63.14932
203.892	-111.26896
204.438	-111.25647
204.985	-156.35649
205.532	-130.32942
206.078	-93.21914
206.624	-131.30988
207.17	-69.15339
207.716	-101.23485
208.262	-75.14247
208.808	-159.37699
209.354	-85.19741
209.899	-31.07475
210.445	-115.27372
210.99	-134.3109
211.535	-67.15086
212.08	-54.11992
212.625	-79.18955
213.17	-45.10863
213.715	-169.3638
214.259	-97.21787
214.804	-77.18278
215.348	-72.15809
215.892	-64.14684
216.436	-38.08418
216.98	-42.08899
217.524	-102.23215
218.068	-57.13729
218.612	-53.1277
219.155	-101.22927
219.698	-78.17861
220.242	-70.16812
220.785	-72.16195
221.328	-66.15797
221.871	-60.14645
222.414	-61.1462
222.956	-83.19177
223.499	-94.20475
224.041	-12.02673
224.583	-40.08338
225.126	-79.16823
225.668	-74.17278
226.21	-78.1884
226.751	-95.20028
227.293	-65.14323
227.835	-109.25714
228.376	-48.10668
228.918	-28.06758
229.459	-91.21759
230	-26.05891
230.541	-85.18935
231.082	-113.26503
231.622	-54.11952
232.163	-81.18834
232.704	-116.27764
233.244	-78.18562
233.784	-64.15101
234.324	-118.24959
234.864	-112.24592
235.404	-105.24202
235.944	-99.2271
236.484	-83.19953
237.023	-97.22055
237.563	-72.15922
238.102	-91.20699
238.641	-78.18911
239.18	-118.26552
239.719	-73.17549
240.258	-31.06636
240.797	-75.17143
241.335	-74.17373
241.874	-128.23941
242.412	-52.11883
242.95	-121.27768
243.488	-87.19075
244.026	-93.20536
244.564	-94.18653
245.102	-44.09372
245.64	-61.14066
246.177	-43.09165
246.715	-21.04779
247.252	-63.13836
247.789	-6.01076
248.326	-108.2476
248.863	-50.10391
249.4	-51.11026
249.936	-75.14747
250.473	-60.13269
251.009	-121.26596
251.546	-105.22195
252.082	-81.16957
252.618	-103.21944
253.154	-149.34467
253.69	-71.15212
254.226	-91.20699
254.761	-51.10842
255.297	-133.28015
255.832	-85.19123
256.367	-104.23412
256.903	-108.22684
257.438	-48.10673
257.972	-103.21934
258.507	-122.26641
259.042	-100.20744
259.576	-142.29246
260.111	-107.23677
260.645	-81.16701
261.179	-105.23293
261.713	-78.16426
262.247	-111.2446
262.781	-95.189
263.315	-98.22728
263.849	-87.20564
264.382	-83.18129
264.915	-141.31513
265.449	-132.30395
265.982	-27.0576
266.515	-87.20037
267.048	-139.28157
267.58	-71.14725
268.113	-105.21494
268.646	-127.29763
269.178	-143.30439
269.71	-77.15891
270.243	-64.13768
270.775	-103.24751
271.307	-78.1776
271.838	-49.1097
272.37	-80.1851
272.902	-89.19143
273.433	-81.16671
273.965	-65.14827
274.496	-111.26186
275.027	-113.26472
275.558	-144.33172
276.089	-155.35969
276.62	-98.23563
277.15	-75.17405
277.681	-81.16589
278.211	-107.24811
278.741	-134.27871
279.272	-100.21411
279.802	-114.26857
280.332	-108.23893
280.861	-103.23296
281.391	-77.16269
281.921	-72.16235
282.45	-110.25895
282.98	-88.21463
283.509	-89.18706
284.038	-114.24388
284.567	-119.26244
285.096	-71.1596
285.625	-127.27069
286.153	-145.31952
286.682	-90.19128
287.21	-148.33466
287.739	-125.27637
288.267	-129.29152
288.795	-110.27059
289.323	-145.3163
289.851	-89.1934
290.378	-148.31181
290.906	-201.45774
291.433	-73.16779
291.961	-133.28003
292.488	-112.25872
293.015	-144.31485
293.542	-162.3818
294.069	-145.33088
294.596	-79.1802
295.122	-117.25803
295.649	-139.28557
296.175	-61.13549
296.702	-125.28122
297.228	-67.14931
297.754	-145.3018
298.28	-150.31491
298.806	-179.39989
299.332	-166.33927
299.857	-114.23542
300.383	-124.28975
300.908	-200.44837
301.433	-146.32516
301.958	-104.22036
302.483	-190.43733
303.008	-145.33022
303.533	-141.33805
304.058	-119.25705
304.582	-166.3585
305.107	-190.45491
305.631	-115.23946
306.155	-197.42116
306.679	-159.33757
307.203	-162.34221
307.727	-154.33258
308.251	-127.28408
308.775	-219.47407
309.298	-189.41
309.822	-164.37582
310.345	-169.36286
310.868	-184.39856
311.391	-182.40751
311.914	-175.39499
312.437	-160.33012
312.96	-212.45215
313.482	-181.38528
314.005	-191.43163
314.527	-200.4719
315.049	-180.40967
315.571	-273.54795
316.093	-182.40163
316.615	-222.47882
317.137	-205.3972
317.659	-141.30288
318.18	-165.3529
318.702	-196.40276
319.223	-168.30132
319.744	-191.37504
320.265	-230.48989
320.786	-227.49096
321.307	-242.53001
321.828	-197.38737
322.348	-238.48929
322.869	-237.48383
323.389	-434.64943
323.909	-202.39935
324.43	-216.45407
324.95	-265.52378
325.47	-273.57781
325.989	-284.57543
326.509	-329.62193
327.029	-293.56093
327.548	-323.61836
328.067	-321.65768
328.587	-259.54578
329.106	-272.51757
329.625	-219.48783
330.144	-343.66778
330.662	-374.73108
331.181	-311.60605
331.7	-331.64595
332.218	-251.43874
332.736	-307.59057
333.255	-332.63329
333.773	-313.60328
334.291	-274.55771
334.808	-303.53859
335.326	-331.59998
335.844	-352.6483
336.361	-398.80972
336.879	-345.63078
337.396	-345.65217
337.913	-360.64508
338.43	-351.60904
338.947	-375.69397
339.464	-411.67468
339.981	-396.72057
340.497	-411.79027
341.014	-443.8354
341.53	-446.76388
342.046	-470.88655
342.562	-389.73716
343.078	-397.69656
343.594	-376.66508
344.11	-404.71201
344.626	-470.89133
345.141	-495.83717
345.657	-398.65716
346.172	-455.80549
346.687	-439.72389
347.202	-453.72379
347.717	-461.79234
348.232	-434.77931
348.747	-456.73754
349.261	-536.80853
349.776	-468.76981
350.29	-562.98129
350.805	-431.74591
351.319	-478.76835
351.833	-542.83725
352.347	-521.84061
352.861	-536.85041
353.374	-459.71164
353.888	-489.80057
354.401	-528.81177
354.915	-607.8996
355.428	-572.95936
355.941	-598.92224
356.454	-469.6792
356.967	-556.86851
357.48	-538.80376
357.993	-604.99371
358.505	-618.99419
359.018	-563.89098
359.53	-637.99202
360.042	-610.85661
360.554	-604.94138
361.066	-653.01986
361.578	-640.86399
362.09	-598.89083
362.602	-632.84305
363.113	-666.95453
363.625	-624.83679
364.136	-615.79825
364.647	-790.0999
365.158	-646.88764
365.669	-656.93664
366.18	-658.91298
366.691	-700.89194
367.201	-715.00558
367.712	-693.88635
368.222	-724.93284
368.733	-713.82117
369.243	-737.86489
369.753	-754.95372
370.263	-715.92026
370.773	-760.02413
371.282	-791.9865
371.792	-881.99084
372.301	-947.18968
372.811	-841.13573
373.32	-934.87872
373.829	-939.00776
374.338	-927.86631
374.847	-1014.98106
375.356	-1069.05629
375.865	-1058.75433
376.373	-1115.87821
376.882	-1103.07754
377.39	-1107.92055
377.898	-1297.02523
378.407	-1320.78473
378.915	-1283.617
379.423	-1360.74399
379.93	-1401.60866
380.438	-1516.64014
380.946	-1567.48188
381.453	-1674.43755
381.96	-1830.30905
382.468	-2047.08955
382.975	-1991.05517
383.482	-1986.76535
383.989	-2109.98283
384.495	-2184.59216
385.002	-2430.21844
385.509	-2542.24156
386.015	-2646.8562
386.521	-2743.85812
387.028	-2953.72344
387.534	-3060.63534
388.04	-2934.66896
388.546	-3354.57343
389.051	-3679.6422
389.557	-3830.82583
390.063	-3625.00917
390.568	-3936.29918
391.073	-4189.07144
391.578	-4441.2612
392.084	-4763.53777
392.589	-5292.61661
393.093	-5794.48061
393.598	-6076.41753
394.103	-6516.37672
394.607	-7113.65784
395.112	-7469.14862
395.616	-7918.54081
396.12	-9044.33609
396.624	-10190.25363
397.128	-10821.25874
397.632	-11593.71972
398.136	-12868.54497
398.639	-15082.4597
399.143	-17538.45269
399.646	-19338.01514
400.15	-21446.55941
400.653	-24510.74119
401.156	-28427.59454
401.659	-33827.36804
402.162	-32363.84646
402.664	-22040.06375
403.167	-6346.45178
403.67	-1215.20448
404.172	0
404.674	0
405.176	0
405.678	0
406.18	0
406.682	0
407.184	0
407.686	0
408.187	0
408.688	0
409.19	0
409.691	-9900.94243
410.192	-17483.99997
410.693	-23251.7842
411.194	-26574.101
411.694	-24699.64212
412.195	-22429.42803
412.696	-21837.65293
413.196	-22542.14556
413.696	-23404.21778
414.196	-21968.98253
414.696	-18765.04903
415.196	-15534.92126
415.696	-10222.59927
416.196	-8115.78926
416.695	-8958.82947
417.195	-9531.89108
417.694	-9112.76169
418.194	-8122.62853
418.693	-8329.0151
419.192	-8172.65032
419.691	-7956.25343
420.19	-7429.80207
420.688	-6933.78511
421.187	-6363.53374
421.685	-5717.55846
422.184	-4808.47495
422.682	-4360.6196
423.18	-4225.96635
423.678	-4071.47713
424.176	-3640.41625
424.674	-3541.61752
425.172	-3047.04935
425.669	-2787.76543
426.167	-2426.80929
426.664	-2475.8021
427.161	-2307.94935
427.659	-2149.22344
428.156	-2068.17685
428.652	-2101.70166
429.149	-1929.69725
429.646	-1735.66985
430.143	-1666.99578
430.639	-1592.0821
431.135	-1520.30897
431.632	-1406.2384
432.128	-1422.49413
432.624	-1450.73478
433.12	-1503.52497
433.616	-1379.46322
434.111	-1509.7696
434.607	-1434.86573
435.103	-1222.58213
435.598	-1132.54132
436.093	-1070.78236
436.588	-980.70985
437.083	-1037.86296
437.578	-962.86021
438.073	-1111.20132
438.568	-926.03198
439.062	-899.79914
439.557	-851.94664
440.051	-909.97595
440.546	-924.01946
441.04	-956.19146
441.534	-850.14908
442.028	-780.98469
442.522	-858.11293
443.015	-845.97701
443.509	-796.08915
444.002	-844.17697
444.496	-743.86874
444.989	-824.1747
445.482	-786.13649
445.975	-859.10705
446.468	-817.99052
446.961	-796.96597
447.454	-762.00255
447.947	-793.1087
448.439	-753.11464
448.931	-853.16187
449.424	-749.18595
449.916	-757.14517
450.408	-783.07441
450.9	-833.2862
451.392	-798.29901
451.884	-748.09073
452.375	-822.32847
452.867	-680.98197
453.358	-761.09849
453.849	-722.96731
454.341	-698.00439
454.832	-699.95661
455.323	-728.17478
455.814	-714.09054
456.304	-674.02681
456.795	-689.0513
457.285	-594.87843
457.776	-602.9317
458.266	-694.12735
458.756	-606.99701
459.247	-674.10091
459.737	-712.18331
460.226	-636.97805
460.716	-600.99317
461.206	-646.10232
461.695	-613.1053
462.185	-644.09418
462.674	-576.94708
463.163	-562.88454
463.653	-573.85379
464.142	-658.17239
464.63	-575.0377
465.119	-592.00128
465.608	-577.97754
466.096	-545.87738
466.585	-521.89936
467.073	-559.01855
467.561	-525.95853
468.05	-485.84968
468.538	-525.99444
469.026	-562.04501
469.513	-537.86547
470.001	-529.92534
470.489	-503.91835
470.976	-517.93533
471.463	-497.98051
471.951	-436.86077
472.438	-483.89521
472.925	-500.9265
473.412	-430.84773
473.899	-453.83625
474.385	-450.89591
474.872	-472.89032
475.359	-481.96187
475.845	-456.76552
476.331	-415.73887
476.817	-427.8614
477.303	-442.85091
477.789	-449.90453
478.275	-436.90278
478.761	-417.84354
479.247	-375.70125
479.732	-431.90301
480.218	-437.97051
480.703	-425.90106
481.188	-378.68222
481.673	-400.77968
482.158	-398.70988
482.643	-349.76254
483.128	-429.84238
483.612	-386.7778
484.097	-365.77589
484.581	-340.68321
485.066	-382.80655
485.55	-395.75329
486.034	-349.65198
486.518	-374.76298
487.002	-367.7815
487.486	-379.81302
487.969	-379.81442
488.453	-325.72212
488.936	-344.682
489.42	-287.55529
489.903	-316.70606
490.386	-764.26301
490.869	-286.55084
491.352	-298.65209
491.835	-319.59032
492.318	-335.67519
492.8	-291.535
493.283	-343.78233
493.765	-340.75246
494.247	-308.65203
494.73	-311.61903
495.212	-269.58627
495.694	-332.69976
496.175	-410.88766
496.657	-268.57232
497.139	-239.37654
497.62	-367.79169
498.102	-321.72241
498.583	-300.68441
499.064	-382.78425
499.545	-333.69708
500.026	-311.63547
500.507	-258.54188
500.988	-298.67683
501.469	-341.78341
501.949	-305.69343
502.43	-331.71986
502.91	-348.66607
503.39	-296.68291
503.87	-338.73242
504.35	-280.60908
504.83	-295.5932
505.31	-339.76041
505.79	-290.63539
506.269	-284.61253
506.749	-320.67535
507.228	-293.6318
507.707	-323.66508
508.187	-265.58466
508.666	-295.66662
509.145	-324.70239
509.623	-301.65462
510.102	-281.62955
510.581	-233.51815
511.059	-288.66524
511.538	-279.66962
512.016	-271.59965
512.494	-252.56563
512.972	-292.6484
513.45	-307.65744
513.928	-306.69049
514.406	-335.74928
514.884	-263.6245
515.361	-264.5855
515.839	-303.64495
516.316	-303.68107
516.793	-260.61226
517.27	-238.53597
517.747	-294.70307
518.224	-248.53397
518.701	-259.53786
519.178	-303.7003
519.654	-261.58162
520.131	-274.63241
520.607	-235.54251
521.083	-278.59496
521.56	-283.62698
522.036	-250.51396
522.512	-224.51475
522.987	-281.62255
523.463	-275.61281
523.939	-231.52818
524.414	-227.48991
524.89	-257.57152
525.365	-233.49208
525.84	-308.68733
526.315	-310.70579
526.79	-223.4691
527.265	-234.49885
527.74	-273.62521
528.215	-252.55726
528.689	-255.5305
529.164	-256.52534
529.638	-268.64897
530.112	-249.54913
530.587	-214.42447
531.061	-285.64744
531.534	-216.49001
532.008	-278.63013
532.482	-222.4784
532.956	-281.6734
533.429	-248.56556
533.903	-208.43186
534.376	-242.50447
534.849	-222.48313
535.322	-178.3905
535.795	-216.49458
536.268	-218.49033
536.741	-192.43079
537.213	-149.3191
537.686	-248.56762
538.158	-242.50918
538.631	-177.40179
539.103	-206.43095
539.575	-138.26694
540.047	-163.33336
540.519	-137.30328
540.991	-147.3341
541.463	-189.42763
541.934	-173.36873
542.406	-192.42654
542.877	-165.34633
543.348	-125.27891
543.82	-104.23479
544.291	-145.31469
544.762	-140.30585
545.233	-110.25238
545.703	-149.30418
546.174	-109.23242
546.645	-186.41012
547.115	-109.23979
547.585	-46.09547
548.056	-98.21337
548.526	-52.10936
548.996	-8.01716
549.466	-39.08576
549.935	-41.08621
550.405	-13.02514
550.875	-7.01463
551.344	24.05065
551.814	41.08241
552.283	95.17861
552.752	84.16778
553.221	106.19551
553.69	131.2469
554.159	105.22
554.628	142.26678
555.096	201.42748
555.565	295.53635
556.033	328.63477
556.502	358.71076
556.97	412.73485
557.438	439.84168
557.906	533.00549
558.374	602.07517
558.842	595.11611
559.31	716.2129
559.777	748.36823
560.245	842.4717
560.712	956.59286
561.18	950.48698
561.647	1111.69165
562.114	1223.84462
562.581	1341.18607
563.048	1465.11145
563.514	1512.32494
563.981	1687.249
564.448	1750.21528
564.914	1978.47088
565.381	2164.45259
565.847	2294.60498
566.313	2467.60716
566.779	2679.46451
567.245	2792.63558
567.711	3091.71677
568.176	3240.31753
568.642	3392.90418
569.108	3634.70482
569.573	3900.35967
570.038	4146.58358
570.504	4362.77117
570.969	4735.29121
571.434	4960.3075
571.899	5152.69779
572.363	5397.31657
572.828	5916.1598
573.293	6077.10861
573.757	6311.06975
574.222	6499.90101
574.686	6914.97125
575.15	7053.25756
575.614	7239.18767
576.078	7460.38176
576.542	7636.41772
577.006	7802.53085
577.469	7917.92195
577.933	8060.78782
578.396	8080.95289
578.86	8140.99894
579.323	8245.14088
579.786	8138.84075
580.249	8204.00313
580.712	8075.02461
581.175	8124.09482
581.637	7956.75718
582.1	7924.61843
582.563	8042.7213
583.025	7773.72162
583.487	7677.19527
583.95	7527.17627
584.412	7537.15047
584.874	7343.47534
585.336	7171.30889
585.797	7050.92635
586.259	6983.25975
586.721	6790.18046
587.182	6763.20466
587.643	6459.04119
588.105	6450.24081
588.566	6339.72245
589.027	6131.36898
589.488	6085.11606
589.949	6055.46083
590.41	5835.44511
590.87	5780.23468
591.331	5625.00075
591.791	5468.38631
592.252	5321.3888
592.712	5242.76449
593.172	5127.42458
593.632	5140.29973
594.092	4969.46441
594.552	4771.38008
595.011	4626.79337
595.471	4615.6802
595.931	4403.77419
596.39	4273.25991
596.849	4205.13667
597.308	4169.77804
597.768	4026.78468
598.227	3997.46531
598.685	3807.29365
599.144	3829.35641
599.603	3703.49629
600.062	3586.87425
600.52	3547.19898
600.978	3443.59844
601.437	3364.43855
601.895	3356.03315
602.353	3223.32048
602.811	3237.30427
603.269	3157.72508
603.727	3076.73855
604.184	3109.39496
604.642	2942.87884
605.099	2920.59795
605.557	2905.86313
606.014	2828.23833
606.471	2736.95183
606.928	2684.21468
607.385	2686.7933
607.842	2637.53123
608.299	2698.63503
608.755	2625.78167
609.212	2649.39239
609.668	2516.35818
610.125	2582.80798
610.581	2601.77568
611.037	2530.5905
611.493	2540.74471
611.949	2387.77285
612.405	2424.02352
612.861	2407.72492
613.316	2431.76165
613.772	2369.58912
614.227	2274.67853
614.683	2363.32468
615.138	2215.63134
615.593	2260.62139
616.048	2156.5521
616.503	2189.87199
616.958	2086.89119
617.412	2128.67346
617.867	2058.36918
618.321	2057.16754
618.776	2044.40258
619.23	1956.58439
619.684	1936.45022
620.138	2012.60116
620.592	1771.61865
621.046	1891.58457
621.5	1779.63381
621.954	1800.39721
622.407	1753.33106
622.861	1682.5743
623.314	1673.36072
623.768	1633.40174
624.221	1573.87674
624.674	1560.31734
625.127	1511.32948
625.58	1574.32158
626.033	1555.21386
626.485	1454.35129
626.938	1459.35351
627.39	1448.27631
627.843	1433.25188
628.295	1362.18424
628.747	1441.34636
629.199	1365.14663
629.651	1342.12288
630.103	1396.20269
630.555	1381.985
631.006	1264.14177
631.458	1401.30609
631.909	1369.21594
632.361	1368.25204
632.812	1358.2109
633.263	1365.04006
633.714	1380.04234
634.165	1418.43771
634.616	1335.28882
635.067	1373.14572
635.518	1429.41071
635.968	1510.99077
636.419	1420.13639
636.869	1424.40545
637.319	1401.29216
637.769	1403.1993
638.219	1498.50822
638.669	1481.47621
639.119	1582.66418
639.569	1599.63746
640.019	1593.49716
640.468	1631.41325
640.918	1691.73277
641.367	1702.48577
641.816	1755.51548
642.265	1717.60788
642.714	1796.6697
643.163	1813.66084
643.612	1854.84278
644.061	1907.40679
644.51	1941.7053
644.958	1886.54057
645.406	2051.97522
645.855	2094.12019
646.303	2068.90172
646.751	2037.75871
647.199	2137.81276
647.647	2082.83479
648.095	2148.85084
648.543	2207.43067
648.99	2200.06243
649.438	2239.02226
649.885	2262.27711
650.333	2151.21463
650.78	2204.12567
651.227	2227.17368
651.674	2188.85839
652.121	2217.17646
652.568	2222.16734
653.015	2247.39748
653.461	2203.06194
653.908	2229.98761
654.354	2194.09011
654.801	2117.96012
655.247	2177.71761
655.693	2075.44544
656.139	2149.08797
656.585	2100.06657
657.031	1990.86663
657.477	2080.60944
657.922	2035.84992
658.368	2064.18577
658.813	2093.94584
659.259	2029.03134
659.704	1973.87203
660.149	2053.92238
660.594	1995.97146
661.039	1956.77719
661.484	2020.02745
661.929	1990.91388
662.373	1998.24744
662.818	1973.15793
663.262	1971.0216
663.707	2049.31775
664.151	2070.16407
664.595	2105.12117
665.039	2037.23283
665.483	2095.38023
665.927	2168.06011
666.371	2079.91842
666.814	2165.12665
667.258	2130.04793
667.701	2205.70873
668.145	2264.38898
668.588	2146.24835
669.031	2146.03577
669.474	2168.17188
669.917	2298.85192
670.36	2291.3852
670.803	2282.25116
671.245	2279.6339
671.688	2356.34113
672.13	2250.88224
672.573	2344.5546
673.015	2282.22735
673.457	2301.78068
673.899	2385.32256
674.341	2349.28511
674.783	2355.24896
675.225	2365.38813
675.666	2261.21553
676.108	2358.79395
676.549	2430.23156
676.991	2407.87401
677.432	2375.4281
677.873	2357.08961
678.314	2386.25503
678.755	2424.36502
679.196	2334.0294
679.637	2376.37856
680.078	2300.13202
680.518	2452.16976
680.959	2347.25989
681.399	2284.40558
681.839	2290.3167
682.28	2345.40765
682.72	2244.99769
683.16	2275.42276
683.6	2261.00026
684.039	2317.61787
684.479	2222.32085
684.919	2238.01991
685.358	2325.56084
685.798	2328.7366
686.237	2350.32219
686.676	2299.10185
687.115	2295.15177
687.554	2261.18604
687.993	2307.87825
688.432	2285.01549
688.871	2309.98723
689.309	2224.19547
689.748	2309.63925
690.186	2348.26234
690.625	2287.13451
691.063	2344.27284
691.501	2312.41798
691.939	2305.45477
692.377	2285.3322
692.815	2334.2524
693.253	2414.32363
693.69	2356.86299
694.128	2338.31894
694.565	2341.24928
695.003	2464.6336
695.44	2413.19882
695.877	2448.17481
696.314	2369.77674
696.751	2410.06199
697.188	2418.08698
697.625	2514.12543
698.061	2403.30073
698.498	2487.38591
698.934	2468.34958
699.371	2446.21596
699.807	2405.23322
700.243	2528.3605
700.679	2430.02866
701.115	2515.25356
701.551	2467.23517
701.987	2448.00242
702.422	2481.27545
702.858	2526.30817
703.294	2588.06562
703.729	2563.46913
704.164	2575.37836
704.599	2522.96655
705.035	2578.9931
705.47	2579.43216
705.904	2591.20295
706.339	2619.21513
706.774	2642.24376
707.209	2637.1567
707.643	2631.38145
708.078	2675.46787
708.512	2645.60946
708.946	2601.36756
709.38	2716.32374
709.814	2745.13221
710.248	2722.48695
710.682	2710.33867
711.116	2670.33829
711.549	2719.83549
711.983	2665.17436
712.416	2720.31526
712.85	2646.60071
713.283	2770.32209
713.716	2806.69247
714.149	2772.37081
714.582	2680.02772
715.015	2700.64734
715.448	2718.68891
715.881	2701.90574
716.313	2700.25567
716.746	2603.2602
717.178	2659.38994
717.61	2690.71819
718.043	2658.60409
718.475	2631.43273
718.907	2638.69782
719.339	2533.04468
719.77	2575.28655
720.202	2612.67352
720.634	2500.40747
721.065	2535.2827
721.497	2499.45438
721.928	2429.432
722.359	2460.34045
722.79	2479.31299
723.221	2412.5696
723.652	2412.71501
724.083	2415.99408
724.514	2241.02505
724.945	2271.14338
725.375	2295.08441
725.806	2300.47028
726.236	2239.57259
726.666	2209.15123
727.096	2231.33948
727.526	2209.50049
727.956	2201.95276
728.386	2197.33772
728.816	2125.42367
729.246	2077.1924
729.675	2057.23949
730.105	2064.2516
730.534	2094.03375
730.964	2036.36265
731.393	2090.31915
731.822	2026.40203
732.251	1934.29449
732.68	1996.01023
733.109	1897.12798
733.537	1897.03812
733.966	1836.10956
734.395	1897.8533
734.823	1897.76444
735.251	1752.90864
735.68	1814.13236
736.108	1795.15513
736.536	1751.82757
736.964	1668.6915
737.392	1735.04895
737.82	1771.91263
738.247	1755.89079
738.675	1677.81405
739.102	1657.96004
739.53	1682.06257
739.957	1581.99323
740.384	1636.89638
740.811	1518.86463
741.238	1591.80258
741.665	1464.48936
742.092	1524.65696
742.519	1424.65945
742.945	1443.58259
743.372	1432.67313
743.798	1420.79074
744.225	1376.47283
744.651	1449.74132
745.077	1394.65036
745.503	1385.56805
745.929	1362.48485
746.355	1334.56895
746.781	1303.5121
747.207	1254.28025
747.632	1269.41153
748.058	1306.53762
748.483	1231.20397
748.908	1210.39066
749.334	1233.38927
749.759	1180.20142
750.184	1147.18228
750.609	1165.29571
751.033	1165.19204
751.458	1218.12001
751.883	1123.25713
752.307	1059.02903
752.732	1028.12588
753.156	1086.19013
753.58	1084.08949
754.005	1008.13816
754.429	954.87145
754.853	1014.08477
755.277	935.85783
755.7	981.03621
756.124	906.9124
756.548	916.82974
756.971	941.9365
757.394	876.94404
757.818	885.95712
758.241	861.8827
758.664	855.86172
759.087	828.57435
759.51	894.8994
759.933	803.67303
760.356	849.88373
760.778	814.73459
761.201	803.69597
761.623	794.67585
762.046	779.60933
762.468	737.55782
762.89	730.59176
763.312	722.55769
763.734	692.47824
764.156	646.43281
764.578	637.31154
765	651.42385
765.421	611.40527
765.843	663.56492
766.264	659.42438
766.686	606.38072
767.107	618.35018
767.528	534.2385
767.949	571.32676
768.37	583.3007
768.791	568.25231
769.212	480.11879
769.632	529.12745
770.053	477.17056
770.473	501.12534
770.894	499.15698
771.314	501.10507
771.734	471.01709
772.154	488.16372
772.575	448.96908
772.994	400.85491
773.414	471.05049
773.834	433.014
774.254	458.04394
774.673	447.01616
775.093	377.88443
775.512	353.82814
775.931	391.93834
776.351	385.90495
776.77	386.89226
777.189	363.81992
777.607	317.77696
778.026	334.79534
778.445	274.6625
778.864	352.86128
779.282	363.82927
779.701	334.80509
780.119	283.69005
780.537	311.7447
780.955	295.72332
781.373	299.71133
781.791	249.54246
782.209	286.63508
782.627	288.73206
783.045	296.654
783.462	271.66965
783.88	232.58452
784.297	231.566
784.715	232.57991
785.132	203.48112
785.549	236.57428
785.966	220.53995
786.383	214.51413
786.8	247.55657
787.217	223.51522
787.633	187.45786
788.05	267.61343
788.466	274.62384
788.883	179.4485
789.299	187.442
789.715	202.4805
790.131	207.50325
790.547	216.5266
790.963	190.46253
791.379	200.49486
791.795	160.36032
792.21	189.43337
792.626	193.44875
793.041	151.36808
793.457	209.50469
793.872	150.34843
794.287	114.27045
794.702	184.44508
795.117	162.39644
795.532	137.33968
795.947	188.44393
796.362	189.44275
796.776	233.53082
797.191	137.33196
797.605	134.31139
798.02	144.34636
798.434	171.37459
798.848	137.33383
799.262	109.26887
799.676	174.4174
800.09	120.29312
800.504	166.39654
800.918	160.36519
801.331	150.38831
801.745	121.27601
802.158	142.35085
802.572	151.36161
802.985	170.40423
803.398	104.24702
803.811	149.37831
804.224	146.35901
804.637	121.28601
805.05	140.32096
805.462	145.352
805.875	76.19682
806.288	75.18098
806.7	127.31626
807.112	105.24241
807.525	112.2747
807.937	77.19029
808.349	114.28363
808.761	106.2594
809.173	129.30963
809.584	137.33495
809.996	96.23415
810.408	87.22386
810.819	93.21812
811.231	45.11676
811.642	26.06256
812.053	56.13368
812.464	65.15489
812.875	96.24431
813.286	95.24351
813.697	166.38178
814.108	72.17607
814.519	128.28259
814.929	111.28123
815.34	84.20342
815.75	68.17287
816.16	113.27966
816.571	85.22024
816.981	81.19116
817.391	107.25683
817.801	65.16163
818.211	90.21401
818.62	100.23953
819.03	90.21992
819.44	110.28536
819.849	93.23345
820.259	130.32931
820.668	48.11856
821.077	86.21296
821.486	143.33997
821.895	102.25073
822.304	101.26611
822.713	71.16795
823.122	64.15993
823.531	80.18943
823.939	111.26846
824.348	74.17988
824.756	75.18772
825.164	118.29444
825.573	47.1184
825.981	99.2443
826.389	115.28659
826.797	72.18025
827.205	87.19909
827.612	97.23822
828.02	85.19905
828.428	76.19327
828.835	64.16848
829.243	103.24403
829.65	44.10987
830.057	77.18665
830.464	47.115
830.871	165.38804
831.278	82.19776
831.685	103.22849
832.092	99.24106
832.499	45.09904
832.905	69.17463
833.312	111.25126
833.718	95.23554
834.124	127.287
834.531	94.23583
834.937	83.21238
835.343	120.28677
835.749	130.30018
836.155	102.26533
836.561	67.16479
836.966	114.27639
837.372	130.32708
837.777	43.10755
838.183	35.07842
838.588	70.17366
838.993	80.19432
839.399	55.13472
839.804	28.0687
840.209	62.15784
840.613	49.10947
841.018	90.22685
841.423	66.16921
841.828	60.15183
842.232	112.2751
842.637	91.21368
843.041	50.12841
843.445	67.16794
843.849	62.15353
844.253	130.3052
844.657	78.19583
845.061	109.24522
845.465	60.14503
845.869	90.20815
846.272	60.14618
846.676	140.3338
847.079	37.09448
847.483	93.23075
847.886	84.20365
848.289	59.15744
848.692	73.18449
849.095	95.22681
849.498	145.36213
849.901	111.25228
850.304	81.19294
850.707	59.15049
851.109	93.23403
851.512	94.22961
851.914	0
852.316	78.19667
852.718	45.11644
853.121	71.17366
853.523	89.20694
853.925	55.14354
854.326	51.1277
854.728	64.16442
855.13	46.11888
855.531	44.10547
855.933	79.18905
856.334	79.19623
856.736	8.01812
857.137	48.1119
857.538	81.20281
857.939	42.10408
858.34	92.22288
858.741	43.11268
859.142	70.16786
859.542	43.11371
859.943	64.15889
860.343	67.16564
860.744	58.14157
861.144	99.2397
861.544	38.09168
861.945	87.22058
862.345	58.14189
862.745	95.23451
863.145	118.27897
863.544	60.15156
863.944	98.2298
864.344	67.16618
864.743	61.1513
865.143	68.17434
865.542	32.07463
865.941	95.23356
866.34	100.2377
866.74	85.22704
867.139	40.0961
867.537	64.16287
867.936	60.14437
868.335	80.20273
868.734	64.16333
869.132	50.11638
869.531	78.18797
869.929	94.21273
870.327	96.22845
870.726	83.20602
871.124	102.23637
871.522	55.14014
871.92	75.18439
872.318	72.17554
872.715	88.21663
873.113	72.17495
873.511	89.22043
873.908	19.04828
874.306	68.16876
874.703	82.20424
875.1	78.19878
875.497	105.24944
875.894	36.08853
876.291	62.15201
876.688	47.1214
877.085	72.17226
877.482	88.21903
877.878	97.23168
878.275	79.19987
878.671	117.25739
879.068	103.24648
879.464	56.13536
879.86	51.12074
880.256	84.20625
880.652	43.1096
881.048	105.25786
881.444	110.25915
881.84	114.28672
882.236	51.12834
882.631	73.17861
883.027	76.18336
883.422	76.19362
883.817	44.11079
884.213	63.16143
884.608	44.10812
885.003	102.24376
885.398	34.08542
885.793	86.21467
886.188	54.13426
886.582	123.31174
886.977	90.2122
887.371	48.12155
887.766	63.15643
888.16	106.2621
888.554	140.34082
888.949	64.16045
889.343	131.31551
889.737	45.12008
890.131	50.12553
890.525	62.15834
890.918	82.20535
891.312	107.2535
891.706	75.19607
892.099	71.18014
892.492	91.19488
892.886	83.20202
893.279	23.05892
893.672	63.16013
894.065	121.29935
894.458	78.19534
894.851	115.27865
895.244	50.12778
895.637	93.22238
896.029	73.17788
896.422	58.14162
896.814	49.12194
897.206	55.13096
897.599	148.35976
897.991	59.14253
898.383	53.12528
898.775	87.19509
899.167	61.14206
899.559	80.20157
899.951	73.17148
900.342	110.27696
900.734	26.06483
901.125	97.25263
901.517	71.17372
901.908	111.26329
902.299	45.11019
902.69	80.18781
903.082	79.19042
903.473	33.07933
903.863	86.21816
904.254	80.18473
904.645	113.27802
905.036	29.07053
905.426	102.23131
905.817	100.24326
906.207	37.08844
906.597	81.18842
906.987	92.23685
907.378	36.09132
907.768	56.14797
908.158	38.09293
908.547	55.14202
908.937	50.12837
909.327	67.16229
909.717	121.30351
910.106	70.16761
910.495	108.26694
910.885	77.19419
911.274	94.23319
911.663	98.24675
912.052	112.27337
912.441	62.15739
912.83	48.11031
913.219	70.18266
913.608	60.14678
913.997	46.11545
914.385	111.26227
914.774	48.11699
915.162	55.13101
915.55	93.22331
915.939	76.19101
916.327	82.20357
916.715	33.08438
917.103	59.14506
917.491	110.26929
917.878	64.15703
918.266	76.19627
918.654	49.12525
919.041	40.10463
919.429	38.08994
919.816	100.25133
920.203	67.16204
920.591	84.20709
920.978	101.2451
921.365	79.20632
921.752	91.21535
922.139	105.22545
922.525	30.07235
922.912	98.23697
923.299	42.10457
923.685	65.16917
924.072	96.21947
924.458	49.12145
924.844	19.0473
925.231	101.2328
925.617	37.09434
926.003	64.16322
926.389	86.2156
926.774	83.20917
927.16	62.1537
927.546	57.14534
927.931	73.18146
928.317	96.2192
928.702	67.15806
929.088	44.10423
929.473	84.21248
929.858	39.0945
930.243	93.22144
930.628	55.13372
931.013	82.20209
931.398	91.20766
931.783	95.24827
932.167	99.23988
932.552	101.25079
932.937	94.23149
933.321	46.11553
933.705	77.19321
934.09	124.3093
934.474	67.15868
934.858	61.15795
935.242	42.09752
935.626	10.02578
936.009	47.12508
936.393	84.21248
936.777	55.14074
937.16	78.202
937.544	94.21965
937.927	41.10421
938.311	124.29859
938.694	79.20793
939.077	34.08166
939.46	99.24097
939.843	114.23458
940.226	73.18653
940.609	85.19381
940.991	92.23247
941.374	55.13432
941.757	117.2852
942.139	52.11677
942.522	95.22264
942.904	34.082
943.286	77.19474
943.668	53.13723
944.05	34.08401
944.432	86.21085
944.814	68.16697
945.196	42.10252
945.578	11.02634
945.959	100.23211
946.341	86.20976
946.722	73.17061
947.104	101.2391
947.485	81.18737
947.866	74.18565
948.247	73.18344
948.628	115.27719
949.009	50.12805
949.39	103.25398
949.771	75.17363
950.152	70.17118
950.532	14.03467
950.913	43.10388
951.293	56.15113
951.674	95.22785
952.054	44.10916
952.434	90.2218
952.814	73.17295
953.194	97.25185
953.574	118.28705
953.954	64.1516
954.334	38.09492
954.714	58.14115
955.093	93.22687
955.473	77.19161
955.853	60.15506
956.232	88.23973
956.611	79.18847
956.99	74.18519
957.37	68.17275
957.749	100.23633
958.128	37.09345
958.506	61.15795
958.885	94.2354
959.264	78.19017
959.643	92.20761
960.021	86.21171
960.4	48.10885
960.778	131.3179
961.156	55.13776
961.535	102.23534
961.913	150.34416
962.291	22.05672
962.669	79.19909
963.047	63.16041
963.424	58.14781
963.802	71.17391
964.18	111.27783
964.557	141.3189
964.935	105.24617
965.312	33.08618
965.69	115.28461
966.067	99.23889
966.444	83.20331
966.821	96.24552
967.198	95.22855
967.575	102.24841
967.952	121.28124
968.329	92.22213
968.705	86.18302
969.082	80.20409
969.458	32.07703
969.835	76.18412
970.211	52.13341
970.587	91.22488
970.963	102.2593
971.339	71.18473
971.715	94.23285
972.091	91.22241
972.467	93.23016
972.843	46.11424
973.219	138.32587
973.594	67.17474
973.97	113.26575
974.345	91.2161
974.721	123.29377
975.096	44.1066
975.471	90.21187
975.846	70.16754
976.221	41.10429
976.596	60.14355
976.971	66.16248
977.346	89.20564
977.72	91.23015
978.095	39.10098
978.469	107.25262
978.844	134.33181
979.218	42.10083
979.593	73.17415
979.967	75.18187
980.341	85.19436
980.715	86.21529
981.089	76.18937
981.463	50.11481
981.837	63.15357
982.21	96.22141
982.584	66.15893
982.957	54.13475
983.331	38.09005
983.704	60.14716
984.078	65.15975
984.451	108.26694
984.824	53.129
985.197	101.24298
985.57	89.22164
985.943	86.21101
986.316	136.32885
986.688	72.17292
987.061	74.17264
987.434	71.18435
987.806	103.24732
988.179	23.05456
988.551	81.20435
988.923	87.21279
989.295	119.29365
989.667	42.10049
990.039	77.18931
990.411	94.21446
990.783	54.12425
991.155	43.10345
991.527	113.27504
991.898	76.18847
992.27	57.14081
992.641	105.26081
993.012	88.20555
993.384	84.19905
993.755	62.15773
994.126	71.1701
994.497	52.12759
994.868	99.22519
995.239	80.19279
995.61	33.08328
995.98	45.10941
996.351	37.09184
996.722	74.17081
997.092	43.10196
997.462	38.08897
997.833	109.25545
998.203	85.20472
998.573	45.11215
998.943	64.14967
999.313	48.11506
999.683	55.13187
1000.053	109.24783
1000.423	90.21705
1000.792	48.12444
1001.162	93.22704
1001.531	84.20579
1001.901	60.14928
1002.27	70.15584
1002.639	71.18072
1003.009	59.14005
1003.378	74.18839
1003.747	78.18326
1004.116	45.10777
1004.485	54.12895
1004.853	77.19412
1005.222	86.21545
1005.591	54.12811
1005.959	42.09478
1006.328	47.10583
1006.696	53.12775
1007.064	73.18285
1007.433	119.29365
1007.801	135.32613
1008.169	86.21576
1008.537	63.13912
1008.905	55.12799
1009.273	55.13572
1009.64	41.09796
1010.008	43.10262
1010.375	69.16694
1010.743	139.31527
1011.11	46.10892
1011.478	83.20414
1011.845	90.20997
1012.212	76.17109
1012.579	50.12272
1012.946	93.21948
1013.313	114.26795
1013.68	107.23766
1014.047	36.086
1014.414	68.16002
1014.78	67.16594
1015.147	96.23012
1015.513	55.13237
1015.88	90.22847
1016.246	96.23493
1016.612	94.21325
1016.978	90.21886
1017.344	53.13088
1017.71	136.32625
1018.076	109.25405
1018.442	116.29489
1018.808	55.13732
1019.174	35.08802
1019.539	154.34709
1019.905	39.09215
1020.27	46.11357
1020.636	70.16716
1021.001	105.24867
1021.366	44.10575
1021.731	38.0979
1022.096	31.07843
1022.461	68.16033
1022.826	62.14698
1023.191	56.14672
1023.556	91.21151
1023.92	83.20278
1024.285	80.1941
1024.649	69.16845
1025.014	96.23572
1025.378	79.19752
1025.742	65.16093
1026.107	67.15098
1026.471	107.24693
1026.835	81.19958
1027.199	65.15596
1027.562	93.21428
1027.926	57.13915
1028.29	63.15899
1028.654	88.20086
1029.017	98.23867
1029.381	41.09808
1029.744	59.15018
1030.107	110.25713
1030.471	48.11493
1030.834	100.22511
1031.197	134.31753
1031.56	56.13193
1031.923	38.09841
1032.286	109.25295
1032.648	107.25301
1033.011	8.01851
1033.374	75.17535
1033.736	31.08173
1034.099	65.15792
1034.461	41.10369
1034.823	60.14907
1035.185	93.23219
1035.548	99.23862
1035.91	75.17872
1036.272	99.223
1036.634	55.13437
1036.995	83.19375
1037.357	46.11194
1037.719	99.23844
1038.08	89.20964
1038.442	24.05722
1038.803	85.20263
1039.165	53.13361
1039.526	80.19213
1039.887	67.15972
1040.248	15.03718
1040.609	114.27825
1040.97	110.26569
1041.331	63.15905
1041.692	24.05628
1042.053	74.16761
1042.413	116.26668
1042.774	121.29021
1043.134	88.20789
1043.495	106.26363
1043.855	88.21183
1044.215	51.1265
1044.576	67.1596
1044.936	102.23131
1045.296	83.20579
1045.656	102.24776
1046.016	86.20607
1046.375	80.19286
1046.735	45.10207
1047.095	59.13778
1047.454	121.25229
1047.814	77.18405
1048.173	109.25734
1048.533	46.10542
1048.892	33.07942
1049.251	100.24862
1049.61	69.1692
1049.969	80.18737
1050.328	106.22696
1050.687	70.16958
1051.046	63.15294
1051.405	88.21727
1051.763	59.13534
1052.122	64.15912
1052.48	51.12497
1052.839	50.11757
1053.197	84.19628
1053.555	139.31104
1053.914	84.20404
1054.272	117.27912
1054.63	42.10278
1054.988	41.09751
1055.345	96.20457
1055.703	78.18662
1056.061	51.13109
1056.419	60.15495
1056.776	86.20701
1057.134	89.20433
1057.491	79.19666
1057.848	71.17598
1058.206	32.07548
1058.563	62.13625
1058.92	123.27921
1059.277	66.16224
1059.634	105.24424
1059.991	115.27193
1060.348	47.10621
1060.704	52.12379
1061.061	117.26807
1061.418	52.12598
1061.774	64.15749
1062.131	33.08744
1062.487	78.18126
1062.843	89.22018
1063.199	68.16845
1063.555	94.21576
1063.911	75.18847
1064.267	114.23426
1064.623	61.14775
1064.979	140.32572
1065.335	106.2505
1065.691	110.26046
1066.046	67.14671
1066.402	66.14937
1066.757	77.19328
1067.112	44.10804
1067.468	38.08987
1067.823	80.19111
1068.178	128.30484
1068.533	81.19509
1068.888	65.15477
1069.243	96.23476
1069.598	89.21452
1069.952	32.07227
1070.307	32.07941
1070.662	77.18172
1071.016	58.12966
1071.371	67.15178
1071.725	78.18548
1072.079	56.13444
1072.434	69.16694
1072.788	70.16594
1073.142	73.17868
1073.496	72.16996
1073.85	83.19109
1074.203	86.20709
1074.557	86.22716
1074.911	118.27778
1075.265	89.20514
1075.618	118.28425
1075.971	100.23541
1076.325	56.14206
1076.678	64.14584
1077.031	59.13317
1077.385	93.20287
1077.738	61.13729
1078.091	40.09108
1078.444	101.23197
1078.796	43.10556
1079.149	105.25834
1079.502	50.11803
1079.855	87.20125
1080.207	107.26063
1080.56	64.16488
1080.912	69.16726
1081.264	79.18905
1081.617	34.08305
1081.969	53.13352
1082.321	57.1389
1082.673	24.05502
1083.025	45.10678
1083.377	-159.35638
1083.728	90.20815
1084.08	56.13953
1084.432	62.14907
1084.783	93.2159
1085.135	86.21397
1085.486	61.13915
1085.838	48.11816
1086.189	63.15243
1086.54	96.22705
1086.891	48.12133
1087.242	36.08781
1087.593	99.23862
1087.944	74.16652
1088.295	118.26433
1088.646	100.23989
1088.996	41.09886
1089.347	14.03455
1089.698	45.10637
1090.048	62.16056
1090.398	94.21593
1090.749	69.16436
1091.099	29.07314
1091.449	111.2732
1091.799	73.18186
1092.149	6.01474
1092.499	52.12669
1092.849	40.10176
1093.199	101.2506
1093.548	104.24711
1093.898	36.09022
1094.248	101.25699
1094.597	-4.0103
1094.947	77.20431
1095.296	66.16236
1095.645	96.2475
1095.994	68.16263
1096.343	79.19759
1096.692	36.09471
1097.041	36.0976
1097.39	43.1079
1097.739	48.12469
1098.088	102.27069
1098.437	22.05801
1098.785	79.21178
1099.134	66.17463
1099.482	115.31273
1099.83	90.23468
1100.179	55.1432
1100.527	83.21912
1100.875	38.10058
1101.223	67.17724
1101.571	48.13257
1101.919	32.08379
1102.267	29.08183
1102.615	-2.00643
1102.962	18.0579
1103.31	6.01928
1103.658	9.02899
