Data from N2 R11 sample 4_Subt2__4__16-06-33-518.txt Node

Date: Mon Sep 01 16:06:33 PDT 2025
User: uwsun
Spectrometer: HDX01956
Trigger mode: 0
Integration Time (sec): 5.000000E-1
Scans to average: 1
Nonlinearity correction enabled: true
Boxcar width: 0
Storing dark spectrum: false
XAxis mode: Wavelengths
Number of Pixels in Spectrum: 2068
>>>>>Begin Spectral Data<<<<<
194.03	39.10881
194.578	18.0568
195.127	31.09622
195.676	26.081
196.225	119.3094
196.773	93.25119
197.321	43.11459
197.87	99.24052
198.418	101.24206
198.966	80.19366
199.513	46.10673
200.061	23.05451
200.609	89.22043
201.156	52.10531
201.704	65.15191
202.251	109.2665
202.798	102.24487
203.345	110.25198
203.892	65.15227
204.438	122.26878
204.985	92.19971
205.532	73.17828
206.078	95.21565
206.624	67.1524
207.17	104.22287
207.716	36.08144
208.262	101.18362
208.808	17.03893
209.354	54.12196
209.899	176.40769
210.445	51.11751
210.99	28.06288
211.535	105.22807
212.08	96.20653
212.625	89.2067
213.17	93.21863
213.715	67.1369
214.259	81.17527
214.804	116.26508
215.348	132.27737
215.892	100.22188
216.436	132.28202
216.98	165.33378
217.524	57.12555
218.068	103.24054
218.612	125.29099
219.155	111.24111
219.698	105.23157
220.242	92.21413
220.785	82.17861
221.328	79.18384
221.871	114.2692
222.414	117.27087
222.956	32.07224
223.499	50.10557
224.041	104.22605
224.583	168.334
225.126	70.14423
225.668	46.10487
226.21	84.19667
226.751	86.17409
227.293	114.24176
227.835	84.19072
228.376	99.2133
228.918	111.26085
229.459	47.10941
230	100.22077
230.541	90.1932
231.082	126.28166
231.622	90.1932
232.163	74.16679
232.704	59.13648
233.244	108.2478
233.784	124.28188
234.324	59.11995
234.864	78.16441
235.404	91.20153
235.944	116.2546
236.484	87.20237
237.023	30.06645
237.563	65.13963
238.102	117.2549
238.641	97.22741
239.18	42.09141
239.719	108.25067
240.258	130.26859
240.797	82.18149
241.335	134.30177
241.874	85.15061
242.412	101.22368
242.95	61.13487
243.488	77.16298
244.026	103.2181
244.564	124.23353
245.102	109.22444
245.64	98.2188
246.177	82.17002
246.715	166.36341
247.252	77.16412
247.789	181.30887
248.326	94.20675
248.863	62.12562
249.4	104.21738
249.936	54.10295
250.473	44.09519
251.009	43.09125
251.546	75.15228
252.082	79.15952
252.618	81.16566
253.154	89.19612
253.69	99.20431
254.226	118.25702
254.761	101.20759
255.297	109.21736
255.832	82.17815
256.367	137.29314
256.903	64.12932
257.438	103.22182
257.972	96.19558
258.507	29.0613
259.042	117.23093
259.576	9.01791
260.111	90.19095
260.645	168.32699
261.179	73.15593
261.713	65.13257
262.247	109.22909
262.781	125.23594
263.315	93.20751
263.849	97.22108
264.382	133.27719
264.915	80.17062
265.449	17.03798
265.982	116.23977
266.515	84.18685
267.048	88.169
267.58	96.19166
268.113	67.13181
268.646	59.13322
269.178	67.13609
269.71	49.09826
270.243	85.17699
270.775	68.15808
271.307	119.26013
271.838	131.28237
272.37	83.18581
272.902	99.20431
273.433	102.20127
273.965	84.18584
274.496	78.17724
275.027	60.13579
275.558	76.16737
276.089	22.04926
276.62	87.20181
277.15	118.26335
277.681	72.14234
278.211	77.17202
278.741	30.06012
279.272	94.19281
279.802	137.30695
280.332	79.16794
280.861	121.26115
281.391	97.19712
281.921	70.15325
282.45	113.25443
282.98	139.3246
283.509	61.12396
284.038	111.22588
284.567	136.28388
285.096	90.19562
285.625	46.09436
286.153	40.08472
286.682	29.06004
287.21	95.20415
287.739	62.13172
288.267	87.18793
288.795	90.21319
289.323	63.13136
289.851	97.20243
290.378	96.19139
290.906	36.07805
291.433	99.21971
291.961	81.1625
292.488	98.2169
293.015	38.07988
293.542	102.22801
294.069	69.15064
294.596	107.23489
295.122	109.22899
295.649	86.16771
296.175	111.23772
296.702	97.20827
297.228	102.21934
297.754	80.15816
298.28	65.12998
298.806	72.15249
299.332	61.11825
299.857	69.13664
300.383	106.23647
300.908	44.09368
301.433	41.08777
301.958	130.26135
302.483	68.14843
303.008	84.18242
303.533	92.21075
304.058	129.26383
304.582	30.06207
305.107	54.12325
305.631	113.22335
306.155	114.22728
306.679	60.12129
307.203	98.1952
307.727	53.10938
308.251	65.13963
308.775	-3.00619
309.298	38.07844
309.822	72.15716
310.345	119.23962
310.868	45.0927
311.391	90.1902
311.914	38.08203
312.437	119.23013
312.96	87.17349
313.482	35.071
314.005	99.21046
314.527	92.20473
315.049	118.25232
315.571	51.0947
316.093	81.16889
316.615	66.13354
317.137	83.14975
317.659	113.22943
318.18	108.21732
318.702	52.10087
319.223	64.10794
319.744	118.2148
320.265	34.06826
320.786	48.0977
321.307	90.18327
321.828	117.21304
322.348	62.11883
322.869	23.04418
323.389	70.08892
323.909	104.19086
324.43	156.30103
324.95	73.13285
325.47	61.11966
325.989	68.12668
326.509	75.12777
327.029	87.15126
327.548	114.19521
328.067	28.05284
328.587	81.15792
329.106	72.12555
329.625	80.16714
330.144	89.15548
330.662	33.05829
331.181	79.13968
331.7	63.11145
332.218	85.13546
332.736	93.16169
333.255	-2.00351
333.773	100.17363
334.291	130.24026
334.808	74.1187
335.326	67.10916
335.844	46.07627
336.361	27.04961
336.879	37.06113
337.396	116.19458
337.913	22.03555
338.43	36.05607
338.947	28.04661
339.464	51.07299
339.981	83.13272
340.497	90.15221
341.014	54.08944
341.53	52.07722
342.046	20.0332
342.562	60.10125
343.078	48.07441
343.594	8.01274
344.11	107.1635
344.626	73.12014
345.141	89.12682
345.657	125.17666
346.172	81.12347
346.687	71.10059
347.202	61.08326
347.717	29.04334
348.232	62.09719
348.747	68.09381
349.261	17.02142
349.776	91.12656
350.29	-59.0894
350.805	125.18454
351.319	56.07646
351.833	-6.00782
352.347	42.05704
352.861	44.05827
353.374	93.12106
353.888	25.03508
354.401	67.08508
354.915	15.01806
355.428	30.04209
355.941	60.07479
356.454	106.12637
356.967	46.05937
357.48	123.14745
357.993	134.17568
358.505	27.03555
359.018	121.15419
359.53	73.09038
360.042	66.07296
360.554	102.12661
361.066	89.10957
361.578	93.09571
362.09	29.03507
362.602	111.11207
363.113	38.0426
363.625	90.09258
364.136	146.14134
364.647	-32.03392
365.158	65.06899
365.669	92.10092
366.18	107.11248
366.691	35.03345
367.201	111.11602
367.712	70.06641
368.222	76.0716
368.733	25.02097
369.243	50.04195
369.753	70.06368
370.263	83.07816
370.773	76.07484
371.282	25.0224
371.792	-49.03793
372.301	1.00085
372.811	89.08433
373.32	-19.01087
373.829	-29.0202
374.338	16.00889
374.847	40.02173
375.356	-54.03115
375.865	28.00859
376.373	-35.01306
376.882	43.02225
377.39	10.00399
377.898	-158.05585
378.407	-38.00528
378.915	1.00005
379.423	29.00196
379.93	-39.99942
380.438	-150.9959
380.946	-66.98993
381.453	-14.99666
381.96	-194.94477
382.468	-310.88017
382.975	-126.9474
383.482	-184.91098
383.989	-182.91861
384.495	-202.89231
385.002	-352.80016
385.509	-363.79397
386.015	-292.84967
386.521	-334.82664
387.028	-339.84608
387.534	-365.86457
388.04	-211.92046
388.546	-587.87282
389.051	-791.98137
389.557	-733.15237
390.063	-234.10625
390.568	-420.28391
391.073	-624.67091
391.578	-525.66916
392.084	-879.50311
392.589	-1345.06354
393.093	-1524.69406
393.598	-1335.63409
394.103	-1473.74534
394.607	-1456.97878
395.112	-1495.78323
395.616	-1438.2818
396.12	-2117.26929
396.624	-2356.85008
397.128	-2414.80745
397.632	-2391.38893
398.136	-2724.28074
398.639	-4581.96911
399.143	-5809.15455
399.646	-6092.87803
400.15	-7014.87745
400.653	-8540.46629
401.156	-10307.83507
401.659	-13192.10437
402.162	-7039.95892
402.664	-1427.05512
403.167	0
403.67	0
404.172	0
404.674	0
405.176	0
405.678	0
406.18	0
406.682	0
407.184	0
407.686	0
408.187	0
408.688	0
409.19	0
409.691	0
410.192	0
410.693	0
411.194	435.30976
411.694	3674.23617
412.195	5633.03019
412.696	3539.88044
413.196	690.48608
413.696	-597.90426
414.196	1349.36349
414.696	4013.79187
415.196	6437.51837
415.696	9713.03435
416.196	8023.5256
416.695	3840.13823
417.195	1128.36299
417.694	1252.19491
418.194	1553.17435
418.693	766.55777
419.192	618.22141
419.691	580.59829
420.19	999.67546
420.688	1311.82517
421.187	1364.73906
421.685	1601.74161
422.184	1518.51752
422.682	1392.59262
423.18	751.60009
423.678	341.74563
424.176	247.37385
424.674	257.26673
425.172	404.20158
425.669	562.05328
426.167	704.91779
426.664	507.83329
427.161	312.84887
427.659	253.85734
428.156	142.9198
428.652	160.91386
429.149	134.92947
429.646	181.90545
430.143	296.87014
430.639	89.96739
431.135	164.95644
431.632	177.95312
432.128	123.98396
432.624	2.00003
433.12	-115.98964
433.616	-118.9924
434.111	-269.02139
434.607	-106.01384
435.103	8.00048
435.598	39.00312
436.093	10.00324
436.588	51.01716
437.083	14.00593
437.578	-19.00986
438.073	-168.1158
438.568	-40.02977
439.062	-130.07541
439.557	-56.04355
440.051	-65.04691
440.546	-116.08874
441.04	-158.1427
441.534	-146.15243
442.028	-77.07373
442.522	-109.10601
443.015	-106.08921
443.509	-35.03625
444.002	-110.11793
444.496	-86.07639
444.989	-125.13965
445.482	-179.21069
445.975	-147.14409
446.468	-93.0838
446.961	-76.0687
447.454	-144.15071
447.947	-200.22735
448.439	-108.12895
448.931	-201.2163
449.424	-146.19167
449.916	-136.1681
450.408	-170.18752
450.9	-235.29991
451.392	-250.34518
451.884	-181.21841
452.375	-241.3264
452.867	-103.12221
453.358	-228.27525
453.849	-199.22064
454.341	-158.18962
454.832	-181.20614
455.323	-218.30176
455.814	-206.2679
456.304	-180.23456
456.795	-189.24621
457.285	-184.23814
457.776	-91.11983
458.266	-219.30894
458.756	-116.16493
459.247	-217.30982
459.737	-279.40919
460.226	-259.35402
460.716	-202.2976
461.206	-229.34766
461.695	-170.2724
462.185	-246.37381
462.674	-190.27889
463.163	-210.2969
463.653	-201.26577
464.142	-221.34999
464.63	-233.38456
465.119	-209.31748
465.608	-229.3514
466.096	-222.32467
466.585	-155.2415
467.073	-204.33903
467.561	-189.31574
468.05	-192.31046
468.538	-163.28145
469.026	-214.3643
469.513	-208.304
470.001	-193.30776
470.489	-186.31236
470.976	-95.15339
471.463	-189.34589
471.951	-156.28773
472.438	-231.40122
472.925	-183.31228
473.412	-165.30502
473.899	-202.34945
474.385	-150.27778
474.872	-198.34837
475.359	-231.43516
475.845	-99.15001
476.331	-125.20584
476.817	-140.2638
477.303	-183.33034
477.789	-193.3659
478.275	-191.3738
478.761	-224.43308
479.247	-151.26672
479.732	-233.4668
480.218	-198.41789
480.703	-108.21311
481.188	-182.312
481.673	-202.3752
482.158	-229.39057
482.643	-146.3053
483.128	-194.3598
483.612	-182.34952
484.097	-151.30602
484.581	-194.3767
485.066	-132.26341
485.55	-154.2765
486.034	-124.21874
486.518	-229.45178
487.002	-193.39543
487.486	-216.44706
487.969	-193.39812
488.453	-156.33445
488.936	-208.39926
489.42	-148.27681
489.903	-185.40218
490.386	-565.88387
490.869	-207.3911
491.352	-143.30267
491.835	-81.14098
492.318	-173.33568
492.8	-156.27706
493.283	-179.39477
493.765	-190.40734
494.247	-142.28969
494.73	-194.37562
495.212	-127.26845
495.694	-194.39649
496.175	-222.46134
496.657	-109.22474
497.139	-146.22382
497.62	-249.52356
498.102	-205.4504
498.583	-178.39609
499.064	-179.35064
499.545	-180.36404
500.026	-190.37757
500.507	-169.34799
500.988	-131.28746
501.469	-183.40714
501.949	-150.33033
502.43	-233.49618
502.91	-194.35747
503.39	-106.23529
503.87	-233.49359
504.35	-162.34356
504.83	-187.36666
505.31	-176.38156
505.79	-165.35198
506.269	-131.27326
506.749	-220.45412
507.228	-181.38092
507.707	-178.35455
508.187	-105.22389
508.666	-172.37893
509.145	-207.43755
509.623	-173.366
510.102	-186.40857
510.581	-84.18102
511.059	-207.47045
511.538	-110.25552
512.016	-104.2221
512.494	-125.27325
512.972	-139.29884
513.45	-161.3339
513.928	-138.30071
514.406	-197.42809
514.884	-131.30316
515.361	-121.26036
515.839	-100.20345
516.316	-113.24409
516.793	-104.23747
517.27	-40.08642
517.747	-59.13475
518.224	-10.02043
518.701	-99.19825
519.178	-119.26497
519.654	-78.16722
520.131	-99.22053
520.607	-81.18126
521.083	-89.18268
521.56	-142.30535
522.036	-85.16824
522.512	-77.17174
522.987	-100.21319
523.463	-112.24115
523.939	-106.23627
524.414	-77.16084
524.89	-92.19758
525.365	-107.21973
525.84	-131.28164
526.315	-89.19357
526.79	-133.27423
527.265	-119.24735
527.74	-168.37663
528.215	-122.26246
528.689	-132.26709
529.164	-121.24073
529.638	-124.29213
530.112	-145.31281
530.587	-128.24878
531.061	-156.34512
531.534	-97.21473
532.008	-117.25652
532.482	-72.15016
532.956	-174.40849
533.429	-116.25749
533.903	-102.20676
534.376	-157.32109
534.849	-143.30598
535.322	-115.24894
535.795	-144.32496
536.268	-99.21724
536.741	-132.29252
537.213	-50.10479
537.686	-149.33425
538.158	-135.27735
538.631	-81.18029
539.103	-113.23152
539.575	-56.10619
540.047	-45.08957
540.519	-51.11087
540.991	-78.1748
541.463	-88.19501
541.934	-112.23555
542.406	-92.20013
542.877	-24.04881
543.348	-12.02615
543.82	12.02645
544.291	22.04604
544.762	-45.09633
545.233	-8.01798
545.703	-45.0897
546.174	42.08662
546.645	-62.13315
547.115	63.13358
547.585	32.06525
548.056	56.11793
548.526	103.20922
548.996	121.25229
549.466	143.3024
549.935	91.18577
550.405	150.27875
550.875	157.31629
551.344	165.33745
551.814	188.36505
552.283	293.52406
552.752	270.51602
553.221	289.50863
553.69	341.60961
554.159	300.60145
554.628	374.66257
555.096	400.81379
555.565	451.7876
556.033	507.93924
556.502	554.048
556.97	545.93881
557.438	615.12761
557.906	731.31318
558.374	707.22905
558.842	750.35395
559.31	851.38983
559.777	901.58542
560.245	1050.73669
560.712	1086.74615
561.18	1166.71363
561.647	1312.88197
562.114	1313.92851
562.581	1506.34532
563.048	1624.22974
563.514	1572.37602
563.981	1735.27792
564.448	1915.29405
564.914	2107.52137
565.381	2309.4856
565.847	2405.62673
566.313	2531.61322
566.779	2724.46177
567.245	2897.62585
567.711	3015.72971
568.176	3210.32683
568.642	3345.91662
569.108	3618.71088
569.573	3750.42895
570.038	4004.66175
570.504	4211.8555
570.969	4385.48638
571.434	4601.50617
571.899	4749.92126
572.363	4905.57009
572.828	5254.43496
573.293	5404.35424
573.757	5550.29357
574.222	5750.03435
574.686	5901.00334
575.15	6113.26857
575.614	6152.07584
576.078	6298.16208
576.542	6334.02282
577.006	6555.95884
577.469	6545.46129
577.933	6557.91265
578.396	6720.22698
578.86	6716.18247
579.323	6674.21667
579.786	6474.78157
580.249	6581.00237
580.712	6541.38183
581.175	6408.43646
581.637	6419.10471
582.1	6369.88541
582.563	6198.8107
583.025	6159.39131
583.487	6029.54587
583.95	5836.84097
584.412	5877.76362
584.874	5656.59019
585.336	5473.52761
585.797	5409.05489
586.259	5307.61431
586.721	5046.68739
587.182	5019.7373
587.643	4849.63024
588.105	4744.93232
588.566	4600.36454
589.027	4368.22453
589.488	4278.97609
589.949	4106.44087
590.41	3991.29724
590.87	3902.20372
591.331	3763.96576
591.791	3619.35669
592.252	3540.32368
592.712	3331.71116
593.172	3236.37338
593.632	3173.28407
594.092	3004.39443
594.552	2925.24349
595.011	2851.53702
595.471	2717.45158
595.931	2654.43403
596.39	2543.75339
596.849	2417.61665
597.308	2457.33478
597.768	2275.98073
598.227	2323.7594
598.685	2255.55199
599.144	2181.5838
599.603	2120.6214
600.062	2081.13554
600.52	2051.34439
600.978	2015.57997
601.437	1964.4293
601.895	1841.10264
602.353	1883.28193
602.811	1855.26134
603.269	1849.52598
603.727	1817.50525
604.184	1765.25227
604.642	1715.51794
605.099	1760.35975
605.557	1704.49779
606.014	1739.09249
606.471	1655.51699
606.928	1618.99916
607.385	1670.42358
607.842	1660.23776
608.299	1753.36933
608.755	1693.43422
609.212	1660.14217
609.668	1656.11389
610.125	1721.4751
610.581	1754.47305
611.037	1714.31639
611.493	1672.39841
611.949	1627.40292
612.405	1559.82226
612.861	1706.42232
613.316	1560.33541
613.772	1606.25698
614.227	1564.30526
614.683	1616.07167
615.138	1597.30843
615.593	1572.27252
616.048	1478.16917
616.503	1533.44077
616.958	1463.4221
617.412	1450.23911
617.867	1407.00193
618.321	1418.86531
618.776	1416.03689
619.23	1372.15711
619.684	1333.03002
620.138	1402.17819
620.592	1229.11068
621.046	1263.07071
621.5	1241.13139
621.954	1226.93808
622.407	1159.8405
622.861	1104.97454
623.314	1142.87809
623.768	1071.84236
624.221	1095.52892
624.674	1058.80784
625.127	989.75611
625.58	1000.73036
626.033	1046.72433
626.485	934.72984
626.938	981.79408
627.39	960.71989
627.843	970.72629
628.295	871.59011
628.747	902.68872
629.199	925.63794
629.651	838.51625
630.103	923.65303
630.555	909.49648
631.006	825.56294
631.458	851.61306
631.909	891.63489
632.361	891.65948
632.812	817.53044
633.263	814.41741
633.714	890.51182
634.165	845.67334
634.616	812.58581
635.067	862.54551
635.518	890.7195
635.968	948.48212
636.419	917.58592
636.869	901.73622
637.319	897.67233
637.769	867.56844
638.219	906.76048
638.669	864.68672
639.119	961.88919
639.569	930.81575
640.019	1033.87897
640.468	1015.78008
640.918	1028.96857
641.367	998.76984
641.816	1029.80565
642.265	1073.93813
642.714	1029.88112
643.163	1119.98659
643.612	1026.95341
644.061	1038.7007
644.51	1143.9938
644.958	1149.91734
645.406	1155.13189
645.855	1181.23739
646.303	1204.14499
646.751	1178.03612
647.199	1215.08431
647.647	1216.11429
648.095	1235.12779
648.543	1229.85704
648.99	1255.26545
649.438	1302.28707
649.885	1281.4086
650.333	1385.85966
650.78	1268.31855
651.227	1311.39446
651.674	1267.15898
652.121	1270.34777
652.568	1301.3797
653.015	1330.55027
653.461	1268.28032
653.908	1301.26694
654.354	1282.3173
654.801	1249.22035
655.247	1302.11207
655.693	1330.65252
656.139	1281.32894
656.585	1326.38746
657.031	1214.16288
657.477	1269.03238
657.922	1276.20981
658.368	1250.38163
658.813	1284.26117
659.259	1306.368
659.704	1311.28922
660.149	1355.34177
660.594	1309.34538
661.039	1309.22854
661.484	1324.39109
661.929	1329.33169
662.373	1281.49305
662.818	1316.49206
663.262	1336.42382
663.707	1319.56595
664.151	1336.47629
664.595	1399.5086
665.039	1421.6441
665.483	1451.75704
665.927	1447.49639
666.371	1376.35262
666.814	1473.57225
667.258	1510.56808
667.701	1608.37807
668.145	1549.80418
668.588	1518.71676
669.031	1494.53664
669.474	1582.71855
669.917	1641.48959
670.36	1611.85845
670.803	1656.80767
671.245	1612.30828
671.688	1670.86325
672.13	1626.51231
672.573	1691.0461
673.015	1683.81509
673.457	1725.49771
673.899	1780.94116
674.341	1655.8097
674.783	1702.82491
675.225	1745.96683
675.666	1735.86067
676.108	1817.55787
676.549	1771.85068
676.991	1847.63173
677.432	1822.26306
677.873	1820.79803
678.314	1835.9335
678.755	1828.00236
679.196	1864.78721
679.637	1913.09822
680.078	1926.92747
680.518	1869.87358
680.959	1835.94991
681.399	1864.11726
681.839	1837.01812
682.28	1884.11053
682.72	1867.79094
683.16	1889.15696
683.6	1910.81658
684.039	1921.47796
684.479	1896.10002
684.919	1881.8222
685.358	1975.32344
685.798	1868.37449
686.237	1944.08406
686.676	2026.96583
687.115	1972.97756
687.554	1969.01849
687.993	1939.71433
688.432	2023.89117
688.871	1986.83634
689.309	1977.04847
689.748	2072.56539
690.186	2068.11715
690.625	2108.04709
691.063	2083.13743
691.501	2185.34799
691.939	2159.3703
692.377	2184.2782
692.815	2137.15459
693.253	2297.2741
693.69	2246.82894
694.128	2243.27339
694.565	2301.232
695.003	2254.5243
695.44	2197.10879
695.877	2276.1121
696.314	2326.76606
696.751	2364.04757
697.188	2402.08209
697.625	2449.10843
698.061	2412.30415
698.498	2379.34482
698.934	2472.35096
699.371	2429.21042
699.807	2515.26854
700.243	2521.35836
700.679	2509.04808
701.115	2511.25244
701.551	2496.24388
701.987	2606.03387
702.422	2552.29591
702.858	2567.31941
703.294	2629.07207
703.729	2590.47724
704.164	2633.39305
704.599	2653.98547
705.035	2728.00943
705.47	2686.45896
705.904	2725.22519
706.339	2718.23109
706.774	2750.26006
707.209	2723.16846
707.643	2821.41409
708.078	2726.47855
708.512	2747.63551
708.946	2869.41168
709.38	2830.33764
709.814	2816.13688
710.248	2902.51248
710.682	2912.35956
711.116	2902.36626
711.549	2815.86115
711.983	2866.19219
712.416	2924.33367
712.85	2945.65725
713.283	2913.3333
713.716	2954.71464
714.149	2930.38429
714.582	2936.03413
715.015	2933.69029
715.448	2923.72823
715.881	2872.90652
716.313	2995.2736
716.746	2868.29567
717.178	2884.42238
717.61	2898.76377
718.043	2938.65657
718.475	2840.47044
718.907	2897.75875
719.339	2808.0768
719.77	2803.32576
720.202	2728.70771
720.634	2819.482
721.065	2751.32656
721.497	2751.52253
721.928	2706.518
722.359	2618.38725
722.79	2648.35847
723.221	2734.68365
723.652	2615.80519
724.083	2610.03446
724.514	2584.12982
724.945	2559.24137
725.375	2455.13932
725.806	2615.60272
726.236	2471.69904
726.666	2453.25174
727.096	2477.4528
727.526	2463.63744
727.956	2343.00647
728.386	2383.43328
728.816	2366.56802
729.246	2342.33698
729.675	2312.38971
730.105	2283.38308
730.534	2265.11914
730.964	2285.52843
731.393	2257.42283
731.822	2248.55839
732.251	2231.5123
732.68	2222.13832
733.109	2155.31257
733.537	2167.21885
733.966	2165.35688
734.395	2113.98388
734.823	2109.88442
735.251	2024.11943
735.68	2001.29076
736.108	2038.36418
736.536	1991.00696
736.964	1926.89165
737.392	1942.23516
737.82	1963.06313
738.247	1860.97809
738.675	1933.02595
739.102	1853.14777
739.53	1861.24015
739.957	1797.22681
740.384	1874.11903
740.811	1854.21869
741.238	1784.98951
741.665	1733.74077
742.092	1736.86311
742.519	1726.98957
742.945	1701.84851
743.372	1689.95788
743.798	1669.09101
744.225	1614.72867
744.651	1643.96471
745.077	1585.87684
745.503	1638.85098
745.929	1594.74219
746.355	1609.89869
746.781	1546.81068
747.207	1415.47045
747.632	1439.6239
748.058	1518.80378
748.483	1487.49169
748.908	1472.73328
749.334	1458.67662
749.759	1408.48186
750.184	1358.45398
750.609	1386.59206
751.033	1413.50036
751.458	1368.28921
751.883	1389.6237
752.307	1271.31302
752.732	1288.51083
753.156	1220.38584
753.58	1274.34587
754.005	1229.48291
754.429	1252.28462
754.853	1191.35251
755.277	1220.26398
755.7	1195.36371
756.124	1137.27801
756.548	1130.14519
756.971	1180.29772
757.394	1117.35371
757.818	1089.30465
758.241	1126.32364
758.664	1041.17622
759.087	1020.85012
759.51	1020.1065
759.933	980.96223
760.356	1021.18309
760.778	938.94544
761.201	955.95039
761.623	939.91941
762.046	954.8943
762.468	952.91839
762.89	906.90239
763.312	900.86824
763.734	867.78251
764.156	872.84381
764.578	885.72166
765	840.7645
765.421	753.68311
765.843	788.81512
766.264	824.71872
766.686	792.73723
767.107	730.55748
767.528	739.64502
767.949	737.65679
768.37	727.57417
768.791	721.53925
769.212	637.43944
769.632	637.32625
770.053	610.46056
770.473	675.46272
770.894	606.37572
771.314	660.40799
771.734	554.17545
772.154	584.36741
772.575	612.27554
772.994	535.10815
773.414	533.17381
773.834	499.15379
774.254	538.20685
774.673	535.19495
775.093	457.05318
775.512	513.16364
775.931	512.19817
776.351	463.06957
776.77	478.0826
777.189	471.03836
777.607	447.06682
778.026	442.02845
778.445	400.94404
778.864	433.04122
779.282	413.93397
779.701	389.92787
780.119	414.98464
780.537	380.8979
780.955	405.97267
781.373	376.88122
781.791	338.72242
782.209	397.86117
782.627	300.76093
783.045	370.80483
783.462	320.78359
783.88	331.81907
784.297	274.66599
784.715	268.66552
785.132	295.68669
785.549	302.72578
785.966	312.75265
786.383	292.69108
786.8	293.654
787.217	270.61797
787.633	248.60032
788.05	304.69325
788.466	322.72599
788.883	209.52082
789.299	279.64766
789.715	258.60708
790.131	259.62352
790.547	242.58712
790.963	245.59027
791.379	229.5636
791.795	231.51264
792.21	197.45099
792.626	199.46215
793.041	237.5684
793.457	227.54629
793.872	193.4445
794.287	220.51122
794.702	211.50778
795.117	203.49297
795.532	182.44752
795.947	223.523
796.362	243.56321
796.776	259.58695
797.191	195.46733
797.605	127.29553
798.02	173.41382
798.434	186.40616
798.848	132.32195
799.262	164.40044
799.676	158.38017
800.09	177.42774
800.504	158.37801
800.918	157.35856
801.331	147.38074
801.745	154.34894
802.158	151.37247
802.572	203.4813
802.985	202.47736
803.398	154.36224
803.811	207.52014
804.224	144.35422
804.637	126.29754
805.05	102.23562
805.462	180.43409
805.875	94.24268
806.288	76.18336
806.7	129.32113
807.112	161.36754
807.525	151.36767
807.937	117.28701
808.349	110.27388
808.761	164.397
809.173	92.22238
809.584	146.35636
809.996	50.123
810.408	67.173
810.819	101.23651
811.231	83.21394
811.642	71.16938
812.053	167.39014
812.464	173.40368
812.875	157.39522
813.286	136.3461
813.697	172.39511
814.108	154.37083
814.519	139.30617
814.929	131.33072
815.34	115.27687
815.75	110.27756
816.16	127.3135
816.571	103.26605
816.981	136.31753
817.391	147.35015
817.801	87.21547
818.211	144.33885
818.62	113.26999
819.03	107.26063
819.44	126.32596
819.849	103.25808
820.259	126.3194
820.668	51.1259
821.077	104.25668
821.486	115.27488
821.895	101.24831
822.304	73.19324
822.713	111.26054
823.122	128.31614
823.531	91.21501
823.939	118.28501
824.348	106.25612
824.756	103.2565
825.164	114.28466
825.573	100.24953
825.981	100.24672
826.389	152.37624
826.797	93.23193
827.205	79.18108
827.612	128.31254
828.02	41.09684
828.428	87.22082
828.835	78.20485
829.243	91.2161
829.65	67.16661
830.057	110.26498
830.464	88.21367
830.871	107.25448
831.278	109.26153
831.685	95.2111
832.092	79.19308
832.499	100.21754
832.905	119.29849
833.312	67.15302
833.718	92.22823
834.124	89.20269
834.531	93.23336
834.937	108.27514
835.343	88.21159
835.749	142.32711
836.155	84.21919
836.561	76.18661
836.966	101.24547
837.372	91.23056
837.777	76.18895
838.183	113.24911
838.588	43.1072
838.993	84.20388
839.399	67.16375
839.804	42.10278
840.209	79.20051
840.613	63.14034
841.018	85.21444
841.423	85.21719
841.828	73.1843
842.232	149.36347
842.637	53.12537
843.041	60.15383
843.445	74.18525
843.849	90.22172
844.253	101.23846
844.657	70.176
845.061	98.22097
845.465	74.1784
845.869	106.24438
846.272	69.16782
846.676	122.29189
847.079	80.20273
847.483	60.14977
847.886	118.28425
848.289	63.168
848.692	59.14948
849.095	41.0989
849.498	130.32556
849.901	92.2099
850.304	102.24199
850.707	105.26565
851.109	89.22413
851.512	81.19833
851.914	14.03557
852.316	68.17177
852.718	22.05715
853.121	44.10816
853.523	88.20466
853.925	30.07863
854.326	70.17467
854.728	51.13132
855.13	39.10091
855.531	53.12683
855.933	105.25001
856.334	53.13227
856.736	49.11006
857.137	26.06087
857.538	28.07078
857.939	10.02493
858.34	112.27031
858.741	57.14901
859.142	99.23609
859.542	64.16865
859.943	102.25147
860.343	62.15342
860.744	148.35517
861.144	90.21828
861.544	17.04118
861.945	83.21059
862.345	70.17086
862.745	104.2563
863.145	100.23724
863.544	59.14906
863.944	84.19751
864.344	69.17108
864.743	80.19774
865.143	58.14896
865.542	65.1506
865.941	18.04488
866.34	103.24469
866.74	67.17949
867.139	92.21885
867.537	67.17042
867.936	69.16575
868.335	34.08686
868.734	99.2511
869.132	91.21009
869.531	99.23763
869.929	28.06422
870.327	111.26339
870.726	97.24015
871.124	117.27033
871.522	100.25278
871.92	97.23751
872.318	119.28759
872.715	125.30561
873.113	64.15575
873.511	102.25202
873.908	31.0786
874.306	52.12943
874.703	112.27744
875.1	107.27129
875.497	99.23546
875.894	40.09829
876.291	92.22431
876.688	63.16228
877.085	137.3237
877.482	79.19695
877.878	60.14432
878.275	72.18239
878.671	133.2916
879.068	87.20882
879.464	90.21615
879.86	56.13245
880.256	78.19173
880.652	81.20508
881.048	77.19008
881.444	72.17088
881.84	87.21988
882.236	84.21013
882.631	49.12043
883.027	134.31974
883.422	79.20115
883.817	37.09328
884.213	60.15383
884.608	31.07636
885.003	60.14454
885.398	87.2165
885.793	90.22449
886.188	22.05502
886.582	103.26198
886.977	47.11174
887.371	88.22125
887.766	41.10221
888.16	131.32242
888.554	119.29084
888.949	73.18272
889.343	120.28962
889.737	37.09886
890.131	44.11059
890.525	76.19362
890.918	81.20289
891.312	121.2859
891.706	76.19865
892.099	98.24746
892.492	77.1654
892.886	70.1708
893.279	70.17783
893.672	84.21271
894.065	79.19695
894.458	75.18793
894.851	123.29759
895.244	48.12272
895.637	92.22003
896.029	97.2353
896.422	117.28254
896.814	70.17353
897.206	37.08841
897.599	151.36684
897.991	55.13297
898.383	88.2066
898.775	95.21267
899.167	36.08425
899.559	94.23625
899.951	68.15989
900.342	72.18252
900.734	26.06483
901.125	108.28075
901.517	71.17372
901.908	96.22837
902.299	57.13926
902.69	93.21778
903.082	80.19279
903.473	35.08411
903.863	102.25802
904.254	96.22097
904.645	128.31405
905.036	64.15464
905.426	153.34336
905.817	101.24565
906.207	73.17329
906.597	82.1907
906.987	96.24698
907.378	122.30475
907.768	88.23127
908.158	58.14131
908.547	20.05196
908.937	100.25449
909.327	80.1933
909.717	77.19467
910.106	63.15105
910.495	112.27663
910.885	80.20164
911.274	84.20877
911.663	81.20457
912.052	126.30674
912.441	63.1599
912.83	109.24743
913.219	82.21353
913.608	71.17333
913.997	46.11545
914.385	94.22283
914.774	79.19142
915.162	58.13808
915.55	111.26562
915.939	73.18357
916.327	86.21335
916.715	47.11988
917.103	100.24399
917.491	126.30754
917.878	111.26997
918.266	78.20137
918.654	74.18832
919.041	49.12797
919.429	78.18319
919.816	47.11925
920.203	82.19776
920.591	85.20952
920.978	118.28544
921.365	102.26533
921.752	77.18271
922.139	89.19176
922.525	66.15809
922.912	94.22747
923.299	70.1734
923.685	55.14339
924.072	44.10164
924.458	52.12881
924.844	90.22115
925.231	92.21244
925.617	62.15739
926.003	111.28073
926.389	68.17103
926.774	91.229
927.16	84.2074
927.546	58.14786
927.931	89.22059
928.317	113.25714
928.702	78.18362
929.088	17.04048
929.473	69.17501
929.858	31.07523
930.243	78.18626
930.628	68.16493
931.013	67.16558
931.398	110.25006
931.783	111.28929
932.167	103.24939
932.552	46.11537
932.937	126.30846
933.321	28.07055
933.705	40.10104
934.09	136.33849
934.474	106.24914
934.858	66.17074
935.242	58.13425
935.626	70.17858
936.009	82.21696
936.393	72.18252
936.777	65.16603
937.16	76.19689
937.544	123.28577
937.927	22.05611
938.311	148.35476
938.694	125.32644
939.077	52.12446
939.46	132.3193
939.843	141.28837
940.226	59.15113
940.609	90.20501
940.991	90.2275
941.374	23.05651
941.757	81.19878
942.139	64.14336
942.522	74.17414
942.904	92.21944
943.286	86.21716
943.668	86.22141
944.05	87.21287
944.432	56.13806
944.814	34.08401
945.196	67.16277
945.578	32.07633
945.959	100.23211
946.341	132.31918
946.722	90.20964
947.104	78.18548
947.485	113.25974
947.866	53.13347
948.247	61.15362
948.628	58.14131
949.009	42.10772
949.39	61.15158
949.771	126.28875
950.152	99.24079
950.532	13.0322
950.913	73.17535
951.293	41.11092
951.674	130.30972
952.054	35.08697
952.434	83.20481
952.814	78.18462
953.194	114.29512
953.574	104.25366
953.954	68.16095
954.334	109.26877
954.714	58.14115
955.093	93.22687
955.473	55.13741
955.853	74.19078
956.232	92.25047
956.611	53.12707
956.99	67.16788
957.37	75.19029
957.749	75.1781
958.128	41.10347
958.506	85.21918
958.885	56.1412
959.264	61.1492
959.643	76.17207
960.021	26.06471
960.4	79.17802
960.778	84.20564
961.156	48.12038
961.535	95.2195
961.913	58.13553
962.291	9.02326
962.669	93.23378
963.047	101.25544
963.424	56.14277
963.802	74.18116
964.18	103.25817
964.557	102.23253
964.935	48.11379
965.312	45.11728
965.69	76.18943
966.067	76.18419
966.444	106.25853
966.821	73.18745
967.198	68.16443
967.575	83.20285
967.952	141.32643
968.329	59.14334
968.705	112.237
969.082	53.13586
969.458	48.11519
969.835	45.10965
970.211	66.16891
970.587	68.16876
970.963	87.22176
971.339	102.26397
971.715	97.24015
972.091	57.14019
972.467	99.24474
972.843	77.19015
973.219	80.19104
973.594	34.08917
973.97	127.29786
974.345	32.07685
974.721	128.30542
975.096	75.18064
975.471	66.1561
975.846	60.14388
976.221	69.17463
976.596	47.11273
976.971	78.19159
977.346	121.27779
977.72	40.10208
978.095	96.24612
978.469	72.17114
978.844	112.27845
979.218	60.14355
979.593	76.18121
979.967	43.1049
980.341	45.10373
980.715	41.10347
981.089	46.11524
981.463	73.16685
981.837	72.17522
982.21	131.30002
982.584	33.07996
982.957	54.13475
983.331	80.18803
983.704	56.13745
984.078	41.10121
984.451	105.25967
984.824	22.05386
985.197	94.22644
985.57	92.22898
985.943	106.25911
986.316	106.25776
986.688	88.2107
987.061	116.26839
987.434	64.16637
987.806	100.24026
988.179	24.05692
988.551	60.15194
988.923	71.17417
989.295	97.24033
989.667	-17.04113
990.039	40.09901
990.411	65.14917
990.783	121.27467
991.155	10.02421
991.527	114.27742
991.898	46.1147
992.27	18.04478
992.641	113.28027
993.012	130.30114
993.384	82.19439
993.755	48.12241
994.126	70.16773
994.497	72.176
994.868	55.12622
995.239	45.10916
995.61	5.01268
995.98	14.03424
996.351	34.08444
996.722	22.05131
997.092	84.19759
997.462	13.03059
997.833	112.26232
998.203	87.20946
998.573	49.12203
998.943	45.10563
999.313	34.08172
999.683	84.20028
1000.053	65.14911
1000.423	101.24307
1000.792	84.21641
1001.162	69.1692
1001.531	95.23227
1001.901	44.10979
1002.27	41.09182
1002.639	59.15049
1003.009	111.26085
1003.378	89.22597
1003.747	73.17168
1004.116	56.13383
1004.485	65.15489
1004.853	97.24366
1005.222	82.20558
1005.591	111.26044
1005.959	61.13712
1006.328	69.15466
1006.696	76.18239
1007.064	58.14567
1007.433	64.15952
1007.801	94.22884
1008.169	69.17364
1008.537	77.16953
1008.905	65.15096
1009.273	69.16983
1009.64	47.11217
1010.008	55.13096
1010.375	122.29222
1010.743	112.25543
1011.11	104.24349
1011.478	58.14331
1011.845	99.23056
1012.212	51.1154
1012.579	66.16152
1012.946	121.28401
1013.313	130.3046
1013.68	96.21372
1014.047	68.16145
1014.414	59.13908
1014.78	80.19767
1015.147	131.31192
1015.513	55.13237
1015.88	94.23846
1016.246	90.22049
1016.612	105.23767
1016.978	80.1949
1017.344	81.199
1017.71	141.33792
1018.076	110.25633
1018.442	95.2424
1018.808	79.19638
1019.174	79.19709
1019.539	172.38624
1019.905	66.15513
1020.27	67.16479
1020.636	72.17187
1021.001	67.15984
1021.366	60.14377
1021.731	71.18187
1022.096	39.09853
1022.461	84.19744
1022.826	78.18433
1023.191	84.21904
1023.556	84.19551
1023.92	116.28166
1024.285	110.26538
1024.649	73.17808
1025.014	46.11399
1025.378	51.12816
1025.742	60.14868
1026.107	145.32153
1026.471	120.27621
1026.835	88.21655
1027.199	63.15122
1027.562	63.14603
1027.926	101.24455
1028.29	56.14151
1028.654	119.26991
1029.017	102.24822
1029.381	73.17355
1029.744	62.15773
1030.107	105.24569
1030.471	59.14097
1030.834	81.18305
1031.197	93.22212
1031.56	73.17141
1031.923	55.14202
1032.286	135.31167
1032.648	100.23678
1033.011	24.05535
1033.374	123.28487
1033.736	37.09745
1034.099	69.16751
1034.461	43.10871
1034.823	54.13431
1035.185	116.2884
1035.548	61.14809
1035.91	83.19748
1036.272	79.17868
1036.634	103.24939
1036.995	74.17305
1037.357	54.13122
1037.719	60.14558
1038.08	82.19341
1038.442	45.10686
1038.803	47.11286
1039.165	56.1411
1039.526	43.104
1039.887	72.17147
1040.248	70.17175
1040.609	95.2327
1040.97	67.16314
1041.331	72.18148
1041.692	25.05861
1042.053	131.29326
1042.413	99.22838
1042.774	74.17907
1043.134	156.36366
1043.495	97.24165
1043.855	78.18811
1044.215	79.19494
1044.576	37.08864
1044.936	112.25347
1045.296	95.23503
1045.656	94.22867
1046.016	112.26704
1046.375	103.24723
1046.735	64.1446
1047.095	98.2271
1047.454	62.13097
1047.814	74.17698
1048.173	89.21094
1048.533	43.0986
1048.892	43.10329
1049.251	41.10303
1049.61	46.11328
1049.969	54.12712
1050.328	104.22277
1050.687	91.21959
1051.046	87.21025
1051.405	69.17096
1051.763	32.0738
1052.122	53.13203
1052.48	62.15161
1052.839	59.13849
1053.197	60.14086
1053.555	125.28052
1053.914	103.2493
1054.272	113.26979
1054.63	14.03444
1054.988	47.11165
1055.345	47.10122
1055.703	102.24292
1056.061	59.15145
1056.419	35.09078
1056.776	89.21411
1057.134	63.14539
1057.491	53.13256
1057.848	103.25379
1058.206	86.20072
1058.563	103.2244
1058.92	103.23476
1059.277	73.17921
1059.634	85.1985
1059.991	98.2325
1060.348	25.05675
1060.704	64.15201
1061.061	150.3414
1061.418	54.13077
1061.774	67.16479
1062.131	54.14259
1062.487	56.1307
1062.843	57.14184
1063.199	54.13411
1063.555	59.13637
1063.911	65.16363
1064.267	158.32145
1064.623	42.1021
1064.979	88.20684
1065.335	142.33324
1065.691	92.2186
1066.046	99.21532
1066.402	59.13371
1066.757	85.21306
1067.112	73.17828
1067.468	0
1067.823	80.19111
1068.178	76.1828
1068.533	88.21167
1068.888	95.2249
1069.243	56.13796
1069.598	61.14781
1069.952	25.05654
1070.307	56.13837
1070.662	50.11862
1071.016	63.14069
1071.371	53.12041
1071.725	74.1761
1072.079	48.11541
1072.434	67.16216
1072.788	121.28401
1073.142	91.22199
1073.496	108.25315
1073.85	66.15246
1074.203	83.19998
1074.557	57.15129
1074.911	87.20604
1075.265	64.14826
1075.618	57.1389
1075.971	94.22154
1076.325	86.217
1076.678	40.09159
1077.031	100.22382
1077.385	86.18788
1077.738	71.15947
1078.091	8.01833
1078.444	75.17315
1078.796	77.18784
1079.149	82.20261
1079.502	44.10398
1079.855	68.1579
1080.207	96.23432
1080.56	32.0829
1080.912	77.18637
1081.264	89.21257
1081.617	47.11453
1081.969	75.1882
1082.321	66.16056
1082.673	50.11403
1083.025	52.12322
1083.377	57.12207
1083.728	48.11194
1084.08	71.17643
1084.432	62.14907
1084.783	135.3108
1085.135	59.14752
1085.486	41.0939
1085.838	74.1813
1086.189	68.16437
1086.54	29.06948
1086.891	19.04828
1087.242	84.20304
1087.593	90.2173
1087.944	50.11306
1088.295	78.17616
1088.646	45.10908
1088.996	22.05324
1089.347	78.19024
1089.698	48.11339
1090.048	55.14261
1090.398	38.08827
1090.749	83.19718
1091.099	53.13309
1091.449	50.12445
1091.799	97.24059
1092.149	26.06363
1092.499	85.20581
1092.849	52.13201
1093.199	106.26277
1093.548	71.16977
1093.898	68.16943
1094.248	90.22944
1094.597	18.04616
1094.947	58.15438
1095.296	60.14776
1095.645	71.18384
1095.994	70.16735
1096.343	80.20006
1096.692	47.12342
1097.041	57.15401
1097.39	89.22147
1097.739	83.21432
1098.088	99.26286
1098.437	34.08948
1098.785	84.225
1099.134	67.17724
1099.482	91.24842
1099.83	107.2782
1100.179	33.08624
1100.527	76.20088
1100.875	29.07687
1101.223	93.24495
1101.571	47.12983
1101.919	-10.02637
1102.267	40.11269
1102.615	2.00643
1102.962	12.03863
1103.31	4.01285
1103.658	19.06114
