Data from N2 R11 sample 10_Subt2__1__16-03-55-535.txt Node

Date: Mon Sep 01 16:03:55 PDT 2025
User: uwsun
Spectrometer: HDX01956
Trigger mode: 0
Integration Time (sec): 5.000000E-1
Scans to average: 1
Nonlinearity correction enabled: true
Boxcar width: 0
Storing dark spectrum: false
XAxis mode: Wavelengths
Number of Pixels in Spectrum: 2068
>>>>>Begin Spectral Data<<<<<
194.03	-16.04502
194.578	-6.01899
195.127	-20.06248
195.676	-11.03443
196.225	32.08444
196.773	52.14139
197.321	18.04817
197.87	65.15892
198.418	15.03654
198.966	-28.06916
199.513	-43.10152
200.061	-13.03103
200.609	38.09499
201.156	15.03064
201.704	-25.05946
202.251	-48.12077
202.798	-34.08373
203.345	30.06983
203.892	27.06372
204.438	0
204.985	-23.05115
205.532	-21.05218
206.078	8.01848
206.624	-15.03469
207.17	42.09121
207.716	-11.02512
208.262	-25.04691
208.808	-48.11137
209.354	-21.04815
209.899	62.14686
210.445	-10.02332
210.99	-3.00678
211.535	38.08372
212.08	41.08925
212.625	20.04708
213.17	29.06903
213.715	-45.09429
214.259	21.04602
214.804	49.11349
215.348	36.07725
215.892	22.04961
216.436	43.09364
216.98	79.16296
217.524	8.0178
218.068	59.13897
218.612	32.07586
219.155	36.07945
219.698	29.06498
220.242	79.18434
220.785	43.09444
221.328	24.05645
221.871	29.06961
222.414	6.0142
222.956	-30.06858
223.499	1.00213
224.041	40.08813
224.583	63.12832
225.126	2.00418
225.668	11.02525
226.21	-5.01191
226.751	10.0206
227.293	8.01736
227.835	-37.08607
228.376	39.08511
228.918	82.19379
229.459	-25.05902
230	58.12917
230.541	17.03707
231.082	-6.01378
231.622	29.06307
232.163	-14.03212
232.704	3.00702
233.244	60.13899
233.784	80.18348
234.324	26.05326
234.864	7.01498
235.404	76.16884
235.944	46.10245
236.484	62.14493
237.023	12.02668
237.563	5.01088
238.102	30.06657
238.641	19.04522
239.18	-7.01539
239.719	13.03074
240.258	16.0339
240.797	44.09816
241.335	24.05527
241.874	67.11927
242.412	8.01806
242.95	-13.02919
243.488	55.11697
244.026	22.04741
244.564	34.06545
245.102	36.07535
245.64	32.07242
246.177	46.09615
246.715	47.10548
247.252	28.06031
247.789	133.22989
248.326	-12.02698
248.863	-7.01441
249.4	18.03834
249.936	79.1497
250.473	31.06725
251.009	-5.01072
251.546	6.01237
252.082	37.07543
252.618	-1.00208
253.154	23.05138
253.69	-7.01479
254.226	30.06657
254.761	24.05019
255.297	-23.04727
255.832	19.04183
256.367	10.02199
256.903	-18.03706
257.438	28.06127
257.972	-19.03972
258.507	4.0085
259.042	20.04037
259.576	-9.01798
260.111	33.07089
260.645	5.01011
261.179	-50.10965
261.713	26.0535
262.247	43.09169
262.781	-13.02537
263.315	-7.01594
263.849	-23.05369
264.382	56.11871
264.915	18.03891
265.449	-81.18462
265.982	49.1028
266.515	37.0831
267.048	-42.08319
267.58	16.03254
268.113	-2.004
268.646	-29.06666
269.178	-37.07694
269.71	30.06042
270.243	2.00424
270.775	32.07492
271.307	30.06681
271.838	69.15071
272.37	18.04084
272.902	30.06287
273.433	42.08405
273.965	13.02919
274.496	36.0825
275.027	-11.02525
275.558	-11.02467
276.089	-74.16897
276.62	22.05169
277.15	48.10867
277.681	38.07572
278.211	35.07887
278.741	-78.16021
279.272	-9.01889
279.802	24.05502
280.332	-7.01516
280.861	21.04629
281.391	-1.00208
281.921	3.00666
282.45	35.08006
282.98	-12.02885
283.509	-10.02065
284.038	19.03948
284.567	-8.01723
285.096	15.03312
285.625	14.02892
286.153	-18.03861
286.682	-5.01043
287.21	1.00219
287.739	-6.01294
288.267	-42.09323
288.795	26.06235
289.323	-24.05101
289.851	35.07405
290.378	37.07478
290.906	-54.11932
291.433	44.09877
291.961	-23.04725
292.488	11.02479
293.015	-12.0255
293.542	-29.06658
294.069	-1.00222
294.596	29.06471
295.122	35.07473
295.649	43.08471
296.175	27.05887
296.702	-34.07506
297.228	31.06768
297.754	-20.04047
298.28	10.02025
298.806	-31.06714
299.332	-53.10554
299.857	-8.01613
300.383	0
300.908	-88.19274
301.433	-26.05646
301.958	44.09021
302.483	-28.06236
303.008	-22.04886
303.533	14.03257
304.058	45.09379
304.582	-30.0629
305.107	-69.16139
305.631	-13.02645
306.155	15.03059
306.679	-70.14573
307.203	-11.02247
307.727	-31.06518
308.251	-9.01964
308.775	-50.10432
309.298	-64.13514
309.822	-18.04004
310.345	6.0124
310.868	-22.046
311.391	11.02365
311.914	-51.11219
312.437	9.01786
312.96	1.00203
313.482	-4.00819
314.005	-38.08319
314.527	-76.175
315.049	9.0197
315.571	-15.02831
316.093	-31.06625
316.615	-17.03505
317.137	-21.0389
317.659	8.01663
318.18	-21.04351
318.702	-37.0733
319.223	18.03074
319.744	-35.06619
320.265	-58.11892
320.786	-105.22117
321.307	-26.05434
321.828	-30.05667
322.348	-64.12641
322.869	-60.11756
323.389	18.02328
323.909	-42.07992
324.43	40.07934
324.95	-2.00371
325.47	-91.18493
325.989	-94.18217
326.509	-77.13657
327.029	-64.11573
327.548	-95.17184
328.067	-75.14511
328.587	8.01587
329.106	-27.04831
329.625	-25.05345
330.144	-48.08689
330.662	-100.18278
331.181	-37.0674
331.7	-52.09475
332.218	-78.13012
332.736	-61.11039
333.255	-120.21711
333.773	-86.15671
334.291	-47.09072
334.808	-113.19095
335.326	-48.08074
335.844	-171.30062
336.361	-142.27204
336.879	-96.16448
337.396	-80.14142
337.913	-72.11945
338.43	-107.17365
338.947	-113.19543
339.464	-126.19041
339.981	-178.30596
340.497	-67.11816
341.014	-159.27894
341.53	-183.29131
342.046	-135.23372
342.562	-110.19424
343.078	-170.28049
343.594	-118.19469
344.11	-107.17394
344.626	-156.27317
345.141	-114.1729
345.657	-91.13748
346.172	-147.23937
346.687	-183.2803
347.202	-160.23427
347.717	-153.24131
348.232	-106.17431
348.747	-203.30486
349.261	-200.2713
349.776	-138.20617
350.29	-183.28763
350.805	-97.15299
351.319	-159.23245
351.833	-198.27496
352.347	-170.24707
352.861	-211.30354
353.374	-149.21004
353.888	-110.16106
354.401	-173.23815
354.915	-243.32024
355.428	-189.28383
355.941	-225.30894
356.454	-101.12959
356.967	-197.2756
357.48	-143.18818
357.993	-213.31237
358.505	-242.34782
359.018	-180.25351
359.53	-212.28929
360.042	-177.21436
360.554	-135.18173
361.066	-234.32162
361.578	-152.17238
362.09	-243.32305
362.602	-212.24338
363.113	-188.22925
363.625	-180.20601
364.136	-162.178
364.647	-284.332
365.158	-232.27603
365.669	-221.27251
366.18	-214.25461
366.691	-255.2751
367.201	-185.21695
367.712	-288.31703
368.222	-244.26291
368.733	-265.25406
369.243	-236.22594
369.753	-214.22018
370.263	-251.27186
370.773	-266.30081
371.282	-328.3426
371.792	-363.32766
372.301	-351.35018
372.811	-334.37663
373.32	-404.29155
373.829	-491.43384
374.338	-340.23564
374.847	-383.27048
375.356	-452.33097
375.865	-461.22147
376.373	-407.20669
376.882	-401.2757
377.39	-441.24896
377.898	-541.26619
378.407	-540.16417
378.915	-487.0962
379.423	-577.15006
379.93	-481.05576
380.438	-658.0814
380.946	-651.00454
381.453	-712.96733
381.96	-846.89046
382.468	-985.75422
382.975	-893.7595
383.482	-827.68075
383.989	-960.70411
384.495	-1022.55755
385.002	-1118.41322
385.509	-1197.38023
386.015	-1194.34646
386.521	-1166.36123
387.028	-1273.33343
387.534	-1345.35249
388.04	-1365.31929
388.546	-1708.32974
389.051	-1795.57582
389.557	-1920.81032
390.063	-1558.06443
390.568	-1826.36015
391.073	-2015.06377
391.578	-2168.30168
392.084	-2262.42626
392.589	-2719.31072
393.093	-3172.88166
393.598	-3191.83003
394.103	-3254.32184
394.607	-3562.29432
395.112	-3678.48416
395.616	-3993.02981
396.12	-4607.54981
396.624	-5333.27186
397.128	-5456.13909
397.632	-5854.01296
398.136	-6418.81957
398.639	-8286.93051
399.143	-10186.89971
399.646	-10943.71393
400.15	-12148.45629
400.653	-14575.91706
401.156	-17130.20135
401.659	-20900.95212
402.162	-16290.8738
402.664	-2555.1574
403.167	-586.63207
403.67	0
404.172	0
404.674	0
405.176	0
405.678	0
406.18	0
406.682	0
407.184	0
407.686	0
408.187	0
408.688	0
409.19	0
409.691	0
410.192	0
410.693	-2546.02354
411.194	-7220.40326
411.694	-6190.98371
412.195	-4929.33852
412.696	-6125.28596
413.196	-7907.45523
413.696	-8781.33058
414.196	-7150.93701
414.696	-4517.55815
415.196	-1997.17948
415.696	2020.38256
416.196	2151.65832
416.695	-861.45437
417.195	-2734.18623
417.694	-2520.48926
418.194	-2133.5106
418.693	-2644.1236
419.192	-2533.26934
419.691	-2544.69907
420.19	-2244.88115
420.688	-2052.01407
421.187	-1663.30911
421.685	-1186.52702
422.184	-669.06972
422.682	-812.22439
423.18	-1247.82366
423.678	-1432.82262
424.176	-1259.03551
424.674	-1175.5369
425.172	-790.07422
425.669	-749.81659
426.167	-508.8089
426.664	-612.69948
427.161	-658.63603
427.659	-615.65839
428.156	-727.59659
428.652	-638.71198
429.149	-600.73689
429.646	-511.77461
430.143	-524.84394
430.639	-503.87687
431.135	-530.94717
431.632	-484.9478
432.128	-503.02091
432.624	-564.10665
433.12	-655.04172
433.616	-587.04136
434.111	-706.15458
434.607	-667.2107
435.103	-486.10394
435.598	-437.10048
436.093	-410.19428
436.588	-409.205
437.083	-356.19931
437.578	-378.24794
438.073	-549.46289
438.568	-376.33122
439.062	-356.23761
439.557	-330.29361
440.051	-414.35731
440.546	-445.4004
441.04	-425.43167
441.534	-425.49502
442.028	-364.39298
442.522	-429.47597
443.015	-365.34642
443.509	-406.48575
444.002	-374.44383
444.496	-418.42968
444.989	-327.39414
445.482	-418.53609
445.975	-393.42653
446.468	-372.37885
446.961	-402.41866
447.454	-362.41293
447.947	-431.53362
448.439	-359.46844
448.931	-489.58758
449.424	-422.60632
449.916	-329.43481
450.408	-408.49242
450.9	-425.57846
451.392	-452.66535
451.884	-361.46435
452.375	-461.67009
452.867	-341.44041
453.358	-439.57101
453.849	-392.46761
454.341	-391.50955
454.832	-422.52524
455.323	-448.66675
455.814	-374.5145
456.304	-347.4781
456.795	-419.58902
457.285	-325.44109
457.776	-288.40464
458.266	-395.5887
458.756	-328.49786
459.247	-357.53236
459.737	-474.73729
460.226	-379.53853
460.716	-362.55969
461.206	-384.61016
461.695	-379.64369
462.185	-338.52779
462.674	-316.48193
463.163	-299.43476
463.653	-304.41597
464.142	-362.5967
464.63	-311.52445
465.119	-357.56642
465.608	-325.51296
466.096	-348.52886
466.585	-278.44879
467.073	-298.50814
467.561	-333.57841
468.05	-274.45337
468.538	-282.50243
469.026	-360.6371
469.513	-280.41838
470.001	-368.61638
470.489	-311.54019
470.976	-276.46859
471.463	-310.58471
471.951	-287.54678
472.438	-301.53253
472.925	-340.60484
473.412	-238.44802
473.899	-253.44363
474.385	-273.52112
474.872	-317.57519
475.359	-311.5974
475.845	-214.33549
476.331	-269.46079
476.817	-255.49408
477.303	-271.50023
477.789	-264.5092
478.275	-309.62164
478.761	-258.50289
479.247	-257.46655
479.732	-284.57569
480.218	-313.67724
480.703	-270.55307
481.188	-252.44014
481.673	-285.54033
482.158	-278.48043
482.643	-254.54383
483.128	-298.56705
483.612	-233.45297
484.097	-204.41844
484.581	-223.43601
485.066	-281.58016
485.55	-228.41716
486.034	-270.49452
486.518	-260.51667
487.002	-269.56062
487.486	-234.48627
487.969	-275.57771
488.453	-212.45999
488.936	-264.5136
489.42	-207.39283
489.903	-213.46581
490.386	-626.9968
490.869	-220.41699
491.352	-160.33991
491.835	-182.32526
492.318	-232.45651
492.8	-158.28076
493.283	-229.51031
493.765	-227.49054
494.247	-202.41771
494.73	-202.39186
495.212	-188.4027
495.694	-251.51962
496.175	-264.55375
496.657	-183.3836
497.139	-89.13413
497.62	-322.68792
498.102	-248.54979
498.583	-188.41921
499.064	-253.50429
499.545	-241.49423
500.026	-257.51869
500.507	-218.45383
500.988	-177.39215
501.469	-257.58053
501.949	-199.44273
502.43	-278.59779
502.91	-208.38461
503.39	-206.46676
503.87	-253.5383
504.35	-188.40096
504.83	-214.42228
505.31	-235.51587
505.79	-265.57756
506.269	-236.50377
506.749	-266.55474
507.228	-218.46252
507.707	-188.37534
508.187	-176.38107
508.666	-282.63556
509.145	-249.53117
509.623	-250.53781
510.102	-188.41314
510.581	-186.4096
511.059	-238.54429
511.538	-134.31274
512.016	-165.35703
512.494	-177.39117
512.972	-169.36568
513.45	-270.57359
513.928	-200.44154
514.406	-284.62854
514.884	-171.39886
515.361	-162.35166
515.839	-211.44014
516.316	-184.4035
516.793	-168.38854
517.27	-181.40285
517.747	-182.42593
518.224	-185.39293
518.701	-190.38849
519.178	-222.50485
519.654	-167.36491
520.131	-157.35393
520.607	-202.46327
521.083	-206.43401
521.56	-169.36552
522.036	-149.29934
522.512	-108.24242
522.987	-168.36344
523.463	-147.31889
523.939	-134.30041
524.414	-175.37348
524.89	-184.40299
525.365	-220.4633
525.84	-196.42727
526.315	-208.46381
526.79	-146.30191
527.265	-176.37048
527.74	-161.36042
528.215	-215.47177
528.689	-181.37034
529.164	-183.36934
529.638	-172.40899
530.112	-199.43427
530.587	-168.32964
531.061	-204.45583
531.534	-162.36348
532.008	-182.40449
532.482	-174.3711
532.956	-207.48908
533.429	-159.35609
533.903	-162.3329
534.376	-161.32957
534.849	-181.39047
535.322	-171.37459
535.795	-168.38097
536.268	-174.38784
536.741	-172.38433
537.213	-134.28604
537.686	-162.36438
538.158	-143.29432
538.631	-121.27155
539.103	-160.33131
539.575	-79.15065
540.047	-96.19335
540.519	-117.25793
540.991	-121.27356
541.463	-104.23124
541.934	-102.21405
542.406	-153.33714
542.877	-109.22596
543.348	-51.11205
543.82	-45.10037
544.291	-21.04437
544.762	-89.19233
545.233	-111.25473
545.703	-71.14238
546.174	-55.1159
546.645	-114.24757
547.115	-4.00861
547.585	2.00411
548.056	-43.09253
548.526	-24.05016
548.996	38.08069
549.466	98.20929
549.935	26.05386
550.405	21.04028
550.875	44.09095
551.344	42.08829
551.814	173.33712
552.283	135.25131
552.752	178.34778
553.221	140.25602
553.69	211.38987
554.159	201.4122
554.628	278.5048
555.096	269.56361
555.565	311.56315
556.033	381.728
556.502	415.81296
556.97	403.72047
557.438	470.89438
557.906	566.05926
558.374	566.02012
558.842	615.14803
559.31	727.22793
559.777	716.32013
560.245	858.49344
560.712	880.49639
561.18	1008.55175
561.647	1039.6152
562.114	1084.70168
562.581	1241.07835
563.048	1341.00506
563.514	1364.18624
563.981	1566.1682
564.448	1665.16685
564.914	1746.34977
565.381	1915.36285
565.847	2060.53245
566.313	2206.55603
566.779	2367.45231
567.245	2490.63
567.711	2549.74356
568.176	2800.41554
568.642	2885.98462
569.108	3061.8603
569.573	3319.59059
570.038	3407.95333
570.504	3638.14705
570.969	3799.77237
571.434	3944.87136
571.899	4286.18188
572.363	4438.83345
572.828	4624.77848
573.293	4804.6687
573.757	5122.5003
574.222	5258.2409
574.686	5342.21839
575.15	5516.48654
575.614	5571.26191
576.078	5732.32016
576.542	5977.09204
577.006	6079.00665
577.469	6147.54044
577.933	6137.94319
578.396	6324.25055
578.86	6198.2248
579.323	6246.25521
579.786	6292.78504
580.249	6146.04049
580.712	6232.43262
581.175	6184.48458
581.637	6156.14443
582.1	5973.94704
582.563	6043.83563
583.025	5902.4709
583.487	5906.56644
583.95	5696.88405
584.412	5730.80487
584.874	5571.62841
585.336	5445.5409
585.797	5387.06456
586.259	5307.61431
586.721	5073.67274
587.182	5000.74775
587.643	4839.63582
588.105	4639.99195
588.566	4598.36567
589.027	4380.21791
589.488	4380.91925
589.949	4266.35725
590.41	4111.22989
590.87	4015.14668
591.331	3891.90142
591.791	3773.28874
592.252	3572.31061
592.712	3484.66321
593.172	3414.31311
593.632	3338.22963
594.092	3197.34487
594.552	3107.19749
595.011	3026.50898
595.471	2880.43309
595.931	2792.42301
596.39	2691.76294
596.849	2689.63514
597.308	2600.33462
597.768	2486.04495
598.227	2373.7717
598.685	2477.59003
599.144	2332.62303
599.603	2300.67764
600.062	2221.16001
600.52	2215.38836
600.978	2111.61981
601.437	2102.4822
601.895	2120.18719
602.353	2047.34481
602.811	2037.33292
603.269	1930.57098
603.727	1926.5672
604.184	1904.32034
604.642	1868.62036
605.099	1878.42518
605.557	1858.60117
606.014	1860.1463
606.471	1766.60098
606.928	1741.06218
607.385	1760.4863
607.842	1802.32164
608.299	1896.449
608.755	1765.48339
609.212	1773.20452
609.668	1724.15184
610.125	1811.53495
610.581	1864.5412
611.037	1842.39035
611.493	1821.49652
611.949	1713.46645
612.405	1739.90526
612.861	1823.49773
613.316	1713.45131
613.772	1680.30792
614.227	1707.41096
614.683	1744.14283
615.138	1685.37197
615.593	1603.29592
616.048	1657.30421
616.503	1630.52585
616.958	1549.50549
617.412	1551.32663
617.867	1548.10885
618.321	1528.93889
618.776	1499.10261
619.23	1444.22458
619.684	1416.10501
620.138	1400.17631
620.592	1402.29951
621.046	1360.17119
621.5	1297.19504
621.954	1281.99379
622.407	1280.964
622.861	1203.09653
623.314	1238.9829
623.768	1229.02579
624.221	1157.58435
624.674	1180.95159
625.127	1078.8707
625.58	1194.96184
626.033	1103.79013
626.485	992.81106
626.938	1134.99515
627.39	1123.92905
627.843	1021.79344
628.295	1056.83916
628.747	1014.84666
629.199	1043.79118
629.651	987.71909
630.103	987.73898
630.555	947.54288
631.006	986.79555
631.458	990.81376
631.909	1001.78665
632.361	1020.83982
632.812	988.77381
633.263	986.64033
633.714	1067.72757
634.165	1005.9166
634.616	970.82431
635.067	1004.73547
635.518	1019.90867
635.968	1042.58556
636.419	1033.73246
636.869	1015.90303
637.319	1096.94414
637.769	1064.82979
638.219	1165.1248
638.669	1150.09367
639.119	1107.1009
639.569	1155.13507
640.019	1225.12052
640.468	1248.05672
640.918	1263.28225
641.367	1257.08133
641.816	1287.10797
642.265	1304.21821
642.714	1274.18661
643.163	1436.34399
643.612	1372.39563
644.061	1432.09583
644.51	1435.3145
644.958	1484.2549
645.406	1516.55228
645.855	1512.63867
646.303	1526.49893
646.751	1523.3987
647.199	1602.4734
647.647	1563.47633
648.095	1657.54521
648.543	1664.20106
648.99	1669.70437
649.438	1682.67055
649.885	1667.84527
650.333	1649.02989
650.78	1674.75695
651.227	1621.73546
651.674	1698.57034
652.121	1658.77668
652.568	1606.71795
653.015	1699.97551
653.461	1594.63418
653.908	1702.66304
654.354	1674.73286
654.801	1594.58823
655.247	1670.43985
655.693	1649.04932
656.139	1548.62893
656.585	1618.70188
657.031	1576.55308
657.477	1526.2717
657.922	1657.58964
658.368	1577.77206
658.813	1599.59138
659.259	1572.66285
659.704	1584.57328
660.149	1569.56213
660.594	1537.59691
661.039	1604.52105
661.484	1638.72816
661.929	1619.63136
662.373	1555.83347
662.818	1555.77694
663.262	1616.72915
663.707	1577.88376
664.151	1684.85854
664.595	1619.74376
665.039	1713.96303
665.483	1690.02822
665.927	1637.68592
666.371	1665.63359
666.814	1670.76985
667.258	1682.73243
667.701	1857.5485
668.145	1804.05974
668.588	1764.96365
669.031	1795.80949
669.474	1761.88654
669.917	1905.67412
670.36	1848.08361
670.803	1857.98402
671.245	1903.4904
671.688	1882.04994
672.13	1953.74289
672.573	1875.22424
673.015	1906.0009
673.457	1974.64989
673.899	1983.10009
674.341	1965.06805
674.783	1963.03351
675.225	1969.1532
675.666	1943.02629
676.108	2042.68159
676.549	2045.04849
676.991	2058.74949
677.432	2059.35909
677.873	2122.98856
678.314	2092.11163
678.755	2050.16924
679.196	2026.88934
679.637	2120.24376
680.078	2108.03971
680.518	2069.00311
680.959	2045.1008
681.399	2093.29151
681.839	2089.20378
682.28	2071.25086
682.72	2090.92602
683.16	2161.35629
683.6	2065.90914
684.039	2064.54105
684.479	2080.23481
684.919	2047.9262
685.358	2222.50082
685.798	2175.6349
686.237	2170.23197
686.676	2226.07065
687.115	2205.1108
687.554	2218.16536
687.993	2187.83542
688.432	2174.96912
688.871	2208.94813
689.309	2257.21166
689.748	2327.64333
690.186	2319.24996
690.625	2281.13196
691.063	2368.2828
691.501	2411.4643
691.939	2416.5084
692.377	2344.36027
692.815	2392.27585
693.253	2403.31938
693.69	2380.86934
694.128	2464.36937
694.565	2434.28509
695.003	2516.6557
695.44	2546.23816
695.877	2522.19557
696.314	2476.79812
696.751	2528.09252
697.188	2572.12531
697.625	2634.14961
698.061	2607.36463
698.498	2650.43282
698.934	2746.42002
699.371	2746.28242
699.807	2750.31726
700.243	2712.40499
700.679	2729.08123
701.115	2766.3032
701.551	2720.29255
701.987	2835.05216
702.422	2873.34795
702.858	2919.37183
703.294	2905.08923
703.729	2879.53427
704.164	2979.43668
704.599	2933.99188
705.035	2914.01159
705.47	2970.49501
705.904	3043.23509
706.339	3133.23523
706.774	3174.25827
707.209	3111.16799
707.643	3104.42259
708.078	3136.50682
708.512	3161.67464
708.946	3223.40528
709.38	3263.32287
709.814	3272.10115
710.248	3291.50352
710.682	3220.34666
711.116	3305.34223
711.549	3333.90107
711.983	3306.1533
712.416	3300.3067
712.85	3433.6373
713.283	3358.29619
713.716	3350.71111
714.149	3378.34752
714.582	3257.99263
715.015	3417.67784
715.448	3318.73322
715.881	3353.82822
716.313	3297.24255
716.746	3298.2682
717.178	3329.40101
717.61	3326.77524
718.043	3393.64361
718.475	3284.46519
718.907	3387.76329
719.339	3236.04225
719.77	3255.31375
720.202	3217.75852
720.634	3185.491
721.065	3152.33368
721.497	3194.54685
721.928	3102.55609
722.359	3112.43223
722.79	3152.38923
723.221	3104.73127
723.652	3080.9065
724.083	3124.03331
724.514	3030.15549
724.945	2980.28841
725.375	2931.20481
725.806	2895.66381
726.236	2901.83255
726.666	2855.33022
727.096	2896.55044
727.526	2797.7475
727.956	2759.08799
728.386	2768.55359
728.816	2691.69549
729.246	2662.44459
729.675	2593.50026
730.105	2592.50882
730.534	2608.22833
730.964	2569.66074
731.393	2540.55129
731.822	2563.7161
732.251	2518.65869
732.68	2517.24984
733.109	2420.44928
733.537	2415.3365
733.966	2366.46679
734.395	2388.1001
734.823	2368.98664
735.251	2341.29387
735.68	2320.49707
736.108	2255.51099
736.536	2253.15293
736.964	2159.02734
737.392	2182.4078
737.82	2190.2048
738.247	2077.13005
738.675	2124.15086
739.102	2046.30281
739.53	2082.42288
739.957	1948.36751
740.384	2009.22529
740.811	1917.27472
741.238	1900.08625
741.665	1928.88617
742.092	1936.02297
742.519	1834.08801
742.945	1837.96631
743.372	1856.11208
743.798	1855.28143
744.225	1750.85341
744.651	1725.04841
745.077	1772.06726
745.503	1765.97249
745.929	1674.8203
746.355	1716.00836
746.781	1627.8988
747.207	1564.62658
747.632	1592.79352
748.058	1587.88193
748.483	1601.60186
748.908	1592.87008
749.334	1553.78464
749.759	1453.53186
750.184	1441.55015
750.609	1454.67455
751.033	1535.63242
751.458	1467.39034
751.883	1429.67338
752.307	1339.39569
752.732	1313.54464
753.156	1366.58076
753.58	1316.39822
754.005	1254.51912
754.429	1290.33181
754.853	1254.44097
755.277	1261.31666
755.7	1235.42033
756.124	1165.31923
756.548	1155.17953
756.971	1139.23915
757.394	1116.35212
757.818	1104.32883
758.241	1065.22743
758.664	1078.23535
759.087	1055.89683
759.51	1027.11767
759.933	996.98696
760.356	999.14609
760.778	991.02966
761.201	1026.06044
761.623	995.00676
762.046	961.90512
762.468	1000.99311
762.89	953.98052
763.312	921.90295
763.734	901.83836
764.156	829.76924
764.578	853.6719
765	831.74902
765.421	737.65274
765.843	812.8615
766.264	839.74423
766.686	826.79893
767.107	745.58436
767.528	701.5726
767.949	752.68536
768.37	740.59791
768.791	716.53022
769.212	631.42761
769.632	607.27211
770.053	634.51115
770.473	645.40656
770.894	673.50728
771.314	643.37672
771.734	548.16421
772.154	605.41082
772.575	556.17303
772.994	563.15896
773.414	560.2264
773.834	543.24474
774.254	534.19885
774.673	515.15495
775.093	497.13641
775.512	455.04397
775.931	485.14087
776.351	478.101
776.77	432.98944
777.189	421.93964
777.607	412.99191
778.026	474.09611
778.445	375.88935
778.864	435.04564
779.282	410.92775
779.701	390.93007
780.119	366.87853
780.537	354.84069
780.955	404.97045
781.373	357.83981
781.791	354.75399
782.209	339.74446
782.627	331.83492
783.045	326.71576
783.462	326.79738
783.88	321.79578
784.297	297.71877
784.715	318.78244
785.132	311.72165
785.549	279.67344
785.966	309.74583
786.383	262.62368
786.8	295.65819
787.217	263.60279
787.633	229.55631
788.05	323.73375
788.466	277.63029
788.883	206.51363
789.299	266.61907
789.715	256.60261
790.131	256.61665
790.547	290.69721
790.963	234.56494
791.379	202.49963
791.795	260.57351
792.21	209.47731
792.626	254.58345
793.041	185.44809
793.457	231.55549
793.872	212.4864
794.287	174.40801
794.702	204.49159
795.117	180.43901
795.532	203.49722
795.947	221.51851
796.362	241.5588
796.776	238.54167
797.191	132.32014
797.605	119.27735
798.02	174.41613
798.434	221.47901
798.848	174.42105
799.262	149.36483
799.676	181.43361
800.09	182.43941
800.504	141.33844
800.918	161.36739
801.331	165.42603
801.745	138.3137
802.158	152.37487
802.572	148.35463
802.985	125.2998
803.398	148.34854
803.811	202.50803
804.224	140.34464
804.637	96.22801
805.05	130.29863
805.462	181.43642
805.875	93.24014
806.288	120.2871
806.7	107.26743
807.112	156.35649
807.525	147.35819
807.937	100.24608
808.349	139.34426
808.761	135.32859
809.173	137.32833
809.584	179.43421
809.996	98.23893
810.408	92.23652
810.819	72.16956
811.231	34.08839
811.642	66.15761
812.053	141.33108
812.464	174.40593
812.875	134.33872
813.286	130.33118
813.697	177.40618
814.108	104.25281
814.519	111.24593
814.929	125.31591
815.34	135.32379
815.75	105.26518
816.16	139.34237
816.571	132.33924
816.981	112.26273
817.391	100.24035
817.801	33.08254
818.211	92.21868
818.62	91.21834
819.03	105.25586
819.44	141.36382
819.849	104.26054
820.259	128.32436
820.668	69.16977
821.077	40.09988
821.486	109.26083
821.895	129.31551
822.304	119.31258
822.713	78.18426
823.122	74.18458
823.531	97.22892
823.939	109.26372
824.348	91.2205
824.756	108.26871
825.164	85.21337
825.573	48.1209
825.981	103.25398
826.389	89.22284
826.797	99.24663
827.205	93.21257
827.612	114.27908
828.02	74.17366
828.428	89.22581
828.835	72.18929
829.243	118.27875
829.65	70.17397
830.057	95.2295
830.464	90.21845
830.871	120.28469
831.278	74.17874
831.685	46.10326
832.092	76.18585
832.499	110.23878
832.905	76.19211
833.312	121.27333
833.718	86.21358
834.124	96.21832
834.531	120.29965
834.937	93.23755
835.343	72.17364
835.749	101.23457
836.155	55.14423
836.561	76.18661
836.966	75.18317
837.372	126.31725
837.777	72.17914
838.183	68.15132
838.588	51.12696
838.993	106.25622
839.399	43.10556
839.804	27.06626
840.209	43.10984
840.613	95.21022
841.018	90.22685
841.423	73.18692
841.828	78.19674
842.232	122.29911
842.637	95.2229
843.041	60.15383
843.445	84.20991
843.849	50.12409
844.253	110.25925
844.657	38.09609
845.061	72.16321
845.465	50.12109
845.869	102.23534
846.272	73.17742
846.676	132.31521
847.079	81.20522
847.483	131.32278
847.886	118.28425
848.289	70.18645
848.692	65.16451
849.095	89.21273
849.498	127.31821
849.901	99.22555
850.304	94.22335
850.707	64.1631
851.109	104.2612
851.512	66.16206
851.914	28.07095
852.316	49.12419
852.718	22.05715
853.121	47.11547
853.523	55.12874
853.925	76.19763
854.326	37.09288
854.728	75.19231
855.13	38.09834
855.531	65.15519
855.933	96.22898
856.334	45.11247
856.736	38.08554
857.137	68.1579
857.538	70.17562
857.939	76.18716
858.34	108.26086
858.741	73.19032
859.142	92.21969
859.542	57.15038
859.943	88.21751
860.343	51.12645
860.744	67.16326
861.144	53.12944
861.544	28.06768
861.945	84.21309
862.345	81.1973
862.745	54.13431
863.145	112.26509
863.544	66.16654
863.944	69.16272
864.344	95.23442
864.743	107.26316
865.143	75.19205
865.542	68.15746
865.941	89.21905
866.34	91.21668
866.74	68.18214
867.139	58.13887
867.537	93.23546
867.936	92.22003
868.335	86.2177
868.734	78.19857
869.132	74.17142
869.531	67.1618
869.929	78.1771
870.327	53.12717
870.726	118.29102
871.124	99.22956
871.522	66.16784
871.92	116.28303
872.318	92.22347
872.715	93.22873
873.113	70.17016
873.511	74.18378
873.908	18.04574
874.306	47.11709
874.703	98.24338
875.1	87.22136
875.497	75.1792
875.894	35.08608
876.291	61.14959
876.688	64.16483
877.085	105.24963
877.482	52.13027
877.878	117.27837
878.275	98.2471
878.671	115.25309
879.068	107.25585
879.464	61.14731
879.86	49.11605
880.256	70.17232
880.652	75.19009
881.048	60.14858
881.444	65.15447
881.84	79.19994
882.236	64.16068
882.631	69.16895
883.027	96.23073
883.422	82.20868
883.817	31.07824
884.213	55.14113
884.608	52.12759
885.003	70.16831
885.398	66.16487
885.793	64.16039
886.188	29.07243
886.582	125.3167
886.977	63.14932
887.371	87.21878
887.766	44.10963
888.16	81.2012
888.554	112.27408
888.949	92.22948
889.343	116.28018
889.737	21.05626
890.131	88.21942
890.525	34.08726
890.918	96.23981
891.312	109.25814
891.706	76.19865
892.099	97.24497
892.492	101.21583
892.886	106.25689
893.279	45.11482
893.672	88.22268
894.065	89.22147
894.458	58.14577
894.851	90.2191
895.244	63.16064
895.637	65.15626
896.029	101.24482
896.422	53.12953
896.814	53.13179
897.206	37.08841
897.599	121.29561
897.991	60.14492
898.383	59.1393
898.775	82.18406
899.167	33.07728
899.559	109.27321
899.951	117.27248
900.342	113.28436
900.734	-4.01003
901.125	103.26798
901.517	92.22422
901.908	121.28645
902.299	73.17782
902.69	58.13675
903.082	120.28699
903.473	60.1435
903.863	69.17557
904.254	72.16652
904.645	87.21508
905.036	13.03171
905.426	133.2997
905.817	94.22893
906.207	49.11685
906.597	60.14015
906.987	101.25962
907.378	106.26555
907.768	91.23903
908.158	67.16296
908.547	54.13946
908.937	106.26947
909.327	97.23362
909.717	105.26414
910.106	67.16051
910.495	137.33682
910.885	111.27823
911.274	99.24537
911.663	100.25169
912.052	96.23502
912.441	119.29903
912.83	94.21403
913.219	104.26979
913.608	105.25471
913.997	35.08802
914.385	119.28074
914.774	37.09036
915.162	95.22455
915.55	110.26328
915.939	32.08106
916.327	137.33669
916.715	36.092
917.103	131.31778
917.491	90.22115
917.878	78.19088
918.266	81.20901
918.654	103.26078
919.041	43.11241
919.429	47.11105
919.816	81.20427
920.203	94.22618
920.591	88.21679
920.978	104.25224
921.365	67.17534
921.752	94.22232
922.139	114.2443
922.525	88.2099
922.912	77.18693
923.299	72.17829
923.685	73.18973
924.072	119.27079
924.458	54.13372
924.844	50.12377
925.231	129.29568
925.617	39.09941
926.003	90.22847
926.389	77.19335
926.774	65.16434
927.16	87.21468
927.546	40.1023
927.931	109.26917
928.317	42.09695
928.702	106.24817
929.088	54.12767
929.473	77.19502
929.858	1.00244
930.243	71.16977
930.628	48.11686
931.013	58.14357
931.398	94.21438
931.783	85.22252
932.167	93.2256
932.552	60.1501
932.937	102.25082
933.321	55.13791
933.705	67.16842
934.09	112.27997
934.474	89.20988
934.858	48.12456
935.242	60.13882
935.626	44.11277
936.009	75.19867
936.393	65.16498
936.777	74.18872
937.16	66.17128
937.544	118.27443
937.927	71.1795
938.311	112.27031
938.694	104.27258
939.077	69.16461
939.46	116.28145
939.843	134.27449
940.226	35.09003
940.609	86.19605
940.991	43.1096
941.374	74.18008
941.757	82.20119
942.139	42.09451
942.522	93.21804
942.904	78.18655
943.286	83.20969
943.668	93.23914
944.05	97.23689
944.432	100.24454
944.814	93.22729
945.196	36.08797
945.578	54.12826
945.959	48.11256
946.341	126.30502
946.722	94.21878
947.104	81.1925
947.485	69.16
947.866	47.11849
948.247	63.1586
948.628	103.24883
949.009	58.14833
949.39	119.29257
949.771	104.23938
950.152	62.15184
950.532	-13.03235
950.913	71.17062
951.293	74.19913
951.674	60.14487
952.054	30.07461
952.434	59.14623
952.814	112.26335
953.194	83.21602
953.574	114.27753
953.954	116.27201
954.334	84.20808
954.714	69.16757
955.093	103.2508
955.473	43.10767
955.853	82.21111
956.232	55.15063
956.611	125.29558
956.99	67.16788
957.37	72.18278
957.749	63.14995
958.128	39.09846
958.506	41.10653
958.885	56.1412
959.264	21.05174
959.643	84.18987
960.021	42.10423
960.4	49.1111
960.778	127.30842
961.156	65.16252
961.535	51.11887
961.913	75.17467
962.291	64.16379
962.669	61.15422
963.047	75.19056
963.424	60.15286
963.802	84.20526
964.18	95.23847
964.557	116.26369
964.935	111.25993
965.312	48.12504
965.69	81.20171
966.067	53.129
966.444	134.32512
966.821	86.22033
967.198	84.20251
967.575	126.30548
967.952	98.22881
968.329	86.20788
968.705	91.19345
969.082	58.14854
969.458	66.15785
969.835	58.14099
970.211	63.16132
970.587	69.17121
970.963	99.25181
971.339	59.15382
971.715	68.16925
972.091	79.19351
972.467	101.2496
972.843	49.12163
973.219	150.35338
973.594	30.07874
973.97	91.21493
974.345	103.24403
974.721	122.29144
975.096	67.16161
975.471	79.18637
975.846	103.24497
976.221	73.18463
976.596	42.10083
976.971	74.1819
977.346	91.21017
977.72	39.09955
978.095	12.03122
978.469	97.22946
978.844	80.20006
979.218	101.23975
979.593	62.14822
979.967	50.12182
980.341	17.0394
980.715	32.08089
981.089	78.19428
981.463	49.11254
981.837	61.14875
982.21	121.27768
982.584	70.16844
982.957	62.15448
983.331	70.16485
983.704	28.06908
984.078	57.14029
984.451	73.18159
984.824	39.09518
985.197	94.22644
985.57	87.21673
985.943	140.34006
986.316	106.25776
986.688	111.26461
987.061	92.21388
987.434	75.1946
987.806	88.21191
988.179	70.16453
988.551	96.24154
988.923	60.14749
989.295	63.15706
989.667	9.02167
990.039	51.12599
990.411	105.23903
990.783	112.25471
991.155	34.08194
991.527	133.32251
991.898	60.14923
992.27	43.1065
992.641	81.20208
993.012	121.28079
993.384	84.19905
993.755	32.08184
994.126	66.15827
994.497	58.14215
994.868	84.19165
995.239	47.11397
995.61	34.08579
995.98	66.15983
996.351	43.10662
996.722	49.11367
997.092	44.10431
997.462	33.07734
997.833	107.25086
998.203	93.22365
998.573	75.18589
998.943	84.19566
999.313	58.13877
999.683	50.11999
1000.053	52.1196
1000.423	56.13592
1000.792	72.18588
1001.162	31.07655
1001.531	71.17436
1001.901	98.24214
1002.27	69.15364
1002.639	65.16562
1003.009	68.16114
1003.378	41.10499
1003.747	119.27735
1004.116	37.08874
1004.485	56.13368
1004.853	86.21646
1005.222	80.20063
1005.591	81.19116
1005.959	27.06112
1006.328	48.10805
1006.696	47.11341
1007.064	68.17048
1007.433	78.19393
1007.801	99.24079
1008.169	61.15373
1008.537	86.18899
1008.905	36.08409
1009.273	141.34242
1009.64	43.1027
1010.008	68.16151
1010.375	138.32953
1010.743	117.26656
1011.11	103.2412
1011.478	50.12372
1011.845	59.13849
1012.212	54.12211
1012.579	67.16393
1012.946	68.16126
1013.313	114.26795
1013.68	71.15888
1014.047	67.15911
1014.414	42.09933
1014.78	57.14143
1015.147	89.21363
1015.513	46.1109
1015.88	108.27329
1016.246	85.20844
1016.612	79.17977
1016.978	103.24986
1017.344	65.16016
1017.71	82.19873
1018.076	81.18983
1018.442	102.25994
1018.808	65.16199
1019.174	59.14773
1019.539	135.30545
1019.905	71.16672
1020.27	56.13801
1020.636	106.25138
1021.001	108.25563
1021.366	53.12717
1021.731	74.18945
1022.096	32.08095
1022.461	106.24808
1022.826	88.20756
1023.191	67.17522
1023.556	80.18635
1023.92	38.09362
1024.285	91.22033
1024.649	90.21886
1025.014	102.25017
1025.378	99.24663
1025.742	71.17559
1026.107	81.18201
1026.471	81.1879
1026.835	94.23106
1027.199	81.19376
1027.562	87.20069
1027.926	81.19686
1028.29	85.21367
1028.654	75.17163
1029.017	58.14231
1029.381	81.19228
1029.744	99.2502
1030.107	89.2089
1030.471	78.18569
1030.834	73.16524
1031.197	122.28977
1031.56	102.23815
1031.923	84.21581
1032.286	79.18442
1032.648	85.20185
1033.011	35.08055
1033.374	109.25315
1033.736	23.06072
1034.099	68.16511
1034.461	70.17612
1034.823	44.10963
1035.185	114.28353
1035.548	63.15288
1035.91	57.1363
1036.272	76.172
1036.634	96.23275
1036.995	81.18916
1037.357	64.15522
1037.719	62.15037
1038.08	75.17714
1038.442	65.15376
1038.803	87.20731
1039.165	75.18833
1039.526	93.2228
1039.887	112.26468
1040.248	33.08152
1040.609	87.21342
1040.97	86.20866
1041.331	101.25325
1041.692	53.12358
1042.053	102.22971
1042.413	87.20117
1042.774	98.23608
1043.134	129.30232
1043.495	104.25875
1043.855	73.17622
1044.215	130.31778
1044.576	76.18072
1044.936	138.31065
1045.296	114.28105
1045.656	82.19993
1046.016	91.21784
1046.375	108.25898
1046.735	33.07503
1047.095	70.16312
1047.454	62.13097
1047.814	72.17226
1048.173	131.30796
1048.533	54.12355
1048.892	82.19551
1049.251	95.2364
1049.61	58.14252
1049.969	94.21956
1050.328	90.19337
1050.687	53.12881
1051.046	86.20788
1051.405	84.20755
1051.763	37.08525
1052.122	105.2591
1052.48	77.18777
1052.839	65.15239
1053.197	82.19168
1053.555	159.35433
1053.914	76.18488
1054.272	107.25575
1054.63	37.09063
1054.988	55.13046
1055.345	57.12249
1055.703	59.14167
1056.061	89.22725
1056.419	68.17537
1056.776	80.19279
1057.134	57.1317
1057.491	94.23336
1057.848	61.15147
1058.206	70.16389
1058.563	64.14059
1058.92	113.25703
1059.277	103.25145
1059.634	89.20768
1059.991	103.24412
1060.348	29.06578
1060.704	52.12379
1061.061	116.26583
1061.418	78.18804
1061.774	38.09396
1062.131	42.11113
1062.487	57.13301
1062.843	89.22018
1063.199	77.19043
1063.555	72.16599
1063.911	86.21568
1064.267	135.2761
1064.623	46.11174
1064.979	138.32119
1065.335	109.25744
1065.691	83.19756
1066.046	69.15103
1066.402	41.09326
1066.757	76.19081
1067.112	116.28102
1067.468	87.20381
1067.823	49.11775
1068.178	101.24178
1068.533	67.1618
1068.888	104.24578
1069.243	118.28737
1069.598	59.14302
1069.952	14.03174
1070.307	81.19922
1070.662	51.12097
1071.016	48.10752
1071.371	72.16294
1071.725	103.24374
1072.079	52.12493
1072.434	56.13582
1072.788	84.19859
1073.142	87.21239
1073.496	28.06666
1073.85	69.1593
1074.203	69.16669
1074.557	78.20631
1074.911	137.32131
1075.265	87.20061
1075.618	84.20365
1075.971	96.22617
1076.325	73.18463
1076.678	69.15708
1077.031	83.18642
1077.385	72.15776
1077.738	48.10832
1078.091	40.09108
1078.444	92.21168
1078.796	50.12259
1079.149	72.17823
1079.502	58.1367
1079.855	60.13954
1080.207	60.14743
1080.56	47.12144
1080.912	108.25987
1081.264	84.20082
1081.617	62.15066
1081.969	80.20056
1082.321	84.20365
1082.673	29.06642
1083.025	77.18158
1083.377	-138.30798
1083.728	78.18083
1084.08	73.18133
1084.432	81.19405
1084.783	85.19764
1085.135	86.21397
1085.486	35.08026
1085.838	80.19578
1086.189	67.16198
1086.54	110.25945
1086.891	34.08616
1087.242	85.20542
1087.593	84.20304
1087.944	84.18863
1088.295	82.18505
1088.646	58.14025
1088.996	24.05806
1089.347	43.10556
1089.698	81.19013
1090.048	73.18869
1090.398	66.15246
1090.749	103.24374
1091.099	53.13309
1091.449	67.16624
1091.799	91.22596
1092.149	30.07336
1092.499	52.12669
1092.849	53.13452
1093.199	110.27249
1093.548	60.14377
1093.898	67.16697
1094.248	103.26198
1094.597	15.03849
1094.947	88.23307
1095.296	83.20353
1095.645	72.1864
1095.994	92.21902
1096.343	68.17042
1096.692	41.10777
1097.041	31.08411
1097.39	73.18219
1097.739	70.18116
1098.088	75.19993
1098.437	39.10255
1098.785	113.30123
1099.134	62.16415
1099.482	79.21608
1099.83	80.20896
1100.179	47.12254
1100.527	60.15902
1100.875	30.07951
1101.223	73.19292
1101.571	53.14626
1101.919	-5.01317
1102.267	70.19629
1102.615	6.01929
1102.962	11.03541
1103.31	2.00643
1103.658	20.06435
