Data from N2 R11 sample 9_Subt2__4__16-03-37-033.txt Node

Date: Mon Sep 01 16:03:37 PDT 2025
User: uwsun
Spectrometer: HDX01956
Trigger mode: 0
Integration Time (sec): 5.000000E-1
Scans to average: 1
Nonlinearity correction enabled: true
Boxcar width: 0
Storing dark spectrum: false
XAxis mode: Wavelengths
Number of Pixels in Spectrum: 2068
>>>>>Begin Spectral Data<<<<<
194.03	-29.08176
194.578	-12.038
195.127	-29.0907
195.676	-19.05953
196.225	19.05025
196.773	-6.01647
197.321	9.02412
197.87	20.04931
198.418	23.05594
198.966	-61.15158
199.513	-75.17817
200.061	-79.19092
200.609	-6.01512
201.156	-55.11412
201.704	-68.16306
202.251	-38.09544
202.798	7.01711
203.345	24.05593
203.892	-20.04763
204.438	6.01354
204.985	-69.15491
205.532	-8.01983
206.078	22.05068
206.624	-33.07658
207.17	15.03276
207.716	-27.06186
208.262	35.0647
208.808	-49.11371
209.354	-33.07585
209.899	45.10694
210.445	-43.10093
210.99	-33.07503
211.535	-4.00889
212.08	7.01535
212.625	-13.0308
213.17	13.03104
213.715	-50.10488
214.259	15.03292
214.804	40.09281
215.348	34.07299
215.892	-1.00227
216.436	29.06334
216.98	-32.06766
217.524	30.06645
218.068	29.06871
218.612	4.00953
219.155	2.00445
219.698	24.05383
220.242	27.06365
220.785	-4.00887
221.328	-21.04983
221.871	21.05048
222.414	21.04954
222.956	-62.14265
223.499	-11.02354
224.041	24.05305
224.583	72.14635
225.126	19.0396
225.668	25.05723
226.21	-16.03819
226.751	-62.12976
227.293	35.07551
227.835	-3.00693
228.376	23.05036
228.918	42.10003
229.459	-15.03535
230	-2.00451
230.541	-47.10387
231.082	3.00688
231.622	11.02402
232.163	-24.05518
232.704	-9.0211
233.244	-21.04943
233.784	49.11308
234.324	-29.06014
234.864	-11.02364
235.404	23.05166
235.944	13.02915
236.484	3.00709
237.023	-23.05151
237.563	-11.02402
238.102	18.04004
238.641	-29.06966
239.18	-40.08857
239.719	5.01184
240.258	20.04234
240.797	-29.06567
241.335	-7.01622
241.874	23.04141
242.412	11.02482
242.95	-33.07439
243.488	7.01504
244.026	10.02161
244.564	38.07308
245.102	-5.01056
245.64	5.01138
246.177	-41.08735
246.715	23.05187
247.252	35.07528
247.789	9.01607
248.326	-41.09273
248.863	-21.04336
249.4	42.08899
249.936	18.03462
250.473	-31.06814
251.009	-16.03439
251.546	-1.00207
252.082	7.01437
252.618	-4.00834
253.154	-13.02926
253.69	-39.08298
254.226	-35.07871
254.761	-13.02741
255.297	-31.06383
255.832	-2.00442
256.367	21.04606
256.903	-27.0557
257.438	31.0678
257.972	-19.03972
258.507	-31.06639
259.042	7.01417
259.576	-11.02199
260.111	-31.06751
260.645	-29.0591
261.179	-36.07871
261.713	-21.04367
262.247	-17.03672
262.781	-33.0647
263.315	-2.00455
263.849	-49.11497
264.382	14.02995
264.915	7.01517
265.449	-80.1823
265.982	22.04643
266.515	-7.01586
267.048	-74.14767
267.58	12.02443
268.113	-40.08068
268.646	-7.01602
269.178	-42.08744
269.71	17.03434
270.243	-9.01913
270.775	-55.13096
271.307	-1.00224
271.838	40.0879
272.37	-17.03884
272.902	11.02315
273.433	18.03622
273.965	-9.0203
274.496	-12.02776
275.027	-34.07842
275.558	-20.04493
276.089	-80.18289
276.62	-15.0355
277.15	-6.01373
277.681	19.03803
278.211	-23.05244
278.741	-65.13312
279.272	-41.08667
279.802	-16.03698
280.332	-42.09164
280.861	-7.01552
281.391	-47.09865
281.921	-12.02673
282.45	-12.02771
282.98	-27.0651
283.509	45.09178
284.038	-48.10122
284.567	13.02788
285.096	2.00443
285.625	-29.06049
286.153	-73.15843
286.682	-49.10321
287.21	-29.06398
287.739	-51.11102
288.267	-48.10668
288.795	1.00241
289.323	-57.12202
289.851	-11.02351
290.378	-33.06777
290.906	-67.14844
291.433	-28.06378
291.961	-43.08874
292.488	-56.12792
293.015	-44.09417
293.542	2.00456
294.069	-8.01775
294.596	-13.02926
295.122	-63.13737
295.649	-20.03999
296.175	-33.07287
296.702	-21.04624
297.228	-37.08194
297.754	-21.0425
298.28	-55.11305
298.806	-97.21303
299.332	-70.13995
299.857	-32.06487
300.383	-8.01827
300.908	-111.24429
301.433	-23.04992
301.958	6.01241
302.483	-62.13906
303.008	-12.02659
303.533	-32.07513
304.058	-14.02956
304.582	-98.20856
305.107	-97.22812
305.631	-4.00812
306.155	-87.18156
306.679	-90.1882
307.203	-15.03066
307.727	-36.07578
308.251	-60.13235
308.775	-122.25862
309.298	-94.19979
309.822	-55.12328
310.345	-65.13643
310.868	-32.06706
311.391	-72.15756
311.914	-81.17931
312.437	-48.09654
312.96	-84.17417
313.482	-78.16231
314.005	-75.16548
314.527	-93.21488
315.049	-19.04183
315.571	-85.16319
316.093	-80.17277
316.615	-112.23586
317.137	-65.12172
317.659	-4.00834
318.18	-45.09374
318.702	-82.16417
319.223	-60.10462
319.744	-23.04337
320.265	-109.22606
320.786	-78.16332
321.307	-86.18215
321.828	-87.16663
322.348	-67.13243
322.869	-106.20995
323.389	-2.0026
323.909	-30.05692
324.43	-64.13003
324.95	-87.16478
325.47	-97.19739
325.989	-108.21001
326.509	-138.24866
327.029	-105.19187
327.548	-141.25804
328.067	-127.24878
328.587	-85.17226
329.106	-112.20481
329.625	-32.06852
330.144	-121.22312
330.662	-114.2091
331.181	-129.2405
331.7	-111.2053
332.218	-133.22524
332.736	-122.22423
333.255	-145.26402
333.773	-171.31833
334.291	-136.26811
334.808	-189.326
335.326	-143.24678
335.844	-153.26771
336.361	-214.41712
336.879	-137.23731
337.396	-174.31514
337.913	-168.28614
338.43	-151.2481
338.947	-173.30398
339.464	-227.35349
339.981	-176.30236
340.497	-207.37845
341.014	-216.38463
341.53	-195.31148
342.046	-206.3634
342.562	-163.29183
343.078	-175.28914
343.594	-187.31446
344.11	-159.26227
344.626	-229.40873
345.141	-201.31282
345.657	-189.29397
346.172	-175.28722
346.687	-206.31769
347.202	-191.28234
347.717	-179.28445
348.232	-215.36432
348.747	-197.29532
349.261	-263.3642
349.776	-231.35489
350.29	-274.44208
350.805	-229.37502
351.319	-191.282
351.833	-281.40073
352.347	-267.39979
352.861	-231.33439
353.374	-206.29569
353.888	-233.35415
354.401	-260.36808
354.915	-321.43423
355.428	-268.41211
355.941	-328.46558
356.454	-186.24568
356.967	-306.44315
357.48	-276.37961
357.993	-300.45181
358.505	-327.48257
359.018	-308.4516
359.53	-353.5041
360.042	-270.33806
360.554	-258.36155
361.066	-308.43358
361.578	-281.33449
362.09	-284.38276
362.602	-328.3932
363.113	-297.37646
363.625	-311.37375
364.136	-278.31944
364.647	-416.51046
365.158	-323.39723
365.669	-318.40577
366.18	-297.36419
366.691	-281.3063
367.201	-351.43724
367.712	-346.38958
368.222	-366.4137
368.733	-408.41593
369.243	-361.36473
369.753	-343.3719
370.263	-358.40434
370.773	-389.46081
371.282	-382.40788
371.792	-438.40913
372.301	-487.51422
372.811	-469.55656
373.32	-520.39958
373.829	-591.54699
374.338	-467.34736
374.847	-547.42241
375.356	-578.45273
375.865	-585.30829
376.373	-599.34795
376.882	-566.42657
377.39	-598.37392
377.898	-731.41248
378.407	-767.29496
378.915	-689.18283
379.423	-746.23768
379.93	-713.13591
380.438	-911.18805
380.946	-854.05825
381.453	-1021.04603
381.96	-1067.92645
382.468	-1253.7693
382.975	-1054.75549
383.482	-1141.6291
383.989	-1239.69579
384.495	-1303.49905
385.002	-1433.29667
385.509	-1495.27684
386.015	-1462.20814
386.521	-1547.1673
387.028	-1742.08364
387.534	-1756.12295
388.04	-1766.09874
388.546	-2020.15297
389.051	-2158.3759
389.557	-2348.58552
390.063	-1972.89138
390.568	-2308.17045
391.073	-2510.93574
391.578	-2703.16169
392.084	-2893.40472
392.589	-3316.39897
393.093	-3776.09635
393.598	-3843.45903
394.103	-4004.5758
394.607	-4426.4919
395.112	-4610.55927
395.616	-4888.79824
396.12	-5851.51477
396.624	-6340.63932
397.128	-6807.89637
397.632	-7017.50555
398.136	-7876.75699
398.639	-9879.78627
399.143	-11946.72528
399.646	-12835.09979
400.15	-14332.40957
400.653	-16891.28071
401.156	-19579.05281
401.659	-23598.51857
402.162	-19707.31205
402.664	-5478.9667
403.167	-1053.13624
403.67	0
404.172	0
404.674	0
405.176	0
405.678	0
406.18	0
406.682	0
407.184	0
407.686	0
408.187	0
408.688	0
409.19	0
409.691	0
410.192	-73.83255
410.693	-7741.96088
411.194	-12016.51785
411.694	-10509.08558
412.195	-9040.15132
412.696	-9796.69681
413.196	-11575.51479
413.696	-12715.24006
414.196	-10963.7551
414.696	-7911.73293
415.196	-5019.37052
415.696	-558.73688
416.196	-58.74512
416.695	-2842.17178
417.195	-4636.45547
417.694	-4461.21128
418.194	-3567.59866
418.693	-4196.28689
419.192	-3865.383
419.691	-3881.37496
420.19	-3334.80918
420.688	-2927.37028
421.187	-2594.8892
421.685	-2125.70442
422.184	-1664.99191
422.682	-1478.2435
423.18	-1929.67246
423.678	-1865.02032
424.176	-1831.1107
424.674	-1682.49153
425.172	-1385.91589
425.669	-1275.5726
426.167	-1033.54163
426.664	-948.51161
427.161	-1074.40536
427.659	-1010.46776
428.156	-986.46945
428.652	-939.62115
429.149	-936.64221
429.646	-784.6889
430.143	-760.81317
430.639	-687.86154
431.135	-798.98001
431.632	-737.97182
432.128	-807.10971
432.624	-743.185
433.12	-858.10925
433.616	-766.09686
434.111	-871.23976
434.607	-810.29707
435.103	-640.17007
435.598	-585.16382
436.093	-629.34999
436.588	-498.2663
437.083	-536.33733
437.578	-510.36119
438.073	-666.594
438.568	-510.47787
439.062	-578.43705
439.557	-476.45264
440.051	-490.4384
440.546	-513.47622
441.04	-570.61453
441.534	-520.6274
442.028	-414.45592
442.522	-458.51393
443.015	-530.5402
443.509	-431.52041
444.002	-507.63144
444.496	-497.52777
444.989	-504.647
445.482	-511.67659
445.975	-537.61647
446.468	-452.47583
446.961	-484.52116
447.454	-467.55418
447.947	-508.64632
448.439	-496.67766
448.931	-516.62617
449.424	-498.73269
449.916	-462.63816
450.408	-481.59605
450.9	-484.67162
451.392	-514.77112
451.884	-469.62589
452.375	-550.82171
452.867	-389.51073
453.358	-524.70151
453.849	-451.54972
454.341	-491.66185
454.832	-468.59205
455.323	-503.7612
455.814	-458.6474
456.304	-422.5957
456.795	-449.63728
457.285	-408.56898
457.776	-360.5175
458.266	-482.73748
458.756	-426.66567
459.247	-504.78537
459.737	-462.71609
460.226	-433.62584
460.716	-441.69777
461.206	-420.67429
461.695	-443.76547
462.185	-437.7022
462.674	-339.52057
463.163	-435.65939
463.653	-377.52824
464.142	-442.74485
464.63	-419.72745
465.119	-415.66948
465.608	-447.73054
466.096	-376.57622
466.585	-341.56036
467.073	-347.59954
467.561	-400.70717
468.05	-364.61737
468.538	-370.67428
469.026	-335.58899
469.513	-376.57827
470.001	-376.63117
470.489	-383.67799
470.976	-345.59672
471.463	-296.55639
471.951	-300.57335
472.438	-358.64281
472.925	-383.68895
473.412	-316.60628
473.899	-255.44737
474.385	-336.65119
474.872	-303.54782
475.359	-323.62225
475.845	-292.46819
476.331	-270.46263
476.817	-291.5687
477.303	-303.56379
477.789	-306.59617
478.275	-326.65841
478.761	-267.52154
479.247	-298.54663
479.732	-362.74688
480.218	-292.62897
480.703	-303.6253
481.188	-324.57667
481.673	-276.52211
482.158	-341.59923
482.643	-256.54835
483.128	-284.53856
483.612	-285.56093
484.097	-254.52689
484.581	-223.43601
485.066	-251.51473
485.55	-291.54093
486.034	-313.57951
486.518	-270.5378
487.002	-342.72432
487.486	-291.6124
487.969	-274.57549
488.453	-245.53533
488.936	-281.54889
489.42	-221.42083
489.903	-234.514
490.386	-659.05742
490.869	-286.55084
491.352	-253.54836
491.835	-211.37991
492.318	-301.60192
492.8	-221.39915
493.283	-251.56188
493.765	-305.67008
494.247	-199.41123
494.73	-244.47809
495.212	-199.42728
495.694	-310.65023
496.175	-325.69087
496.657	-210.44282
497.139	-159.24469
497.62	-288.61076
498.102	-264.58721
498.583	-220.49381
499.064	-248.49374
499.545	-216.44045
500.026	-245.49311
500.507	-251.52637
500.988	-238.53399
501.469	-271.61389
501.949	-225.50327
502.43	-279.60007
502.91	-235.43748
503.39	-225.51177
503.87	-239.50696
504.35	-206.44107
504.83	-206.40573
505.31	-233.51127
505.79	-250.54313
506.269	-150.31422
506.749	-262.54591
507.228	-259.55442
507.707	-196.39204
508.187	-178.38557
508.666	-256.5739
509.145	-260.55596
509.623	-238.51068
510.102	-180.39489
510.581	-147.32107
511.059	-212.4823
511.538	-193.45565
512.016	-163.35255
512.494	-175.38659
512.972	-168.36344
513.45	-260.55114
513.928	-188.41401
514.406	-257.56559
514.884	-212.49847
515.361	-169.3674
515.839	-160.32997
516.316	-128.27738
516.793	-177.41009
517.27	-119.26146
517.747	-178.41624
518.224	-145.30529
518.701	-140.28301
519.178	-178.40118
519.654	-141.3064
520.131	-191.43356
520.607	-161.36621
521.083	-184.38578
521.56	-172.37225
522.036	-135.27034
522.512	-104.23325
522.987	-190.41296
523.463	-154.33458
523.939	-149.33507
524.414	-176.37569
524.89	-122.2637
525.365	-188.39312
525.84	-242.53269
526.315	-172.38068
526.79	-153.31689
527.265	-173.36392
527.74	-196.44193
528.215	-206.45117
528.689	-185.37887
529.164	-163.32747
529.638	-182.4336
530.112	-214.46849
530.587	-153.29914
531.061	-226.50728
531.534	-194.43814
532.008	-205.45778
532.482	-133.28113
532.956	-262.6256
533.429	-159.35609
533.903	-157.32226
534.376	-202.41734
534.849	-156.33474
535.322	-134.29125
535.795	-166.37628
536.268	-169.3763
536.741	-137.30391
537.213	-146.31247
537.686	-162.36438
538.158	-168.34772
538.631	-144.32469
539.103	-156.32274
539.575	-100.19167
540.047	-92.18513
540.519	-106.23314
540.991	-136.30841
541.463	-137.3067
541.934	-96.20119
542.406	-96.20901
542.877	-104.21535
543.348	-108.24013
543.82	-62.13877
544.291	-63.13434
544.762	-106.2299
545.233	-128.29474
545.703	-100.20187
546.174	-49.10312
546.645	-128.2788
547.115	-62.13505
547.585	-22.04541
548.056	-57.12302
548.526	9.01867
548.996	-13.02791
549.466	61.13132
549.935	-46.09683
550.405	29.05552
550.875	54.11137
551.344	64.13389
551.814	104.20599
552.283	155.28711
552.752	138.27218
553.221	106.19551
553.69	198.36704
554.159	170.35107
554.628	197.36509
555.096	252.52998
555.565	296.53804
556.033	359.68961
556.502	381.75236
556.97	393.7044
557.438	468.891
557.906	511.97076
558.374	546.99058
558.842	589.10647
559.31	626.08591
559.777	656.22744
560.245	810.42752
560.712	844.44891
561.18	961.49949
561.647	1026.60092
562.114	1096.71467
562.581	1232.06823
563.048	1325.99134
563.514	1399.22069
563.981	1558.16245
564.448	1715.196
564.914	1823.3944
565.381	1982.39125
565.847	2144.56277
566.313	2289.57703
566.779	2401.45641
567.245	2498.63083
567.711	2794.75101
568.176	2883.4038
568.642	3074.96922
569.108	3289.81479
569.573	3569.50431
570.038	3825.75665
570.504	3979.98037
570.969	4187.5908
571.434	4456.58846
571.899	4556.03136
572.363	4843.60447
572.828	5066.53264
573.293	5307.40083
573.757	5539.29833
574.222	5750.03435
574.686	5829.02496
575.15	6030.29112
575.614	6305.0505
576.078	6369.15225
576.542	6480.01273
577.006	6678.96685
577.469	6761.45157
577.933	6774.93638
578.396	6840.23744
578.86	6847.1957
579.323	6851.23068
579.786	6806.82629
580.249	6749.01602
580.712	6698.37477
581.175	6549.41846
581.637	6653.09991
582.1	6577.88605
582.563	6401.79666
583.025	6243.37117
583.487	6224.52895
583.95	6099.78246
584.412	6108.71799
584.874	5985.4628
585.336	5853.36853
585.797	5676.94889
586.259	5603.47369
586.721	5424.49287
587.182	5536.4748
587.643	5300.39133
588.105	5155.70432
588.566	5127.08192
589.027	4837.95959
589.488	4821.66981
589.949	4680.12721
590.41	4558.97689
590.87	4489.88718
591.331	4449.595
591.791	4196.07471
592.252	4101.05693
592.712	3993.44833
593.172	3874.11146
593.632	3851.00555
594.092	3755.12582
594.552	3599.01159
595.011	3538.35201
595.471	3468.26803
595.931	3297.30609
596.39	3329.67185
596.849	3157.5738
597.308	3187.22627
597.768	3028.08301
598.227	2959.80254
598.685	3053.55687
599.144	2953.63903
599.603	2934.71508
600.062	2756.14844
600.52	2770.41463
600.978	2758.72993
601.437	2747.56602
601.895	2730.20473
602.353	2695.42332
602.811	2676.41396
603.269	2633.7693
603.727	2658.76839
604.184	2635.46404
604.642	2625.87841
605.099	2687.6158
605.557	2676.86485
606.014	2618.26396
606.471	2644.94525
606.928	2713.21117
607.385	2664.79244
607.842	2801.52248
608.299	2800.63061
608.755	2754.78531
609.212	2806.37786
609.668	2802.33944
610.125	2943.80656
610.581	2960.76752
611.037	2987.56469
611.493	2948.74111
611.949	2919.80424
612.405	3050.90667
612.861	3126.7123
613.316	3067.76152
613.772	3059.572
614.227	3093.69972
614.683	3111.24435
615.138	3079.66446
615.593	3089.63409
616.048	3161.56805
616.503	3155.97184
616.958	3000.07794
617.412	2952.77541
617.867	2927.42084
618.321	3054.12913
618.776	2903.47411
619.23	2788.77131
619.684	2930.59201
620.138	2819.75662
620.592	2798.97391
621.046	2726.81838
621.5	2581.96996
621.954	2675.63524
622.407	2554.57958
622.861	2480.97069
623.314	2468.68235
623.768	2383.76399
624.221	2365.08984
624.674	2269.69821
625.127	2233.76153
625.58	2245.68175
626.033	2229.55108
626.485	2100.81259
626.938	2088.80332
627.39	2047.69276
627.843	2021.66638
628.295	1972.64371
628.747	2005.77545
629.199	2052.62431
629.651	1861.52646
630.103	1905.5875
630.555	1867.29879
631.006	1771.6061
631.458	1784.63737
631.909	1811.58273
632.361	1742.5821
632.812	1733.53708
633.263	1782.34481
633.714	1809.34576
634.165	1707.71602
634.616	1623.57523
635.067	1728.43426
635.518	1715.67671
635.968	1728.11973
636.419	1732.37302
636.869	1690.65615
637.319	1674.53803
637.769	1639.40049
638.219	1707.70073
638.669	1657.6416
639.119	1713.78558
639.569	1719.74455
640.019	1712.59485
640.468	1768.51181
640.918	1806.82773
641.367	1788.54543
641.816	1804.54796
642.265	1758.63893
642.714	1876.7242
643.163	1893.71348
643.612	1795.79828
644.061	1934.41934
644.51	1938.70357
644.958	1960.57961
645.406	1978.93086
645.855	1954.02893
646.303	2018.87415
646.751	2008.74381
647.199	2040.76731
647.647	2027.80661
648.095	1972.76237
648.543	2162.41943
648.99	2120.02217
649.438	2145.9797
649.885	2094.18293
650.333	2114.20686
650.78	2002.01059
651.227	2055.07816
651.674	2138.83718
652.121	2032.07087
652.568	2097.09985
653.015	2043.26791
653.461	2064.98993
653.908	2036.8932
654.354	2006.98548
654.801	1948.86328
655.247	2023.65334
655.693	2025.40667
656.139	1968.98013
656.585	1939.96559
657.031	1907.81461
657.477	1910.53044
657.922	1917.78058
658.368	2005.14569
658.813	1951.86347
659.259	1898.94327
659.704	1885.81494
660.149	1960.86742
660.594	1909.91394
661.039	1936.76523
661.484	1914.95652
661.929	1929.8749
662.373	1914.18117
662.818	1908.10793
663.262	1886.96134
663.707	1862.16738
664.151	2000.11731
664.595	1893.98007
665.039	1981.19209
665.483	2047.34546
665.927	1990.95949
666.371	1979.86178
666.814	1997.02677
667.258	1961.94767
667.701	2093.66666
668.145	2104.29325
668.588	2157.25488
669.031	2115.0195
669.474	2119.14422
669.917	2203.81904
670.36	2132.29446
670.803	2322.26939
671.245	2236.62243
671.688	2255.2933
672.13	2187.85799
672.573	2269.51322
673.015	2295.23329
673.457	2342.79187
673.899	2312.29105
674.341	2293.26027
674.783	2297.22423
675.225	2388.39819
675.666	2264.21695
676.108	2347.79118
676.549	2376.21229
676.991	2350.85936
677.432	2321.42082
677.873	2333.08103
678.314	2354.24245
678.755	2363.34008
679.196	2258.00101
679.637	2402.38957
680.078	2387.16515
680.518	2333.12914
680.959	2379.27285
681.399	2338.43288
681.839	2322.33192
682.28	2246.3575
682.72	2293.01655
683.16	2319.44581
683.6	2366.03813
684.039	2393.63269
684.479	2309.36607
684.919	2266.03151
685.358	2398.59856
685.798	2369.7608
686.237	2425.35286
686.676	2447.15365
687.115	2440.20569
687.554	2452.26191
687.993	2409.90694
688.432	2440.06649
688.871	2407.01815
689.309	2373.26229
689.748	2493.67121
690.186	2523.32451
690.625	2535.21816
691.063	2486.32589
691.501	2541.5145
691.939	2562.5655
692.377	2515.42759
692.815	2528.32167
693.253	2593.38096
693.69	2568.90617
694.128	2558.39981
694.565	2574.32777
695.003	2590.68385
695.44	2594.24947
695.877	2589.21125
696.314	2644.81731
696.751	2631.11179
697.188	2655.13963
697.625	2757.16503
698.061	2658.37627
698.498	2634.429
698.934	2640.39915
699.371	2641.26575
699.807	2659.30259
700.243	2689.40063
700.679	2754.08313
701.115	2766.3032
701.551	2750.29664
701.987	2802.05143
702.422	2726.33211
702.858	2759.35752
703.294	2838.08913
703.729	2771.51917
704.164	2812.42476
704.599	2823.99466
705.035	2819.01293
705.47	2852.48601
705.904	2839.23545
706.339	2872.24404
706.774	2936.27165
707.209	2909.17874
707.643	2961.42403
708.078	2972.50732
708.512	2824.6507
708.946	2984.41725
709.38	2905.34254
709.814	2973.13697
710.248	2992.51791
710.682	2976.36116
711.116	2935.36762
711.549	2972.89025
711.983	3016.19031
712.416	2978.33446
712.85	2972.65962
713.283	3040.33337
713.716	2968.71604
714.149	3038.38515
714.582	2962.03273
715.015	3001.69648
715.448	2901.72528
715.881	3040.89189
716.313	2849.2711
716.746	2978.29812
717.178	2897.42332
717.61	2902.76438
718.043	2906.65306
718.475	2890.47544
718.907	2828.74676
719.339	2822.07723
719.77	2839.32902
720.202	2813.7271
720.634	2699.46171
721.065	2722.32239
721.497	2737.51984
721.928	2728.52265
722.359	2727.40994
722.79	2658.36057
723.221	2596.64353
723.652	2673.82561
724.083	2524.01954
724.514	2554.12378
724.945	2522.23193
725.375	2468.14301
725.806	2427.5322
726.236	2483.7045
726.666	2468.25656
727.096	2418.42959
727.526	2363.58924
727.956	2373.01612
728.386	2313.4003
728.816	2189.46633
729.246	2209.27097
729.675	2227.34509
730.105	2264.37311
730.534	2184.08137
730.964	2118.42258
731.393	2123.34134
731.822	2117.47081
732.251	2055.39167
732.68	2137.09464
733.109	2024.22539
733.537	2015.12408
733.966	1923.18338
734.395	1981.90831
734.823	1951.79822
735.251	1925.04923
735.68	1949.24957
736.108	1812.17134
736.536	1844.90278
736.964	1731.74531
737.392	1786.09812
737.82	1775.91608
738.247	1708.8488
738.675	1743.87398
739.102	1627.92832
739.53	1575.94456
739.957	1662.08478
740.384	1637.89742
740.811	1601.9613
741.238	1573.78354
741.665	1456.48096
742.092	1542.67594
742.519	1416.64963
742.945	1471.6142
743.372	1394.62616
743.798	1415.78413
744.225	1432.5374
744.651	1359.62652
745.077	1361.60799
745.503	1382.56436
745.929	1351.47149
746.355	1364.60814
746.781	1326.54258
747.207	1219.2359
747.632	1172.27888
748.058	1186.36927
748.483	1236.21013
748.908	1193.36631
749.334	1184.32073
749.759	1171.18941
750.184	1102.11921
750.609	1166.29715
751.033	1131.14553
751.458	1116.99504
751.883	1103.227
752.307	1017.96946
752.732	1008.09372
753.156	953.98139
753.58	1036.0196
754.005	1027.16955
754.429	957.87603
754.853	939.96437
755.277	930.85002
755.7	905.91154
756.124	838.79502
756.548	849.72199
756.971	858.79838
757.394	863.92034
757.818	828.8527
758.241	797.76613
758.664	811.78227
759.087	777.4955
759.51	791.71794
759.933	722.53108
760.356	766.72868
760.778	709.54495
761.201	684.48193
761.623	708.52224
762.046	724.51396
762.468	710.50953
762.89	675.48881
763.312	676.47267
763.734	613.33162
764.156	625.39222
764.578	653.33971
765	617.35906
765.421	553.28641
765.843	606.44602
766.264	590.29382
766.686	584.33643
767.107	565.24803
767.528	535.24057
767.949	492.16073
768.37	483.09948
768.791	545.2073
769.212	469.09546
769.632	467.00844
770.053	491.20186
770.473	487.09698
770.894	449.05113
771.314	486.07529
771.734	410.89864
772.154	444.06752
772.575	442.95733
772.994	387.82946
773.414	420.94844
773.834	381.90322
774.254	439.00438
774.673	385.88801
775.093	360.84736
775.512	366.85645
775.931	333.80799
776.351	357.84373
776.77	310.72743
777.189	326.74191
777.607	286.70502
778.026	295.70775
778.445	278.67166
778.864	315.77606
779.282	278.64598
779.701	314.75976
780.119	280.68312
780.537	236.57321
780.955	313.76488
781.373	258.61864
781.791	244.53213
782.209	276.61415
782.627	242.62015
783.045	236.52798
783.462	255.63197
783.88	198.5019
784.297	256.62434
784.715	239.59665
785.132	235.55351
785.549	235.57196
785.966	221.54231
786.383	200.48177
786.8	242.54587
787.217	200.4642
787.633	131.32409
788.05	244.56317
788.466	217.49977
788.883	162.40715
789.299	187.442
789.715	219.51923
790.131	202.49156
790.547	147.363
790.963	164.40118
791.379	168.41813
791.795	158.35596
792.21	175.4024
792.626	172.40158
793.041	147.3586
793.457	189.45812
793.872	190.43785
794.287	134.31667
794.702	143.34858
795.117	136.33442
795.532	124.30817
795.947	173.4097
796.362	187.43823
796.776	217.49597
797.191	150.36257
797.605	89.20866
798.02	107.25917
798.434	156.34282
798.848	171.41402
799.262	142.34814
799.676	167.40114
800.09	164.3973
800.504	162.38728
800.918	124.28508
801.331	129.33516
801.745	102.23356
802.158	107.26607
802.572	152.36393
802.985	166.39503
803.398	125.29569
803.811	166.42019
804.224	151.37096
804.637	130.30674
805.05	124.28519
805.462	110.26879
805.875	89.22997
806.288	108.25898
806.7	139.34539
807.112	135.30981
807.525	117.28669
807.937	98.24125
808.349	112.27876
808.761	102.2498
809.173	93.22475
809.584	141.34447
809.996	91.22216
810.408	73.1883
810.819	113.26399
811.231	39.1013
811.642	18.04338
812.053	126.29673
812.464	112.26448
812.875	111.28173
813.286	95.24351
813.697	150.34609
814.108	105.25519
814.519	104.23076
814.929	142.35778
815.34	78.18911
815.75	79.20044
816.16	113.27966
816.571	85.22024
816.981	66.15622
817.391	89.21436
817.801	63.15672
818.211	71.16945
818.62	84.20182
819.03	85.2079
819.44	136.35122
819.849	83.20872
820.259	113.28711
820.668	59.14543
821.077	68.16894
821.486	103.24676
821.895	141.34409
822.304	80.21152
822.713	80.18891
823.122	85.2116
823.531	88.20805
823.939	72.17541
824.348	84.20381
824.756	113.28089
825.164	102.25525
825.573	67.16818
825.981	128.31417
826.389	89.22284
826.797	90.22457
827.205	75.17205
827.612	99.24304
828.02	39.09215
828.428	93.23579
828.835	78.20485
829.243	104.24635
829.65	24.06015
830.057	102.24608
830.464	85.2065
830.871	94.22412
831.278	81.19538
831.685	70.15635
832.092	47.11555
832.499	65.14245
832.905	99.24922
833.312	104.23575
833.718	113.27925
834.124	66.15101
834.531	100.25061
834.937	123.31252
835.343	91.21868
835.749	114.26408
836.155	98.2551
836.561	75.18419
836.966	95.23114
837.372	75.19056
837.777	80.19875
838.183	124.27273
838.588	47.11709
838.993	112.27041
839.399	89.21663
839.804	45.11006
840.209	21.05385
840.613	73.16228
841.018	97.24419
841.423	69.17681
841.828	86.21661
842.232	85.20983
842.637	75.17666
843.041	60.15383
843.445	67.16794
843.849	47.1167
844.253	87.20596
844.657	44.11114
845.061	106.23862
845.465	63.1522
845.869	96.22176
846.272	39.09539
846.676	103.24732
847.079	66.16767
847.483	127.31316
847.886	104.25119
848.289	44.1177
848.692	73.18449
849.095	81.19391
849.498	136.34021
849.901	65.14911
850.304	75.17886
850.707	113.28548
851.109	122.30541
851.512	62.15235
851.914	67.16861
852.316	93.23387
852.718	39.10102
853.121	65.15916
853.523	60.14031
853.925	58.15129
854.326	54.13514
854.728	99.25279
855.13	15.03897
855.531	77.18342
855.933	85.20317
856.334	77.19133
856.736	54.12116
857.137	46.10728
857.538	59.14831
857.939	56.13842
858.34	73.17748
858.741	61.15936
859.142	65.15602
859.542	74.19467
859.943	66.16379
860.343	43.10677
860.744	93.22552
861.144	139.33402
861.544	22.05324
861.945	48.12254
862.345	90.21886
862.745	49.12198
863.145	103.24422
863.544	96.24093
863.944	93.21829
864.344	87.215
864.743	115.28242
865.143	68.17434
865.542	54.12539
865.941	94.23115
866.34	109.25864
866.74	71.19008
867.139	40.0961
867.537	115.29002
867.936	76.18232
868.335	70.1777
868.734	58.14818
869.132	94.21689
869.531	100.23998
869.929	59.13448
870.327	45.10814
870.726	87.21579
871.124	89.20678
871.522	70.17789
871.92	125.30448
872.318	113.2734
872.715	90.22147
873.113	46.11232
873.511	84.20823
873.908	12.03053
874.306	57.14174
874.703	70.17473
875.1	144.36269
875.497	114.27035
875.894	57.13962
876.291	110.26729
876.688	55.14187
877.085	81.19346
877.482	85.21167
877.878	44.10616
878.275	58.14729
878.671	119.26168
879.068	77.18517
879.464	105.25145
879.86	50.11839
880.256	92.22556
880.652	46.11719
881.048	89.21922
881.444	125.29363
881.84	48.12216
882.236	79.1978
882.631	59.14473
883.027	95.22837
883.422	51.1305
883.817	14.03544
884.213	69.17662
884.608	42.10324
885.003	98.23438
885.398	33.08293
885.793	73.18265
886.188	84.2077
886.582	93.23697
886.977	93.21914
887.371	76.19149
887.766	45.1121
888.16	87.21587
888.554	103.25248
888.949	87.21721
889.343	73.17775
889.737	23.0616
890.131	49.12304
890.525	60.15329
890.918	74.18559
891.312	105.24886
891.706	82.21411
892.099	101.25489
892.492	89.19068
892.886	80.19483
893.279	50.12747
893.672	76.19273
894.065	73.18219
894.458	72.18051
894.851	75.1831
895.244	78.19836
895.637	73.17522
896.029	55.13447
896.422	63.15369
896.814	35.08732
897.206	40.09552
897.599	122.298
897.991	43.10419
898.383	43.10184
898.775	63.14197
899.167	24.0563
899.559	95.23872
899.951	100.23367
900.342	79.20001
900.734	19.04744
901.125	103.26798
901.517	83.20263
901.908	109.25864
902.299	55.13442
902.69	92.21548
903.082	113.27061
903.473	61.14586
903.863	28.07176
904.254	45.10463
904.645	114.28043
905.036	47.11393
905.426	130.29312
905.817	79.19293
906.207	71.1686
906.597	45.10542
906.987	71.18346
907.378	39.09888
907.768	49.12962
908.158	77.18693
908.547	67.17264
908.937	78.19927
909.327	75.18139
909.717	98.24684
910.106	53.12731
910.495	109.26937
910.885	99.24869
911.274	72.17933
911.663	81.20457
912.052	93.2278
912.441	75.18995
912.83	77.17593
913.219	72.18781
913.608	59.14436
913.997	69.17245
914.385	80.19016
914.774	99.23898
915.162	81.19198
915.55	103.24685
915.939	56.14125
916.327	122.30066
916.715	60.15269
917.103	91.22241
917.491	101.24767
917.878	97.23654
918.266	114.29247
918.654	66.1682
919.041	55.14349
919.429	37.08759
919.816	57.14437
920.203	54.13092
920.591	43.10681
920.978	80.1949
921.365	95.24742
921.752	44.10507
922.139	104.22335
922.525	66.15809
922.912	82.19888
923.299	37.09221
923.685	69.17946
924.072	99.22619
924.458	44.10916
924.844	76.18723
925.231	65.1509
925.617	55.1398
926.003	61.15565
926.389	59.14863
926.774	71.17931
927.16	98.24134
927.546	46.11752
927.931	101.24978
928.317	61.14027
928.702	103.24129
929.088	41.09718
929.473	71.18002
929.858	18.04379
930.243	68.16269
930.628	54.13131
931.013	72.17777
931.398	136.30753
931.783	107.27906
932.167	60.14645
932.552	97.24103
932.937	95.23391
933.321	63.15774
933.705	103.25724
934.09	158.39167
934.474	84.19828
934.858	63.16307
935.242	67.1548
935.626	47.12039
936.009	66.17509
936.393	74.18752
936.777	59.15086
937.16	58.15072
937.544	104.24254
937.927	75.18948
938.311	106.25612
938.694	109.28544
939.077	59.14102
939.46	89.21703
939.843	130.26654
940.226	64.16379
940.609	77.17586
940.991	56.14241
941.374	83.20165
941.757	94.23012
942.139	18.0407
942.522	128.29803
942.904	100.23815
943.286	87.21964
943.668	77.19855
944.05	53.1305
944.432	71.17456
944.814	95.2321
945.196	-12.02958
945.578	24.05733
945.959	65.15191
946.341	89.21695
946.722	72.16831
947.104	60.14317
947.485	59.13708
947.866	100.24971
948.247	81.20325
948.628	81.19649
949.009	82.20883
949.39	68.16876
949.771	80.18502
950.152	70.17118
950.532	20.04947
950.913	93.22255
951.293	61.16449
951.674	64.15441
952.054	61.15086
952.434	72.17803
952.814	83.19626
953.194	79.20575
953.574	101.24648
953.954	57.1352
954.334	73.1812
954.714	70.16997
955.093	138.33382
955.473	58.14483
955.853	72.18569
956.232	65.17773
956.611	129.3048
956.99	64.16045
957.37	113.28477
957.749	113.26637
958.128	58.14593
958.506	56.14513
958.885	58.14619
959.264	42.10309
959.643	107.24072
960.021	57.14107
960.4	58.13126
960.778	88.21527
961.156	79.19702
961.535	120.27588
961.913	63.14707
962.291	52.13336
962.669	46.11661
963.047	61.15538
963.424	91.23056
963.802	64.15697
964.18	93.23353
964.557	106.24145
964.935	154.35758
965.312	44.1147
965.69	52.13018
966.067	84.20327
966.444	87.21295
966.821	86.22033
967.198	90.21672
967.575	75.18357
967.952	56.13183
968.329	56.13613
968.705	77.16419
969.082	42.10787
969.458	38.09137
969.835	38.09272
970.211	41.10539
970.587	103.25398
970.963	90.22928
971.339	60.1564
971.715	74.18398
972.091	59.14506
972.467	93.23016
972.843	29.07225
973.219	97.23088
973.594	84.21844
973.97	143.33434
974.345	101.23938
974.721	95.22811
975.096	76.18301
975.471	71.16776
975.846	98.2333
976.221	35.08912
976.596	77.18363
976.971	110.26859
977.346	121.27779
977.72	90.22766
978.095	49.12666
978.469	114.26878
978.844	56.14065
979.218	63.15064
979.593	105.24896
979.967	70.1699
980.341	66.15149
980.715	74.18565
981.089	65.16228
981.463	55.12617
981.837	52.12702
982.21	125.28663
982.584	37.08959
982.957	32.08017
983.331	138.32068
983.704	50.12286
984.078	65.15975
984.451	106.2621
984.824	51.12418
985.197	68.16462
985.57	80.19955
985.943	110.26869
986.316	126.30525
986.688	113.26927
987.061	92.21388
987.434	96.24818
987.806	98.23554
988.179	61.14363
988.551	83.20932
988.923	69.16933
989.295	81.20127
989.667	19.04566
990.039	70.17232
990.411	105.23903
990.783	73.16732
991.155	10.02421
991.527	127.30831
991.898	62.15415
992.27	67.16521
992.641	114.2827
993.012	44.10366
993.384	68.16164
993.755	101.25517
994.126	74.17718
994.497	36.08859
994.868	64.14661
995.239	65.15709
995.61	13.03293
995.98	70.16939
996.351	56.13852
996.722	34.0791
997.092	44.10431
997.462	15.03528
997.833	101.23707
998.203	90.21656
998.573	91.22488
998.943	84.19566
999.313	80.1906
999.683	57.13661
1000.053	111.25228
1000.423	93.22416
1000.792	82.21133
1001.162	57.14009
1001.531	93.22746
1001.901	130.31931
1002.27	79.17554
1002.639	107.27061
1003.009	100.2355
1003.378	80.20345
1003.747	60.14147
1004.116	63.15036
1004.485	63.15018
1004.853	75.18914
1005.222	103.25724
1005.591	99.23283
1005.959	41.09254
1006.328	73.16349
1006.696	35.08465
1007.064	53.13323
1007.433	117.28882
1007.801	83.20248
1008.169	102.25516
1008.537	104.22768
1008.905	58.13489
1009.273	92.22548
1009.64	47.11217
1010.008	100.23605
1010.375	142.33883
1010.743	129.29319
1011.11	24.05707
1011.478	61.15064
1011.845	61.14313
1012.212	89.19982
1012.579	76.18564
1012.946	98.23106
1013.313	79.18695
1013.68	106.23549
1014.047	43.10258
1014.414	74.17393
1014.78	63.15615
1015.147	115.27467
1015.513	113.26896
1015.88	119.30053
1016.246	69.1697
1016.612	102.23102
1016.978	103.24986
1017.344	93.22797
1017.71	107.2581
1018.076	115.26771
1018.442	92.23487
1018.808	67.16691
1019.174	64.1601
1019.539	167.37539
1019.905	40.09449
1020.27	43.10623
1020.636	115.27225
1021.001	80.19038
1021.366	58.13903
1021.731	83.21216
1022.096	37.09351
1022.461	60.14169
1022.826	107.25145
1023.191	105.27281
1023.556	85.1978
1023.92	73.17868
1024.285	94.22747
1024.649	95.2308
1025.014	104.25498
1025.378	85.21229
1025.742	69.17071
1026.107	79.17758
1026.471	97.2243
1026.835	84.20686
1027.199	73.17489
1027.562	74.17115
1027.926	97.23504
1028.29	92.23098
1028.654	103.23438
1029.017	124.30052
1029.381	29.06953
1029.744	45.11482
1030.107	141.32759
1030.471	87.20676
1030.834	72.16301
1031.197	99.23618
1031.56	61.14357
1031.923	59.15224
1032.286	88.20506
1032.648	68.16201
1033.011	40.09196
1033.374	86.20064
1033.736	44.11575
1034.099	118.28382
1034.461	70.17612
1034.823	79.19559
1035.185	59.14821
1035.548	98.23626
1035.91	81.1928
1036.272	88.19867
1036.634	86.20889
1036.995	93.21667
1037.357	83.20059
1037.719	97.23371
1038.08	102.23965
1038.442	68.16076
1038.803	86.20497
1039.165	53.13361
1039.526	61.14703
1039.887	56.13378
1040.248	45.11092
1040.609	96.23511
1040.97	81.19671
1041.331	94.236
1041.692	22.05161
1042.053	67.15197
1042.413	122.28014
1042.774	67.16235
1043.134	106.24953
1043.495	66.16534
1043.855	69.16669
1044.215	67.1657
1044.576	86.20411
1044.936	100.22686
1045.296	113.27864
1045.656	69.16864
1046.016	107.25536
1046.375	96.23073
1046.735	25.05694
1047.095	69.16082
1047.454	103.21562
1047.814	90.21459
1048.173	115.27119
1048.533	61.13937
1048.892	14.03382
1049.251	103.25594
1049.61	53.13035
1049.969	103.24016
1050.328	96.20599
1050.687	75.18153
1051.046	55.13372
1051.405	67.16606
1051.763	33.0761
1052.122	80.19832
1052.48	74.18056
1052.839	35.08254
1053.197	65.15245
1053.555	111.24982
1053.914	65.15845
1054.272	95.22759
1054.63	39.09549
1054.988	57.13515
1055.345	25.0541
1055.703	119.28248
1056.061	53.13619
1056.419	33.08562
1056.776	112.26827
1057.134	95.21784
1057.491	101.25042
1057.848	92.22715
1058.206	69.16158
1058.563	39.08612
1058.92	130.29468
1059.277	54.13303
1059.634	102.2374
1059.991	117.27655
1060.348	57.12855
1060.704	75.17776
1061.061	133.30375
1061.418	41.09953
1061.774	64.15749
1062.131	74.19474
1062.487	62.14453
1062.843	52.12952
1063.199	59.14639
1063.555	65.15006
1063.911	92.23048
1064.267	115.23626
1064.623	27.06582
1064.979	136.31666
1065.335	95.22499
1065.691	88.20926
1066.046	50.10988
1066.402	63.14266
1066.757	86.21553
1067.112	93.22628
1067.468	5.0119
1067.823	79.18876
1068.178	99.23709
1068.533	93.22348
1068.888	87.20628
1069.243	56.13796
1069.598	102.24525
1069.952	37.08348
1070.307	20.04974
1070.662	66.1561
1071.016	65.14509
1071.371	33.07528
1071.725	98.23214
1072.079	82.19589
1072.434	75.18125
1072.788	103.24261
1073.142	84.20518
1073.496	74.17461
1073.85	49.11358
1074.203	92.22129
1074.557	95.25055
1074.911	67.15929
1075.265	60.1391
1075.618	102.24646
1075.971	62.14703
1076.325	68.17213
1076.678	91.20624
1077.031	43.09737
1077.385	101.21995
1077.738	73.16389
1078.091	47.10686
1078.444	105.24096
1078.796	48.11773
1079.149	104.25593
1079.502	67.15763
1079.855	97.22394
1080.207	66.162
1080.56	54.13936
1080.912	81.1959
1081.264	84.20082
1081.617	89.21517
1081.969	73.18324
1082.321	60.14612
1082.673	42.09594
1083.025	109.25545
1083.377	67.14318
1083.728	63.14649
1084.08	87.21555
1084.432	92.21994
1084.783	109.25224
1085.135	75.18698
1085.486	52.11883
1085.838	91.22224
1086.189	61.14764
1086.54	116.27329
1086.891	61.15384
1087.242	93.22441
1087.593	99.23862
1087.944	68.1532
1088.295	92.20719
1088.646	75.18077
1088.996	20.04842
1089.347	94.22858
1089.698	71.16698
1090.048	102.26232
1090.398	110.25188
1090.749	110.25996
1091.099	57.14303
1091.449	74.18338
1091.799	108.26734
1092.149	32.07822
1092.499	96.23196
1092.849	81.20457
1093.199	136.33528
1093.548	40.09621
1093.898	72.17927
1094.248	65.16644
1094.597	41.10473
1094.947	78.20693
1095.296	69.16964
1095.645	64.16591
1095.994	94.22369
1096.343	88.21974
1096.692	33.08686
1097.041	52.14061
1097.39	98.24347
1097.739	61.15811
1098.088	112.29673
1098.437	23.06064
1098.785	88.23556
1099.134	101.26566
1099.482	102.27796
1099.83	71.18574
1100.179	52.13546
1100.527	69.18259
1100.875	24.06367
1101.223	53.14054
1101.571	56.15447
1101.919	12.03153
1102.267	79.22122
1102.615	4.01286
1102.962	16.05148
1103.31	8.0257
1103.658	16.0515
