Data from N2 R11 sample 9_Subt2__5__16-03-38-035.txt Node

Date: Mon Sep 01 16:03:38 PDT 2025
User: uwsun
Spectrometer: HDX01956
Trigger mode: 0
Integration Time (sec): 5.000000E-1
Scans to average: 1
Nonlinearity correction enabled: true
Boxcar width: 0
Storing dark spectrum: false
XAxis mode: Wavelengths
Number of Pixels in Spectrum: 2068
>>>>>Begin Spectral Data<<<<<
194.03	-28.07893
194.578	-16.0507
195.127	-30.09384
195.676	-27.08468
196.225	65.17056
196.773	-1.00274
197.321	22.05883
197.87	33.08116
198.418	-11.02692
198.966	-36.08905
199.513	-68.16132
200.061	-80.19337
200.609	27.06763
201.156	-28.05775
201.704	-54.12915
202.251	-31.07776
202.798	-37.09117
203.345	42.09752
203.892	-38.09081
204.438	-11.02491
204.985	-26.05786
205.532	-44.10979
206.078	-7.01622
206.624	-10.0231
207.17	32.06964
207.716	-55.12672
208.262	-6.01121
208.808	-72.16784
209.354	-53.12231
209.899	36.0857
210.445	-27.06318
210.99	-66.15107
211.535	8.01774
212.08	4.00878
212.625	32.07516
213.17	10.02389
213.715	-20.04167
214.259	38.08298
214.804	39.0905
215.348	-8.01733
215.892	23.05185
216.436	31.06768
216.98	17.03556
217.524	-29.06503
218.068	29.06871
218.612	10.02381
219.155	-4.0089
219.698	10.02249
220.242	43.10105
220.785	4.00886
221.328	32.07516
221.871	22.05288
222.414	45.10567
222.956	-31.07088
223.499	29.06152
224.041	41.09031
224.583	59.12028
225.126	14.02921
225.668	-17.03925
226.21	-16.03819
226.751	-34.07072
227.293	20.04329
227.835	8.01844
228.376	50.10886
228.918	16.0383
229.459	-19.04481
230	1.00225
230.541	27.05875
231.082	1.00229
231.622	31.06739
232.163	-8.01833
232.704	2.00468
233.244	-18.04234
233.784	31.0718
234.324	17.03489
234.864	18.03844
235.404	15.03375
235.944	7.01572
236.484	-16.03797
237.023	15.03333
237.563	-47.10339
238.102	3.00669
238.641	-18.04315
239.18	-4.00879
239.719	16.03781
240.258	9.0191
240.797	-10.02256
241.335	60.13717
241.874	33.05926
242.412	11.02482
242.95	-43.09714
243.488	2.0043
244.026	30.06454
244.564	15.02901
245.102	13.02735
245.64	35.07916
246.177	11.02317
246.715	37.08321
247.252	39.08381
247.789	92.16076
248.326	-19.04278
248.863	26.05311
249.4	-12.02573
249.936	4.00772
250.473	-35.077
251.009	-47.1017
251.546	26.05338
252.082	27.05517
252.618	1.00208
253.154	-59.13404
253.69	37.07742
254.226	-10.02237
254.761	7.01469
255.297	-42.0867
255.832	12.02646
256.367	43.09388
256.903	-16.03292
257.438	55.11967
257.972	-19.03972
258.507	-20.04273
259.042	-12.0244
259.576	-42.08455
260.111	7.01512
260.645	5.01011
261.179	-62.13631
261.713	26.0535
262.247	-17.03672
262.781	-8.01559
263.315	-67.15443
263.849	14.03244
264.382	-16.03445
264.915	-46.10079
265.449	-77.17536
265.982	19.04013
266.515	-2.00453
267.048	-39.07719
267.58	18.03659
268.113	-5.01
268.646	-56.12941
269.178	-42.08744
269.71	13.02629
270.243	11.02328
270.775	-18.04256
271.307	-25.05631
271.838	71.15501
272.37	-38.08719
272.902	-16.03387
273.433	-26.05285
273.965	-21.04748
274.496	5.01153
275.027	-3.00688
275.558	-32.07207
276.089	-65.14815
276.62	-31.07359
277.15	-4.00915
277.681	45.08953
278.211	19.04296
278.741	-49.09999
279.272	-37.07814
279.802	-24.05555
280.332	-24.05216
280.861	-59.13225
281.391	-60.1263
281.921	1.00222
282.45	8.0184
282.98	-49.11864
283.509	-27.05597
284.038	16.03326
284.567	4.00859
285.096	-12.02665
285.625	-53.11115
286.153	-1.00214
286.682	-85.18046
287.21	12.02625
287.739	-37.0803
288.267	-74.16535
288.795	-20.04838
289.323	-46.09824
289.851	-24.05143
290.378	-2.00408
290.906	-67.14844
291.433	-34.07754
291.961	-47.09708
292.488	-14.03171
293.015	-20.04258
293.542	-60.1386
294.069	-32.07136
294.596	-31.07003
295.122	-17.03671
295.649	-24.04803
296.175	-19.04183
296.702	32.06967
297.228	-26.05745
297.754	-15.03032
298.28	-18.03669
298.806	-66.144
299.332	-31.06142
299.857	-61.12447
300.383	-34.07804
300.908	-97.21285
301.433	-69.15122
301.958	-6.01244
302.483	-85.19154
303.008	-49.10942
303.533	-35.08222
304.058	-26.05504
304.582	-62.13091
305.107	-99.23292
305.631	-1.00203
306.155	-56.11606
306.679	-63.13095
307.203	-29.05947
307.727	-35.07366
308.251	-44.09673
308.775	-85.17873
309.298	-84.17814
309.822	-39.08713
310.345	-42.08771
310.868	-62.1308
311.391	-13.02809
311.914	-72.15909
312.437	-34.06816
312.96	-71.14679
313.482	-81.16866
314.005	-93.20596
314.527	-121.28113
315.049	-42.09292
315.571	-97.18677
316.093	-38.08133
316.615	-95.19931
317.137	-71.13316
317.659	-44.09254
318.18	-45.09374
318.702	-41.0813
319.223	-52.09048
319.744	-67.1277
320.265	-97.20063
320.786	-120.2536
321.307	-137.2934
321.828	-28.05286
322.348	-104.20734
322.869	-125.24869
323.389	-19.02488
323.909	-42.07992
324.43	-33.06657
324.95	-99.18805
325.47	-89.18078
325.989	-101.19607
326.509	-133.23934
327.029	-132.24285
327.548	-70.12581
328.067	-145.28525
328.587	-108.22003
329.106	-132.24261
329.625	-64.13798
330.144	-168.31344
330.662	-158.29303
331.181	-113.20983
331.7	-90.16558
332.218	-130.21998
332.736	-127.23371
333.255	-112.20222
333.773	-118.21677
334.291	-55.10636
334.808	-152.25959
335.326	-88.14964
335.844	-235.42009
336.361	-185.35811
336.879	-145.2517
337.396	-120.21434
337.913	-188.32194
338.43	-179.29641
338.947	-176.3095
339.464	-205.31718
339.981	-185.31859
340.497	-182.33064
341.014	-183.32307
341.53	-190.30306
342.046	-258.46133
342.562	-215.3901
343.078	-196.32573
343.594	-205.34643
344.11	-187.31086
344.626	-234.41819
345.141	-204.31776
345.657	-183.28413
346.172	-165.27005
346.687	-235.36553
347.202	-218.32493
347.717	-216.3469
348.232	-233.39675
348.747	-264.4038
349.261	-252.34772
349.776	-272.42297
350.29	-293.47529
350.805	-161.25864
351.319	-210.31186
351.833	-322.46517
352.347	-202.29651
352.861	-286.42114
353.374	-234.33884
353.888	-260.39839
354.401	-253.35737
354.915	-291.38974
355.428	-298.46233
355.941	-260.36109
356.454	-217.28963
356.967	-296.42732
357.48	-244.3321
357.993	-250.37082
358.505	-367.54827
359.018	-234.33526
359.53	-341.48511
360.042	-241.29866
360.554	-261.3661
361.066	-269.37395
361.578	-298.35695
362.09	-350.48208
362.602	-356.43115
363.113	-321.4103
363.625	-337.40885
364.136	-281.32325
364.647	-444.55032
365.158	-368.4599
365.669	-345.44436
366.18	-313.38602
366.691	-334.37173
367.201	-387.48826
367.712	-315.35043
368.222	-379.43054
368.733	-379.38167
369.243	-412.42524
369.753	-388.42825
370.263	-349.39281
370.773	-428.51435
371.282	-403.43395
371.792	-490.46845
372.301	-441.45692
372.811	-462.54683
373.32	-526.40548
373.829	-536.48369
374.338	-533.41069
374.847	-570.44551
375.356	-570.4446
375.865	-569.29641
376.373	-542.30296
376.882	-579.43942
377.39	-623.39567
377.898	-785.45938
378.407	-665.23138
378.915	-674.17538
379.423	-740.23421
379.93	-773.16278
380.438	-950.20861
380.946	-880.06713
381.453	-975.03026
381.96	-1118.93918
382.468	-1143.75802
382.975	-1031.75518
383.482	-1114.63165
383.989	-1161.6938
384.495	-1279.50262
385.002	-1396.30856
385.509	-1443.29253
386.015	-1519.18051
386.521	-1520.18008
387.028	-1705.10207
387.534	-1762.11971
388.04	-1729.11832
388.546	-2086.11602
389.051	-2198.35327
389.557	-2321.60045
390.063	-2014.87125
390.568	-2139.24521
391.073	-2688.8668
391.578	-2541.21651
392.084	-2932.39661
392.589	-3296.39953
393.093	-3836.10414
393.598	-3836.45423
394.103	-4050.63421
394.607	-4472.58506
395.112	-4508.27433
395.616	-4686.03755
396.12	-5774.14329
396.624	-6413.11558
397.128	-6799.83343
397.632	-7154.87599
398.136	-7906.09726
398.639	-9914.21499
399.143	-11907.18287
399.646	-12950.78153
400.15	-14333.42396
400.653	-16768.68958
401.156	-19598.25547
401.659	-23686.23233
402.162	-19459.51629
402.664	-5220.61274
403.167	-1018.46519
403.67	0
404.172	0
404.674	0
405.176	0
405.678	0
406.18	0
406.682	0
407.184	0
407.686	0
408.187	0
408.688	0
409.19	0
409.691	0
410.192	-116.88466
410.693	-7240.78912
411.194	-12073.46535
411.694	-10139.09792
412.195	-9014.80236
412.696	-9716.87737
413.196	-11473.63058
413.696	-12593.23997
414.196	-10832.63636
414.696	-7896.60724
415.196	-4791.55424
415.696	-459.88972
416.196	-139.7766
416.695	-2725.49501
417.195	-4487.57376
417.694	-4246.63744
418.194	-3587.82476
418.693	-4098.35257
419.192	-3948.12405
419.691	-3744.17893
420.19	-3326.74138
420.688	-3082.5672
421.187	-2703.69801
421.685	-2193.10087
422.184	-1634.8626
422.682	-1419.08596
423.18	-1793.53796
423.678	-1810.00278
424.176	-1965.10043
424.674	-1735.47944
425.172	-1359.9257
425.669	-1170.62638
426.167	-1025.54602
426.664	-1008.47754
427.161	-1089.39738
427.659	-989.47695
428.156	-1015.45617
428.652	-943.62019
429.149	-911.64763
429.646	-821.67958
430.143	-755.81353
430.639	-717.86074
431.135	-761.97284
431.632	-696.96529
432.128	-731.08164
432.624	-799.21429
433.12	-831.09863
433.616	-830.12207
434.111	-921.26959
434.607	-808.29575
435.103	-604.15309
435.598	-591.16672
436.093	-553.29167
436.588	-520.28241
437.083	-484.29479
437.578	-539.38799
438.073	-622.54331
438.568	-530.50108
439.062	-501.36326
439.557	-497.47703
440.051	-539.49331
440.546	-567.53928
441.04	-502.52647
441.534	-449.5277
442.028	-443.49344
442.522	-568.6647
443.015	-549.56404
443.509	-502.6219
444.002	-538.67746
444.496	-452.47122
444.989	-467.59181
445.482	-456.59255
445.975	-576.67109
446.468	-464.49086
446.961	-464.49561
447.454	-470.55836
447.947	-549.70852
448.439	-485.66023
448.931	-540.66103
449.424	-446.64565
449.916	-444.6097
450.408	-510.63855
450.9	-553.78461
451.392	-515.77286
451.884	-498.67108
452.375	-539.80258
452.867	-410.54215
453.358	-521.69679
453.849	-466.5711
454.341	-503.68074
454.832	-531.68665
455.323	-522.79448
455.814	-466.66039
456.304	-455.64908
456.795	-415.58265
457.285	-425.59594
457.776	-387.56105
458.266	-480.73398
458.756	-400.62029
459.247	-485.75155
459.737	-485.75684
460.226	-503.74301
460.716	-406.63588
461.206	-452.73231
461.695	-436.75196
462.185	-460.74401
462.674	-438.69242
463.163	-351.51864
463.653	-389.54716
464.142	-415.69419
464.63	-364.62272
465.119	-418.6749
465.608	-394.63433
466.096	-374.57281
466.585	-359.59291
467.073	-394.6893
467.561	-404.71499
468.05	-318.53261
468.538	-318.57186
469.026	-355.62743
469.513	-406.62997
470.001	-373.62562
470.489	-344.60275
470.976	-335.57788
471.463	-363.6936
471.951	-330.63528
472.438	-374.67431
472.925	-329.5836
473.412	-294.56107
473.899	-299.53065
474.385	-303.5826
474.872	-355.65038
475.359	-369.71874
475.845	-310.49961
476.331	-270.46263
476.817	-309.60645
477.303	-305.5678
477.789	-277.53594
478.275	-355.72175
478.761	-297.58428
479.247	-302.55453
479.732	-348.71574
480.218	-321.69574
480.703	-293.60331
481.188	-260.45507
481.673	-301.5729
482.158	-324.56681
482.643	-257.55061
483.128	-260.49016
483.612	-306.60525
484.097	-264.54886
484.581	-213.41547
485.066	-288.59555
485.55	-302.56291
486.034	-278.5102
486.518	-290.58032
487.002	-301.63177
487.486	-273.57225
487.969	-275.57771
488.453	-261.57222
488.936	-283.55306
489.42	-272.52438
489.903	-244.53709
490.386	-664.06698
490.869	-192.36142
491.352	-200.42859
491.835	-214.38561
492.318	-269.53393
492.8	-240.43557
493.283	-291.65678
493.765	-256.55664
494.247	-194.40045
494.73	-234.45741
495.212	-202.434
495.694	-265.55032
496.175	-334.71139
496.657	-217.45829
497.139	-235.36981
497.62	-302.6424
498.102	-275.61307
498.583	-235.5291
499.064	-275.55094
499.545	-199.40422
500.026	-234.46978
500.507	-222.46257
500.988	-238.53399
501.469	-278.63064
501.949	-259.58337
502.43	-307.66426
502.91	-258.48304
503.39	-222.50464
503.87	-253.5383
504.35	-250.54036
504.83	-216.42643
505.31	-257.56677
505.79	-252.54771
506.269	-197.41696
506.749	-269.56137
507.228	-271.58161
507.707	-241.48707
508.187	-181.39231
508.666	-268.60228
509.145	-245.52218
509.623	-239.51294
510.102	-235.52151
510.581	-153.3346
511.059	-222.50607
511.538	-201.47527
512.016	-162.35031
512.494	-171.37744
512.972	-195.42428
513.45	-239.5043
513.928	-184.40486
514.406	-231.5056
514.884	-185.4327
515.361	-158.34268
515.839	-198.41183
516.316	-174.38076
516.793	-179.41489
517.27	-131.28855
517.747	-156.36323
518.224	-150.31616
518.701	-134.27051
519.178	-191.43163
519.654	-164.35812
520.131	-171.38659
520.607	-143.32408
521.083	-237.50272
521.56	-199.43317
522.036	-155.31183
522.512	-133.30007
522.987	-216.47207
523.463	-160.34806
523.939	-188.42615
524.414	-166.35358
524.89	-155.3374
525.365	-179.37356
525.84	-227.4981
526.315	-198.4406
526.79	-195.40767
527.265	-150.31394
527.74	-195.43959
528.215	-177.38528
528.689	-207.42604
529.164	-104.20609
529.638	-190.45335
530.112	-179.38897
530.587	-196.38713
531.061	-204.45583
531.534	-114.25326
532.008	-202.4508
532.482	-153.32483
532.956	-226.53593
533.429	-179.40253
533.903	-155.31801
534.376	-159.32533
534.849	-198.4287
535.322	-169.37006
535.795	-177.40211
536.268	-186.41561
536.741	-202.45416
537.213	-156.33459
537.686	-217.49358
538.158	-183.38004
538.631	-124.27845
539.103	-180.37439
539.575	-111.21332
540.047	-134.27225
540.519	-82.17944
540.991	-91.20447
541.463	-136.30439
541.934	-136.28754
542.406	-126.27608
542.877	-86.17736
543.348	-91.20162
543.82	-74.16604
544.291	-95.20398
544.762	-105.22769
545.233	-93.21265
545.703	-63.1261
546.174	-45.09462
546.645	-109.23646
547.115	-12.02586
547.585	2.00411
548.056	-85.18455
548.526	-62.13068
548.996	54.11427
549.466	35.07577
549.935	14.02908
550.405	40.07637
550.875	6.01251
551.344	90.1872
551.814	111.2195
552.283	143.26567
552.752	150.29502
553.221	123.2259
553.69	160.29941
554.159	144.29911
554.628	185.34388
555.096	287.59893
555.565	297.53972
556.033	342.65965
556.502	355.70529
556.97	400.71566
557.438	461.87917
557.906	522.989
558.374	531.96704
558.842	577.08707
559.31	670.14891
559.777	651.21957
560.245	849.48124
560.712	883.5003
561.18	910.44062
561.647	974.54236
562.114	1125.74555
562.581	1275.11593
563.048	1299.9671
563.514	1390.21193
563.981	1523.13672
564.448	1646.15528
564.914	1872.42048
565.381	1937.37252
565.847	2085.54198
566.313	2229.56231
566.779	2347.44956
567.245	2564.63621
567.711	2700.7522
568.176	2819.41315
568.642	2939.98213
569.108	3181.83931
569.573	3421.55812
570.038	3657.84061
570.504	3771.0853
570.969	4056.65606
571.434	4203.73105
571.899	4468.08099
572.363	4754.65436
572.828	4899.62367
573.293	5167.47156
573.757	5407.35797
574.222	5539.11412
574.686	5742.05376
575.15	5773.37791
575.614	6016.10748
576.078	6124.19638
576.542	6288.02832
577.006	6392.96174
577.469	6480.46907
577.933	6520.91146
578.396	6576.22566
578.86	6661.18001
579.323	6576.21685
579.786	6584.78876
580.249	6457.00295
580.712	6545.38148
581.175	6432.4327
581.637	6369.10961
582.1	6374.88514
582.563	6235.80651
583.025	6156.39209
583.487	6034.54519
583.95	5852.83654
584.412	5891.76017
584.874	5801.52972
585.336	5563.48619
585.797	5391.06279
586.259	5513.51422
586.721	5205.60256
587.182	5232.62332
587.643	5038.52658
588.105	4877.85716
588.566	4912.19268
589.027	4681.04867
589.488	4576.80841
589.949	4582.18271
590.41	4328.1068
590.87	4363.95812
591.331	4184.74415
591.791	4134.10803
592.252	3896.16251
592.712	3946.4711
593.172	3753.1699
593.632	3709.07452
594.092	3643.17731
594.552	3542.03701
595.011	3432.39253
595.471	3346.31331
595.931	3262.31762
596.39	3181.7101
596.849	3087.58966
597.308	3170.23153
597.768	2947.08802
598.227	2960.80243
598.685	2837.58972
599.144	2799.65506
599.603	2830.72453
600.062	2711.15525
600.52	2769.41474
600.978	2727.73042
601.437	2607.56894
601.895	2559.22081
602.353	2674.42462
602.811	2571.41728
603.269	2613.76804
603.727	2556.76104
604.184	2531.46367
604.642	2470.85677
605.099	2546.61222
605.557	2530.85013
606.014	2543.26759
606.471	2565.93555
606.928	2542.22557
607.385	2581.78669
607.842	2654.531
608.299	2670.63524
608.755	2701.78497
609.212	2727.38676
609.668	2698.35122
610.125	2740.81633
610.581	2870.77611
611.037	2802.58844
611.493	2868.74896
611.949	2849.80929
612.405	2928.94314
612.861	2981.73693
613.316	2885.78412
613.772	2979.58675
614.227	2956.72162
614.683	3050.2609
615.138	2967.68314
615.593	2987.65241
616.048	2928.61278
616.503	2974.99391
616.958	2885.08245
617.412	2895.78102
617.867	2812.43806
618.321	2810.18579
618.776	2796.48793
619.23	2730.77214
619.684	2783.6075
620.138	2746.75885
620.592	2639.96434
621.046	2627.81399
621.5	2521.96004
621.954	2539.63034
622.407	2419.56715
622.861	2402.95185
623.314	2415.67427
623.768	2373.76175
624.221	2229.08179
624.674	2211.68069
625.127	2122.72027
625.58	2191.66482
626.033	2159.53116
626.485	2074.80021
626.938	2044.78176
627.39	2012.67599
627.843	1913.61028
628.295	1905.60745
628.747	1927.73098
629.199	1901.55047
629.651	1835.51128
630.103	1765.50203
630.555	1753.24116
631.006	1747.58884
631.458	1748.61129
631.909	1784.56481
632.361	1686.53993
632.812	1661.48332
633.263	1671.27702
633.714	1676.26705
634.165	1642.65948
634.616	1569.52682
635.067	1632.36622
635.518	1645.61786
635.968	1653.07919
636.419	1572.26137
636.869	1583.56238
637.319	1624.49758
637.769	1643.40351
638.219	1621.62589
638.669	1565.55837
639.119	1703.77682
639.569	1615.65243
640.019	1634.53212
640.468	1727.48386
640.918	1696.73712
641.367	1674.46508
641.816	1769.52495
642.265	1822.68474
642.714	1742.63007
643.163	1786.64195
643.612	1796.79906
644.061	1755.32612
644.51	1874.66515
644.958	1842.51542
645.406	1900.87893
645.855	1842.94565
646.303	1970.84591
646.751	1854.65413
647.199	1934.70973
647.647	1872.71499
648.095	1954.75203
648.543	1999.36735
648.99	1990.9472
649.438	1950.86972
649.885	1947.08282
650.333	1989.17398
650.78	1973.99219
651.227	1923.99028
651.674	1954.74347
652.121	1894.97576
652.568	1968.0178
653.015	1956.20278
653.461	1891.87934
653.908	1860.78279
654.354	1905.91789
654.801	1858.80281
655.247	1906.59304
655.693	1795.20212
656.139	1873.91314
656.585	1860.90839
657.031	1844.77156
657.477	1845.49462
657.922	1772.6807
658.368	1791.978
658.813	1849.79477
659.259	1777.8493
659.704	1820.7689
660.149	1822.7736
660.594	1790.82475
661.039	1758.64517
661.484	1770.84509
661.929	1756.74851
662.373	1774.05795
662.818	1799.01641
663.262	1804.89711
663.707	1791.10282
664.151	1790.95462
664.595	1814.91821
665.039	1828.06796
665.483	1786.12389
665.927	1877.88272
666.371	1867.78929
666.814	1890.95256
667.258	1866.88135
667.701	1990.62011
668.145	1990.21299
668.588	1934.10418
669.031	1917.89914
669.474	2027.08736
669.917	2028.74182
670.36	2004.20734
670.803	2072.13608
671.245	2080.57029
671.688	2075.18927
672.13	2042.7914
672.573	2131.42592
673.015	2125.14584
673.457	2103.71053
673.899	2125.19255
674.341	2095.154
674.783	2102.1231
675.225	2165.28434
675.666	2143.15423
676.108	2156.73013
676.549	2118.09157
676.991	2172.79949
677.432	2155.38693
677.873	2142.99874
678.314	2207.17526
678.755	2223.27269
679.196	2170.96351
679.637	2178.27858
680.078	2127.05005
680.518	2268.10279
680.959	2151.16437
681.399	2115.30607
681.839	2155.24422
682.28	2155.30496
682.72	2188.97361
683.16	2119.32931
683.6	2200.97515
684.039	2202.5883
684.479	2138.27181
684.919	2153.98174
685.358	2239.51128
685.798	2184.64139
686.237	2186.24096
686.676	2254.08307
687.115	2284.14707
687.554	2257.18417
687.993	2242.85629
688.432	2242.9988
688.871	2291.98079
689.309	2324.24207
689.748	2300.63714
690.186	2328.25387
690.625	2355.16168
691.063	2354.27704
691.501	2369.44552
691.939	2305.45477
692.377	2352.36388
692.815	2322.24725
693.253	2378.30943
693.69	2395.87312
694.128	2375.33491
694.565	2371.26149
695.003	2402.60471
695.44	2457.21315
695.877	2386.15457
696.314	2425.78884
696.751	2433.06867
697.188	2443.09427
697.625	2540.13146
698.061	2450.31797
698.498	2501.39065
698.934	2492.3577
699.371	2511.23536
699.807	2490.26123
700.243	2497.35079
700.679	2539.05439
701.115	2618.27881
701.551	2610.2727
701.987	2596.03235
702.422	2594.30644
702.858	2580.32274
703.294	2612.06953
703.729	2667.49769
704.164	2697.40672
704.599	2704.99001
705.035	2603.99678
705.47	2675.45655
705.904	2675.21821
706.339	2701.22879
706.774	2753.26041
707.209	2749.17112
707.643	2731.40146
708.078	2714.47619
708.512	2733.63234
708.946	2787.40293
709.38	2736.32675
709.814	2746.13229
710.248	2749.49207
710.682	2820.35309
711.116	2735.34946
711.549	2729.83845
711.983	2752.18504
712.416	2837.32886
712.85	2770.63108
713.283	2825.32785
713.716	2828.69664
714.149	2815.37596
714.582	2783.03481
715.015	2763.66237
715.448	2751.69706
715.881	2768.90801
716.313	2741.26125
716.746	2718.28091
717.178	2726.4029
717.61	2754.73521
718.043	2699.61493
718.475	2620.42997
718.907	2709.71891
719.339	2676.06712
719.77	2658.30463
720.202	2675.69321
720.634	2584.43359
721.065	2592.2972
721.497	2469.44341
721.928	2518.46533
722.359	2435.33149
722.79	2506.32154
723.221	2437.58105
723.652	2441.72972
724.083	2395.98853
724.514	2410.08661
724.945	2281.14775
725.375	2342.10238
725.806	2313.47717
726.236	2320.62132
726.666	2212.15273
727.096	2197.32033
727.526	2250.52587
727.956	2215.95872
728.386	2198.3383
728.816	2128.42574
729.246	2049.17402
729.675	2079.25441
730.105	2089.26846
730.534	2013.98633
730.964	1986.32349
731.393	2017.26704
731.822	1940.33092
732.251	1951.30886
732.68	1992.00761
733.109	1888.12059
733.537	1901.04121
733.966	1878.14597
734.395	1828.80399
734.823	1870.7467
735.251	1805.95452
735.68	1764.08514
736.108	1791.15128
736.536	1705.78777
736.964	1686.70721
737.392	1666.97998
737.82	1611.76361
738.247	1646.7906
738.675	1634.77306
739.102	1540.83195
739.53	1518.87708
739.957	1524.92461
740.384	1547.80054
740.811	1536.8861
741.238	1507.71137
741.665	1421.44354
742.092	1463.5906
742.519	1422.657
742.945	1406.53979
743.372	1339.55594
743.798	1365.7168
744.225	1329.41654
744.651	1271.50732
745.077	1316.54866
745.503	1284.43953
745.929	1274.375
746.355	1238.43813
746.781	1178.33813
747.207	1188.19572
747.632	1110.18967
748.058	1136.29529
748.483	1153.10495
748.908	1087.20862
749.334	1106.20716
749.759	1061.03677
750.184	1048.04112
750.609	1080.17007
751.033	1086.08238
751.458	1076.94307
751.883	977.02879
752.307	959.8826
752.732	940.98333
753.156	946.96988
753.58	977.93237
754.005	932.00928
754.429	934.84078
754.853	882.86821
755.277	834.69576
755.7	851.81857
756.124	804.73473
756.548	784.61352
756.971	827.74517
757.394	781.7672
757.818	743.69139
758.241	766.70831
758.664	706.58545
759.087	723.40942
759.51	724.59464
759.933	704.49871
760.356	732.66333
760.778	706.53939
761.201	696.50411
761.623	697.5021
762.046	715.49809
762.468	673.44226
762.89	693.52281
763.312	629.38379
763.734	601.30884
764.156	582.30783
764.578	595.23648
765	595.31657
765.421	558.29678
765.843	552.3306
766.264	531.17868
766.686	556.27941
767.107	527.17318
767.528	469.10146
767.949	479.13285
768.37	496.12616
768.791	502.12183
769.212	449.05277
769.632	449.97519
770.053	423.04816
770.473	394.90605
770.894	442.03613
771.314	447.99889
771.734	433.94444
772.154	401.97402
772.575	460.99248
772.994	383.82159
773.414	407.92153
773.834	369.87681
774.254	364.8471
774.673	354.82156
775.093	305.7256
775.512	337.79308
775.931	361.87131
776.351	316.75278
776.77	313.73404
777.189	315.71848
777.607	298.73297
778.026	280.67368
778.445	248.60258
778.864	316.77838
779.282	315.72659
779.701	311.75293
780.119	256.62736
780.537	280.67445
780.955	285.7001
781.373	240.57746
781.791	250.54452
782.209	259.57836
782.627	254.64953
783.045	259.57668
783.462	262.64848
783.88	229.57727
784.297	213.52365
784.715	215.53907
785.132	224.52873
785.549	198.48525
785.966	177.43788
786.383	205.49335
786.8	236.53299
787.217	171.39917
787.633	185.45314
788.05	244.56317
788.466	236.54146
788.883	150.3778
789.299	131.313
789.715	187.44611
790.131	177.43274
790.547	201.49141
790.963	177.43193
791.379	188.4662
791.795	175.39289
792.21	182.41791
792.626	150.35173
793.041	162.39408
793.457	176.42765
793.872	162.37541
794.287	112.26581
794.702	178.43105
795.117	147.36073
795.532	133.33
795.947	171.40512
796.362	180.42241
796.776	223.50907
797.191	154.37195
797.605	83.19482
798.02	89.2163
798.434	171.37459
798.848	131.31957
799.262	115.28336
799.676	171.41044
800.09	142.34543
800.504	139.33376
800.918	120.2761
801.331	137.35546
801.745	111.25371
802.158	88.21958
802.572	118.28436
802.985	131.31384
803.398	138.32562
803.811	149.37831
804.224	117.28924
804.637	97.23035
805.05	160.36533
805.462	115.28075
805.875	80.20703
806.288	100.24016
806.7	95.23795
807.112	123.28295
807.525	118.28909
807.937	102.25091
808.349	99.24699
808.761	125.30482
809.173	90.21763
809.584	128.31347
809.996	95.23175
810.408	58.15
810.819	42.09949
811.231	40.10388
811.642	55.13161
812.053	85.20177
812.464	95.22507
812.875	134.33872
813.286	99.25359
813.697	156.3595
814.108	104.25281
814.519	109.2416
814.929	107.27129
815.34	121.29098
815.75	61.15527
816.16	99.24564
816.571	103.26605
816.981	96.2259
817.391	115.27561
817.801	72.17881
818.211	122.28831
818.62	99.23718
819.03	91.22232
819.44	114.29553
819.849	145.36056
820.259	92.23462
820.668	103.25183
821.077	101.24941
821.486	96.2303
821.895	128.31312
822.304	82.21674
822.713	120.28117
823.122	85.2116
823.531	69.16373
823.939	80.19461
824.348	151.36175
824.756	79.19759
825.164	90.22571
825.573	41.1034
825.981	108.26606
826.389	130.32309
826.797	64.16045
827.205	60.13805
827.612	104.25508
828.02	60.14119
828.428	107.27061
828.835	85.22297
829.243	123.29028
829.65	71.17643
830.057	107.2579
830.464	64.1561
830.871	102.24282
831.278	72.17397
831.685	119.2631
832.092	90.21951
832.499	100.21754
832.905	133.33277
833.312	86.19566
833.718	77.19154
834.124	87.19821
834.531	95.23829
834.937	62.15923
835.343	66.15935
835.749	121.2799
836.155	64.16757
836.561	85.20836
836.966	119.28824
837.372	84.21309
837.777	60.14961
838.183	91.20153
838.588	68.16876
838.993	90.2182
839.399	59.14441
839.804	22.05404
840.209	78.19801
840.613	96.21239
841.018	96.24171
841.423	84.21468
841.828	10.02553
842.232	141.34447
842.637	62.14641
843.041	38.0978
843.445	61.15307
843.849	43.10685
844.253	119.27997
844.657	48.12116
845.061	51.1161
845.465	33.08017
845.869	63.14649
846.272	83.20134
846.676	112.26847
847.079	37.09448
847.483	91.22587
847.886	131.31479
848.289	43.11505
848.692	80.20193
849.095	73.17502
849.498	147.367
849.901	96.21885
850.304	104.24663
850.707	50.12774
851.109	103.25873
851.512	72.17659
851.914	31.07852
852.316	82.20661
852.718	20.05197
853.121	95.23132
853.523	57.13337
853.925	30.07863
854.326	32.0804
854.728	69.17712
855.13	44.11375
855.531	40.09596
855.933	87.20787
856.334	28.0702
856.736	66.14772
857.137	48.1119
857.538	45.11341
857.939	67.16527
858.34	49.11967
858.741	68.17744
859.142	94.22438
859.542	75.19727
859.943	92.22723
860.343	39.09691
860.744	74.18008
861.144	99.2397
861.544	32.07729
861.945	57.14529
862.345	86.20929
862.745	48.11951
863.145	116.27435
863.544	63.15905
863.944	67.15806
864.344	89.21986
864.743	91.22447
865.143	68.17434
865.542	58.13457
865.941	91.22389
866.34	59.14135
866.74	66.17684
867.139	58.13887
867.537	55.14019
867.936	87.20827
868.335	89.22517
868.734	60.15323
869.132	81.18737
869.531	94.22584
869.929	67.15246
870.327	72.17213
870.726	93.23042
871.124	77.17932
871.522	101.25526
871.92	104.25432
872.318	82.19955
872.715	130.31754
873.113	57.1389
873.511	75.18623
873.908	24.06093
874.306	51.12696
874.703	70.17473
875.1	114.28868
875.497	34.08187
875.894	35.08608
876.291	68.16653
876.688	72.18517
877.085	74.17698
877.482	48.12034
877.878	61.1467
878.275	96.24215
878.671	105.23157
879.068	100.23943
879.464	83.1996
879.86	25.05948
880.256	91.22315
880.652	80.20258
881.048	69.17058
881.444	104.2453
881.84	63.1599
882.236	93.23227
882.631	66.1617
883.027	99.23781
883.422	62.15834
883.817	56.1407
884.213	76.1943
884.608	41.1008
885.003	57.13739
885.398	48.12029
885.793	45.11316
886.188	61.15147
886.582	130.32907
886.977	100.23532
887.371	61.15411
887.766	40.09974
888.16	76.18895
888.554	109.26689
888.949	110.27348
889.343	63.15369
889.737	22.05893
890.131	79.1973
890.525	46.11781
890.918	78.19548
891.312	100.23724
891.706	89.23211
892.099	113.28457
892.492	69.14847
892.886	82.19963
893.279	64.16276
893.672	86.2177
894.065	80.1994
894.458	97.24208
894.851	120.29049
895.244	49.12525
895.637	104.24816
896.029	51.12479
896.422	61.14886
896.814	81.20039
897.206	53.12625
897.599	145.35266
897.991	56.13536
898.383	57.13463
898.775	82.18406
899.167	33.07728
899.559	86.21646
899.951	78.18305
900.342	115.28929
900.734	33.08218
901.125	68.17798
901.517	75.18337
901.908	150.35311
902.299	110.26609
902.69	69.16234
903.082	69.16663
903.473	22.053
903.863	42.10738
904.254	84.19381
904.645	100.24663
905.036	33.0802
905.426	129.29093
905.817	84.20495
906.207	57.13572
906.597	82.1907
906.987	77.19875
907.378	81.20384
907.768	53.14011
908.158	99.23934
908.547	49.12666
908.937	75.19171
909.327	103.24779
909.717	117.29369
910.106	100.23806
910.495	126.3104
910.885	62.15678
911.274	81.20142
911.663	62.15711
912.052	74.1819
912.441	78.19745
912.83	68.15565
913.219	81.21096
913.608	89.21655
913.997	26.06549
914.385	76.18079
914.774	69.16751
915.162	43.10266
915.55	91.21859
915.939	44.11122
916.327	81.20113
916.715	53.13505
917.103	100.24399
917.491	83.20421
917.878	86.21015
918.266	74.19118
918.654	71.18078
919.041	52.13573
919.429	25.05932
919.816	51.12931
920.203	54.13092
920.591	56.13877
920.978	65.1588
921.365	84.21919
921.752	88.20837
922.139	78.16845
922.525	51.12251
922.912	60.14612
923.299	62.15381
923.685	75.19487
924.072	86.197
924.458	45.11162
924.844	39.09673
925.231	77.17833
925.617	60.15237
926.003	76.19341
926.389	68.17103
926.774	43.10914
927.16	106.26065
927.546	52.13271
927.931	113.27884
928.317	90.20575
928.702	108.25276
929.088	90.21129
929.473	51.12977
929.858	4.00976
930.243	62.14851
930.628	56.13613
931.013	71.17533
931.398	119.27002
931.783	92.24055
932.167	66.16092
932.552	102.25322
932.937	77.19022
933.321	52.13046
933.705	74.18579
934.09	122.30442
934.474	78.18433
934.858	75.19373
935.242	64.14796
935.626	68.17354
936.009	46.12244
936.393	66.16749
936.777	52.13313
937.16	70.18153
937.544	96.22423
937.927	78.19696
938.311	111.26795
938.694	99.25969
939.077	44.10547
939.46	151.36395
939.843	104.21448
940.226	70.17896
940.609	89.20277
940.991	85.21505
941.374	34.08336
941.757	71.17456
942.139	72.16102
942.522	117.27301
942.904	77.18419
943.286	112.28149
943.668	81.20872
944.05	90.22008
944.432	72.17698
944.814	107.26083
945.196	15.0368
945.578	32.07633
945.959	98.22755
946.341	105.25519
946.722	90.20964
947.104	74.1761
947.485	112.25749
947.866	14.0355
948.247	60.15113
948.628	67.16296
949.009	52.13313
949.39	108.26606
949.771	83.19185
950.152	56.1373
950.532	-6.01491
950.913	91.21784
951.293	44.11898
951.674	65.15679
952.054	61.15086
952.434	62.15358
952.814	108.25414
953.194	96.2493
953.574	81.19841
953.954	83.19588
954.334	78.19343
954.714	14.03435
955.093	83.20285
955.473	59.1473
955.853	66.17039
956.232	75.20475
956.611	76.18142
956.99	87.21721
957.37	113.28477
957.749	67.15935
958.128	48.12099
958.506	93.23947
958.885	90.22555
959.264	10.02469
959.643	107.24072
960.021	81.19958
960.4	54.12231
960.778	120.29181
961.156	89.22156
961.535	78.18083
961.913	61.14245
962.291	35.09003
962.669	57.14421
963.047	64.16293
963.424	67.17048
963.802	90.21968
964.18	100.25079
964.557	104.23699
964.935	127.29646
965.312	71.18422
965.69	104.25791
966.067	68.16505
966.444	70.17188
966.821	104.2656
967.198	87.20962
967.575	99.24124
967.952	90.21047
968.329	88.21263
968.705	105.22253
969.082	81.20661
969.458	10.02417
969.835	54.13136
970.211	42.10794
970.587	52.12943
970.963	103.2618
971.339	68.17701
971.715	84.20846
972.091	57.14019
972.467	88.21799
972.843	64.15842
973.219	101.24021
973.594	46.1204
973.97	109.25655
974.345	70.1669
974.721	63.1522
975.096	72.17351
975.471	84.19798
975.846	65.15572
976.221	73.18463
976.596	56.13408
976.971	64.15761
977.346	78.18061
977.72	69.17519
978.095	71.18282
978.469	72.17114
978.844	104.25894
979.218	51.12223
979.593	103.24431
979.967	101.24372
980.341	32.07395
980.715	87.21776
981.089	70.17461
981.463	53.12163
981.837	45.11006
982.21	112.25749
982.584	60.14465
982.957	76.18888
983.331	92.21573
983.704	54.13259
984.078	31.07667
984.451	100.24753
984.824	34.08305
985.197	95.22881
985.57	118.2923
985.943	104.25432
986.316	113.27442
986.688	105.25059
987.061	92.21388
987.434	83.21506
987.806	58.14046
988.179	59.13897
988.551	113.28344
988.923	67.16448
989.295	106.26219
989.667	13.03128
990.039	63.15529
990.411	92.20999
990.783	95.21679
991.155	57.13676
991.527	142.34375
991.898	59.14677
992.27	88.21615
992.641	68.17005
993.012	78.18255
993.384	66.15694
993.755	63.16024
994.126	51.12265
994.497	33.08125
994.868	57.13076
995.239	104.24949
995.61	46.11582
995.98	33.08041
996.351	55.13607
996.722	24.05595
997.092	57.13478
997.462	51.1191
997.833	118.27605
998.203	86.20709
998.573	81.20054
998.943	62.14505
999.313	62.14822
999.683	52.12474
1000.053	80.18296
1000.423	84.20281
1000.792	59.15266
1001.162	75.18371
1001.531	82.20097
1001.901	77.19099
1002.27	92.20388
1002.639	66.16814
1003.009	99.23319
1003.378	74.18839
1003.747	69.1624
1004.116	30.07205
1004.485	86.20411
1004.853	79.19909
1005.222	81.20311
1005.591	73.17255
1005.959	35.0791
1006.328	97.21617
1006.696	64.15394
1007.064	105.26148
1007.433	58.14473
1007.801	123.29781
1008.169	82.20587
1008.537	122.26607
1008.905	65.15096
1009.273	86.21101
1009.64	59.14049
1010.008	89.21053
1010.375	125.29923
1010.743	131.29761
1011.11	56.13234
1011.478	38.09424
1011.845	57.13384
1012.212	61.13774
1012.579	94.22884
1012.946	116.27254
1013.313	142.33193
1013.68	111.24634
1014.047	31.07413
1014.414	47.11105
1014.78	64.1586
1015.147	114.27233
1015.513	58.13951
1015.88	123.31041
1016.246	85.20844
1016.612	93.21103
1016.978	90.21886
1017.344	60.14798
1017.71	111.26754
1018.076	99.23119
1018.442	115.2924
1018.808	46.11503
1019.174	73.18232
1019.539	141.31864
1019.905	58.13654
1020.27	76.18661
1020.636	103.2444
1021.001	72.1716
1021.366	54.12954
1021.731	62.15906
1022.096	40.10104
1022.461	101.23661
1022.826	97.22839
1023.191	46.12073
1023.556	87.20237
1023.92	76.18592
1024.285	109.26302
1024.649	100.24272
1025.014	74.18244
1025.378	97.24173
1025.742	51.12659
1026.107	106.23696
1026.471	136.31204
1026.835	95.23348
1027.199	35.08446
1027.562	71.16431
1027.926	107.25878
1028.29	104.26054
1028.654	102.23215
1029.017	114.2768
1029.381	60.143
1029.744	67.1703
1030.107	90.21121
1030.471	120.28337
1030.834	117.26246
1031.197	84.20097
1031.56	64.15055
1031.923	58.14969
1032.286	136.31391
1032.648	74.1761
1033.011	108.24491
1033.374	113.26223
1033.736	46.12097
1034.099	57.13869
1034.461	55.13876
1034.823	70.17359
1035.185	91.22727
1035.548	93.22441
1035.91	73.17402
1036.272	98.22079
1036.634	109.26362
1036.995	73.17075
1037.357	75.18153
1037.719	112.26909
1038.08	81.19109
1038.442	76.1794
1038.803	110.26096
1039.165	89.22292
1039.526	90.21574
1039.887	70.16677
1040.248	60.14749
1040.609	89.21825
1040.97	59.14388
1041.331	66.16654
1041.692	75.17412
1042.053	88.19875
1042.413	98.22611
1042.774	81.19575
1043.134	114.26795
1043.495	88.21958
1043.855	51.12362
1044.215	85.20952
1044.576	46.11001
1044.936	96.21797
1045.296	84.20823
1045.656	64.15656
1046.016	86.20607
1046.375	65.15715
1046.735	36.0818
1047.095	45.10538
1047.454	90.18895
1047.814	113.26824
1048.173	110.25965
1048.533	65.14839
1048.892	31.07464
1049.251	78.1947
1049.61	57.14009
1049.969	38.08973
1050.328	66.14254
1050.687	67.16241
1051.046	79.19121
1051.405	81.20025
1051.763	59.13534
1052.122	56.13943
1052.48	105.25471
1052.839	55.1292
1053.197	56.13157
1053.555	100.22557
1053.914	121.29187
1054.272	107.25575
1054.63	68.16561
1054.988	87.20509
1055.345	107.22747
1055.703	64.15353
1056.061	88.22474
1056.419	53.13704
1056.776	81.19516
1057.134	76.17494
1057.491	70.17454
1057.848	113.27792
1058.206	102.23731
1058.563	59.12974
1058.92	136.30791
1059.277	95.23227
1059.634	92.21455
1059.991	125.295
1060.348	22.04997
1060.704	79.1871
1061.061	138.31485
1061.418	58.14035
1061.774	80.19629
1062.131	68.17913
1062.487	85.19725
1062.843	88.21775
1063.199	92.2269
1063.555	47.1089
1063.911	94.2354
1064.267	140.286
1064.623	35.08519
1064.979	131.30532
1065.335	106.2505
1065.691	96.22793
1066.046	137.29555
1066.402	117.26203
1066.757	76.19081
1067.112	86.20952
1067.468	69.16221
1067.823	106.25196
1068.178	75.18043
1068.533	96.23056
1068.888	107.25272
1069.243	97.23716
1069.598	77.18602
1069.952	32.07227
1070.307	29.07201
1070.662	84.19798
1071.016	44.09864
1071.371	64.14508
1071.725	98.23214
1072.079	80.19118
1072.434	56.13582
1072.788	93.21948
1073.142	133.3219
1073.496	63.14897
1073.85	92.21142
1074.203	72.17384
1074.557	81.21413
1074.911	112.26397
1075.265	78.18018
1075.618	125.30072
1075.971	117.27452
1076.325	55.13955
1076.678	45.10294
1077.031	75.16873
1077.385	88.19217
1077.738	101.22545
1078.091	35.07977
1078.444	148.33671
1078.796	61.14925
1079.149	56.13903
1079.502	67.15763
1079.855	68.1579
1080.207	106.25825
1080.56	51.13169
1080.912	86.2078
1081.264	83.19847
1081.617	40.0976
1081.969	50.12603
1082.321	60.14612
1082.673	67.15228
1083.025	76.17926
1083.377	105.22253
1083.728	60.1396
1084.08	90.22286
1084.432	55.13242
1084.783	93.2159
1085.135	85.21152
1085.486	41.0939
1085.838	76.18613
1086.189	69.16675
1086.54	87.20612
1086.891	63.15882
1087.242	65.15768
1087.593	117.28104
1087.944	72.16208
1088.295	116.25995
1088.646	84.20212
1088.996	36.08689
1089.347	58.14199
1089.698	17.0404
1090.048	76.19634
1090.398	94.21593
1090.749	106.2507
1091.099	50.12562
1091.449	55.13677
1091.799	74.18432
1092.149	13.03189
1092.499	85.20581
1092.849	62.15711
1093.199	82.20417
1093.548	70.16741
1093.898	39.09769
1094.248	78.19927
1094.597	44.11233
1094.947	60.15965
1095.296	93.22763
1095.645	107.27533
1095.994	73.17442
1096.343	45.11324
1096.692	54.14163
1097.041	80.21534
1097.39	79.19695
1097.739	99.25492
1098.088	97.25763
1098.437	-4.01059
1098.785	60.16135
1099.134	82.21638
1099.482	81.22148
1099.83	79.20639
1100.179	52.13546
1100.527	77.20349
1100.875	38.10058
1101.223	50.13265
1101.571	67.18449
1101.919	17.04462
1102.267	25.07059
1102.615	8.02571
1102.962	8.02576
1103.31	3.00964
1103.658	18.05793
