Data from N2 R11 sample 6_Subt2__3__16-01-25-034.txt Node

Date: Mon Sep 01 16:01:25 PDT 2025
User: uwsun
Spectrometer: HDX01956
Trigger mode: 0
Integration Time (sec): 5.000000E-1
Scans to average: 1
Nonlinearity correction enabled: true
Boxcar width: 0
Storing dark spectrum: false
XAxis mode: Wavelengths
Number of Pixels in Spectrum: 2068
>>>>>Begin Spectral Data<<<<<
194.03	2.00561
194.578	4.01264
195.127	-1.00312
195.676	11.03434
196.225	39.10279
196.773	53.14409
197.321	37.0987
197.87	80.19505
198.418	82.19724
198.966	30.07331
199.513	-27.06355
200.061	-9.02146
200.609	60.14939
201.156	-39.08063
201.704	7.01655
202.251	22.05466
202.798	1.00245
203.345	32.07445
203.892	42.09883
204.438	69.1537
204.985	-13.02885
205.532	21.05178
206.078	67.15296
206.624	-8.01847
207.17	89.19134
207.716	-3.00684
208.262	85.15516
208.808	26.05944
209.354	34.0771
209.899	104.24435
210.445	-8.01865
210.99	19.04275
211.535	99.21532
212.08	39.08493
212.625	16.0377
213.17	76.17926
213.715	-38.0795
214.259	63.13685
214.804	88.20223
215.348	79.16794
215.892	61.13645
216.436	50.10872
216.98	104.21333
217.524	65.14293
218.068	76.17842
218.612	35.08292
219.155	64.14041
219.698	70.15551
220.242	64.14978
220.785	76.16575
221.328	74.17237
221.871	97.22981
222.414	49.11497
222.956	2.00454
223.499	58.12225
224.041	55.12079
224.583	104.20985
225.126	80.16447
225.668	39.08903
226.21	30.07098
226.751	19.03905
227.293	72.15409
227.835	36.08253
228.376	69.14962
228.918	98.23088
229.459	22.05147
230	33.07388
230.541	73.15728
231.082	46.10453
231.622	58.12537
232.163	34.07726
232.704	46.10669
233.244	33.07685
233.784	82.18799
234.324	19.03898
234.864	46.09764
235.404	46.10283
235.944	63.13982
236.484	62.14493
237.023	33.07305
237.563	66.14174
238.102	60.1323
238.641	45.10657
239.18	2.00439
239.719	91.21193
240.258	65.13625
240.797	9.02022
241.335	40.09181
241.874	17.03066
242.412	62.13843
242.95	30.06676
243.488	61.12956
244.026	55.11769
244.564	48.09209
245.102	35.07327
245.64	63.14168
246.177	40.08372
246.715	83.18489
247.252	96.20377
247.789	116.20142
248.326	41.09118
248.863	53.10761
249.4	63.13288
249.936	66.12546
250.473	33.07156
251.009	48.10175
251.546	25.05134
252.082	34.06936
252.618	11.02285
253.154	-3.00674
253.69	69.14336
254.226	57.12576
254.761	34.07094
255.297	53.10707
255.832	26.05716
256.367	15.03294
256.903	34.06917
257.438	56.12182
257.972	22.04558
258.507	-10.02132
259.042	46.09231
259.576	43.08487
260.111	30.06448
260.645	79.15702
261.179	35.07538
261.713	37.07595
262.247	24.05139
262.781	18.03487
263.315	35.07903
263.849	-5.01163
264.382	73.15417
264.915	42.09032
265.449	12.02684
265.982	46.09657
266.515	36.08087
267.048	21.04098
267.58	41.0829
268.113	-12.02405
268.646	-5.01144
269.178	-9.0186
269.71	93.18459
270.243	50.10493
270.775	30.07027
271.307	15.03351
271.838	68.14855
272.37	12.02726
272.902	46.09606
273.433	19.03822
273.965	62.1378
274.496	55.12556
275.027	52.11787
275.558	0
276.089	-24.05425
276.62	19.04467
277.15	55.12434
277.681	17.03404
278.211	66.14778
278.741	7.0141
279.272	48.09948
279.802	48.10951
280.332	19.04092
280.861	25.05507
281.391	27.05575
281.921	23.05085
282.45	58.13206
282.98	14.0335
283.509	54.10991
284.038	48.09908
284.567	99.20835
285.096	17.03752
285.625	35.07197
286.153	24.05101
286.682	16.03322
287.21	17.03715
287.739	2.0043
288.267	-6.01322
288.795	-3.00723
289.323	-6.0127
289.851	70.14696
290.378	-8.01634
290.906	2.00437
291.433	58.12982
291.961	0
292.488	9.02029
293.015	-16.03404
293.542	17.03867
294.069	17.03752
294.596	43.09567
295.122	-6.01292
295.649	81.15814
296.175	25.05454
296.702	4.00876
297.228	55.11947
297.754	26.05205
298.28	12.02429
298.806	13.02789
299.332	11.02158
299.857	46.09158
300.383	55.12399
300.908	-19.04101
301.433	-30.06521
301.958	22.04533
302.483	8.01768
303.008	47.10287
303.533	8.01863
304.058	34.07103
304.582	32.06617
305.107	12.02762
305.631	60.12007
306.155	-11.02257
306.679	19.03877
307.203	49.09871
307.727	43.08894
308.251	43.09281
308.775	-4.00826
309.298	9.0187
309.822	-6.01331
310.345	-16.03322
310.868	30.06201
311.391	34.07274
311.914	-12.02618
312.437	36.071
312.96	-11.02244
313.482	9.01836
314.005	-4.00869
314.527	-11.025
315.049	49.10634
315.571	-40.07596
316.093	27.05697
316.615	5.01026
317.137	27.04941
317.659	33.06823
318.18	10.02058
318.702	25.04881
319.223	51.08632
319.744	7.0131
320.265	-37.0755
320.786	3.00617
321.307	-33.06908
321.828	6.01123
322.348	6.01166
322.869	-6.01161
323.389	44.0564
323.909	-13.02456
324.43	75.14754
324.95	-7.013
325.47	-79.1601
325.989	-13.02471
326.509	-68.12033
327.029	-30.05378
327.548	26.04558
328.067	-30.05742
328.587	10.01983
329.106	-28.05012
329.625	48.101
330.144	-12.02152
330.662	-18.03222
331.181	24.04305
331.7	-31.05619
332.218	2.00326
332.736	37.06528
333.255	3.00526
333.773	-53.09577
334.291	-7.01338
334.808	-50.08304
335.326	11.0182
335.844	-50.08511
336.361	-67.12603
336.879	-121.2087
337.396	-80.14142
337.913	-63.10426
338.43	-16.0253
338.947	-74.12665
339.464	-97.14531
339.981	-55.09142
340.497	-61.10741
341.014	-94.16209
341.53	-75.11569
342.046	-85.1452
342.562	-35.06059
343.078	-39.06201
343.594	-78.12726
344.11	-53.08485
344.626	-58.09894
345.141	-90.13552
345.657	15.02194
346.172	-27.04248
346.687	-80.11879
347.202	-104.14964
347.717	-129.20205
348.232	-89.14566
348.747	-72.10386
349.261	-128.16952
349.776	-80.11742
350.29	-130.20119
350.805	-67.10475
351.319	-90.12877
351.833	-102.13726
352.347	-82.11592
352.861	-159.225
353.374	-68.09339
353.888	-96.13995
354.401	-96.12884
354.915	-107.13455
355.428	-127.18715
355.941	-107.14127
356.454	-21.0262
356.967	-132.18082
357.48	-81.10436
357.993	-80.11252
358.505	-83.11336
359.018	-74.1007
359.53	-101.13281
360.042	-45.0519
360.554	-98.13031
361.066	-169.22736
361.578	-111.12391
362.09	-142.18239
362.602	-175.19809
363.113	-184.22405
363.625	-173.19747
364.136	-80.08508
364.647	-208.23627
365.158	-175.20385
365.669	-175.21224
366.18	-98.11164
366.691	-68.06794
367.201	-146.16873
367.712	-161.16844
368.222	-171.1789
368.733	-232.21921
369.243	-201.18948
369.753	-111.10936
370.263	-113.11572
370.773	-171.18635
371.282	-133.12791
371.792	-246.21012
372.301	-191.17767
372.811	-196.20933
373.32	-302.20571
373.829	-378.31631
374.338	-260.172
374.847	-286.19101
375.356	-315.21348
375.865	-334.14487
376.373	-284.13128
376.882	-255.16073
377.39	-322.16727
377.898	-400.17596
378.407	-383.09591
378.915	-364.05741
379.423	-440.09421
379.93	-431.04326
380.438	-583.05836
380.946	-549.98775
381.453	-570.95139
381.96	-641.88332
382.468	-724.77758
382.975	-630.79499
383.482	-642.7318
383.989	-762.73443
384.495	-695.66635
385.002	-902.51054
385.509	-979.47403
386.015	-886.51702
386.521	-875.52275
387.028	-971.50434
387.534	-1055.51622
388.04	-989.532
388.546	-1349.5285
389.051	-1494.72707
389.557	-1602.95257
390.063	-1134.17742
390.568	-1376.45641
391.073	-1648.08222
391.578	-1596.29317
392.084	-1741.25639
392.589	-2188.02122
393.093	-2707.52335
393.598	-2560.83324
394.103	-2725.06739
394.607	-2748.38801
395.112	-2932.21269
395.616	-3186.71356
396.12	-3865.37867
396.624	-4643.43538
397.128	-4609.59682
397.632	-4786.28496
398.136	-5352.62173
398.639	-7077.0504
399.143	-8933.72651
399.646	-9492.29968
400.15	-10653.50825
400.653	-12780.52248
401.156	-15157.32026
401.659	-18331.11542
402.162	-13480.96128
402.664	-2123.63756
403.167	-301.25831
403.67	0
404.172	0
404.674	0
405.176	0
405.678	0
406.18	0
406.682	0
407.184	0
407.686	0
408.187	0
408.688	0
409.19	0
409.691	0
410.192	0
410.693	0
411.194	-3305.17027
411.694	-2248.29801
412.195	-1445.80911
412.696	-2725.81784
413.196	-4698.68672
413.696	-6125.57947
414.196	-4374.67067
414.696	-1360.66525
415.196	992.66327
415.696	4758.53554
416.196	4164.70121
416.695	921.1184
417.195	-1254.19388
417.694	-1176.88207
418.194	-877.07895
418.693	-1426.62012
419.192	-1423.77971
419.691	-1403.18891
420.19	-954.24417
420.688	-631.99874
421.187	-437.61748
421.685	38.33914
422.184	269.81617
422.682	255.1933
423.18	-446.21378
423.678	-493.85363
424.176	-467.54422
424.674	-384.29095
425.172	-186.05273
425.669	-1.99986
426.167	15.99551
426.664	-23.98991
427.161	-151.91977
427.659	-53.96934
428.156	-117.93311
428.652	-110.94301
429.149	-219.89259
429.646	-116.94254
430.143	-73.97173
430.639	-18.99348
431.135	-121.97543
431.632	-55.98808
432.128	-73.99416
432.624	-193.01402
433.12	-201.98657
433.616	-164.99151
434.111	-315.02945
434.607	-246.04295
435.103	-63.00508
435.598	-39.00403
436.093	40.01257
436.588	85.02761
437.083	61.02482
437.578	14.0071
438.073	-112.07474
438.568	-8.00585
439.062	1.00053
439.557	72.05233
440.051	-26.01836
440.546	0
441.04	-30.02551
441.534	-53.05324
442.028	4.00369
442.522	-52.04933
443.015	58.04497
443.509	29.02925
444.002	12.01224
444.496	-21.01809
444.989	-58.06312
445.482	-107.12259
445.975	-79.07518
446.468	-78.0698
446.961	-67.06031
447.454	-77.07839
447.947	-158.17673
448.439	-106.12646
448.931	-83.08513
449.424	-64.08169
449.916	-76.09193
450.408	-95.10173
450.9	-123.15089
451.392	-149.19899
451.884	-100.11713
452.375	-169.22345
452.867	-45.05226
453.358	-168.1984
453.849	-136.14709
454.341	-138.16441
454.832	-147.16525
455.323	-142.19173
455.814	-144.18331
456.304	-84.10589
456.795	-87.1094
457.285	-9.01095
457.776	-40.05176
458.266	-169.23461
458.756	-147.21106
459.247	-145.20232
459.737	-196.2801
460.226	-114.14844
460.716	-131.18879
461.206	-126.18539
461.695	-120.18954
462.185	-74.10668
462.674	-75.10619
463.163	-115.15768
463.653	-125.16105
464.142	-232.36858
464.63	-109.1737
465.119	-127.18819
465.608	-137.20449
466.096	-99.13929
466.585	-100.1533
467.073	-98.1581
467.561	-125.20515
468.05	-78.12206
468.538	-58.09734
469.026	-128.21283
469.513	-95.134
470.001	-152.23953
470.489	-117.19277
470.976	-75.12041
471.463	-83.14783
471.951	-51.09159
472.438	-120.20229
472.925	-166.28197
473.412	-80.14474
473.899	-88.14761
474.385	-103.1885
474.872	-125.21572
475.359	-116.21234
475.845	-95.14378
476.331	-59.09537
476.817	-101.18848
477.303	-82.14419
477.789	-172.32441
478.275	-174.33915
478.761	-80.14933
479.247	-51.08773
479.732	-166.32741
480.218	-113.23404
480.703	-35.06788
481.188	-116.19533
481.673	-96.1736
482.158	-132.21924
482.643	-114.23669
483.128	-175.32302
483.612	-110.20757
484.097	-78.15544
484.581	-86.16268
485.066	-169.34015
485.55	-122.21724
486.034	-142.25167
486.518	-122.23463
487.002	-137.27714
487.486	-145.29534
487.969	-159.32548
488.453	-149.31896
488.936	-127.23901
489.42	-118.21906
489.903	-160.34598
490.386	-574.90031
490.869	-71.12967
491.352	-91.19042
491.835	-107.18751
492.318	-107.20434
492.8	-100.17502
493.283	-165.36282
493.765	-186.39842
494.247	-81.16295
494.73	-110.2087
495.212	-106.22303
495.694	-134.27014
496.175	-158.32365
496.657	-100.20577
497.139	-98.1481
497.62	-231.48378
498.102	-143.31008
498.583	-133.2932
499.064	-142.27573
499.545	-147.29505
500.026	-172.34036
500.507	-148.3033
500.988	-156.34412
501.469	-226.50728
501.949	-139.3054
502.43	-210.44496
502.91	-153.27901
503.39	-163.3661
503.87	-143.29697
504.35	-132.2781
504.83	-179.35031
505.31	-210.45857
505.79	-192.41198
506.269	-117.2433
506.749	-212.43682
507.228	-183.3853
507.707	-143.28251
508.187	-144.30965
508.666	-172.37893
509.145	-185.38916
509.623	-152.3201
510.102	-160.34954
510.581	-110.23838
511.059	-181.4092
511.538	-197.46546
512.016	-129.27698
512.494	-142.31153
512.972	-143.3077
513.45	-242.51097
513.928	-217.48077
514.406	-211.45987
514.884	-200.46915
515.361	-138.29803
515.839	-150.30865
516.316	-109.23525
516.793	-155.35755
517.27	-124.27273
517.747	-178.41624
518.224	-180.3819
518.701	-143.28928
519.178	-182.41054
519.654	-80.17159
520.131	-183.41473
520.607	-85.19037
521.083	-136.28212
521.56	-149.32089
522.036	-132.26415
522.512	-124.27925
522.987	-201.43789
523.463	-160.34806
523.939	-140.31425
524.414	-134.28343
524.89	-121.26148
525.365	-143.29604
525.84	-189.4114
526.315	-147.32365
526.79	-167.34696
527.265	-146.3053
527.74	-160.35811
528.215	-175.38077
528.689	-189.38741
529.164	-134.2674
529.638	-146.34543
530.112	-178.38672
530.587	-171.33577
531.061	-161.35656
531.534	-89.19669
532.008	-179.39758
532.482	-123.25943
532.956	-207.48908
533.429	-142.31691
533.903	-99.20054
534.376	-139.28312
534.849	-159.34139
535.322	-136.29572
535.795	-156.3529
536.268	-135.29848
536.741	-120.26526
537.213	-121.25756
537.686	-150.33656
538.158	-187.38869
538.631	-70.15545
539.103	-148.30564
539.575	-106.20346
540.047	-79.15849
540.519	-83.18167
540.991	-66.14754
541.463	-109.24261
541.934	-81.16919
542.406	-110.24021
542.877	-73.15011
543.348	-44.09653
543.82	-30.0667
544.291	-21.04437
544.762	-72.15503
545.233	-36.08137
545.703	-55.10988
546.174	-17.03552
546.645	-75.16152
547.115	-16.03451
547.585	6.01231
548.056	-32.06869
548.526	1.00208
548.996	70.14761
549.466	111.23638
549.935	33.06826
550.405	104.19548
550.875	110.224
551.344	136.27997
551.814	204.3946
552.283	235.4266
552.752	184.35899
553.221	223.39925
553.69	231.42468
554.159	314.62748
554.628	285.51659
555.096	326.67442
555.565	407.71899
556.033	434.81863
556.502	455.88289
556.97	557.95642
557.438	568.05357
557.906	621.14665
558.374	696.2134
558.842	756.36271
559.31	812.34038
559.777	856.52372
560.245	978.64928
560.712	1033.68543
561.18	1150.69819
561.647	1208.7877
562.114	1305.92132
562.581	1463.30601
563.048	1508.14542
563.514	1593.39321
563.981	1747.28488
564.448	1970.31596
564.914	2089.51503
565.381	2187.45874
565.847	2413.628
566.313	2510.6115
566.779	2681.46441
567.245	2871.62878
567.711	3017.7294
568.176	3126.35097
568.642	3366.91117
569.108	3583.72383
569.573	3831.39224
570.038	3997.66555
570.504	4214.85384
570.969	4409.47334
571.434	4502.56233
571.899	4857.86019
572.363	5025.50468
572.828	5292.416
573.293	5556.28593
573.757	5633.25882
574.222	5916.98262
574.686	5996.9778
575.15	6128.26481
575.614	6291.05234
576.078	6452.14402
576.542	6497.0123
577.006	6716.97119
577.469	6711.45152
577.933	6707.92593
578.396	6749.2287
578.86	6828.19312
579.323	6704.21772
579.786	6727.80928
580.249	6554.00175
580.712	6725.37494
581.175	6557.41774
581.637	6531.09859
582.1	6409.88363
582.563	6343.7984
583.025	6283.36268
583.487	6215.52929
583.95	5976.80595
584.412	6098.71944
584.874	5815.52422
585.336	5820.38056
585.797	5679.94784
586.259	5493.52351
586.721	5385.51168
587.182	5295.59096
587.643	5003.54547
588.105	5085.74201
588.566	4778.26529
589.027	4778.99302
589.488	4638.77319
589.949	4487.23609
590.41	4348.09546
590.87	4215.04045
591.331	4103.78873
591.791	3975.19077
592.252	3884.16844
592.712	3716.57465
593.172	3647.2182
593.632	3545.14806
594.092	3440.26175
594.552	3367.10919
595.011	3185.47134
595.471	3165.37057
595.931	3021.38386
596.39	2897.75565
596.849	2973.61073
597.308	2737.32407
597.768	2654.0755
598.227	2633.81012
598.685	2546.59567
599.144	2479.64711
599.603	2532.71886
600.062	2309.16919
600.52	2325.40807
600.978	2308.68158
601.437	2296.53462
601.895	2168.19655
602.353	2134.37066
602.811	2091.34975
603.269	2108.65293
603.727	2089.64348
604.184	1967.3466
604.642	1924.65334
605.099	1937.45402
605.557	2015.68794
606.014	1927.17163
606.471	1900.68947
606.928	1944.14326
607.385	1849.54215
607.842	1895.3684
608.299	1936.46857
608.755	1922.57678
609.212	1906.26588
609.668	1837.20734
610.125	1916.59692
610.581	1875.54751
611.037	1872.4059
611.493	1830.5019
611.949	1747.48995
612.405	1827.93746
612.861	1808.48865
613.316	1728.46168
613.772	1754.35461
614.227	1804.47355
614.683	1792.16639
615.138	1646.34456
615.593	1695.3609
616.048	1683.32172
616.503	1625.52165
616.958	1588.54127
617.412	1574.34539
617.867	1520.08887
618.321	1568.96333
618.776	1544.13594
619.23	1511.28351
619.684	1433.11967
620.138	1468.23823
620.592	1391.28827
621.046	1411.22083
621.5	1317.21712
621.954	1363.07121
622.407	1301.98417
622.861	1202.09533
623.314	1260.00478
623.768	1187.97995
624.221	1206.62592
624.674	1178.94934
625.127	1116.91749
625.58	1154.91679
626.033	1153.84553
626.485	1034.86798
626.938	1077.92267
627.39	994.76546
627.843	1041.81914
628.295	1019.79178
628.747	952.76062
629.199	984.7161
629.651	907.61265
630.103	949.68838
630.555	957.55488
631.006	916.69728
631.458	887.66672
631.909	906.65622
632.361	900.67255
632.812	899.65043
633.263	871.49419
633.714	922.55286
634.165	896.75341
634.616	903.72594
635.067	909.61038
635.518	945.80199
635.968	903.42991
636.419	892.55278
636.869	900.73471
637.319	888.6592
637.769	930.65578
638.219	888.73282
638.669	914.76341
639.119	940.85695
639.569	929.81422
640.019	1004.83947
640.468	956.70219
640.918	994.91891
641.367	1000.77248
641.816	1046.82743
642.265	1002.84224
642.714	1058.92018
643.163	1038.88094
643.612	985.89381
644.061	1052.71704
644.51	1049.87447
644.958	1065.81742
645.406	1054.99518
645.855	1067.07674
646.303	1120.03784
646.751	1074.90795
647.199	1104.95029
647.647	1099.97011
648.095	1092.95302
648.543	1154.78195
648.99	1050.99435
649.438	1130.07266
649.885	1128.19936
650.333	1118.6306
650.78	1085.07399
651.227	1132.15938
651.674	1082.93509
652.121	1119.1453
652.568	1102.11516
653.015	1058.15981
653.461	1023.95474
653.908	1108.0271
654.354	1115.09976
654.801	1003.89617
655.247	1069.84672
655.693	1060.24468
656.139	1037.00011
656.585	1013.96916
657.031	987.86133
657.477	1044.77812
657.922	974.82109
658.368	1013.0394
658.813	1093.01911
659.259	989.93701
659.704	1026.92511
660.149	1029.93122
660.594	1013.95238
661.039	1019.86935
661.484	1064.04694
661.929	1027.94351
662.373	968.02208
662.818	1068.14297
663.262	1012.98631
663.707	1012.11041
664.151	1005.01403
664.595	1021.00578
665.039	1089.19068
665.483	1101.26744
665.927	1052.00254
666.371	1024.91476
666.814	1105.11333
667.258	1050.00354
667.701	1121.90004
668.145	1186.34207
668.588	1138.23248
669.031	1087.04489
669.474	1124.16368
669.917	1164.01181
670.36	1143.27011
670.803	1193.27112
671.245	1242.98036
671.688	1214.33067
672.13	1217.10106
672.573	1183.40396
673.015	1214.28617
673.457	1199.01309
673.899	1199.29356
674.341	1252.3522
674.783	1229.30043
675.225	1280.44363
675.666	1240.31938
676.108	1231.04809
676.549	1289.35178
676.991	1291.15318
677.432	1292.89683
677.873	1264.25463
678.314	1335.43114
678.755	1308.45293
679.196	1298.26464
679.637	1293.45253
680.078	1356.40214
680.518	1347.38183
680.959	1358.47133
681.399	1294.4953
681.839	1298.446
682.28	1356.55933
682.72	1275.23885
683.16	1357.59162
683.6	1374.34918
684.039	1386.10462
684.479	1345.53052
684.919	1329.31717
685.358	1435.76194
685.798	1412.84209
686.237	1354.50358
686.676	1506.54623
687.115	1457.52961
687.554	1507.6169
687.993	1450.33692
688.432	1471.45539
688.871	1431.38948
689.309	1543.67419
689.748	1533.24607
690.186	1580.71938
690.625	1478.5428
691.063	1539.68536
691.501	1537.79355
691.939	1591.882
692.377	1552.75957
692.815	1586.72259
693.253	1581.74474
693.69	1579.43399
694.128	1578.76024
694.565	1595.72732
695.003	1644.01093
695.44	1548.62612
695.877	1610.66229
696.314	1708.46895
696.751	1700.669
697.188	1668.65857
697.625	1764.74701
698.061	1674.82332
698.498	1742.92638
698.934	1772.931
699.371	1708.78121
699.807	1801.88337
700.243	1721.87918
700.679	1767.69268
701.115	1845.90684
701.551	1808.87449
701.987	1831.71522
702.422	1865.94707
702.858	1845.94638
703.294	1884.7776
703.729	1913.11531
704.164	1842.98684
704.599	1894.71577
705.035	1886.72402
705.47	1845.0281
705.904	1897.89198
706.339	1922.91449
706.774	1946.94973
707.209	1970.89794
707.643	1990.08913
708.078	1989.14849
708.512	1927.21595
708.946	1995.08728
709.38	1964.01331
709.814	1987.87881
710.248	1997.16134
710.682	2006.05395
711.116	1963.03003
711.549	1926.36896
711.983	2003.92887
712.416	2067.07281
712.85	1984.2545
713.283	1950.99737
713.716	2001.30863
714.149	1998.06632
714.582	1979.79751
715.015	2003.29409
715.448	1989.31166
715.881	2028.72596
716.313	1905.92296
716.746	1916.94774
717.178	1887.01517
717.61	1922.2842
718.043	1895.18238
718.475	1905.0664
718.907	1946.30117
719.339	1867.7579
719.77	1827.90587
720.202	1833.18937
720.634	1847.02977
721.065	1733.83242
721.497	1793.01915
721.928	1776.00705
722.359	1700.86138
722.79	1704.84053
723.221	1753.09505
723.652	1729.17914
724.083	1656.58139
724.514	1682.67206
724.945	1596.67351
725.375	1572.60038
725.806	1665.97441
726.236	1641.05085
726.666	1587.69202
727.096	1506.73354
727.526	1468.80885
727.956	1525.48834
728.386	1539.7832
728.816	1439.75783
729.246	1386.55409
729.675	1361.56444
730.105	1405.62449
730.534	1371.42071
730.964	1380.68423
731.393	1370.61463
731.822	1412.7595
732.251	1281.55876
732.68	1339.4079
733.109	1306.49936
733.537	1233.34069
733.966	1290.50174
734.395	1269.26069
734.823	1318.25533
735.251	1212.30572
735.68	1191.39184
736.108	1224.46775
736.536	1169.19209
736.964	1163.13925
737.392	1131.29712
737.82	1150.21174
738.247	1077.10218
738.675	1156.21058
739.102	1043.15358
739.53	1019.16292
739.957	1067.2698
740.384	1123.24888
740.811	1020.15615
741.238	1023.06522
741.665	955.84483
742.092	996.97596
742.519	894.88706
742.945	928.87939
743.372	912.92003
743.798	901.98589
744.225	843.72069
744.651	887.90696
745.077	901.91718
745.503	888.84904
745.929	867.77851
746.355	880.87855
746.781	842.80204
747.207	814.64454
747.632	751.60612
748.058	773.69162
748.483	826.63224
748.908	755.65013
749.334	785.68323
749.759	741.53211
750.184	694.46524
750.609	752.62523
751.033	756.5649
751.458	744.45626
751.883	718.57746
752.307	678.41829
752.732	649.45586
753.156	721.57577
753.58	685.44654
754.005	677.53984
754.429	612.29644
754.853	631.40907
755.277	608.29917
755.7	609.36885
756.124	575.30079
756.548	608.30029
756.971	593.31486
757.394	559.3213
757.818	577.35705
758.241	596.37538
758.664	546.26586
759.087	511.0456
759.51	523.19979
759.933	538.18608
760.356	535.26354
760.778	527.19206
761.201	502.12921
761.623	497.11635
762.046	478.05316
762.468	481.07283
762.89	469.0783
763.312	483.0946
763.734	436.98416
764.156	430.99788
764.578	464.99382
765	455.03563
765.421	348.84359
765.843	416.02796
766.264	392.89677
766.686	405.96158
767.107	443.00298
767.528	316.76575
767.949	359.8704
768.37	339.79562
768.791	383.87847
769.212	328.78884
769.632	343.76179
770.053	332.83819
770.473	355.82274
770.894	355.84809
771.314	369.83788
771.734	285.64114
772.154	328.80763
772.575	329.72979
772.994	267.5871
773.414	342.78461
773.834	274.66299
774.254	300.70699
774.673	281.66158
775.093	280.66934
775.512	209.50412
775.931	284.69545
776.351	256.61688
776.77	215.51388
777.189	246.56892
777.607	253.62747
778.026	252.60954
778.445	167.41193
778.864	256.63757
779.282	214.50356
779.701	196.48479
780.119	169.42085
780.537	184.45127
780.955	191.47735
781.373	196.47553
781.791	182.40214
782.209	247.55293
782.627	189.48884
783.045	220.49381
783.462	168.42299
783.88	177.45035
784.297	186.45955
784.715	141.35825
785.132	180.4285
785.549	138.34197
785.966	194.47844
786.383	167.4048
786.8	189.43094
787.217	166.38788
787.633	157.38655
788.05	198.46119
788.466	206.47548
788.883	136.3434
789.299	141.33625
789.715	168.40224
790.131	124.30615
790.547	147.363
790.963	129.31762
791.379	97.24454
791.795	149.33631
792.21	131.30388
792.626	183.42634
793.041	117.28701
793.457	146.35675
793.872	100.23458
794.287	85.20278
794.702	139.33908
795.117	97.24024
795.532	82.20535
795.947	182.43027
796.362	183.42919
796.776	164.37884
797.191	101.24639
797.605	63.14845
798.02	85.20674
798.434	117.25922
798.848	99.24295
799.262	100.24708
799.676	149.35913
800.09	122.29789
800.504	137.32908
800.918	125.28732
801.331	124.32245
801.745	92.21109
802.158	71.17771
802.572	148.35463
802.985	133.31851
803.398	132.31183
803.811	142.36098
804.224	124.30615
804.637	103.24431
805.05	94.21749
805.462	136.33071
805.875	82.21214
806.288	73.17622
806.7	93.23303
807.112	87.20157
807.525	108.26508
807.937	106.26056
808.349	116.2885
808.761	92.22573
809.173	89.21525
809.584	144.35161
809.996	90.21976
810.408	45.11664
810.819	102.23881
811.231	37.09613
811.642	36.08646
812.053	93.22042
812.464	111.26217
812.875	124.314
813.286	137.34858
813.697	153.3528
814.108	84.20495
814.519	161.35299
814.929	134.33811
815.34	30.07339
815.75	92.23289
816.16	141.34716
816.571	137.35178
816.981	81.19116
817.391	133.31765
817.801	53.13208
818.211	104.24663
818.62	52.12569
819.03	120.29159
819.44	83.21632
819.849	106.26545
820.259	109.27714
820.668	72.17705
821.077	57.1419
821.486	125.29821
821.895	133.32505
822.304	95.25055
822.713	52.12346
823.122	97.24094
823.531	115.27046
823.939	107.25898
824.348	104.25138
824.756	90.22466
825.164	137.34067
825.573	94.23481
825.981	112.27571
826.389	112.27926
826.797	79.19752
827.205	57.13123
827.612	100.24545
828.02	54.12722
828.428	81.20581
828.835	102.26679
829.243	108.25563
829.65	40.09996
830.057	59.1435
830.464	73.17775
830.871	97.23114
831.278	78.18825
831.685	109.2415
832.092	124.30052
832.499	90.1962
832.905	96.2418
833.312	94.21351
833.718	100.24771
834.124	89.20269
834.531	86.21607
834.937	106.27014
835.343	108.25869
835.749	84.19574
836.155	122.31627
836.561	57.14045
836.966	109.26451
837.372	85.21559
837.777	56.13974
838.183	87.19284
838.588	35.08738
838.993	114.27514
839.399	94.22858
839.804	70.17041
840.209	60.1528
840.613	55.12272
841.018	66.16707
841.423	52.13364
841.828	74.18679
842.232	101.24859
842.637	74.17434
843.041	41.10546
843.445	60.15058
843.849	68.1682
844.253	107.25233
844.657	59.14863
845.061	78.17659
845.465	51.12349
845.869	66.15337
846.272	71.17262
846.676	58.14046
847.079	83.21022
847.483	94.23319
847.886	110.26538
848.289	42.11239
848.692	88.22181
849.095	70.16792
849.498	118.29614
849.901	73.16719
850.304	57.1364
850.707	90.22831
851.109	104.2612
851.512	75.18385
851.914	30.076
852.316	100.25115
852.718	13.03382
853.121	77.18812
853.523	59.138
853.925	23.06035
854.326	81.20171
854.728	54.13898
855.13	72.18524
855.531	45.10785
855.933	86.20552
856.334	25.06271
856.736	85.1895
857.137	104.23977
857.538	20.05063
857.939	73.17987
858.34	67.16308
858.741	93.24163
859.142	88.2103
859.542	66.17386
859.943	81.20047
860.343	30.07467
860.744	111.26825
861.144	84.20396
861.544	63.15128
861.945	58.14781
862.345	82.1997
862.745	56.13923
863.145	92.2186
863.544	62.15655
863.944	109.25505
864.344	86.21257
864.743	88.21719
865.143	83.21223
865.542	65.1506
865.941	85.20936
866.34	76.18148
866.74	72.19273
867.139	12.02898
867.537	70.17795
867.936	51.12293
868.335	72.18271
868.734	53.13552
869.132	84.1942
869.531	95.2282
869.929	21.04823
870.327	82.19566
870.726	122.30066
871.124	91.21134
871.522	65.16533
871.92	82.20134
872.318	83.20195
872.715	81.19966
873.113	82.19888
873.511	80.19846
873.908	4.01019
874.306	31.07745
874.703	114.28229
875.1	96.24388
875.497	101.24012
875.894	51.12506
876.291	75.18344
876.688	41.10601
877.085	106.25196
877.482	48.12034
877.878	48.11572
878.275	66.16737
878.671	143.31286
879.068	101.24178
879.464	71.17113
879.86	37.08783
880.256	85.20867
880.652	71.18008
881.048	70.17302
881.444	116.27297
881.84	75.18995
882.236	62.15572
882.631	75.18344
883.027	97.23309
883.422	67.17096
883.817	5.01268
884.213	86.21948
884.608	79.19286
885.003	66.15881
885.398	39.0979
885.793	93.23185
886.188	22.05502
886.582	98.24949
886.977	80.18899
887.371	86.2163
887.766	31.07742
888.16	117.28871
888.554	91.22356
888.949	76.19012
889.343	123.29669
889.737	21.05626
890.131	67.1677
890.525	68.17348
890.918	52.13093
891.312	85.20224
891.706	98.25519
892.099	86.21762
892.492	91.19488
892.886	104.25214
893.279	38.09708
893.672	52.13243
894.065	58.14515
894.458	71.17803
894.851	122.29522
895.244	67.17072
895.637	80.19177
896.029	68.16585
896.422	90.21845
896.814	76.1882
897.206	35.08366
897.599	93.22839
897.991	59.14253
898.383	69.16259
898.775	91.20389
899.167	22.05163
899.559	91.22884
899.951	78.18305
900.342	106.26708
900.734	32.0797
901.125	88.22954
901.517	60.14711
901.908	87.20731
902.299	58.14167
902.69	61.14374
903.082	104.24949
903.473	-7.01696
903.863	76.19314
904.254	75.17336
904.645	98.24178
905.036	35.08503
905.426	83.18895
905.817	83.20255
906.207	65.15453
906.597	69.16088
906.987	64.16557
907.378	64.16155
907.768	36.09544
908.158	64.15575
908.547	61.15735
908.937	51.13091
909.327	84.20281
909.717	109.274
910.106	64.15341
910.495	84.20854
910.885	67.16927
911.274	72.17933
911.663	78.1971
912.052	94.23021
912.441	41.10447
912.83	96.2185
913.219	70.18266
913.608	67.16369
913.997	43.10798
914.385	114.2692
914.774	49.1194
915.162	71.1686
915.55	71.1712
915.939	19.04824
916.327	104.25715
916.715	34.08692
917.103	141.34139
917.491	85.20905
917.878	63.1546
918.266	66.17074
918.654	80.20337
919.041	31.08121
919.429	57.13442
919.816	84.21173
920.203	57.13812
920.591	85.20952
920.978	119.2878
921.365	61.1598
921.752	52.12398
922.139	97.20863
922.525	41.09867
922.912	36.08807
923.299	62.15381
923.685	58.15114
924.072	74.16992
924.458	72.1777
924.844	28.06959
925.231	50.11642
925.617	39.09941
926.003	43.11007
926.389	52.13116
926.774	96.24137
927.16	75.18548
927.546	53.13524
927.931	85.21083
928.317	62.14254
928.702	103.24129
929.088	68.16033
929.473	55.13985
929.858	25.06074
930.243	61.14614
930.628	77.18644
931.013	73.1802
931.398	125.28329
931.783	80.2096
932.167	56.13679
932.552	95.23615
932.937	83.20481
933.321	64.16022
933.705	74.18579
934.09	134.33363
934.474	91.21451
934.858	67.1733
935.242	67.1548
935.626	43.11022
936.009	49.13036
936.393	98.24728
936.777	41.10517
937.16	63.16358
937.544	72.16897
937.927	64.16201
938.311	108.26086
938.694	111.29058
939.077	71.16932
939.46	113.27432
939.843	98.20238
940.226	62.15873
940.609	53.12163
940.991	73.18509
941.374	46.11253
941.757	95.23253
942.139	61.13673
942.522	88.20652
942.904	96.2288
943.286	101.25435
943.668	50.12953
944.05	83.20323
944.432	101.24694
944.814	95.2321
945.196	54.13151
945.578	25.05971
945.959	90.20931
946.341	109.26471
946.722	62.14522
947.104	104.24606
947.485	54.12559
947.866	63.15837
948.247	78.19583
948.628	55.13407
949.009	72.18368
949.39	90.22245
949.771	59.13703
950.152	82.20007
950.532	-2.00497
950.913	77.18482
951.293	58.15648
951.674	95.22785
952.054	77.18987
952.434	44.10935
952.814	84.19859
953.194	92.23908
953.574	105.25605
953.954	82.19356
954.334	67.16649
954.714	16.03924
955.093	105.25557
955.473	66.16457
955.853	76.19587
956.232	95.25851
956.611	103.24459
956.99	61.15301
957.37	59.15012
957.749	52.12403
958.128	50.12598
958.506	41.10653
958.885	66.16612
959.264	35.08602
959.643	84.18987
960.021	29.07214
960.4	60.13573
960.778	93.22729
961.156	68.16992
961.535	93.21496
961.913	58.13553
962.291	69.17643
962.669	61.15422
963.047	73.18555
963.424	38.09718
963.802	120.29126
964.18	116.29008
964.557	98.22359
964.935	119.27823
965.312	73.18934
965.69	90.22376
966.067	120.28842
966.444	74.18156
966.821	118.30061
967.198	68.16443
967.575	106.25796
967.952	78.18283
968.329	89.21501
968.705	70.14949
969.082	50.12823
969.458	3.00726
969.835	105.25299
970.211	60.15372
970.587	121.29737
970.963	70.17896
971.339	72.1873
971.715	45.11247
972.091	118.28694
972.467	104.25687
972.843	46.11424
973.219	81.19339
973.594	31.08135
973.97	80.18935
974.345	67.15984
974.721	89.21395
975.096	60.14492
975.471	115.2694
975.846	42.10106
976.221	44.11186
976.596	56.13408
976.971	72.17705
977.346	100.23054
977.72	91.23015
978.095	94.24108
978.469	88.20853
978.844	90.22466
979.218	36.08653
979.593	128.30214
979.967	76.18426
980.341	114.25915
980.715	50.12598
981.089	99.24564
981.463	77.17586
981.837	63.15357
982.21	68.15771
982.584	84.20159
982.957	73.18153
983.331	104.2433
983.704	66.1617
984.078	77.18882
984.451	124.30559
984.824	65.15786
985.197	111.26653
985.57	86.21428
985.943	68.1674
986.316	130.3147
986.688	105.25059
987.061	103.23893
987.434	63.1638
987.806	94.2261
988.179	89.20841
988.551	100.25142
988.923	99.2416
989.295	116.2864
989.667	15.03607
990.039	53.13088
990.411	101.23011
990.783	50.11514
991.155	34.08194
991.527	125.30357
991.898	34.08496
992.27	83.20406
992.641	114.2827
993.012	98.22845
993.384	55.13106
993.755	40.10216
994.126	58.1393
994.497	75.18323
994.868	73.16692
995.239	76.18329
995.61	64.16062
995.98	48.11664
996.351	46.11399
996.722	69.15943
997.092	62.14647
997.462	35.08199
997.833	67.15831
998.203	73.17622
998.573	79.19566
998.943	79.1842
999.313	57.1364
999.683	49.11761
1000.053	65.14911
1000.423	85.20519
1000.792	53.13728
1001.162	84.20541
1001.531	73.17921
1001.901	106.26152
1002.27	90.19953
1002.639	50.12774
1003.009	19.04545
1003.378	77.19592
1003.747	81.1902
1004.116	60.14328
1004.485	62.14783
1004.853	66.16671
1005.222	60.15102
1005.591	91.21435
1005.959	22.04985
1006.328	49.11028
1006.696	63.15156
1007.064	78.1952
1007.433	86.2135
1007.801	102.24794
1008.169	80.20092
1008.537	80.17603
1008.905	57.13259
1009.273	118.2878
1009.64	30.07183
1010.008	37.08841
1010.375	134.32023
1010.743	124.28211
1011.11	75.17659
1011.478	82.20171
1011.845	73.17088
1012.212	75.16887
1012.579	83.20248
1012.946	125.29317
1013.313	89.21021
1013.68	139.30668
1014.047	68.16145
1014.414	76.17856
1014.78	49.12176
1015.147	94.22541
1015.513	48.11567
1015.88	73.18587
1016.246	122.29711
1016.612	161.36027
1016.978	112.27123
1017.344	77.18931
1017.71	73.17722
1018.076	123.28589
1018.442	56.14387
1018.808	69.17183
1019.174	73.18232
1019.539	143.32303
1019.905	78.1829
1020.27	51.1258
1020.636	87.20708
1021.001	90.21376
1021.366	85.2027
1021.731	101.25735
1022.096	48.12107
1022.461	114.26638
1022.826	45.10703
1023.191	55.14413
1023.556	91.21151
1023.92	63.15449
1024.285	76.18454
1024.649	82.1997
1025.014	126.30766
1025.378	76.19012
1025.742	94.23149
1026.107	91.20405
1026.471	99.22883
1026.835	78.1923
1027.199	66.15833
1027.562	39.09083
1027.926	80.19447
1028.29	-1.00255
1028.654	70.16035
1029.017	128.30998
1029.381	24.0576
1029.744	66.16778
1030.107	114.26628
1030.471	45.10781
1030.834	65.14737
1031.197	61.14659
1031.56	70.16447
1031.923	67.17264
1032.286	79.18442
1032.648	93.22051
1033.011	72.16447
1033.374	110.25542
1033.736	43.11314
1034.099	67.16271
1034.461	27.06846
1034.823	61.15152
1035.185	71.17797
1035.548	75.1816
1035.91	51.12209
1036.272	78.17645
1036.634	115.27781
1036.995	75.17535
1037.357	81.19583
1037.719	56.13597
1038.08	123.2878
1038.442	69.1631
1038.803	77.18384
1039.165	89.22292
1039.526	116.27668
1039.887	72.17147
1040.248	19.04706
1040.609	101.24712
1040.97	102.24674
1041.331	86.21622
1041.692	38.08886
1042.053	70.15868
1042.413	100.23064
1042.774	118.28318
1043.134	111.26105
1043.495	87.21713
1043.855	77.18574
1044.215	79.19494
1044.576	71.16899
1044.936	108.24461
1045.296	98.24232
1045.656	103.25014
1046.016	86.20607
1046.375	79.19049
1046.735	43.09757
1047.095	68.15852
1047.454	90.18895
1047.814	78.1864
1048.173	134.31483
1048.533	55.12581
1048.892	27.06505
1049.251	84.20945
1049.61	106.25815
1049.969	80.18737
1050.328	83.1786
1050.687	75.18153
1051.046	108.25997
1051.405	70.1734
1051.763	83.18948
1052.122	33.08251
1052.48	82.19978
1052.839	73.17088
1053.197	78.18248
1053.555	108.24322
1053.914	74.18008
1054.272	123.2931
1054.63	74.18002
1054.988	50.11871
1055.345	85.18156
1055.703	84.20074
1056.061	86.21971
1056.419	41.10623
1056.776	74.17853
1057.134	34.07892
1057.491	105.26015
1057.848	68.16863
1058.206	99.23047
1058.563	53.11669
1058.92	96.21912
1059.277	92.22506
1059.634	82.19161
1059.991	94.22318
1060.348	72.16188
1060.704	59.14027
1061.061	98.22539
1061.418	68.16424
1061.774	81.1987
1062.131	13.03456
1062.487	80.18583
1062.843	94.23234
1063.199	72.17823
1063.555	48.11119
1063.911	77.19342
1064.267	119.24426
1064.623	87.2097
1064.979	136.31666
1065.335	105.24819
1065.691	92.2186
1066.046	93.20253
1066.402	63.14266
1066.757	120.29889
1067.112	105.2549
1067.468	54.12732
1067.823	80.19111
1068.178	108.25819
1068.533	99.23763
1068.888	82.19461
1069.243	74.1817
1069.598	77.18602
1069.952	59.13252
1070.307	47.11632
1070.662	80.18869
1071.016	57.12745
1071.371	73.16517
1071.725	96.22749
1072.079	53.12731
1072.434	41.09972
1072.788	93.21948
1073.142	113.27453
1073.496	55.13026
1073.85	85.19561
1074.203	61.14759
1074.557	91.24016
1074.911	136.31903
1075.265	60.1391
1075.618	85.20604
1075.971	86.203
1076.325	79.19959
1076.678	37.08477
1077.031	61.13763
1077.385	132.28556
1077.738	51.11502
1078.091	51.11587
1078.444	123.28125
1078.796	49.12016
1079.149	91.22447
1079.502	47.11101
1079.855	52.12113
1080.207	104.25347
1080.56	58.14958
1080.912	69.16726
1081.264	49.11793
1081.617	66.16026
1081.969	91.22769
1082.321	71.17256
1082.673	38.08687
1083.025	84.19782
1083.377	-176.39587
1083.728	88.20361
1084.08	66.16415
1084.432	52.12527
1084.783	96.22273
1085.135	86.21397
1085.486	53.12109
1085.838	62.15223
1086.189	45.10924
1086.54	80.18979
1086.891	44.1113
1087.242	73.17682
1087.593	105.2528
1087.944	75.16873
1088.295	71.16058
1088.646	48.11629
1088.996	48.11559
1089.347	112.27143
1089.698	34.08054
1090.048	64.16569
1090.398	92.21142
1090.749	83.19718
1091.099	9.02278
1091.449	81.20047
1091.799	53.13251
1092.149	0
1092.499	25.06121
1092.849	94.23685
1093.199	69.17221
1093.548	68.16269
1093.898	57.14231
1094.248	74.18919
1094.597	22.05638
1094.947	81.21478
1095.296	54.13313
1095.645	115.2955
1095.994	40.09618
1096.343	115.28576
1096.692	44.1156
1097.041	44.11914
1097.39	122.30177
1097.739	62.16067
1098.088	96.25502
1098.437	2.00529
1098.785	46.12398
1099.134	73.19292
1099.482	55.15101
1099.83	55.14428
1100.179	3.00788
1100.527	60.15902
1100.875	68.17907
1101.223	67.17724
1101.571	28.07757
1101.919	4.01052
1102.267	30.08464
1102.615	-7.02254
1102.962	10.0322
1103.31	-5.01609
1103.658	18.05793
