Data from N2 R11 sample 6_Subt2__4__16-01-26-038.txt Node

Date: Mon Sep 01 16:01:26 PDT 2025
User: uwsun
Spectrometer: HDX01956
Trigger mode: 0
Integration Time (sec): 5.000000E-1
Scans to average: 1
Nonlinearity correction enabled: true
Boxcar width: 0
Storing dark spectrum: false
XAxis mode: Wavelengths
Number of Pixels in Spectrum: 2068
>>>>>Begin Spectral Data<<<<<
194.03	-8.02248
194.578	-5.01582
195.127	-13.04058
195.676	-11.03443
196.225	81.21197
196.773	52.14139
197.321	21.05617
197.87	75.18303
198.418	49.1186
198.966	13.03187
199.513	6.01403
200.061	-5.01191
200.609	44.10987
201.156	31.06308
201.704	-10.02372
202.251	-5.01248
202.798	33.08026
203.345	40.09292
203.892	3.00711
204.438	56.12508
204.985	35.0769
205.532	-63.15774
206.078	65.14845
206.624	-6.01385
207.17	65.14047
207.716	4.00911
208.262	52.09572
208.808	-35.081
209.354	20.04548
209.899	62.14686
210.445	36.0832
210.99	-1.00226
211.535	103.22383
212.08	38.08277
212.625	75.17467
213.17	75.17694
213.715	-40.08372
214.259	56.12182
214.804	47.1089
215.348	56.11964
215.892	62.13866
216.436	97.20881
216.98	67.13858
217.524	52.11466
218.068	75.17611
218.612	84.19713
219.155	22.04869
219.698	82.18172
220.242	69.16133
220.785	40.0879
221.328	95.22037
221.871	61.14553
222.414	85.19803
222.956	-11.02505
223.499	45.09512
224.041	81.17692
224.583	74.15035
225.126	63.13002
225.668	41.09356
226.21	53.12484
226.751	5.01031
227.293	63.1351
227.835	69.15714
228.376	92.19852
228.918	43.10239
229.459	17.03981
230	30.0672
230.541	71.15304
231.082	55.12475
231.622	108.23094
232.163	7.01599
232.704	53.12275
233.244	85.19592
233.784	101.23067
234.324	11.02261
234.864	3.00643
235.404	52.1161
235.944	45.10024
236.484	82.19093
237.023	34.07525
237.563	22.0477
238.102	90.1972
238.641	36.08541
239.18	23.05026
239.719	21.04958
240.258	60.12591
240.797	66.14656
241.335	63.14394
241.874	57.10173
242.412	48.10748
242.95	-4.00896
243.488	38.08112
244.026	0
244.564	79.15043
245.102	26.05454
245.64	36.08141
246.177	83.17206
246.715	69.15415
247.252	78.16621
247.789	115.19973
248.326	30.06687
248.863	49.09958
249.4	50.10576
249.936	83.15712
250.473	43.09304
251.009	-10.02147
251.546	17.03497
252.082	18.03686
252.618	84.17168
253.154	30.06693
253.69	39.08157
254.226	12.02673
254.761	25.05227
255.297	5.01021
255.832	62.13528
256.367	60.13052
256.903	72.14522
257.438	70.15182
257.972	67.1374
258.507	30.0634
259.042	7.01417
259.576	33.06529
260.111	66.14076
260.645	51.10203
261.179	-6.01304
261.713	48.09828
262.247	93.19615
262.781	55.1056
263.315	4.00909
263.849	18.04168
264.382	84.17698
264.915	10.02165
265.449	-28.06314
265.982	96.19932
266.515	60.13413
267.048	74.14259
267.58	116.23051
268.113	22.04374
268.646	32.07266
269.178	0
269.71	54.10816
270.243	36.07578
270.775	-2.00471
271.307	64.14153
271.838	78.17004
272.37	6.01365
272.902	103.21237
273.433	27.05422
273.965	70.15532
274.496	56.12782
275.027	10.02286
275.558	62.13694
276.089	-13.02932
276.62	66.15374
277.15	48.10867
277.681	45.08953
278.211	60.13451
278.741	18.03617
279.272	-17.03575
279.802	9.0207
280.332	21.04521
280.861	54.11822
281.391	20.04136
281.921	46.10122
282.45	42.09594
282.98	28.06681
283.509	68.13797
284.038	79.16194
284.567	71.15034
285.096	31.06823
285.625	37.07605
286.153	20.04254
286.682	29.06004
287.21	31.06754
287.739	15.03219
288.267	40.08727
288.795	2.00482
289.323	4.00845
289.851	72.15109
290.378	49.09876
290.906	-8.01751
291.433	21.04736
291.961	40.08101
292.488	33.07403
293.015	46.09653
293.542	23.05225
294.069	43.0944
294.596	93.20476
295.122	5.01075
295.649	117.22648
296.175	70.15124
296.702	63.13626
297.228	72.15583
297.754	-1.00201
298.28	-8.01627
298.806	12.02575
299.332	-2.00394
299.857	-12.02421
300.383	43.09718
300.908	-22.04751
301.433	3.00647
301.958	40.08209
302.483	0
303.008	19.04183
303.533	30.06958
304.058	59.12258
304.582	14.02907
305.107	-26.0603
305.631	34.06845
306.155	20.04075
306.679	11.02249
307.203	11.02235
307.727	3.00626
308.251	8.0174
308.775	-54.11277
309.298	-5.01042
309.822	-8.01776
310.345	-15.03114
310.868	25.05173
311.391	29.06211
311.914	-12.02618
312.437	27.05337
312.96	38.07664
313.482	22.04476
314.005	22.04755
314.527	2.00453
315.049	44.09559
315.571	-26.04921
316.093	47.09874
316.615	18.03682
317.137	-17.03146
317.659	13.027
318.18	5.0103
318.702	17.03325
319.223	47.07964
319.744	-2.00375
320.265	-23.04678
320.786	-38.07886
321.307	28.05782
321.828	52.09625
322.348	33.06369
322.869	-70.13748
323.389	31.03991
323.909	-69.13216
324.43	63.12429
324.95	-1.00185
325.47	-55.11085
325.989	-47.09006
326.509	2.00347
327.029	17.03011
327.548	-47.08397
328.067	-41.07868
328.587	15.0297
329.106	-25.04471
329.625	46.09683
330.144	-4.00716
330.662	-52.09389
331.181	-33.06006
331.7	-13.02345
332.218	-36.05936
332.736	12.02131
333.255	-10.01758
333.773	-21.03764
334.291	0
334.808	-52.08641
335.326	-15.025
335.844	-88.15134
336.361	-57.10695
336.879	-49.08289
337.396	-29.05058
337.913	-73.12115
338.43	-71.11405
338.947	-47.07985
339.464	-62.0919
339.981	-90.15105
340.497	3.00519
341.014	-80.13743
341.53	-38.05798
342.046	-51.08632
342.562	-3.00515
343.078	-43.06845
343.594	11.0175
344.11	-37.05896
344.626	-145.25318
345.141	-40.05932
345.657	-26.03851
346.172	-81.12945
346.687	-92.13711
347.202	-104.14964
347.717	-110.17133
348.232	-108.17769
348.747	-87.12608
349.261	-126.16676
349.776	-93.13705
350.29	-139.21568
350.805	-75.11753
351.319	-115.16584
351.833	-118.15963
352.347	-89.1261
352.861	-126.17643
353.374	-39.05305
353.888	-100.14596
354.401	-129.17503
354.915	-104.13064
355.428	-158.23506
355.941	-124.16466
356.454	-32.04008
356.967	-129.17653
357.48	-84.10834
357.993	-124.17686
358.505	-149.20791
359.018	-104.14292
359.53	-104.1369
360.042	-73.08509
360.554	-72.0949
361.066	-172.23162
361.578	-109.12158
362.09	-139.17836
362.602	-157.17649
363.113	-132.15772
363.625	-96.10638
364.136	-89.095
364.647	-269.31271
365.158	-137.15732
365.669	-85.09974
366.18	-153.17795
366.691	-110.11185
367.201	-144.1663
367.712	-110.11269
368.222	-147.15229
368.733	-199.18528
369.243	-206.19463
369.753	-186.18916
370.263	-175.18383
370.773	-158.1713
371.282	-226.22623
371.792	-230.19494
372.301	-247.23556
372.811	-234.25373
373.32	-315.21618
373.829	-285.22765
374.338	-249.16366
374.847	-266.17557
375.356	-280.18591
375.865	-277.11444
376.373	-311.14685
376.882	-253.15927
377.39	-306.15713
377.898	-477.22333
378.407	-436.11698
378.915	-333.04924
379.423	-343.06256
379.93	-366.02944
380.438	-531.04461
380.946	-501.98199
381.453	-581.95219
381.96	-604.88456
382.468	-802.76694
382.975	-594.80243
383.482	-604.74397
383.989	-696.74863
384.495	-743.64799
385.002	-891.51581
385.509	-980.47357
386.015	-916.50009
386.521	-901.50807
387.028	-986.49583
387.534	-1059.51399
388.04	-1053.4961
388.546	-1398.50214
389.051	-1513.71809
389.557	-1529.98109
390.063	-1153.17404
390.568	-1395.45428
391.073	-1671.08328
391.578	-1685.30724
392.084	-1894.32633
392.589	-2373.14715
393.093	-2646.46245
393.598	-2593.89576
394.103	-2686.9645
394.607	-2918.06407
395.112	-3117.09245
395.616	-3258.13189
396.12	-4009.44169
396.624	-4541.51999
397.128	-4671.24781
397.632	-4682.99678
398.136	-5267.45603
398.639	-7142.98688
399.143	-8966.19888
399.646	-9634.25858
400.15	-10567.46302
400.653	-12796.68702
401.156	-15371.07813
401.659	-18288.72894
402.162	-13679.14833
402.664	-2166.30143
403.167	-382.1113
403.67	0
404.172	0
404.674	0
405.176	0
405.678	0
406.18	0
406.682	0
407.184	0
407.686	0
408.187	0
408.688	0
409.19	0
409.691	0
410.192	0
410.693	0
411.194	-3328.47649
411.694	-2088.14767
412.195	-1177.48825
412.696	-2856.90984
413.196	-5051.62371
413.696	-6033.39771
414.196	-4264.16215
414.696	-1577.48691
415.196	736.83542
415.696	4626.42419
416.196	4287.90001
416.695	858.23168
417.195	-1536.251
417.694	-1331.0612
418.194	-1029.12745
418.693	-1416.49363
419.192	-1385.32374
419.691	-1301.0003
420.19	-1070.5506
420.688	-679.50682
421.187	-509.35294
421.685	-29.25752
422.184	291.96975
422.682	4.01811
423.18	-455.2359
423.678	-522.89599
424.176	-690.73418
424.674	-470.33958
425.172	-194.05447
425.669	-68.99392
426.167	109.9713
426.664	-121.947
427.161	-57.96981
427.659	-171.90237
428.156	-229.86952
428.652	-162.91713
429.149	-151.92465
429.646	-34.98251
430.143	-97.96296
430.639	-35.98776
431.135	-33.99247
431.632	-30.99323
432.128	-147.99123
432.624	-199.01481
433.12	-221.98644
433.616	-158.99156
434.111	-288.02456
434.607	-211.03448
435.103	-99.00905
435.598	9.0008
436.093	7.00228
436.588	51.01716
437.083	86.03423
437.578	-11.00568
438.073	-119.07974
438.568	-36.02673
439.062	25.01305
439.557	66.04813
440.051	-4.00279
440.546	-112.0855
441.04	-83.07239
441.534	20.01948
442.028	11.01013
442.522	-35.03296
443.015	3.00239
443.509	-5.00512
444.002	-55.05767
444.496	-48.04188
444.989	-73.07992
445.482	-17.01882
445.975	-98.09404
446.468	22.01878
446.961	-90.08187
447.454	-41.04112
447.947	-131.145
448.439	-33.03832
448.931	-127.13264
449.424	-67.08561
449.916	-54.0648
450.408	-116.12526
450.9	-54.06461
451.392	-127.16836
451.884	-39.04465
452.375	-193.25725
452.867	-58.06768
453.358	-110.12712
453.849	-57.05972
454.341	-142.16942
454.832	-87.09555
455.323	-217.30028
455.814	-150.19135
456.304	-133.17054
456.795	-147.18875
457.285	-47.05798
457.776	-37.04783
458.266	-165.22876
458.756	-133.19012
459.247	-170.23912
459.737	-151.21273
460.226	-139.18254
460.716	-122.17533
461.206	-119.17472
461.695	-130.20592
462.185	-157.23222
462.674	-74.10475
463.163	-92.1252
463.653	-122.15703
464.142	-202.31815
464.63	-144.23179
465.119	-142.21138
465.608	-173.26106
466.096	-80.11187
466.585	-100.1533
467.073	-56.08927
467.561	-92.1496
468.05	-98.15425
468.538	-133.22781
469.026	-111.1837
469.513	-103.14566
470.001	-124.19382
470.489	-126.20812
470.976	-108.17502
471.463	-82.14601
471.951	-92.16696
472.438	-162.27622
472.925	-104.17369
473.412	-74.13368
473.899	-90.15105
474.385	-97.17725
474.872	-166.28961
475.359	-117.21423
475.845	-90.13601
476.331	-45.07245
476.817	-95.17702
477.303	-124.22045
477.789	-102.18908
478.275	-133.25671
478.761	-99.18567
479.247	-59.10171
479.732	-153.30085
480.218	-86.17704
480.703	-127.25173
481.188	-119.20055
481.673	-131.23901
482.158	-129.21408
482.643	-57.11684
483.128	-179.33074
483.612	-111.20951
484.097	-109.21878
484.581	-83.15689
485.066	-161.32345
485.55	-152.27276
486.034	-168.29977
486.518	-176.34289
487.002	-195.39971
487.486	-134.27225
487.969	-186.38308
488.453	-151.32338
488.936	-131.24678
489.42	-100.18481
489.903	-99.21128
490.386	-559.87294
490.869	-105.19342
491.352	-96.2011
491.835	-153.27138
492.318	-201.39262
492.8	-128.22568
493.283	-141.30849
493.765	-210.45216
494.247	-149.30445
494.73	-153.29333
495.212	-115.24245
495.694	-164.3329
496.175	-240.50074
496.657	-145.30139
497.139	-62.09268
497.62	-235.4926
498.102	-192.42068
498.583	-126.27736
499.064	-255.50851
499.545	-120.23935
500.026	-145.28512
500.507	-194.40171
500.988	-164.36237
501.469	-192.42796
501.949	-170.37594
502.43	-209.44275
502.91	-188.34589
503.39	-129.28772
503.87	-181.37907
504.35	-148.31291
504.83	-181.35439
505.31	-169.36584
505.79	-195.41869
506.269	-171.35987
506.749	-190.38955
507.228	-205.4337
507.707	-139.27435
508.187	-139.29858
508.666	-212.47097
509.145	-179.37604
509.623	-175.3704
510.102	-138.30007
510.581	-111.24059
511.059	-199.45154
511.538	-170.39956
512.016	-150.32353
512.494	-124.27101
512.972	-136.2922
513.45	-204.42715
513.928	-155.33897
514.406	-244.53551
514.884	-151.35082
515.361	-142.30693
515.839	-177.36643
516.316	-132.28629
516.793	-126.28898
517.27	-129.28402
517.747	-166.38727
518.224	-146.30746
518.701	-172.35025
519.178	-185.41756
519.654	-128.27738
520.131	-142.31913
520.607	-172.3921
521.083	-168.35099
521.56	-165.35657
522.036	-121.24152
522.512	-131.29544
522.987	-212.46293
523.463	-189.41367
523.939	-133.29811
524.414	-113.23792
524.89	-157.34189
525.365	-190.39748
525.84	-226.4958
526.315	-152.33501
526.79	-130.26786
527.265	-140.29236
527.74	-171.3836
528.215	-153.33134
528.689	-132.26709
529.164	-131.26123
529.638	-126.29696
530.112	-169.36646
530.587	-163.31945
531.061	-156.34512
531.534	-150.33573
532.008	-136.29937
532.482	-120.25293
532.956	-220.5211
533.429	-149.33301
533.903	-107.21715
534.376	-116.23503
534.849	-141.30157
535.322	-146.31814
535.795	-146.3296
536.268	-150.33268
536.741	-168.37508
537.213	-105.22273
537.686	-155.34813
538.158	-167.34557
538.631	-108.24173
539.103	-146.30137
539.575	-84.16038
540.047	-77.15441
540.519	-73.15944
540.991	-66.14754
541.463	-116.25856
541.934	-81.16919
542.406	-86.18684
542.877	-89.18367
543.348	-36.07885
543.82	-56.12519
544.291	-38.08059
544.762	-31.06616
545.233	-34.07682
545.703	-45.0897
546.174	-33.0692
546.645	-87.18785
547.115	-6.01291
547.585	61.12357
548.056	-38.08168
548.526	46.09465
548.996	106.22175
549.466	96.2051
549.935	63.12943
550.405	81.15311
550.875	113.22995
551.344	127.26198
551.814	233.44757
552.283	246.44532
552.752	215.41638
553.221	229.40936
553.69	236.43333
554.159	310.62006
554.628	352.62716
555.096	305.63395
555.565	420.73944
556.033	450.84548
556.502	457.88635
556.97	522.90469
557.438	577.06791
557.906	619.14352
558.374	627.11271
558.842	725.31706
559.31	819.34935
559.777	795.43719
560.245	981.65301
560.712	1049.70402
561.18	1101.64959
561.647	1205.78485
562.114	1291.90862
562.581	1397.24268
563.048	1525.15845
563.514	1573.37685
563.981	1707.26126
564.448	1891.28382
564.914	2021.48901
565.381	2103.43455
565.847	2317.61013
566.313	2439.60373
566.779	2632.46621
567.245	2731.63857
567.711	2920.74193
568.176	3041.37243
568.642	3163.95571
569.108	3472.76206
569.573	3722.44124
570.038	3846.74578
570.504	3936.00316
570.969	4299.53248
571.434	4414.6123
571.899	4625.99167
572.363	4846.6028
572.828	5040.54659
573.293	5250.42916
573.757	5385.36834
574.222	5617.08291
574.686	5746.05237
575.15	5902.33131
575.614	6031.1036
576.078	6126.1959
576.542	6211.03989
577.006	6396.96149
577.469	6390.48332
577.933	6383.91383
578.396	6571.22583
578.86	6405.19105
579.323	6355.23646
579.786	6403.78071
580.249	6253.02208
580.712	6298.41796
581.175	6260.46572
581.637	6344.11254
582.1	6178.90557
582.563	6095.82597
583.025	5875.4807
583.487	5790.59229
583.95	5730.87289
584.412	5802.78356
584.874	5645.59502
585.336	5509.5108
585.797	5415.05228
586.259	5279.62859
586.721	4993.7164
587.182	5001.7472
587.643	4843.63359
588.105	4789.90682
588.566	4626.3499
589.027	4498.15217
589.488	4370.92486
589.949	4286.34652
590.41	4140.2135
590.87	4077.1144
591.331	3999.84483
591.791	3782.28458
592.252	3586.30479
592.712	3655.59963
593.172	3518.27281
593.632	3426.19663
594.092	3325.30374
594.552	3129.19099
595.011	3037.50674
595.471	2938.42335
595.931	2899.40782
596.39	2789.76235
596.849	2674.63524
597.308	2615.33395
597.768	2534.05551
598.227	2532.80016
598.685	2496.59186
599.144	2390.63415
599.603	2379.69552
600.062	2268.16549
600.52	2202.38552
600.978	2136.62912
601.437	2183.50714
601.895	2092.18105
602.353	2065.35058
602.811	2083.34738
603.269	1960.58641
603.727	1916.56189
604.184	1892.31502
604.642	1889.63301
605.099	1883.42772
605.557	1925.64046
606.014	1875.15225
606.471	1702.55375
606.928	1744.06359
607.385	1729.46541
607.842	1801.3211
608.299	1832.41524
608.755	1762.48142
609.212	1799.21753
609.668	1706.14214
610.125	1818.53934
610.581	1843.5289
611.037	1802.36856
611.493	1790.47752
611.949	1677.44056
612.405	1696.88756
612.861	1673.39912
613.316	1677.42571
613.772	1712.32863
614.227	1640.36346
614.683	1638.08477
615.138	1557.27751
615.593	1554.25857
616.048	1598.26251
616.503	1589.49083
616.958	1482.44105
617.412	1459.24725
617.867	1463.04629
618.321	1517.93195
618.776	1464.07557
619.23	1396.18008
619.684	1468.14911
620.138	1454.22579
620.592	1283.17239
621.046	1350.1612
621.5	1285.18163
621.954	1279.99181
622.407	1309.99176
622.861	1229.12748
623.314	1175.91501
623.768	1085.85959
624.221	1145.57387
624.674	1053.80168
625.127	1065.85439
625.58	1121.87859
626.033	1048.72669
626.485	1023.85323
626.938	962.76766
627.39	1000.7734
627.843	987.74893
628.295	1001.7683
628.747	955.76486
629.199	867.55808
629.651	842.52196
630.103	887.60307
630.555	860.43478
631.006	887.65528
631.458	851.61306
631.909	870.60468
632.361	878.64048
632.812	855.5868
633.263	888.51653
633.714	926.55793
634.165	849.67971
634.616	813.5874
635.067	872.55948
635.518	826.62005
635.968	898.42399
636.419	823.45842
636.869	827.62164
637.319	858.61489
637.769	851.54569
638.219	971.85791
638.669	879.70997
639.119	847.70934
639.569	856.70029
640.019	941.75106
640.468	933.67098
640.918	916.80104
641.367	939.69037
641.816	945.69426
642.265	963.78765
642.714	939.7551
643.163	944.75101
643.612	899.76384
644.061	984.63609
644.51	1003.81323
644.958	964.68907
645.406	952.84648
645.855	990.96313
646.303	1006.88381
646.751	1005.81685
647.199	1047.87665
647.647	1009.85004
648.095	1019.85625
648.543	1089.71302
648.99	1035.97295
649.438	1048.96261
649.885	1032.05733
650.333	1003.51371
650.78	1014.97251
651.227	987.94945
651.674	1011.84072
652.121	1044.03715
652.568	1002.97035
653.015	1058.15981
653.461	1057.00189
653.908	1045.94306
654.354	1031.98238
654.801	960.83374
655.247	1035.80389
655.693	977.10595
656.139	958.88372
656.585	990.93487
657.031	919.76165
657.477	981.69873
657.922	982.83247
658.368	986.99877
658.813	1002.89382
659.259	968.90519
659.704	979.85793
660.149	961.83344
660.594	1012.95092
661.039	969.7997
661.484	1018.98124
661.929	935.80873
662.373	962.01218
662.818	953.96385
663.262	901.81428
663.707	984.0646
664.151	1025.04476
664.595	975.93739
665.039	1033.10443
665.483	1022.14161
665.927	1069.02664
666.371	1018.90633
666.814	1096.1006
667.258	1005.93972
667.701	1100.87485
668.145	1085.19259
668.588	1138.23248
669.031	1075.02817
669.474	1075.09333
669.917	1121.96042
670.36	1097.20177
670.803	1167.23541
671.245	1152.8831
671.688	1164.26116
672.13	1094.9506
672.573	1166.37846
673.015	1160.21293
673.457	1117.91769
673.899	1169.25212
674.341	1206.29096
674.783	1188.24579
675.225	1239.38844
675.666	1133.17429
676.108	1239.05698
676.549	1225.27049
676.991	1274.1345
677.432	1278.8841
677.873	1200.17514
678.314	1270.35009
678.755	1238.36098
679.196	1220.17138
679.637	1275.4288
680.078	1210.22322
680.518	1350.38531
680.959	1254.34105
681.399	1241.42301
681.839	1292.43821
682.28	1275.45332
682.72	1273.23649
683.16	1273.47978
683.6	1349.32153
684.039	1305.02807
684.479	1228.37562
684.919	1256.23113
685.358	1327.6192
685.798	1347.75117
686.237	1337.48243
686.676	1420.45535
687.115	1410.47771
687.554	1378.47267
687.993	1354.23988
688.432	1440.42351
688.871	1391.34748
689.309	1451.57453
689.748	1419.14948
690.186	1494.6288
690.625	1465.52894
691.063	1461.60033
691.501	1513.76627
691.939	1523.80542
692.377	1559.76713
692.815	1498.63043
693.253	1637.80111
693.69	1546.40545
694.128	1521.69935
694.565	1585.71728
695.003	1565.92296
695.44	1591.66867
695.877	1568.62202
696.314	1628.40948
696.751	1674.64722
697.188	1654.64642
697.625	1677.67531
698.061	1608.75915
698.498	1698.88555
698.934	1685.85189
699.371	1691.76619
699.807	1739.8314
700.243	1677.83825
700.679	1731.66489
701.115	1791.86398
701.551	1717.79832
701.987	1777.67653
702.422	1819.91089
702.858	1844.94559
703.294	1877.77291
703.729	1816.03459
704.164	1838.98357
704.599	1796.65061
705.035	1795.66262
705.47	1806.99588
705.904	1884.88274
706.339	1906.90337
706.774	1853.88327
707.209	1817.79255
707.643	1893.01812
708.078	1917.09451
708.512	1854.15365
708.946	1937.04608
709.38	1907.97353
709.814	1978.87335
710.248	1890.07996
710.682	1900.98023
711.116	1894.98082
711.549	1930.37254
711.983	1932.88372
712.416	2031.05051
712.85	1949.2269
713.283	1935.98686
713.716	1952.26948
714.149	1912.00537
714.582	1904.75217
715.015	1929.23487
715.448	1879.21936
715.881	1882.64533
716.313	1903.92154
716.746	1887.92681
717.178	1840.97862
717.61	1914.27728
718.043	1856.14875
718.475	1836.01071
718.907	1835.2028
719.339	1791.70428
719.77	1739.83296
720.202	1796.15447
720.634	1743.93984
721.065	1726.8263
721.497	1722.95461
721.928	1670.90703
722.359	1696.85765
722.79	1637.77744
723.221	1708.04984
723.652	1654.0969
724.083	1591.52539
724.514	1575.57627
724.945	1613.68983
725.375	1580.60801
725.806	1568.86938
726.236	1511.89891
726.666	1469.56923
727.096	1520.74938
727.526	1428.75822
727.956	1432.3957
728.386	1456.68753
728.816	1430.74641
729.246	1410.58304
729.675	1371.57707
730.105	1340.54253
730.534	1408.46265
730.964	1334.62266
731.393	1350.58871
731.822	1315.62798
732.251	1324.61872
732.68	1313.37655
733.109	1274.45664
733.537	1243.35403
733.966	1241.43438
734.395	1221.20162
734.823	1247.17356
735.251	1179.26062
735.68	1256.48516
736.108	1148.35434
736.536	1201.23467
736.964	1088.03829
737.392	1127.29105
737.82	1185.2602
738.247	1033.03701
738.675	1118.15724
739.102	996.07791
739.53	1035.18932
739.957	1034.21518
740.384	1053.14234
740.811	989.10462
741.238	968.98007
741.665	930.80718
742.092	1013.00028
742.519	907.90908
742.945	920.86656
743.372	930.95024
743.798	860.91169
744.225	902.81671
744.651	879.89298
745.077	868.86011
745.503	893.8574
745.929	850.75027
746.355	904.91982
746.781	802.73115
747.207	820.65441
747.632	752.60792
748.058	805.74984
748.483	810.60656
748.908	725.59452
749.334	752.62385
749.759	773.58694
750.184	721.51333
750.609	727.57952
751.033	768.58552
751.458	759.48041
751.883	678.50198
752.307	670.40401
752.732	624.40689
753.156	673.48563
753.58	674.4267
754.005	653.49239
754.429	649.36384
754.853	619.38566
755.277	590.26555
755.7	604.35898
756.124	560.27066
756.548	577.24215
756.971	571.2718
757.394	577.35916
757.818	539.27692
758.241	567.31591
758.664	517.2054
759.087	469.97045
759.51	525.2039
759.933	479.0688
760.356	473.13027
760.778	529.19611
761.201	520.16546
761.623	488.09811
762.046	490.07694
762.468	455.02018
762.89	501.14465
763.312	450.0265
763.734	447.00467
764.156	434.00425
764.578	420.90814
765	439.00237
765.421	350.84811
765.843	415.02567
766.264	431.97823
766.686	351.84206
767.107	377.86679
767.528	363.87183
767.949	349.84776
768.37	348.8153
768.791	343.79305
769.212	294.71165
769.632	300.67225
770.053	322.8144
770.473	316.73803
770.894	359.85699
771.314	331.7574
771.734	294.66016
772.154	323.79606
772.575	314.69869
772.994	236.52232
773.414	340.78034
773.834	275.66529
774.254	266.63102
774.673	290.68157
775.093	273.65348
775.512	241.57777
775.931	280.68617
776.351	232.56159
776.77	222.5299
777.189	265.61054
777.607	195.48876
778.026	251.60724
778.445	176.43341
778.864	251.62569
779.282	198.46736
779.701	210.51808
780.119	226.55693
780.537	138.34134
780.955	209.52063
781.373	199.48254
781.791	162.35944
782.209	198.44772
782.627	187.48384
783.045	190.42911
783.462	187.46921
783.88	139.35604
784.297	178.44043
784.715	115.29354
785.132	163.3893
785.549	142.35162
785.966	146.36324
786.383	168.40714
786.8	156.35807
787.217	147.34477
787.633	118.29262
788.05	221.51243
788.466	161.37494
788.883	151.38025
789.299	123.29433
789.715	142.34168
790.131	161.39479
790.547	163.40133
790.963	152.37266
791.379	129.32334
791.795	156.3516
792.21	114.26533
792.626	105.24838
793.041	131.32052
793.457	182.44173
793.872	134.31225
794.287	113.26813
794.702	126.30812
795.117	132.32483
795.532	121.30088
795.947	159.37757
796.362	152.35865
796.776	200.45869
797.191	124.30119
797.605	89.20866
798.02	93.22585
798.434	131.28939
798.848	135.32908
799.262	89.22035
799.676	134.3239
800.09	167.40434
800.504	119.28683
800.918	112.25811
801.331	151.39083
801.745	75.17267
802.158	102.25387
802.572	172.41025
802.985	128.30682
803.398	139.32792
803.811	168.42511
804.224	101.25042
804.637	90.21401
805.05	126.28967
805.462	115.28075
805.875	53.1378
806.288	57.13801
806.7	78.19597
807.112	105.24241
807.525	129.31539
807.937	79.19516
808.349	110.27388
808.761	119.29051
809.173	86.20811
809.584	134.3278
809.996	53.1303
810.408	61.15767
810.819	91.21351
811.231	30.07804
811.642	44.10551
812.053	107.25292
812.464	143.33565
812.875	122.30904
813.286	106.27118
813.697	172.39511
814.108	110.26709
814.519	117.2589
814.929	127.32085
815.34	78.18911
815.75	41.10473
816.16	102.25295
816.571	112.28884
816.981	125.29248
817.391	100.24035
817.801	88.21791
818.211	101.23966
818.62	82.19709
819.03	97.23672
819.44	132.34113
819.849	104.26054
820.259	86.21956
820.668	79.19401
821.077	55.13697
821.486	107.25615
821.895	87.21445
822.304	91.24016
822.713	84.19821
823.122	91.22629
823.531	52.12379
823.939	90.21853
824.348	142.34077
824.756	83.20744
825.164	115.28711
825.573	73.18305
825.981	124.30458
826.389	98.24498
826.797	73.18272
827.205	63.14487
827.612	115.28148
828.02	68.15977
828.428	63.16058
828.835	81.21262
829.243	101.23938
829.65	41.10244
830.057	101.24372
830.464	80.19454
830.871	111.26379
831.278	113.27092
831.685	81.18051
832.092	83.2027
832.499	100.21754
832.905	86.217
833.312	97.22019
833.718	116.28651
834.124	69.15778
834.531	102.25553
834.937	113.28762
835.343	117.27976
835.749	142.32711
836.155	60.1572
836.561	66.16236
836.966	90.21918
837.372	58.14781
837.777	66.16439
838.183	93.20588
838.588	66.16385
838.993	121.29165
839.399	47.1153
839.804	48.11734
840.209	49.12503
840.613	70.15571
841.018	50.12693
841.423	67.17174
841.828	61.15433
842.232	88.21711
842.637	76.17898
843.041	47.12077
843.445	77.19266
843.849	69.17064
844.253	90.21294
844.657	67.16855
845.061	66.14979
845.465	78.1879
845.869	85.19678
846.272	46.11236
846.676	103.24732
847.079	83.21022
847.483	76.18916
847.886	90.21795
848.289	65.17327
848.692	100.25151
849.095	79.18919
849.498	125.31332
849.901	72.16493
850.304	98.23267
850.707	104.26317
851.109	152.37845
851.512	60.14749
851.914	62.15616
852.316	59.14927
852.718	42.10873
853.121	49.12034
853.523	44.10322
853.925	38.09946
854.326	72.17959
854.728	81.20748
855.13	73.18778
855.531	61.14575
855.933	94.2243
856.334	57.14215
856.736	65.14551
857.137	72.16705
857.538	74.18552
857.939	35.08684
858.34	86.20858
858.741	91.23652
859.142	94.22438
859.542	65.17126
859.943	55.13677
860.343	36.0895
860.744	72.17528
861.144	77.18721
861.544	31.07489
861.945	52.13266
862.345	71.17327
862.745	42.10469
863.145	98.23259
863.544	95.23847
863.944	93.21829
864.344	71.17598
864.743	129.31598
865.143	83.21223
865.542	15.0351
865.941	68.16802
866.34	85.20263
866.74	88.23494
867.139	39.09372
867.537	75.1905
867.936	85.20356
868.335	75.19023
868.734	87.22113
869.132	111.25524
869.531	101.24234
869.929	94.21273
870.327	72.17213
870.726	161.39392
871.124	116.26807
871.522	78.19794
871.92	102.24952
872.318	95.23063
872.715	110.26969
873.113	74.17975
873.511	66.16415
873.908	18.04574
874.306	73.181
874.703	87.2165
875.1	133.33565
875.497	79.18861
875.894	40.09829
876.291	113.27442
876.688	70.18009
877.085	97.23097
877.482	49.12282
877.878	60.14432
878.275	75.18989
878.671	80.17736
879.068	89.21354
879.464	102.24441
879.86	62.14647
880.256	100.24481
880.652	72.18258
881.048	96.23615
881.444	113.26606
881.84	79.19994
882.236	95.23718
882.631	85.20751
883.027	58.14041
883.422	108.27358
883.817	46.11578
884.213	83.21193
884.608	64.15668
885.003	53.12784
885.398	88.21895
885.793	104.25875
886.188	51.12687
886.582	102.25948
886.977	125.29271
887.371	72.18155
887.766	4.01004
888.16	95.23537
888.554	84.20663
888.949	116.28808
889.343	95.23037
889.737	32.08557
890.131	72.18005
890.525	64.16339
890.918	76.19053
891.312	101.23957
891.706	69.18057
892.099	96.24249
892.492	135.28636
892.886	115.27823
893.279	108.27251
893.672	66.16767
894.065	98.24347
894.458	75.18793
894.851	104.25252
895.244	38.09732
895.637	85.20356
896.029	70.17067
896.422	76.18495
896.814	61.15147
897.206	34.08128
897.599	131.31945
897.991	78.18776
898.383	33.07831
898.775	57.1286
899.167	25.05864
899.559	115.28794
899.951	75.17611
900.342	93.23487
900.734	50.12413
901.125	57.14947
901.517	58.14225
901.908	106.25167
902.299	86.20897
902.69	56.13209
903.082	120.28699
903.473	72.1718
903.863	76.19314
904.254	71.16424
904.645	115.28284
905.036	17.04144
905.426	120.27113
905.817	60.14705
906.207	30.0718
906.597	67.15628
906.987	108.27727
907.378	66.16654
907.768	63.16627
908.158	107.25829
908.547	52.13434
908.937	39.10032
909.327	71.17185
909.717	136.34021
910.106	70.16761
910.495	69.17177
910.885	78.19667
911.274	88.21855
911.663	128.32055
912.052	107.26141
912.441	62.15739
912.83	72.16467
913.219	77.20068
913.608	94.2285
913.997	50.1254
914.385	126.29684
914.774	71.1723
915.162	78.18498
915.55	111.26562
915.939	52.13126
916.327	85.21091
916.715	48.12241
917.103	121.29407
917.491	116.28366
917.878	66.16188
918.266	98.25212
918.654	50.12778
919.041	66.17187
919.429	60.14141
919.816	138.34447
920.203	40.09723
920.591	89.21922
920.978	102.24748
921.365	85.22176
921.752	82.19439
922.139	101.21705
922.525	48.11537
922.912	83.20127
923.299	73.18073
923.685	62.16145
924.072	90.206
924.458	48.11899
924.844	58.14336
925.231	73.1692
925.617	11.02818
926.003	94.23846
926.389	54.13616
926.774	90.22653
927.16	98.24134
927.546	78.19815
927.931	94.23277
928.317	87.19901
928.702	140.32559
929.088	39.09247
929.473	56.14236
929.858	23.0559
930.243	53.12717
930.628	96.23161
931.013	45.11166
931.398	128.28991
931.783	94.2457
932.167	78.18975
932.552	59.14762
932.937	138.33708
933.321	52.13046
933.705	78.19569
934.09	114.28487
934.474	156.36308
934.858	52.13485
935.242	54.12509
935.626	65.16597
936.009	40.10658
936.393	81.20501
936.777	81.20632
937.16	59.1533
937.544	81.18975
937.927	55.13945
938.311	102.24664
938.694	109.28544
939.077	72.17167
939.46	117.28382
939.843	109.22454
940.226	94.2393
940.609	11.02546
940.991	51.12981
941.374	70.17048
941.757	98.23974
942.139	48.10788
942.522	70.16485
942.904	75.17947
943.286	101.25435
943.668	87.22394
944.05	73.17908
944.432	68.16728
944.814	78.19117
945.196	42.10252
945.578	22.05258
945.959	75.17494
946.341	122.29556
946.722	99.23019
947.104	120.28304
947.485	77.17826
947.866	110.27418
948.247	56.14115
948.628	80.1941
949.009	75.19124
949.39	95.2346
949.771	98.22584
950.152	73.17841
950.532	9.02231
950.913	80.19191
951.293	56.15113
951.674	109.26073
952.054	47.11653
952.434	41.10195
952.814	73.17295
953.194	78.20318
953.574	47.11585
953.954	78.18426
954.334	48.11969
954.714	24.05878
955.093	88.21487
955.473	76.18916
955.853	40.10373
956.232	92.25047
956.611	85.20255
956.99	55.13811
957.37	94.23769
957.749	100.23633
958.128	102.25461
958.506	60.15538
958.885	100.25016
959.264	90.21894
959.643	79.17875
960.021	62.1533
960.4	67.15135
960.778	137.33208
961.156	53.1328
961.535	63.14649
961.913	81.18842
962.291	59.15113
962.669	67.16921
963.047	86.21809
963.424	53.13519
963.802	70.1715
964.18	110.27537
964.557	113.25703
964.935	99.23237
965.312	36.09397
965.69	107.2652
966.067	119.28607
966.444	113.27525
966.821	59.15187
967.198	93.22382
967.575	80.19563
967.952	95.22194
968.329	115.27645
968.705	58.12419
969.082	81.20661
969.458	17.04104
969.835	97.23407
970.211	50.12832
970.587	55.13682
970.963	78.19913
971.339	52.13573
971.715	28.0702
972.091	86.21038
972.467	93.23016
972.843	38.09451
973.219	133.31437
973.594	51.13337
973.97	76.18003
974.345	88.20909
974.721	97.23283
975.096	78.18776
975.471	153.35575
975.846	71.1699
976.221	60.1521
976.596	43.10321
976.971	58.14299
977.346	130.29791
977.72	44.11221
978.095	75.19299
978.469	86.20387
978.844	133.3294
979.218	46.11035
979.593	89.21167
979.967	82.19858
980.341	102.23243
980.715	101.25216
981.089	90.22368
981.463	64.14655
981.837	58.14152
982.21	88.20328
982.584	41.0992
982.957	22.05521
983.331	97.22724
983.704	76.18585
984.078	63.15489
984.451	108.26694
984.824	54.13141
985.197	66.15983
985.57	108.26802
985.943	95.2327
986.316	116.28155
986.688	83.19892
987.061	81.18871
987.434	60.15608
987.806	61.14764
988.179	73.17148
988.551	62.15695
988.923	57.14019
989.295	102.25248
989.667	30.07194
990.039	61.15042
990.411	76.17403
990.783	74.16958
991.155	-30.07317
991.527	112.27266
991.898	38.09489
992.27	66.16277
992.641	95.2364
993.012	62.14556
993.384	77.18271
993.755	95.24027
994.126	73.17482
994.497	42.10324
994.868	78.17818
995.239	73.17615
995.61	80.2002
995.98	69.167
996.351	79.19459
996.722	58.1343
997.092	87.20453
997.462	46.10753
997.833	109.25545
998.203	87.20946
998.573	64.15894
998.943	44.1033
999.313	43.10317
999.683	96.22837
1000.053	63.14458
1000.423	66.15989
1000.792	90.23162
1001.162	60.14738
1001.531	74.18163
1001.901	65.16158
1002.27	107.23638
1002.639	112.28301
1003.009	60.1424
1003.378	67.17078
1003.747	97.22706
1004.116	34.08159
1004.485	101.23901
1004.853	87.21894
1005.222	99.24743
1005.591	88.2074
1005.959	29.06562
1006.328	50.11251
1006.696	57.13729
1007.064	89.22228
1007.433	104.25734
1007.801	101.24556
1008.169	86.21576
1008.537	86.18899
1008.905	49.11416
1009.273	76.18682
1009.64	56.13342
1010.008	90.21286
1010.375	124.2969
1010.743	101.23085
1011.11	46.10892
1011.478	86.2114
1011.845	93.21684
1012.212	45.10194
1012.579	72.176
1012.946	131.30688
1013.313	111.26105
1013.68	92.20498
1014.047	40.09548
1014.414	26.06168
1014.78	47.11683
1015.147	88.21127
1015.513	31.07495
1015.88	108.27329
1016.246	102.24934
1016.612	124.2796
1016.978	69.16845
1017.344	76.18689
1017.71	112.2699
1018.076	63.14816
1018.442	92.23487
1018.808	77.19147
1019.174	47.11794
1019.539	158.35582
1019.905	61.14352
1020.27	40.09887
1020.636	117.27687
1021.001	80.19038
1021.366	71.16977
1021.731	66.16921
1022.096	10.0254
1022.461	51.12064
1022.826	102.23993
1023.191	61.15969
1023.556	53.12411
1023.92	74.18109
1024.285	63.15334
1024.649	56.13704
1025.014	107.26219
1025.378	49.12318
1025.742	89.21938
1026.107	80.1798
1026.471	85.19702
1026.835	66.16307
1027.199	41.09882
1027.562	73.16887
1027.926	68.16567
1028.29	71.17893
1028.654	82.18739
1029.017	113.27442
1029.381	78.18526
1029.744	74.18786
1030.107	79.18579
1030.471	74.1763
1030.834	73.16524
1031.197	106.25254
1031.56	52.1226
1031.923	70.18028
1032.286	71.166
1032.648	88.20885
1033.011	3.00695
1033.374	133.30742
1033.736	62.16261
1034.099	64.15552
1034.461	74.18605
1034.823	48.11951
1035.185	60.15069
1035.548	54.13127
1035.91	91.21618
1036.272	74.16754
1036.634	66.16092
1036.995	49.11515
1037.357	39.09503
1037.719	60.14558
1038.08	114.26722
1038.442	37.088
1038.803	98.23303
1039.165	56.1411
1039.526	65.15655
1039.887	67.15972
1040.248	48.11825
1040.609	91.22307
1040.97	104.25148
1041.331	85.21375
1041.692	17.03992
1042.053	102.22971
1042.413	106.24418
1042.774	81.19575
1043.134	77.18229
1043.495	62.15544
1043.855	52.12602
1044.215	73.18034
1044.576	45.10764
1044.936	98.22242
1045.296	79.19602
1045.656	101.24537
1046.016	71.17062
1046.375	35.0851
1046.735	85.19123
1047.095	83.19292
1047.454	108.22584
1047.814	98.2333
1048.173	116.2735
1048.533	56.12808
1048.892	42.10091
1049.251	110.27298
1049.61	70.17162
1049.969	66.15501
1050.328	68.14679
1050.687	70.16958
1051.046	78.18882
1051.405	38.09468
1051.763	6.01391
1052.122	96.23728
1052.48	55.13467
1052.839	19.04495
1053.197	89.20776
1053.555	181.40152
1053.914	73.17768
1054.272	101.24169
1054.63	86.20874
1054.988	19.04538
1055.345	67.14367
1055.703	68.163
1056.061	79.20207
1056.419	62.16006
1056.776	90.21648
1057.134	55.12713
1057.491	81.20157
1057.848	85.21013
1058.206	90.20989
1058.563	43.09487
1058.92	76.17417
1059.277	101.24666
1059.634	88.20539
1059.991	104.24644
1060.348	97.21697
1060.704	16.03835
1061.061	153.34801
1061.418	53.12838
1061.774	71.17449
1062.131	42.11113
1062.487	67.15604
1062.843	74.18358
1063.199	79.1953
1063.555	80.18414
1063.911	96.24033
1064.267	120.24626
1064.623	57.13817
1064.979	110.25744
1065.335	109.25744
1065.691	88.20926
1066.046	88.19184
1066.402	80.18053
1066.757	93.23277
1067.112	100.24299
1067.468	66.15525
1067.823	106.25196
1068.178	110.26287
1068.533	86.20693
1068.888	101.23883
1069.243	56.13796
1069.598	93.22399
1069.952	22.04979
1070.307	33.08188
1070.662	45.10686
1071.016	50.11196
1071.371	82.1852
1071.725	88.20885
1072.079	73.17469
1072.434	41.09972
1072.788	68.16126
1073.142	94.22918
1073.496	46.10913
1073.85	93.21368
1074.203	82.19761
1074.557	98.25833
1074.911	122.28697
1075.265	68.1574
1075.618	84.20365
1075.971	95.22386
1076.325	51.12949
1076.678	47.10747
1077.031	50.11306
1077.385	81.17714
1077.738	81.18156
1078.091	63.14278
1078.444	114.26114
1078.796	46.11286
1079.149	72.17823
1079.502	44.10398
1079.855	80.18532
1080.207	87.21271
1080.56	78.20046
1080.912	102.24571
1081.264	46.11077
1081.617	81.19612
1081.969	51.12853
1082.321	85.20604
1082.673	67.15228
1083.025	48.11383
1083.377	-146.32637
1083.728	122.28037
1084.08	89.22043
1084.432	70.16805
1084.783	97.22501
1085.135	61.15246
1085.486	67.15265
1085.838	81.19819
1086.189	69.16675
1086.54	130.30543
1086.891	39.09874
1087.242	51.12404
1087.593	108.25987
1087.944	118.26313
1088.295	103.23144
1088.646	57.13786
1088.996	48.11559
1089.347	67.16375
1089.698	57.13442
1090.048	80.20653
1090.398	105.24067
1090.749	68.16201
1091.099	70.17524
1091.449	69.17114
1091.799	65.16216
1092.149	35.08551
1092.499	77.18672
1092.849	82.20706
1093.199	128.31603
1093.548	90.21442
1093.898	92.22823
1094.248	104.26448
1094.597	10.02568
1094.947	70.18595
1095.296	79.19387
1095.645	109.28037
1095.994	76.18148
1096.343	69.17289
1096.692	35.09209
1097.041	37.1003
1097.39	72.17972
1097.739	77.19903
1098.088	89.2367
1098.437	-9.02386
1098.785	75.20119
1099.134	101.26566
1099.482	62.17004
1099.83	73.19091
1100.179	74.19204
1100.527	117.30712
1100.875	45.11896
1101.223	51.13528
1101.571	58.15993
1101.919	16.04201
1102.267	61.17129
1102.615	1.00322
1102.962	16.05148
1103.31	2.00643
1103.658	16.0515
