Data from N2 R11 sample 3_Subt2__2__16-06-13-531.txt Node

Date: Mon Sep 01 16:06:13 PDT 2025
User: uwsun
Spectrometer: HDX01956
Trigger mode: 0
Integration Time (sec): 5.000000E-1
Scans to average: 1
Nonlinearity correction enabled: true
Boxcar width: 0
Storing dark spectrum: false
XAxis mode: Wavelengths
Number of Pixels in Spectrum: 2068
>>>>>Begin Spectral Data<<<<<
194.03	-41.1158
194.578	-39.12392
195.127	-43.13473
195.676	-39.1225
196.225	33.08706
196.773	3.00822
197.321	-19.05115
197.87	-6.01486
198.418	-31.07616
198.966	-49.12149
199.513	-55.13016
200.061	-74.17867
200.609	6.01509
201.156	-95.19887
201.704	-36.0858
202.251	-91.23072
202.798	-38.09365
203.345	7.01637
203.892	-65.15614
204.438	-10.02264
204.985	-55.12313
205.532	-24.05967
206.078	-32.07451
206.624	-76.17787
207.17	7.01532
207.716	-19.04346
208.262	-10.01869
208.808	-75.17494
209.354	-64.14802
209.899	-9.02161
210.445	-67.158
210.99	-35.07961
211.535	28.06182
212.08	-46.10198
212.625	-49.1169
213.17	-13.03119
213.715	-93.19693
214.259	-62.13825
214.804	-29.0682
215.348	-32.06967
215.892	-21.04777
216.436	30.06551
216.98	-13.02737
217.524	-48.10805
218.068	23.05456
218.612	-16.03828
219.155	31.06848
219.698	-47.10695
220.242	16.0378
220.785	8.0177
221.328	-29.06892
221.871	16.0385
222.414	-1.00237
222.956	-84.19412
223.499	-2.00427
224.041	7.01553
224.583	51.10416
225.126	-57.1208
225.668	4.0092
226.21	-35.08385
226.751	-20.04147
227.293	2.00435
227.835	-57.13311
228.376	24.05254
228.918	11.02635
229.459	-78.18605
230	-35.07945
230.541	16.0349
231.082	-11.02528
231.622	-10.02193
232.163	-21.04825
232.704	-1.00234
233.244	-39.09211
233.784	31.0718
234.324	-64.13377
234.864	-36.07778
235.404	7.01577
235.944	-10.02253
236.484	15.03539
237.023	-3.00669
237.563	-43.09452
238.102	-21.04709
238.641	22.05233
239.18	-71.15823
239.719	-2.00474
240.258	-27.05775
240.797	-26.05884
241.335	21.04839
241.874	14.02526
242.412	-21.04769
242.95	-105.24019
243.488	-54.11757
244.026	-69.1516
244.564	-4.00777
245.102	-33.07012
245.64	-22.05034
246.177	-47.10026
246.715	26.0586
247.252	-13.02825
247.789	103.17946
248.326	-40.09045
248.863	-4.00823
249.4	5.01068
249.936	-15.02908
250.473	-63.13941
251.009	-9.01932
251.546	-37.07704
252.082	12.0246
252.618	-25.05236
253.154	-13.02926
253.69	20.04201
254.226	-31.06966
254.761	-24.05072
255.297	-36.07421
255.832	-28.06226
256.367	11.02418
256.903	-26.05362
257.438	24.05256
257.972	-34.07132
258.507	-63.13585
259.042	-33.06743
259.576	-72.14595
260.111	-21.04563
260.645	-9.01826
261.179	-44.09637
261.713	-40.08353
262.247	-52.11317
262.781	-23.04499
263.315	-44.10095
263.849	-49.11497
264.382	-18.03877
264.915	-74.1631
265.449	-86.19621
265.982	22.04643
266.515	-39.08896
267.048	-32.06323
267.58	8.0163
268.113	-56.11336
268.646	-22.0505
269.178	-45.09374
269.71	-23.04689
270.243	17.03593
270.775	-76.18169
271.307	20.04464
271.838	38.08354
272.37	-19.04343
272.902	25.05245
273.433	-36.07334
273.965	-49.11141
274.496	-25.05799
275.027	-33.0761
275.558	-22.04944
276.089	-133.30729
276.62	-76.18197
277.15	-5.01144
277.681	-19.03836
278.211	-5.01136
278.741	-27.05482
279.272	-36.07601
279.802	-33.07652
280.332	-38.08284
280.861	-54.12091
281.391	-39.08172
281.921	-42.09412
282.45	-9.02077
282.98	-19.04574
283.509	-31.06432
284.038	-72.15263
284.567	-12.02587
285.096	-6.01331
285.625	-23.04791
286.153	-71.15403
286.682	-80.16966
287.21	-44.09738
287.739	-42.09125
288.267	-31.06866
288.795	18.04323
289.323	-57.12202
289.851	-22.04713
290.378	-43.0885
290.906	-89.19809
291.433	-39.08903
291.961	-39.08041
292.488	-76.17431
293.015	-70.15066
293.542	-60.1386
294.069	-35.0781
294.596	8.01793
295.122	-49.10653
295.649	-45.09049
296.175	40.08698
296.702	-80.17832
297.228	0
297.754	-71.14534
298.28	-89.18433
298.806	-74.16173
299.332	-26.05145
299.857	-40.08123
300.383	-43.09888
300.908	-109.23979
301.433	-63.13789
301.958	-8.0166
302.483	-77.17323
303.008	-17.03771
303.533	-40.09405
304.058	-45.09566
304.582	-87.18471
305.107	-119.28106
305.631	-42.08603
306.155	-94.19648
306.679	-82.17117
307.203	-51.10511
307.727	-56.1184
308.251	-25.05474
308.775	-144.30672
309.298	-124.26527
309.822	-75.1688
310.345	-56.11731
310.868	-81.17159
311.391	-44.09572
311.914	-97.21545
312.437	-63.12715
312.96	-45.09249
313.482	-106.22195
314.005	-84.18568
314.527	-160.37459
315.049	-50.1108
315.571	-132.25631
316.093	-73.15742
316.615	-134.28356
317.137	-52.09707
317.659	-22.04604
318.18	-87.18293
318.702	-61.12153
319.223	-78.13666
319.744	-100.19213
320.265	-146.3053
320.786	-129.27316
321.307	-125.267
321.828	-79.15102
322.348	-110.21961
322.869	-106.20995
323.389	-75.10009
323.909	-71.13605
324.43	-69.14035
324.95	-137.26265
325.47	-144.29618
325.989	-121.23602
326.509	-149.26924
327.029	-124.22768
327.548	-170.3134
328.067	-154.3036
328.587	-94.1909
329.106	-117.21423
329.625	-90.19512
330.144	-134.2479
330.662	-177.32983
331.181	-133.2482
331.7	-127.23583
332.218	-142.24107
332.736	-142.2623
333.255	-183.33643
333.773	-183.34169
334.291	-144.28442
334.808	-164.28099
335.326	-156.27015
335.844	-197.3487
336.361	-232.45414
336.879	-223.39514
337.396	-209.38192
337.913	-195.33455
338.43	-206.34368
338.947	-204.36137
339.464	-226.35183
339.981	-223.38794
340.497	-196.35734
341.014	-201.35652
341.53	-225.36249
342.046	-242.43093
342.562	-178.31992
343.078	-230.38583
343.594	-223.3787
344.11	-179.2969
344.626	-191.33755
345.141	-209.32603
345.657	-171.26456
346.172	-257.43149
346.687	-215.33245
347.202	-267.40391
347.717	-235.37947
348.232	-245.41854
348.747	-248.37752
349.261	-285.39748
349.776	-249.38459
350.29	-325.53197
350.805	-229.37502
351.319	-240.35968
351.833	-330.47792
352.347	-334.51031
352.861	-269.39403
353.374	-223.32181
353.888	-296.45841
354.401	-296.42386
354.915	-320.43274
355.428	-293.4539
355.941	-328.46558
356.454	-226.30255
356.967	-339.49601
357.48	-295.40826
357.993	-315.47655
358.505	-395.59514
359.018	-314.46125
359.53	-336.47724
360.042	-260.32439
360.554	-347.50021
361.066	-344.48985
361.578	-313.37698
362.09	-358.49439
362.602	-337.40532
363.113	-335.43029
363.625	-379.46683
364.136	-314.36574
364.647	-422.51894
365.158	-378.47407
365.669	-360.46608
366.18	-345.43037
366.691	-365.41115
367.201	-390.49257
367.712	-362.41011
368.222	-386.43967
368.733	-427.43877
369.243	-434.45205
369.753	-438.49295
370.263	-415.47904
370.773	-443.53531
371.282	-428.4655
371.792	-555.54591
372.301	-530.56947
372.811	-526.63742
373.32	-549.42835
373.829	-613.57304
374.338	-498.37665
374.847	-660.54023
375.356	-593.46811
375.865	-647.35626
376.373	-591.34148
376.882	-574.43446
377.39	-676.44346
377.898	-787.46116
378.407	-787.30837
378.915	-734.20615
379.423	-742.23536
379.93	-765.15905
380.438	-991.23145
380.946	-937.08824
381.453	-1120.08499
381.96	-1142.94577
382.468	-1310.77806
382.975	-1164.76116
383.482	-1203.62469
383.989	-1300.6998
384.495	-1339.49423
385.002	-1511.27335
385.509	-1561.25848
386.015	-1657.11683
386.521	-1747.07845
387.028	-1795.05774
387.534	-1864.06539
388.04	-1740.11248
388.546	-2166.07171
389.051	-2520.17094
389.557	-2431.53925
390.063	-2149.80397
390.568	-2485.08456
391.073	-2789.82334
391.578	-2725.15352
392.084	-3085.35832
392.589	-3501.3836
393.093	-4058.11399
393.598	-3946.5251
394.103	-4392.00519
394.607	-4662.94537
395.112	-4786.01904
395.616	-5288.14328
396.12	-5943.94798
396.624	-6865.92677
397.128	-7179.70227
397.632	-7669.80468
398.136	-8483.60958
398.639	-10539.81533
399.143	-12568.12481
399.646	-13788.92072
400.15	-15168.37401
400.653	-17826.71333
401.156	-20931.97354
401.659	-24653.2523
402.162	-21472.74236
402.664	-7575.55842
403.167	-1262.07147
403.67	0
404.172	0
404.674	0
405.176	0
405.678	0
406.18	0
406.682	0
407.184	0
407.686	0
408.187	0
408.688	0
409.19	0
409.691	0
410.192	-1878.73345
410.693	-8830.18575
411.194	-13546.82466
411.694	-11884.71744
412.195	-10490.15122
412.696	-11172.07309
413.196	-12665.698
413.696	-13476.39695
414.196	-11610.16977
414.696	-8797.97778
415.196	-6245.121
415.696	-1669.57379
416.196	-972.61615
416.695	-3436.65173
417.195	-5013.12996
417.694	-4651.4555
418.194	-4055.93074
418.693	-4457.72153
419.192	-4095.42119
419.691	-4142.58331
420.19	-3746.15069
420.688	-3370.70223
421.187	-3072.31732
421.685	-2611.42176
422.184	-1918.03065
422.682	-1842.12263
423.18	-2159.86293
423.678	-2170.08065
424.176	-2075.08508
424.674	-1883.43929
425.172	-1539.85334
425.669	-1389.51213
426.167	-1168.46654
426.664	-1196.3711
427.161	-1157.36165
427.659	-1102.42898
428.156	-1111.4138
428.652	-1105.58737
429.149	-999.62982
429.646	-901.66144
430.143	-843.80914
430.639	-822.86191
431.135	-826.98603
431.632	-800.98392
432.128	-793.10424
432.624	-885.26385
433.12	-909.13072
433.616	-774.09986
434.111	-953.28968
434.607	-838.31582
435.103	-677.18851
435.598	-659.20143
436.093	-630.35079
436.588	-587.33385
437.083	-588.38206
437.578	-583.42999
438.073	-689.62117
438.568	-543.51636
439.062	-538.3981
439.557	-500.48055
440.051	-589.55148
440.546	-591.56812
441.04	-567.61056
441.534	-548.66797
442.028	-512.58571
442.522	-519.5962
443.015	-555.57164
443.509	-483.59429
444.002	-495.61386
444.496	-452.47122
444.989	-522.6743
445.482	-538.71885
445.975	-603.70971
446.468	-531.57713
446.961	-482.51859
447.454	-493.59068
447.947	-561.72702
448.439	-499.68243
448.931	-548.67277
449.424	-514.75997
449.916	-493.68788
450.408	-557.70904
450.9	-572.81649
451.392	-577.88222
451.884	-474.63363
452.375	-538.80085
452.867	-419.55574
453.358	-547.73795
453.849	-461.56395
454.341	-535.73174
454.832	-482.61276
455.323	-503.7612
455.814	-480.68327
456.304	-495.71511
456.795	-463.66009
457.285	-387.53603
457.776	-356.51111
458.266	-487.74624
458.756	-425.66392
459.247	-460.70755
459.737	-462.71609
460.226	-449.65223
460.716	-473.75534
461.206	-464.75431
461.695	-424.72892
462.185	-455.73488
462.674	-360.55626
463.163	-372.55322
463.653	-411.58219
464.142	-448.7562
464.63	-390.67188
465.119	-392.62824
465.608	-419.67939
466.096	-385.59159
466.585	-360.59472
467.073	-361.62606
467.561	-392.69158
468.05	-364.61737
468.538	-347.62867
469.026	-342.6024
469.513	-400.61956
470.001	-397.67026
470.489	-372.65663
470.976	-346.59861
471.463	-339.64397
471.951	-302.57746
472.438	-347.6213
472.925	-374.6712
473.412	-293.55903
473.899	-337.60401
474.385	-302.58054
474.872	-308.55757
475.359	-353.68496
475.845	-318.51367
476.331	-229.38805
476.817	-281.54785
477.303	-292.54184
477.789	-314.61292
478.275	-298.59799
478.761	-283.5549
479.247	-252.45689
479.732	-289.58649
480.218	-280.60157
480.703	-262.53571
481.188	-294.5192
481.673	-310.59132
482.158	-364.64351
482.643	-261.55966
483.128	-364.70377
483.612	-298.58832
484.097	-266.55326
484.581	-241.47321
485.066	-286.59115
485.55	-287.53296
486.034	-255.46527
486.518	-280.55901
487.002	-350.74255
487.486	-274.57447
487.969	-285.60004
488.453	-282.62099
488.936	-313.61604
489.42	-211.40081
489.903	-231.50709
490.386	-708.15209
490.869	-222.42098
491.352	-202.43306
491.835	-219.39513
492.318	-260.51498
492.8	-241.4375
493.283	-253.56659
493.765	-254.55206
494.247	-234.48736
494.73	-233.45535
495.212	-238.5153
495.694	-240.49562
496.175	-309.65457
496.657	-227.48046
497.139	-158.24308
497.62	-273.57705
498.102	-238.52652
498.583	-287.65304
499.064	-292.5873
499.545	-216.44045
500.026	-275.55732
500.507	-287.60664
500.988	-230.5152
501.469	-273.61867
501.949	-207.46129
502.43	-258.5524
502.91	-239.44537
503.39	-208.47148
503.87	-227.48025
504.35	-226.48598
504.83	-226.44722
505.31	-252.55517
505.79	-286.6261
506.269	-265.56922
506.749	-259.5393
507.228	-279.59981
507.707	-238.48068
508.187	-220.48081
508.666	-230.51286
509.145	-268.57405
509.623	-258.55598
510.102	-233.51686
510.581	-195.43023
511.059	-277.63844
511.538	-256.61174
512.016	-254.56004
512.494	-228.50924
512.972	-245.53873
513.45	-322.6918
513.928	-254.56708
514.406	-324.72304
514.884	-266.63199
515.361	-264.5855
515.839	-199.414
516.316	-224.49535
516.793	-236.55316
517.27	-166.36832
517.747	-249.59035
518.224	-188.39957
518.701	-222.45722
519.178	-269.61753
519.654	-213.46994
520.131	-214.48803
520.607	-231.53285
521.083	-237.50272
521.56	-214.4673
522.036	-213.43424
522.512	-197.45027
522.987	-250.5503
523.463	-253.56122
523.939	-188.42615
524.414	-208.44708
524.89	-241.53416
525.365	-245.51878
525.84	-293.65184
526.315	-232.51989
526.79	-192.40113
527.265	-162.33996
527.74	-213.48193
528.215	-213.46719
528.689	-212.43682
529.164	-201.40735
529.638	-211.50547
530.112	-250.55145
530.587	-228.45372
531.061	-251.56628
531.534	-216.49001
532.008	-197.43919
532.482	-173.36889
532.956	-247.58809
533.429	-159.35609
533.903	-179.36924
534.376	-169.34657
534.849	-186.40169
535.322	-207.4569
535.795	-151.34124
536.268	-204.45752
536.741	-163.36354
537.213	-151.32352
537.686	-198.44863
538.158	-184.3822
538.631	-168.38066
539.103	-190.39607
539.575	-125.24104
540.047	-155.31643
540.519	-118.26018
540.991	-124.28051
541.463	-126.28143
541.934	-88.1841
542.406	-168.37136
542.877	-114.23659
543.348	-114.25379
543.82	-83.18658
544.291	-85.18211
544.762	-101.21883
545.233	-62.14088
545.703	-91.18333
546.174	-87.18463
546.645	-91.19665
547.115	-62.13505
547.585	-29.05996
548.056	-88.19119
548.526	-30.06279
548.996	33.07015
549.466	65.13981
549.935	-27.0566
550.405	20.03837
550.875	48.09913
551.344	71.1483
551.814	82.16325
552.283	179.32958
552.752	138.27218
553.221	141.25778
553.69	234.42987
554.159	197.40436
554.628	212.39142
555.096	261.54782
555.565	317.57314
556.033	395.75219
556.502	392.77208
556.97	454.801
557.438	515.9693
557.906	614.13568
558.374	655.15409
558.842	713.29915
559.31	847.38482
559.777	827.483
560.245	1021.70202
560.712	1065.72238
561.18	1162.70979
561.647	1273.84767
562.114	1355.96536
562.581	1513.35158
563.048	1707.28362
563.514	1765.5207
563.981	1937.38082
564.448	2145.37177
564.914	2287.57276
565.381	2514.50972
565.847	2752.64653
566.313	2821.61122
566.779	3163.38286
567.245	3329.53092
567.711	3628.55575
568.176	3760.10826
568.642	4053.64641
569.108	4265.41046
569.573	4603.98225
570.038	4886.16943
570.504	5126.34774
570.969	5612.81903
571.434	5848.92372
571.899	6134.28992
572.363	6411.02037
572.828	6890.08985
573.293	7179.17317
573.757	7411.2917
574.222	7733.43524
574.686	7974.68881
575.15	8399.33965
575.614	8522.47703
576.078	8806.98845
576.542	9160.72429
577.006	9253.95486
577.469	9496.48263
577.933	9620.95423
578.396	9800.35624
578.86	9773.29303
579.323	9718.12026
579.786	9864.78354
580.249	9885.71814
580.712	9836.41209
581.175	9829.38111
581.637	9851.56284
582.1	9689.1698
582.563	9668.15052
583.025	9543.61899
583.487	9435.60625
583.95	9295.11213
584.412	9554.86261
584.874	9188.77243
585.336	9019.41041
585.797	8856.07108
586.259	8873.12314
586.721	8546.54916
587.182	8531.53363
587.643	8315.16661
588.105	8121.00046
588.566	7946.57568
589.027	7729.67056
589.488	7560.39069
589.949	7340.48843
590.41	7180.70828
590.87	6965.12949
591.331	6920.90358
591.791	6672.10295
592.252	6442.04855
592.712	6303.3539
593.172	6024.06098
593.632	5886.9911
594.092	5796.08791
594.552	5515.01264
595.011	5384.38686
595.471	5308.30786
595.931	5081.39687
596.39	4962.87276
596.849	4839.7805
597.308	4741.4556
597.768	4446.57033
598.227	4456.22278
598.685	4354.00923
599.144	4237.14895
599.603	4181.26555
600.062	4121.59749
600.52	4022.97068
600.978	3980.37131
601.437	3923.20115
601.895	3787.83744
602.353	3849.06244
602.811	3671.13465
603.269	3698.55066
603.727	3761.52118
604.184	3585.23008
604.642	3630.7116
605.099	3662.3793
605.557	3630.69058
606.014	3669.95173
606.471	3518.82988
606.928	3604.931
607.385	3557.63212
607.842	3656.27992
608.299	3718.37816
608.755	3647.58716
609.212	3625.12798
609.668	3552.11561
610.125	3750.5814
610.581	3807.51412
611.037	3767.30701
611.493	3684.53557
611.949	3763.57053
612.405	3742.60879
612.861	3835.46964
613.316	3660.58717
613.772	3844.29442
614.227	3639.53319
614.683	3724.00505
615.138	3665.48108
615.593	3679.44415
616.048	3668.3947
616.503	3672.82824
616.958	3539.97013
617.412	3558.62401
617.867	3585.21512
618.321	3492.96928
618.776	3412.33832
619.23	3286.6938
619.684	3289.51137
620.138	3304.674
620.592	3146.94631
621.046	3100.78685
621.5	2979.98166
621.954	2970.6112
622.407	2903.56403
622.861	2873.00814
623.314	2873.68956
623.768	2732.803
624.221	2692.06738
624.674	2665.76002
625.127	2625.84179
625.58	2672.74944
626.033	2635.60519
626.485	2449.93277
626.938	2553.9486
627.39	2503.83351
627.843	2509.8178
628.295	2440.80803
628.747	2468.94939
629.199	2419.73722
629.651	2389.72936
630.103	2430.78172
630.555	2329.43922
631.006	2452.91697
631.458	2419.93792
631.909	2433.84735
632.361	2454.91329
632.812	2416.8538
633.263	2390.5591
633.714	2471.55104
634.165	2571.15968
634.616	2528.05215
635.067	2631.74777
635.518	2606.1012
635.968	2613.30937
636.419	2695.65883
636.869	2781.12124
637.319	2753.96147
637.769	2848.79118
638.219	2981.17021
638.669	3023.14142
639.119	3058.29318
639.569	3159.20982
640.019	3256.95765
640.468	3356.73155
640.918	3391.18971
641.367	3432.74153
641.816	3615.66489
642.265	3798.79993
642.714	3821.79577
643.163	3974.69225
643.612	4039.9252
644.061	4073.1297
644.51	4216.51148
644.958	4218.28944
645.406	4353.7761
645.855	4522.88049
646.303	4565.52793
646.751	4556.32961
647.199	4790.20863
647.647	4768.2954
648.095	4877.21058
648.543	4944.51977
648.99	4887.49563
649.438	5067.30555
649.885	5011.70987
650.333	5045.17756
650.78	5145.4445
651.227	5173.48549
651.674	5139.04941
652.121	5093.54254
652.568	5191.46943
653.015	5198.80326
653.461	5129.35579
653.908	5144.21593
654.354	5082.43244
654.801	5037.31369
655.247	5089.87159
655.693	5077.13588
656.139	5001.51096
656.585	5034.50119
657.031	4976.31027
657.477	4991.81817
657.922	4952.2543
658.368	4973.768
658.813	4980.34299
659.259	4932.57101
659.704	4906.3762
660.149	4881.39624
660.594	4882.53398
661.039	4892.24222
661.484	4917.58251
661.929	4881.44309
662.373	4953.96395
662.818	4897.87225
663.262	4992.58479
663.707	4995.99616
664.151	5090.65896
664.595	5106.5442
665.039	5223.73667
665.483	5180.94118
665.927	5194.34307
666.371	5281.14362
666.814	5433.31907
667.258	5322.28445
667.701	5409.67631
668.145	5466.62654
668.588	5538.47247
669.031	5682.06765
669.474	5696.25218
669.917	5760.67383
670.36	5847.40462
670.803	5960.16323
671.245	5915.32944
671.688	6044.20905
672.13	5976.65322
672.573	6163.4748
673.015	6105.07102
673.457	6224.42215
673.899	6320.06766
674.341	6310.04027
674.783	6401.96241
675.225	6378.15045
675.666	6340.98992
676.108	6454.37721
676.549	6513.87813
676.991	6579.44399
677.432	6486.95824
677.873	6572.72169
678.314	6540.92269
678.755	6533.04702
679.196	6661.64721
679.637	6548.08703
680.078	6594.7994
680.518	6524.79043
680.959	6491.95948
681.399	6492.19681
681.839	6603.04604
682.28	6493.15768
682.72	6578.65855
683.16	6543.21454
683.6	6589.65223
684.039	6674.17619
684.479	6606.09921
684.919	6665.68099
685.358	6722.32853
685.798	6650.5865
686.237	6705.00026
686.676	6800.74313
687.115	6883.80441
687.554	6816.86737
687.993	6870.47868
688.432	6799.64529
688.871	6880.60264
689.309	6787.90425
689.748	7079.26483
690.186	7048.91528
690.625	7048.79599
691.063	7059.93034
691.501	7140.127
691.939	7212.18229
692.377	7252.05428
692.815	7336.95692
693.253	7336.99882
693.69	7511.63518
694.128	7429.05218
694.565	7487.99708
695.003	7495.34993
695.44	7582.95958
695.877	7618.94423
696.314	7550.58114
696.751	7641.86611
697.188	7613.8709
697.625	7821.00664
698.061	7801.17109
698.498	7910.28685
698.934	7951.28953
699.371	7932.17266
699.807	7990.24129
700.243	7905.25098
700.679	8020.10645
701.115	8015.24943
701.551	8211.41953
701.987	8196.25683
702.422	8211.44436
702.858	8302.54766
703.294	8393.50038
703.729	8385.73268
704.164	8396.68353
704.599	8485.57712
705.035	8564.69416
705.47	8442.76716
705.904	8671.93501
706.339	8770.08314
706.774	8769.09119
707.209	8765.05203
707.643	8748.12022
708.078	8795.22309
708.512	8905.45407
708.946	9002.51522
709.38	8932.37484
709.814	8976.39357
710.248	9030.5947
710.682	9109.68872
711.116	9076.63061
711.549	8992.68154
711.983	9113.65935
712.416	9140.74008
712.85	9150.84733
713.283	9258.96974
713.716	9221.99135
714.149	9130.73339
714.582	9148.70371
715.015	9094.76313
715.448	9065.72979
715.881	9074.53945
716.313	8964.40779
716.746	9037.54236
717.178	9065.6271
717.61	8991.62858
718.043	8951.51977
718.475	8945.44202
718.907	8940.54932
719.339	8830.12514
719.77	8662.96213
720.202	8606.09778
720.634	8705.09118
721.065	8574.84726
721.497	8487.84789
721.928	8398.75357
722.359	8379.66371
722.79	8287.54521
723.221	8230.70517
723.652	8151.76975
724.083	7968.03946
724.514	7881.04115
724.945	7909.15091
725.375	7868.0629
725.806	7703.33232
726.236	7586.44252
726.666	7504.96435
727.096	7410.12884
727.526	7374.32861
727.956	7297.68487
728.386	7171.10773
728.816	7073.27557
729.246	7068.00772
729.675	6906.0898
730.105	6777.11163
730.534	6675.79147
730.964	6753.30917
731.393	6668.20119
731.822	6580.41964
732.251	6422.41344
732.68	6400.89293
733.109	6288.22988
733.537	6148.12856
733.966	6167.33156
734.395	6105.8383
734.823	6098.69862
735.251	5923.20229
735.68	5900.52399
736.108	5772.66283
736.536	5611.20059
736.964	5592.08847
737.392	5519.70253
737.82	5496.38665
738.247	5434.40473
738.675	5384.41975
739.102	5250.82976
739.53	5080.08667
739.957	4966.24309
740.384	5155.79668
740.811	5038.0821
741.238	4997.78798
741.665	4814.5017
742.092	4659.81756
742.519	4688.06616
742.945	4671.84395
743.372	4596.12522
743.798	4459.51096
744.225	4437.89613
744.651	4451.31115
745.077	4373.29827
745.503	4267.18168
745.929	4211.07866
746.355	4097.41653
746.781	4004.41664
747.207	3985.00942
747.632	3888.3257
748.058	3872.51877
748.483	3872.93947
748.908	3823.50103
749.334	3730.44594
749.759	3736.15056
750.184	3615.25629
750.609	3577.49482
751.033	3571.23115
751.458	3528.90249
751.883	3438.58493
752.307	3359.24367
752.732	3278.64946
753.156	3258.58047
753.58	3166.33739
754.005	3175.78043
754.429	3058.27348
754.853	2959.60207
755.277	2960.31989
755.7	2913.61017
756.124	2845.59929
756.548	2818.31788
756.971	2787.49615
757.394	2671.79968
757.818	2606.76805
758.241	2663.69879
758.664	2528.62335
759.087	2557.95562
759.51	2463.51563
759.933	2356.28398
760.356	2368.63955
760.778	2364.40412
761.201	2347.34328
761.623	2313.31564
762.046	2216.15857
762.468	2240.23076
762.89	2163.32128
763.312	2112.23503
763.734	2031.11332
764.156	1983.19712
764.578	1916.8442
765	1954.12103
765.421	1820.18216
765.843	1852.36547
766.264	1747.91205
766.686	1721.0444
767.107	1735.90905
767.528	1650.98563
767.949	1598.96227
768.37	1616.8432
768.791	1581.75477
769.212	1475.76643
769.632	1425.45434
770.053	1463.93082
770.473	1464.64367
770.894	1409.6796
771.314	1330.42868
771.734	1317.33455
772.154	1296.61072
772.575	1311.31311
772.994	1209.1313
773.414	1286.38803
773.834	1227.42712
774.254	1136.23585
774.673	1151.24483
775.093	1080.17999
775.512	1047.1176
775.931	1007.12725
776.351	1047.13781
776.77	969.97721
777.189	982.93549
777.607	918.99429
778.026	948.98713
778.445	839.80835
778.864	904.98047
779.282	838.72863
779.701	814.78027
780.119	793.74561
780.537	796.72624
780.955	820.81072
781.373	826.76246
781.791	773.49492
782.209	810.60058
782.627	716.678
783.045	722.45113
783.462	722.63266
783.88	661.53366
784.297	696.55467
784.715	567.32834
785.132	648.40087
785.549	628.41304
785.966	600.36593
786.383	572.27797
786.8	583.2212
787.217	530.14742
787.633	511.17315
788.05	591.26743
788.466	597.2682
788.883	483.141
789.299	513.13347
789.715	493.10463
790.131	473.09011
790.547	443.0318
790.963	462.06493
791.379	461.08348
791.795	433.92042
792.21	430.9381
792.626	414.9204
793.041	438.00791
793.457	394.91798
793.872	423.92928
794.287	372.83836
794.702	403.93432
795.117	331.78442
795.532	354.84263
795.947	386.8763
796.362	326.74311
796.776	375.82973
797.191	338.78785
797.605	279.6297
798.02	294.68693
798.434	335.70841
798.848	312.73526
799.262	291.69363
799.676	285.66917
800.09	283.67017
800.504	294.68504
800.918	266.59411
801.331	302.76111
801.745	283.62437
802.158	254.61461
802.572	285.66499
802.985	284.66044
803.398	290.664
803.811	279.69194
804.224	218.5289
804.637	204.47442
805.05	204.46166
805.462	238.56765
805.875	221.5579
806.288	192.45303
806.7	212.51974
807.112	190.43121
807.525	215.51721
807.937	200.48305
808.349	227.55311
808.761	234.55896
809.173	189.44846
809.584	206.49716
809.996	159.38323
810.408	158.40151
810.819	213.48781
811.231	148.37716
811.642	108.25582
812.053	185.43066
812.464	217.50196
812.875	213.53079
813.286	170.43001
813.697	230.52219
814.108	164.39416
814.519	178.38886
814.929	135.34057
815.34	174.41422
815.75	132.33176
816.16	177.4329
816.571	132.33924
816.981	186.43
817.391	137.32696
817.801	133.32662
818.211	145.34114
818.62	136.32351
819.03	118.28684
819.44	168.43145
819.849	173.42799
820.259	173.43487
820.668	116.28292
821.077	93.23
821.486	151.35843
821.895	185.44775
822.304	137.35876
822.713	137.31993
823.122	115.28471
823.531	121.28423
823.939	151.36244
824.348	141.33844
824.756	112.27845
825.164	134.33339
825.573	100.24953
825.981	117.28776
826.389	119.29634
826.797	124.3075
827.205	101.23048
827.612	121.29583
828.02	99.23119
828.428	106.26813
828.835	100.26165
829.243	131.30868
829.65	79.19602
830.057	122.29322
830.464	120.28962
830.871	124.29395
831.278	97.23327
831.685	149.32737
832.092	93.2267
832.499	71.1554
832.905	120.30095
833.312	140.31503
833.718	90.22335
834.124	101.22946
834.531	115.28742
834.937	75.19218
835.343	151.35871
835.749	140.32263
836.155	125.32388
836.561	88.21559
836.966	98.23831
837.372	77.19557
837.777	76.18895
838.183	102.22538
838.588	56.13928
838.993	122.294
839.399	60.14683
839.804	41.10035
840.209	88.223
840.613	74.16447
841.018	79.19952
841.423	102.25985
841.828	112.28078
842.232	78.19279
842.637	111.25962
843.041	60.15383
843.445	87.21728
843.849	93.22898
844.253	147.34396
844.657	70.176
845.061	107.24082
845.465	82.19738
845.869	101.23308
846.272	63.1534
846.676	82.19768
847.079	82.20772
847.483	97.2405
847.886	134.32182
848.289	68.18118
848.692	105.26385
849.095	118.28048
849.498	139.34753
849.901	116.26337
850.304	89.21167
850.707	99.25074
851.109	129.32253
851.512	93.22721
851.914	13.03303
852.316	69.17426
852.718	51.13183
853.121	116.28134
853.523	74.17257
853.925	59.15387
854.326	32.0804
854.728	84.21505
855.13	41.10605
855.531	90.21385
855.933	100.23834
856.334	42.10503
856.736	74.16535
857.137	52.12113
857.538	48.1209
857.939	49.12127
858.34	96.2324
858.741	79.20575
859.142	70.16786
859.542	69.18167
859.943	60.14907
860.343	48.11908
860.744	100.24217
861.144	91.22067
861.544	54.12989
861.945	63.16041
862.345	81.1973
862.745	75.18582
863.145	100.23724
863.544	79.19887
863.944	49.116
864.344	109.26828
864.743	144.35174
865.143	89.22733
865.542	65.1506
865.941	102.25045
866.34	80.19089
866.74	96.25595
867.139	64.15306
867.537	94.23795
867.936	90.21533
868.335	99.25003
868.734	68.17342
869.132	98.22593
869.531	111.26582
869.929	94.21273
870.327	66.15797
870.726	100.24744
871.124	70.16325
871.522	72.18291
871.92	76.18682
872.318	57.13936
872.715	114.27929
873.113	54.13166
873.511	85.21067
873.908	27.06851
874.306	50.12449
874.703	90.22384
875.1	93.23638
875.497	65.1556
875.894	49.1202
876.291	70.17137
876.688	57.14698
877.085	89.21224
877.482	90.22392
877.878	31.07498
878.275	55.13975
878.671	137.30012
879.068	120.28622
879.464	55.13297
879.86	74.17441
880.256	107.26161
880.652	79.20009
881.048	110.26989
881.444	64.15213
881.84	104.26204
882.236	131.32492
882.631	58.14231
883.027	117.28008
883.422	86.2187
883.817	26.06568
884.213	80.20438
884.608	10.02473
885.003	56.135
885.398	59.14757
885.793	84.20975
886.188	28.06994
886.582	131.33155
886.977	106.24914
887.371	79.19895
887.766	65.16134
888.16	81.2012
888.554	88.21631
888.949	63.15797
889.343	115.27781
889.737	33.08823
890.131	85.21206
890.525	96.2437
890.918	49.12344
891.312	80.19052
891.706	87.22698
892.099	100.25242
892.492	61.13148
892.886	60.14667
893.279	97.24524
893.672	65.16515
894.065	99.24591
894.458	80.20027
894.851	128.30939
895.244	55.14044
895.637	59.14199
896.029	87.21144
896.422	62.15128
896.814	76.1882
897.206	25.05987
897.599	126.30754
897.991	89.21379
898.383	88.2066
898.775	99.22145
899.167	45.10513
899.559	77.19412
899.951	92.21531
900.342	77.19502
900.734	42.10442
901.125	68.17798
901.517	14.03462
901.908	76.18148
902.299	70.1706
902.69	102.23843
903.082	95.22829
903.473	39.09365
903.863	53.13524
904.254	43.10002
904.645	98.24178
905.036	59.14269
905.426	129.29093
905.817	94.22893
906.207	60.14278
906.597	75.17467
906.987	96.24698
907.378	67.16903
907.768	82.21572
908.158	44.10748
908.547	35.09069
908.937	85.21689
909.327	81.19568
909.717	87.21956
910.106	65.15578
910.495	93.2305
910.885	74.18672
911.274	89.22099
911.663	95.23932
912.052	104.25422
912.441	73.18496
912.83	56.12849
913.219	73.19039
913.608	83.20217
913.997	53.13285
914.385	56.13373
914.774	92.22238
915.162	57.13572
915.55	80.19257
915.939	45.11373
916.327	130.3199
916.715	60.15269
917.103	94.22961
917.491	98.24045
917.878	72.1764
918.266	94.242
918.654	102.25829
919.041	37.09683
919.429	69.16234
919.816	81.20427
920.203	85.20488
920.591	92.22648
920.978	62.15156
921.365	51.13383
921.752	54.1287
922.139	102.21915
922.525	54.12964
922.912	103.24883
923.299	67.16606
923.685	80.20768
924.072	93.21274
924.458	78.1923
924.844	97.23804
925.231	64.14861
925.617	61.15488
926.003	110.27825
926.389	35.08855
926.774	53.13428
927.16	102.251
927.546	52.13271
927.931	101.24978
928.317	75.17198
928.702	98.2298
929.088	33.07834
929.473	73.18502
929.858	21.05106
930.243	21.05069
930.628	73.17689
931.013	123.30084
931.398	115.26116
931.783	66.17334
932.167	67.16332
932.552	102.25322
932.937	141.34422
933.321	42.10556
933.705	56.14105
934.09	127.31661
934.474	78.18433
934.858	41.10653
935.242	52.12051
935.626	63.16092
936.009	43.11451
936.393	89.22493
936.777	61.15592
937.16	57.14815
937.544	126.29257
937.927	19.04848
938.311	106.25612
938.694	93.2442
939.077	60.14339
939.46	116.28145
939.843	148.30221
940.226	72.18401
940.609	78.1781
940.991	68.17256
941.374	42.10282
941.757	74.18183
942.139	85.18958
942.522	113.26389
942.904	100.23815
943.286	115.28888
943.668	83.2138
944.05	69.16939
944.432	57.1405
944.814	97.23689
945.196	3.00738
945.578	34.08107
945.959	90.20931
946.341	97.2361
946.722	80.18671
947.104	77.18313
947.485	65.15084
947.866	104.25951
948.247	38.09609
948.628	79.19171
949.009	79.20129
949.39	97.23945
949.771	75.17363
950.152	65.1591
950.532	17.04207
950.913	70.16824
951.293	83.22302
951.674	76.18294
952.054	46.11408
952.434	90.2218
952.814	75.17762
953.194	72.18775
953.574	96.23449
953.954	59.13989
954.334	77.19099
954.714	44.10736
955.093	108.26272
955.473	59.1473
955.853	72.18569
956.232	77.21014
956.611	119.28172
956.99	68.17036
957.37	37.09451
957.749	66.157
958.128	65.16334
958.506	40.10395
958.885	52.13121
959.264	67.16369
959.643	88.19875
960.021	50.1239
960.4	72.16248
960.778	84.20564
961.156	38.09547
961.535	103.2376
961.913	104.24082
962.291	60.15366
962.669	58.14672
963.047	49.12507
963.424	58.14781
963.802	64.15697
964.18	85.21375
964.557	72.16513
964.935	85.20006
965.312	71.18422
965.69	104.25791
966.067	90.21754
966.444	93.22738
966.821	109.27812
967.198	88.21199
967.575	101.24602
967.952	65.15275
968.329	83.20074
968.705	93.19762
969.082	64.16374
969.458	10.02417
969.835	68.16499
970.211	34.0875
970.587	82.20298
970.963	87.22176
971.339	59.15382
971.715	64.15941
972.091	85.20797
972.467	96.23746
972.843	43.10685
973.219	140.33047
973.594	42.11001
973.97	107.25194
974.345	65.15513
974.721	150.3564
975.096	84.20197
975.471	108.25335
975.846	83.19816
976.221	37.09418
976.596	96.2281
976.971	105.25662
977.346	118.27107
977.72	85.21521
978.095	90.23098
978.469	75.17817
978.844	121.30034
979.218	62.14828
979.593	75.17886
979.967	44.10732
980.341	46.10601
980.715	128.318
981.089	85.21144
981.463	76.17361
981.837	54.13186
982.21	155.35328
982.584	85.20395
982.957	62.15448
983.331	97.22724
983.704	87.21231
984.078	79.19365
984.451	117.28871
984.824	13.03188
985.197	101.24298
985.57	87.21673
985.943	84.20618
986.316	74.18103
986.688	75.18002
987.061	90.20931
987.434	87.22527
987.806	84.20243
988.179	85.1992
988.551	69.17445
988.923	101.24639
989.295	83.20617
989.667	6.01445
990.039	35.08672
990.411	90.2055
990.783	77.17635
991.155	5.01212
991.527	138.33432
991.898	62.15415
992.27	80.19679
992.641	113.28027
993.012	78.18255
993.384	65.15459
993.755	72.18284
994.126	57.13692
994.497	113.27412
994.868	103.2341
995.239	59.14275
995.61	93.23219
995.98	68.16462
996.351	79.19459
996.722	47.10907
997.092	49.11605
997.462	18.04231
997.833	96.22555
998.203	74.1786
998.573	85.21029
998.943	49.11492
999.313	73.17415
999.683	90.21434
1000.053	69.15816
1000.423	48.11668
1000.792	68.17568
1001.162	84.20541
1001.531	94.22987
1001.901	87.21539
1002.27	91.2017
1002.639	53.13533
1003.009	78.18448
1003.378	54.13796
1003.747	104.24311
1004.116	37.08874
1004.485	102.24133
1004.853	68.17171
1005.222	79.19816
1005.591	98.23052
1005.959	57.12824
1006.328	86.19209
1006.696	65.15632
1007.064	109.27124
1007.433	61.15213
1007.801	128.30963
1008.169	106.26498
1008.537	102.2234
1008.905	52.12108
1009.273	83.20376
1009.64	43.1027
1010.008	123.28904
1010.375	137.32721
1010.743	131.29761
1011.11	53.12533
1011.478	109.26679
1011.845	93.21684
1012.212	39.08846
1012.579	70.17118
1012.946	107.25184
1013.313	118.27713
1013.68	83.18527
1014.047	40.09548
1014.414	37.08759
1014.78	68.16839
1015.147	70.16863
1015.513	78.1869
1015.88	104.26336
1016.246	85.20844
1016.612	110.24874
1016.978	98.23795
1017.344	114.27836
1017.71	113.27226
1018.076	82.19213
1018.442	114.28991
1018.808	46.11503
1019.174	33.08302
1019.539	161.36235
1019.905	46.10854
1020.27	75.18419
1020.636	81.19302
1021.001	111.26257
1021.366	77.18391
1021.731	99.25234
1022.096	52.13107
1022.461	87.20437
1022.826	62.14698
1023.191	65.17004
1023.556	72.16798
1023.92	100.24354
1024.285	99.23934
1024.649	118.28544
1025.014	113.27658
1025.378	77.19259
1025.742	93.22907
1026.107	69.15542
1026.471	101.23336
1026.835	48.11899
1027.199	69.16543
1027.562	98.22557
1027.926	97.23504
1028.29	68.17146
1028.654	62.14225
1029.017	79.19308
1029.381	99.23419
1029.744	76.19286
1030.107	110.25713
1030.471	77.18335
1030.834	131.29302
1031.197	121.28745
1031.56	63.14822
1031.923	55.14202
1032.286	114.26429
1032.648	126.29684
1033.011	22.05076
1033.374	92.21438
1033.736	50.1314
1034.099	61.14831
1034.461	53.13376
1034.823	56.13923
1035.185	68.17054
1035.548	99.23862
1035.91	77.18342
1036.272	109.24502
1036.634	91.22083
1036.995	103.2395
1037.357	43.1047
1037.719	91.21951
1038.08	66.15616
1038.442	100.23495
1038.803	122.28876
1039.165	62.15605
1039.526	85.20395
1039.887	98.23223
1040.248	50.12313
1040.609	93.22789
1040.97	60.14629
1041.331	74.18646
1041.692	68.15808
1042.053	85.19209
1042.413	125.28686
1042.774	96.23135
1043.134	123.28859
1043.495	85.21221
1043.855	110.26368
1044.215	95.23374
1044.576	52.12422
1044.936	99.22464
1045.296	106.26171
1045.656	92.22389
1046.016	90.21549
1046.375	63.15237
1046.735	64.1446
1047.095	23.05409
1047.454	110.22992
1047.814	50.12013
1048.173	138.32398
1048.533	90.20443
1048.892	50.11995
1049.251	106.26325
1049.61	83.203
1049.969	74.17353
1050.328	95.20389
1050.687	75.18153
1051.046	85.2055
1051.405	100.24635
1051.763	44.10124
1052.122	86.21296
1052.48	67.16369
1052.839	60.14081
1053.197	80.18708
1053.555	61.1387
1053.914	85.20643
1054.272	85.20402
1054.63	92.22305
1054.988	-1.0024
1055.345	42.09055
1055.703	101.24058
1056.061	73.18692
1056.419	83.2135
1056.776	116.27764
1057.134	114.26041
1057.491	82.20402
1057.848	91.22472
1058.206	86.20072
1058.563	95.20732
1058.92	79.18093
1059.277	98.23947
1059.634	105.24424
1059.991	112.26499
1060.348	97.21697
1060.704	49.11672
1061.061	141.3215
1061.418	53.12838
1061.774	43.10623
1062.131	30.07954
1062.487	62.14453
1062.843	89.22018
1063.199	102.2511
1063.555	74.17054
1063.911	62.15616
1064.267	161.32733
1064.623	5.01224
1064.979	113.2643
1065.335	63.15013
1065.691	100.23724
1066.046	72.15749
1066.402	60.13595
1066.757	139.34501
1067.112	93.22628
1067.468	36.08518
1067.823	104.2473
1068.178	130.30948
1068.533	85.20457
1068.888	106.25041
1069.243	83.20346
1069.598	64.15499
1069.952	26.05879
1070.307	41.10158
1070.662	52.12332
1071.016	12.02708
1071.371	83.18742
1071.725	87.20652
1072.079	43.10349
1072.434	56.13582
1072.788	67.15892
1073.142	93.22679
1073.496	39.09265
1073.85	68.15702
1074.203	117.28008
1074.557	54.1434
1074.911	152.35545
1075.265	69.15968
1075.618	88.21319
1075.971	105.24694
1076.325	56.14206
1076.678	29.06655
1077.031	85.19084
1077.385	96.20928
1077.738	44.09937
1078.091	50.11362
1078.444	99.22747
1078.796	41.10069
1079.149	94.23174
1079.502	69.16228
1079.855	69.16019
1080.207	94.22952
1080.56	57.14703
1080.912	65.15768
1081.264	101.24067
1081.617	64.15546
1081.969	47.11853
1082.321	81.19649
1082.673	40.09141
1083.025	96.22555
1083.377	74.1579
1083.728	97.22403
1084.08	75.18623
1084.432	92.21994
1084.783	87.20221
1085.135	27.0679
1085.486	51.11657
1085.838	77.18854
1086.189	94.2261
1086.54	74.17576
1086.891	67.16879
1087.242	96.23152
1087.593	117.28104
1087.944	79.17758
1088.295	102.22924
1088.646	84.20212
1088.996	53.12751
1089.347	112.27143
1089.698	42.09933
1090.048	74.19124
1090.398	65.15018
1090.749	65.15495
1091.099	14.0354
1091.449	72.17849
1091.799	107.26491
1092.149	29.07093
1092.499	26.06365
1092.849	74.18712
1093.199	76.18943
1093.548	75.1792
1093.898	93.23067
1094.248	107.27196
1094.597	27.06914
1094.947	60.15965
1095.296	83.20353
1095.645	95.24496
1095.994	75.17913
1096.343	66.16546
1096.692	36.09471
1097.041	11.02994
1097.39	72.17972
1097.739	54.14014
1098.088	80.21308
1098.437	3.00794
1098.785	73.19589
1099.134	62.16415
1099.482	69.18903
1099.83	93.24238
1100.179	50.13029
1100.527	54.14326
1100.875	51.13469
1101.223	87.22938
1101.571	42.11611
1101.919	27.07075
1102.267	44.12388
1102.615	0
1102.962	13.04184
1103.31	2.00643
1103.658	18.05793
