Data from N2 R11 sample 2_Subt2__1__16-05-59-021.txt Node

Date: Mon Sep 01 16:05:59 PDT 2025
User: uwsun
Spectrometer: HDX01956
Trigger mode: 0
Integration Time (sec): 5.000000E-1
Scans to average: 1
Nonlinearity correction enabled: true
Boxcar width: 0
Storing dark spectrum: false
XAxis mode: Wavelengths
Number of Pixels in Spectrum: 2068
>>>>>Begin Spectral Data<<<<<
194.03	-13.03656
194.578	-5.01582
195.127	-8.02496
195.676	-15.04697
196.225	36.09493
196.773	32.08729
197.321	-9.02419
197.87	55.13472
198.418	17.04139
198.966	6.01473
199.513	-49.11582
200.061	-55.13232
200.609	7.0176
201.156	-22.04531
201.704	9.02127
202.251	-46.1157
202.798	-10.02452
203.345	37.086
203.892	-12.02854
204.438	27.06067
204.985	-22.04892
205.532	-47.11734
206.078	-6.0139
206.624	-26.06025
207.17	24.05232
207.716	5.01138
208.262	-19.0356
208.808	-34.07867
209.354	-18.04125
209.899	85.20045
210.445	1.00233
210.99	-47.10717
211.535	86.18756
212.08	35.07628
212.625	0
213.17	12.02866
213.715	-47.09852
214.259	28.06127
214.804	55.12723
215.348	26.05591
215.892	0
216.436	90.19403
216.98	12.02513
217.524	-23.05151
218.068	64.1506
218.612	22.05225
219.155	27.0597
219.698	11.02474
220.242	56.13127
220.785	58.12698
221.328	44.1031
221.871	42.10056
222.414	33.07767
222.956	-30.06858
223.499	20.04251
224.041	56.12296
224.583	58.11827
225.126	8.01671
225.668	20.04583
226.21	-24.05738
226.751	-27.05607
227.293	41.08834
227.835	24.05515
228.376	61.1325
228.918	54.12831
229.459	-9.02118
230	48.10712
230.541	28.06091
231.082	24.05478
231.622	38.08249
232.163	-20.04594
232.704	1.00234
233.244	23.05367
233.784	55.12678
234.324	3.00618
234.864	0
235.404	29.06506
235.944	48.10686
236.484	29.06823
237.023	-10.02234
237.563	-35.0768
238.102	37.08198
238.641	30.07126
239.18	-32.07074
239.719	14.0331
240.258	38.08013
240.797	3.00675
241.335	44.10091
241.874	2.00362
242.412	-5.01132
242.95	-7.0157
243.488	16.03432
244.026	-7.01518
244.564	38.07308
245.102	-10.02114
245.64	57.12834
246.177	-16.0339
246.715	19.04289
247.252	35.07528
247.789	136.23489
248.326	-6.01347
248.863	-8.01647
249.4	22.04682
249.936	20.03845
250.473	8.01744
251.009	-27.05817
251.546	28.05746
252.082	23.04704
252.618	-6.01251
253.154	25.05583
253.69	-30.06371
254.226	29.06436
254.761	24.05019
255.297	-6.01229
255.832	4.00883
256.367	10.02199
256.903	10.02046
257.438	42.09164
257.972	40.08253
258.507	11.02334
259.042	18.03635
259.576	-19.03805
260.111	-24.05219
260.645	88.17455
261.179	3.00651
261.713	0
262.247	-30.06498
262.781	-6.01169
263.315	4.00909
263.849	-2.00465
264.382	70.14793
264.915	17.03675
265.449	-40.09041
265.982	14.0296
266.515	5.0113
267.048	-19.03743
267.58	36.07288
268.113	-14.02807
268.646	-12.02749
269.178	-18.03727
269.71	-11.02236
270.243	37.07787
270.775	15.03524
271.307	10.02236
271.838	148.31784
272.37	11.02499
272.902	16.03364
273.433	0
273.965	26.05822
274.496	19.04369
275.027	-19.04369
275.558	-23.0517
276.089	-27.06107
276.62	18.04232
277.15	32.07269
277.681	-7.0141
278.211	7.01586
278.741	14.02816
279.272	-10.02099
279.802	-22.0509
280.332	-22.0478
280.861	9.01989
281.391	-5.0104
281.921	49.10775
282.45	30.06869
282.98	-13.03126
283.509	32.06546
284.038	-31.06513
284.567	6.01289
285.096	23.0507
285.625	-16.03328
286.153	7.01493
286.682	-12.02507
287.21	11.02407
287.739	-67.14634
288.267	-49.10893
288.795	1.00241
289.323	-16.03395
289.851	-5.01067
290.378	-1.00204
290.906	-51.11262
291.433	16.03612
291.961	-3.00614
292.488	26.05841
293.015	-18.03831
293.542	-4.00914
294.069	6.01327
294.596	17.03803
295.122	-16.03454
295.649	-6.01196
296.175	-25.05511
296.702	-24.05288
297.228	57.12376
297.754	23.04608
298.28	-5.01016
298.806	-16.03454
299.332	-9.01774
299.857	6.01206
300.383	-29.0665
300.908	-57.12402
301.433	-9.01947
301.958	23.04738
302.483	26.05726
303.008	8.01765
303.533	18.04185
304.058	24.05025
304.582	-59.1245
305.107	-47.10946
305.631	47.09434
306.155	-48.0993
306.679	-1.00205
307.203	-64.13229
307.727	-24.05039
308.251	-56.12343
308.775	-94.19804
309.298	-23.04813
309.822	-2.00443
310.345	-35.07298
310.868	-40.08398
311.391	-25.05416
311.914	-47.10331
312.437	-12.02394
312.96	-36.07384
313.482	-34.07006
314.005	-60.13197
314.527	-72.16566
315.049	-47.10409
315.571	-51.09711
316.093	-9.01914
316.615	-72.15029
317.137	-44.08197
317.659	-28.05868
318.18	2.00412
318.702	-7.01377
319.223	-21.03624
319.744	-44.0834
320.265	-73.15018
320.786	-99.20826
321.307	-53.11144
321.828	-63.11996
322.348	-28.05484
322.869	-43.08391
323.389	-28.03678
323.909	5.00941
324.43	16.03191
324.95	-87.16478
325.47	-125.256
325.989	-48.092
326.509	-140.25239
327.029	-116.21256
327.548	-116.21095
328.067	-117.22865
328.587	-31.06205
329.106	-58.10462
329.625	-52.11182
330.144	-121.22312
330.662	-117.21477
331.181	-83.15297
331.7	-102.18823
332.218	-24.03944
332.736	-74.13436
333.255	-57.10147
333.773	-96.17538
334.291	-77.14969
334.808	-100.16839
335.326	-36.06035
335.844	-153.26771
336.361	-130.24833
336.879	-115.19804
337.396	-139.2495
337.913	-117.19653
338.43	-108.17532
338.947	-104.17943
339.464	-127.19198
339.981	-174.29876
340.497	-116.2072
341.014	-134.23354
341.53	-120.18757
342.046	-149.25892
342.562	-161.2881
343.078	-117.1902
343.594	-114.18788
344.11	-100.16224
344.626	-156.27317
345.141	-196.30459
345.657	-45.06704
346.172	-150.24447
346.687	-176.26902
347.202	-184.27141
347.717	-177.28111
348.232	-170.28455
348.747	-115.16812
349.261	-168.22549
349.776	-126.18756
350.29	-237.37836
350.805	-141.22522
351.319	-179.26331
351.833	-223.31218
352.347	-210.30901
352.861	-165.23394
353.374	-114.15891
353.888	-204.30738
354.401	-212.29555
354.915	-270.35908
355.428	-199.29976
355.941	-221.30305
356.454	-131.16983
356.967	-144.19803
357.48	-266.36466
357.993	-164.23687
358.505	-257.37112
359.018	-157.21949
359.53	-222.30393
360.042	-203.24817
360.554	-196.2692
361.066	-220.30099
361.578	-258.30451
362.09	-213.28031
362.602	-270.3168
363.113	-241.29951
363.625	-245.28734
364.136	-187.20749
364.647	-256.29614
365.158	-206.24275
365.669	-233.28854
366.18	-194.22911
366.691	-244.26208
367.201	-308.37782
367.712	-266.29028
368.222	-320.35531
368.733	-293.28437
369.243	-294.28867
369.753	-215.2213
370.263	-293.32266
370.773	-335.38892
371.282	-286.29359
371.792	-411.37924
372.301	-380.3838
372.811	-339.383
373.32	-396.28451
373.829	-443.38259
374.338	-381.27026
374.847	-399.28432
375.356	-416.2986
375.865	-501.24816
376.373	-449.2351
376.882	-472.33786
377.39	-454.25856
377.898	-653.34893
378.407	-533.16075
378.915	-509.10423
379.423	-601.16122
379.93	-547.07481
380.438	-731.10752
380.946	-632.00089
381.453	-738.97159
381.96	-894.89569
382.468	-951.75524
382.975	-875.76082
383.482	-860.67316
383.989	-1025.69842
384.495	-1037.55355
385.002	-1232.3672
385.509	-1242.36263
386.015	-1204.34109
386.521	-1307.28642
387.028	-1463.22865
387.534	-1520.25343
388.04	-1407.29557
388.546	-1747.30764
389.051	-1882.52919
389.557	-1923.80885
390.063	-1663.02565
390.568	-1844.35449
391.073	-2065.0558
391.578	-2223.29311
392.084	-2368.4385
392.589	-2859.35213
393.093	-3223.91015
393.598	-3245.89694
394.103	-3506.80964
394.607	-3620.47012
395.112	-3791.91715
395.616	-4107.57113
396.12	-4710.20525
396.624	-5588.26792
397.128	-5692.36518
397.632	-6042.13578
398.136	-6598.1261
398.639	-8595.10572
399.143	-10304.59379
399.646	-11233.8789
400.15	-12496.06187
400.653	-14800.50512
401.156	-17288.63447
401.659	-20704.36324
402.162	-16303.04704
402.664	-2491.21683
403.167	-508.94213
403.67	0
404.172	0
404.674	0
405.176	0
405.678	0
406.18	0
406.682	0
407.184	0
407.686	0
408.187	0
408.688	0
409.19	0
409.691	0
410.192	0
410.693	-3622.92976
411.194	-8303.48013
411.694	-7267.59352
412.195	-6115.53345
412.696	-7068.59912
413.196	-9241.71585
413.696	-10154.93182
414.196	-8087.95902
414.696	-5494.272
415.196	-2732.62178
415.696	1173.61629
416.196	1134.9392
416.695	-1583.95944
417.195	-3362.80335
417.694	-3060.67001
418.194	-2591.17883
418.693	-3127.45682
419.192	-2996.07115
419.691	-2880.08926
420.19	-2399.38067
420.688	-2080.2673
421.187	-1787.38559
421.685	-1388.96142
422.184	-963.66611
422.682	-1019.91266
423.18	-1353.98551
423.678	-1443.82943
424.176	-1434.08063
424.674	-1261.53896
425.172	-1048.02408
425.669	-877.7638
426.167	-716.7092
426.664	-723.63833
427.161	-759.57888
427.659	-669.63041
428.156	-730.59504
428.652	-776.66595
429.149	-753.68812
429.646	-630.73376
430.143	-488.851
430.639	-550.87129
431.135	-591.95083
431.632	-461.94748
432.128	-521.02447
432.624	-681.15525
433.12	-768.07582
433.616	-604.0457
434.111	-716.15917
434.607	-643.19772
435.103	-523.11829
435.598	-455.10735
436.093	-463.22852
436.588	-422.21357
437.083	-449.26739
437.578	-436.29595
438.073	-561.47579
438.568	-401.35741
439.062	-427.29698
439.557	-385.35138
440.051	-394.33679
440.546	-445.4004
441.04	-510.53662
441.534	-374.42728
442.028	-382.41539
442.522	-480.54322
443.015	-422.41069
443.509	-354.41545
444.002	-391.46693
444.496	-437.45277
444.989	-371.45437
445.482	-443.57308
445.975	-459.5113
446.468	-400.41216
446.961	-372.38263
447.454	-412.47896
447.947	-445.55371
448.439	-450.60551
448.931	-444.52471
449.424	-401.57234
449.916	-376.50484
450.408	-450.55146
450.9	-450.61755
451.392	-463.68386
451.884	-408.53335
452.375	-487.71363
452.867	-359.46654
453.358	-441.574
453.849	-416.50064
454.341	-356.45838
454.832	-390.47989
455.323	-449.66844
455.814	-420.58648
456.304	-383.53391
456.795	-404.5652
457.285	-353.48353
457.776	-295.4154
458.266	-391.58203
458.756	-377.58066
459.247	-420.63835
459.737	-433.6654
460.226	-383.54491
460.716	-376.58374
461.206	-409.65457
461.695	-379.64369
462.185	-366.5762
462.674	-369.57169
463.163	-358.53013
463.653	-321.44168
464.142	-400.66633
464.63	-369.63213
465.119	-358.56817
465.608	-368.58808
466.096	-340.51547
466.585	-320.52276
467.073	-352.60899
467.561	-320.55391
468.05	-288.47839
468.538	-271.48145
469.026	-318.5566
469.513	-347.52907
470.001	-324.53612
470.489	-364.64116
470.976	-290.49423
471.463	-281.52624
471.951	-258.48806
472.438	-360.64674
472.925	-328.58167
473.412	-296.56516
473.899	-259.45487
474.385	-289.5538
474.872	-287.51677
475.359	-281.53587
475.845	-311.50137
476.331	-228.38625
476.817	-262.5085
477.303	-272.50221
477.789	-252.48465
478.275	-287.57445
478.761	-248.48225
479.247	-278.50737
479.732	-302.6147
480.218	-288.61982
480.703	-286.58796
481.188	-283.49833
481.673	-242.45398
482.158	-324.56681
482.643	-194.40998
483.128	-318.60805
483.612	-226.43863
484.097	-193.3949
484.581	-231.45251
485.066	-269.55389
485.55	-251.46192
486.034	-252.45945
486.518	-287.57392
487.002	-317.6677
487.486	-319.67546
487.969	-249.5201
488.453	-241.52615
488.936	-268.52188
489.42	-238.45508
489.903	-207.45211
490.386	-667.07273
490.869	-216.40901
491.352	-162.34431
491.835	-204.36665
492.318	-252.4982
492.8	-195.34984
493.283	-253.56659
493.765	-257.55893
494.247	-139.28338
494.73	-230.44916
495.212	-188.4027
495.694	-259.53714
496.175	-317.67269
496.657	-222.46936
497.139	-132.20152
497.62	-249.52356
498.102	-225.49642
498.583	-212.47507
499.064	-248.49374
499.545	-243.49855
500.026	-244.49099
500.507	-215.44729
500.988	-204.45451
501.469	-228.51198
501.949	-188.4173
502.43	-249.53209
502.91	-221.40998
503.39	-227.51653
503.87	-223.47137
504.35	-196.41875
504.83	-224.44305
505.31	-238.52279
505.79	-262.57066
506.269	-216.45908
506.749	-258.5371
507.228	-228.48479
507.707	-234.47217
508.187	-151.3252
508.666	-289.65227
509.145	-228.48416
509.623	-243.52197
510.102	-256.5706
510.581	-191.42105
511.059	-259.59482
511.538	-244.58173
512.016	-230.50458
512.494	-187.41414
512.972	-203.44244
513.45	-273.58034
513.928	-198.43694
514.406	-264.58184
514.884	-236.55748
515.361	-188.41036
515.839	-196.40749
516.316	-224.49535
516.793	-215.50187
517.27	-171.37981
517.747	-215.5064
518.224	-226.4843
518.701	-228.47021
519.178	-285.65635
519.654	-197.43319
520.131	-230.52621
520.607	-182.41573
521.083	-199.41861
521.56	-224.49017
522.036	-196.39804
522.512	-167.37939
522.987	-217.47435
523.463	-194.42507
523.939	-213.48526
524.414	-166.35358
524.89	-220.48549
525.365	-179.37356
525.84	-248.54658
526.315	-209.46613
526.79	-187.39025
527.265	-210.44535
527.74	-203.45837
528.215	-203.44432
528.689	-155.31528
529.164	-148.2963
529.638	-179.4262
530.112	-236.51905
530.587	-186.36651
531.061	-205.45816
531.534	-173.38904
532.008	-174.38607
532.482	-135.28549
532.956	-232.55079
533.429	-156.34916
533.903	-131.26731
534.376	-187.38505
534.849	-144.30819
535.322	-156.34065
535.795	-178.40447
536.268	-177.39477
536.741	-148.32907
537.213	-167.35903
537.686	-169.38067
538.158	-189.39302
538.631	-159.35961
539.103	-135.27798
539.575	-96.18382
540.047	-140.28483
540.519	-70.15279
540.991	-95.21364
541.463	-119.26541
541.934	-125.26364
542.406	-94.20457
542.877	-107.22171
543.348	-74.16337
543.82	-93.20948
544.291	-60.12786
544.762	-62.13321
545.233	-83.18941
545.703	-95.19156
546.174	-19.03972
546.645	-120.26093
547.115	-55.11962
547.585	-38.07872
548.056	-23.04928
548.526	-33.06911
548.996	4.00856
549.466	38.08221
549.935	-21.04396
550.405	80.15126
550.875	31.06426
551.344	60.12563
551.814	125.24637
552.283	129.2405
552.752	128.25305
553.221	144.26307
553.69	188.34937
554.159	160.33116
554.628	223.41059
555.096	249.52402
555.565	261.47863
556.033	342.65965
556.502	321.6428
556.97	384.68986
557.438	414.79854
557.906	490.93562
558.374	510.93372
558.842	536.01982
559.31	625.08446
559.777	595.12984
560.245	773.3753
560.712	784.36721
561.18	819.32994
561.647	930.49098
562.114	950.54821
562.581	1063.86646
563.048	1169.83744
563.514	1191.00067
563.981	1369.01185
564.448	1433.00635
564.914	1572.23214
565.381	1677.23542
565.847	1800.40662
566.313	1890.43288
566.779	1998.36018
567.245	2079.53265
567.711	2238.68156
568.176	2330.4126
568.642	2449.94307
569.108	2617.87335
569.573	2795.68638
570.038	2951.10802
570.504	3115.3377
570.969	3259.94697
571.434	3380.13274
571.899	3561.52785
572.363	3745.1991
572.828	3965.14086
573.293	4002.11407
573.757	4199.0147
574.222	4363.72895
574.686	4402.72512
575.15	4572.99164
575.614	4669.72629
576.078	4775.79765
576.542	4823.61035
577.006	4959.46723
577.469	5007.0604
577.933	5101.33252
578.396	5059.748
578.86	5114.66143
579.323	5045.74478
579.786	4968.23773
580.249	5045.47565
580.712	4971.98436
581.175	4874.08451
581.637	4849.70488
582.1	4849.43165
582.563	4791.35377
583.025	4583.13755
583.487	4550.14141
583.95	4432.50517
584.412	4559.35759
584.874	4302.31576
585.336	4253.19167
585.797	4205.69678
586.259	4067.29532
586.721	3968.28136
587.182	3909.34475
587.643	3811.19615
588.105	3625.5104
588.566	3567.91905
589.027	3483.63803
589.488	3446.37502
589.949	3377.74305
590.41	3281.65465
590.87	3268.46194
591.331	3270.17547
591.791	3101.52778
592.252	3065.47522
592.712	3030.77689
593.172	2922.44861
593.632	2975.33512
594.092	2899.41449
594.552	2957.23644
595.011	2778.54424
595.471	2810.44267
595.931	2766.42584
596.39	2760.76308
596.849	2722.63449
597.308	2761.32122
597.768	2726.08322
598.227	2836.81221
598.685	2831.5903
599.144	2827.65305
599.603	2967.71093
600.062	2907.11863
600.52	3001.37691
600.978	3056.69943
601.437	3100.51392
601.895	3256.07078
602.353	3280.30221
602.811	3372.25813
603.269	3520.61988
603.727	3533.61261
604.184	3675.1906
604.642	3790.64684
605.099	3952.24442
605.557	4076.49163
606.014	4197.67583
606.471	4307.47752
606.928	4515.44286
607.385	4672.07598
607.842	4849.64351
608.299	5019.68057
608.755	5205.76762
609.212	5435.17345
609.668	5378.15445
610.125	5678.57531
610.581	5928.43613
611.037	6107.17198
611.493	6240.31854
611.949	6386.35375
612.405	6513.55696
612.861	6552.27577
613.316	6738.30937
613.772	6762.14083
614.227	6916.27688
614.683	7030.954
615.138	6984.25801
615.593	7094.26365
616.048	7052.21229
616.503	7144.56128
616.958	7048.61907
617.412	6986.33583
617.867	6992.04095
618.321	6926.82265
618.776	6916.06008
619.23	6734.29189
619.684	6833.14768
620.138	6509.28327
620.592	6378.52992
621.046	6285.37923
621.5	6136.60545
621.954	6062.22873
622.407	5781.25663
622.861	5681.80371
623.314	5631.45372
623.768	5420.67899
624.221	5334.84482
624.674	5199.74074
625.127	5054.92698
625.58	4916.88196
626.033	4869.7259
626.485	4594.34521
626.938	4605.33333
627.39	4377.31652
627.843	4357.30523
628.295	4306.33573
628.747	4138.60724
629.199	4034.38748
629.651	3920.44058
630.103	3823.5442
630.555	3768.13994
631.006	3791.72974
631.458	3738.7892
631.909	3665.69548
632.361	3495.83476
632.812	3515.76331
633.263	3411.43219
633.714	3509.37346
634.165	3417.13119
634.616	3315.03617
635.067	3332.65606
635.518	3303.07962
635.968	3280.16727
636.419	3255.57477
636.869	3295.08128
637.319	3253.91322
637.769	3194.7412
638.219	3281.13511
638.669	3143.12953
639.119	3161.28492
639.569	3199.20458
640.019	3364.93214
640.468	3305.74577
640.918	3324.2039
641.367	3260.78961
641.816	3349.75366
642.265	3376.94437
642.714	3369.95132
643.163	3364.91936
643.612	3413.15051
644.061	3465.40766
644.51	3484.8279
644.958	3535.60419
645.406	3492.13537
645.855	3551.2964
646.303	3621.9724
646.751	3630.78014
647.199	3621.79403
647.647	3718.82669
648.095	3680.81986
648.543	3697.19325
648.99	3687.08803
649.438	3744.98493
649.885	3720.33959
650.333	3760.88051
650.78	3682.17744
651.227	3808.18566
651.674	3729.78741
652.121	3737.22233
652.568	3637.23861
653.015	3740.5164
653.461	3688.08494
653.908	3788.92405
654.354	3687.13182
654.801	3681.0003
655.247	3703.60374
655.693	3753.75298
656.139	3550.20475
656.585	3611.19477
657.031	3675.96689
657.477	3580.55132
657.922	3637.91592
658.368	3539.42469
658.813	3674.99972
659.259	3590.21201
659.704	3555.03177
660.149	3546.03988
660.594	3483.18297
661.039	3548.90387
661.484	3563.22262
661.929	3565.07672
662.373	3587.57821
662.818	3521.4836
663.262	3694.22304
663.707	3551.63645
664.151	3593.37223
664.595	3572.28244
665.039	3701.48019
665.483	3744.63202
665.927	3777.07469
666.371	3779.93036
666.814	3869.13978
667.258	3729.10337
667.701	3871.5037
668.145	3827.46238
668.588	3854.34409
669.031	3823.03755
669.474	3914.18703
669.917	4007.59958
670.36	3910.4066
670.803	4110.13463
671.245	4162.22153
671.688	4055.24055
672.13	4092.62456
672.573	4120.52905
673.015	4124.09333
673.457	4171.41566
673.899	4248.10789
674.341	4201.0981
674.783	4242.02258
675.225	4327.17625
675.666	4219.0455
676.108	4322.33262
676.549	4461.84496
676.991	4309.43437
677.432	4311.83118
677.873	4286.77036
678.314	4432.91653
678.755	4322.11007
679.196	4292.69256
679.637	4374.13181
680.078	4315.84815
680.518	4476.73983
680.959	4343.99222
681.399	4420.21407
681.839	4385.09328
682.28	4292.23528
682.72	4316.6829
683.16	4282.31515
683.6	4336.66665
684.039	4282.12173
684.479	4287.20181
684.919	4180.78953
685.358	4452.39981
685.798	4417.6812
686.237	4394.0558
686.676	4348.78743
687.115	4439.81543
687.554	4435.89127
687.993	4395.43285
688.432	4376.65407
688.871	4374.60059
689.309	4443.92854
689.748	4503.03123
690.186	4487.9201
690.625	4505.75938
691.063	4537.91122
691.501	4534.15205
691.939	4586.18578
692.377	4578.01914
692.815	4642.82995
693.253	4692.85942
693.69	4579.28839
694.128	4645.92464
694.565	4628.82869
695.003	4572.34462
695.44	4662.69662
695.877	4612.67416
696.314	4756.06169
696.751	4694.48471
697.188	4741.49027
697.625	4810.46874
698.061	4799.77241
698.498	4814.84273
698.934	4745.83897
699.371	4735.66465
699.807	4837.65181
700.243	4848.76895
700.679	4773.38482
701.115	4813.64448
701.551	4812.63908
701.987	4772.34203
702.422	4829.68029
702.858	4889.67332
703.294	4888.32242
703.729	4945.85121
704.164	4874.7603
704.599	4873.21285
705.035	4866.23974
705.47	4858.8423
705.904	4878.51256
706.339	4960.47486
706.774	4932.52338
707.209	4882.43665
707.643	4986.6816
708.078	4973.79243
708.512	4939.01595
708.946	4938.69979
709.38	5026.5595
709.814	5123.25086
710.248	4967.80807
710.682	5085.54707
711.116	4944.63608
711.549	4875.33212
711.983	5023.3743
712.416	5021.55036
712.85	4967.9871
713.283	5081.51637
713.716	5039.01868
714.149	5043.60093
714.582	5023.17969
715.015	4842.10161
715.448	4742.20685
715.881	4878.10199
716.313	4811.59501
716.746	4791.63605
717.178	4769.80739
717.61	4794.22834
718.043	4770.09813
718.475	4635.94827
718.907	4694.27668
719.339	4632.45291
719.77	4517.83265
720.202	4545.33385
720.634	4508.03537
721.065	4479.86197
721.497	4428.14344
721.928	4363.18237
722.359	4322.05661
722.79	4293.02382
723.221	4358.39391
723.652	4264.64901
724.083	4125.69216
724.514	4158.8061
724.945	4125.97669
725.375	4076.89955
725.806	3986.49415
726.236	3897.72925
726.666	3889.13465
727.096	3876.39905
727.526	3849.66596
727.956	3782.89361
728.386	3741.47074
728.816	3665.68788
729.246	3501.43105
729.675	3574.50385
730.105	3571.51563
730.534	3515.17967
730.964	3439.7398
731.393	3456.61426
731.822	3396.81651
732.251	3297.77768
732.68	3271.28558
733.109	3244.57394
733.537	3251.43554
733.966	3166.63073
734.395	3102.17387
734.823	3099.04399
735.251	2990.43445
735.68	3080.69771
736.108	2959.75217
736.536	2910.30934
736.964	2892.20927
737.392	2885.66973
737.82	2819.40449
738.247	2745.38307
738.675	2817.38319
739.102	2710.61995
739.53	2674.72725
739.957	2606.7703
740.384	2611.52999
740.811	2576.67438
741.238	2482.41832
741.665	2408.1209
742.092	2448.29416
742.519	2301.41038
742.945	2291.25337
743.372	2293.41229
743.798	2242.58638
744.225	2232.17613
744.651	2188.42313
745.077	2147.36454
745.503	2164.26851
745.929	2131.16614
746.355	2164.36964
746.781	2018.24622
747.207	1969.95816
747.632	1927.09538
748.058	2019.27932
748.483	1950.87316
748.908	1898.1628
749.334	1857.07796
749.759	1780.84381
750.184	1757.86257
750.609	1749.98629
751.033	1721.80954
751.458	1723.61404
751.883	1701.97442
752.307	1614.68933
752.732	1513.7952
753.156	1615.86998
753.58	1614.72575
754.005	1547.90191
754.429	1439.50473
754.853	1454.69841
755.277	1444.53382
755.7	1470.72419
756.124	1393.62873
756.548	1377.4602
756.971	1369.54829
757.394	1320.65913
757.818	1280.59721
758.241	1281.5529
758.664	1301.56541
759.087	1147.01319
759.51	1256.45868
759.933	1171.24095
760.356	1179.43583
760.778	1150.2719
761.201	1152.24731
761.623	1126.20372
762.046	1127.14723
762.468	1103.14494
762.89	1046.12759
763.312	1080.15122
763.734	989.97799
764.156	971.00738
764.578	1005.89996
765	977.99085
765.421	842.84771
765.843	921.0636
766.264	934.90101
766.686	924.97081
767.107	809.69672
767.528	827.80757
767.949	847.86141
768.37	803.71076
768.791	776.63711
769.212	733.62425
769.632	682.40589
770.053	652.54874
770.473	717.53996
770.894	695.54956
771.314	677.43899
771.734	644.33995
772.154	607.41494
772.575	632.31144
772.994	582.19303
773.414	616.33332
773.834	542.24269
774.254	591.31151
774.673	594.3108
775.093	571.28649
775.512	511.15957
775.931	557.29216
776.351	536.22056
776.77	500.12746
777.189	500.09573
777.607	484.14712
778.026	444.03271
778.445	409.96359
778.864	461.10281
779.282	444.99771
779.701	464.08864
780.119	412.98026
780.537	404.95015
780.955	428.0212
781.373	413.96091
781.791	397.83766
782.209	430.92618
782.627	349.87747
783.045	364.79279
783.462	341.83174
783.88	323.80045
784.297	328.78914
784.715	320.78707
785.132	328.75853
785.549	305.73257
785.966	321.77304
786.383	305.72003
786.8	326.72268
787.217	305.69315
787.633	256.61875
788.05	333.75493
788.466	311.70277
788.883	222.55191
789.299	255.59476
789.715	283.66266
790.131	291.69629
790.547	258.62405
790.963	236.56955
791.379	231.56831
791.795	245.54212
792.21	220.50131
792.626	171.39933
793.041	227.54546
793.457	226.54398
793.872	213.4886
794.287	156.36709
794.702	273.64924
795.117	194.47192
795.532	167.41178
795.947	208.48925
796.362	251.58083
796.776	296.66574
797.191	169.40703
797.605	142.32946
798.02	178.42537
798.434	159.34919
798.848	163.39525
799.262	168.4099
799.676	174.4174
800.09	201.48354
800.504	174.41502
800.918	116.26711
801.331	184.47352
801.745	153.34674
802.158	148.36527
802.572	203.4813
802.985	204.4819
803.398	164.38501
803.811	184.46426
804.224	162.39717
804.637	122.28831
805.05	136.31204
805.462	180.43409
805.875	102.26296
806.288	75.18098
806.7	115.28701
807.112	145.33209
807.525	132.32255
807.937	105.25815
808.349	169.41625
808.761	134.32621
809.173	158.37714
809.584	142.34685
809.996	85.20774
810.408	100.25673
810.819	102.23881
811.231	46.11933
811.642	67.15996
812.053	107.25292
812.464	152.35614
812.875	153.38543
813.286	149.37831
813.697	156.3595
814.108	165.39649
814.519	127.28044
814.929	127.32085
815.34	135.32379
815.75	76.19293
816.16	103.25538
816.571	91.23554
816.981	111.26044
817.391	123.29433
817.801	74.18371
818.211	103.24431
818.62	79.18998
819.03	149.36008
819.44	138.35626
819.849	129.32171
820.259	127.32188
820.668	65.16004
821.077	103.25426
821.486	128.30519
821.895	157.38199
822.304	109.2868
822.713	92.21675
823.122	110.27259
823.531	106.24973
823.939	75.18262
824.348	120.28918
824.756	126.31246
825.164	105.26262
825.573	92.2299
825.981	84.20785
826.389	93.23269
826.797	106.26373
827.205	39.09011
827.612	116.28387
828.02	61.14352
828.428	102.2582
828.835	76.19967
829.243	87.20676
829.65	70.17397
830.057	116.27912
830.464	98.23751
830.871	115.27309
831.278	58.14051
831.685	113.25015
832.092	105.25538
832.499	84.18335
832.905	105.26404
833.312	111.25126
833.718	101.25015
834.124	104.23613
834.531	74.18632
834.937	131.33237
835.343	97.23283
835.749	115.26634
836.155	95.24742
836.561	96.23484
836.966	119.28824
837.372	106.26785
837.777	70.17423
838.183	104.2297
838.588	68.16876
838.993	121.29165
839.399	81.19745
839.804	18.04425
840.209	63.16036
840.613	64.14254
841.018	81.20449
841.423	89.22725
841.828	87.21909
842.232	113.27751
842.637	100.2344
843.041	32.08244
843.445	60.15058
843.849	62.15353
844.253	106.25002
844.657	38.09609
845.061	72.16321
845.465	70.16888
845.869	79.18311
846.272	47.11478
846.676	108.25908
847.079	64.16264
847.483	158.38737
847.886	101.24409
848.289	98.25981
848.692	85.21436
849.095	100.23852
849.498	177.43948
849.901	89.20318
850.304	97.23035
850.707	83.21081
851.109	97.24392
851.512	67.16448
851.914	48.1212
852.316	81.20413
852.718	54.13951
853.121	86.20976
853.523	51.11948
853.925	34.08905
854.326	77.19189
854.728	64.16442
855.13	36.0932
855.531	41.09834
855.933	91.21726
856.334	62.15448
856.736	31.06989
857.137	51.11882
857.538	62.15577
857.939	72.17744
858.34	118.28447
858.741	70.18259
859.142	115.2734
859.542	84.22061
859.943	73.18093
860.343	49.12154
860.744	118.28479
861.144	95.23019
861.544	20.04842
861.945	56.14277
862.345	94.22841
862.745	92.22723
863.145	126.29742
863.544	63.15905
863.944	92.21599
864.344	105.25862
864.743	118.28963
865.143	92.23487
865.542	76.1757
865.941	75.18507
866.34	98.23303
866.74	95.25333
867.139	43.10325
867.537	110.27766
867.936	102.24348
868.335	128.32159
868.734	73.18601
869.132	69.16
869.531	95.2282
869.929	94.21273
870.327	80.19096
870.726	133.3271
871.124	127.29285
871.522	40.10219
871.92	95.2327
872.318	83.20195
872.715	112.27449
873.113	95.22985
873.511	49.12225
873.908	35.08868
874.306	67.1663
874.703	82.20424
875.1	101.25635
875.497	98.23312
875.894	65.15898
876.291	51.12529
876.688	61.15718
877.085	88.2099
877.482	108.26782
877.878	42.10137
878.275	58.14729
878.671	159.34669
879.068	124.29554
879.464	99.23736
879.86	103.24139
880.256	92.22556
880.652	25.06393
881.048	125.30584
881.444	127.29821
881.84	51.12972
882.236	105.26167
882.631	80.19549
883.027	67.16192
883.422	90.22871
883.817	58.14567
884.213	111.28203
884.608	14.03459
885.003	90.21557
885.398	76.1895
885.793	87.21713
886.188	55.13672
886.582	114.2894
886.977	123.28814
887.371	97.24349
887.766	43.10716
888.16	94.23294
888.554	127.30993
888.949	92.22948
889.343	103.24939
889.737	44.11743
890.131	72.18005
890.525	109.27607
890.918	89.2226
891.312	155.36381
891.706	83.21669
892.099	76.19266
892.492	78.16751
892.886	112.27113
893.279	70.17783
893.672	93.23512
894.065	76.18957
894.458	77.19287
894.851	87.21192
895.244	55.14044
895.637	108.2575
896.029	59.14414
896.422	23.05653
896.814	73.18087
897.206	60.14273
897.599	114.27888
897.991	38.09216
898.383	85.19967
898.775	100.22364
899.167	30.07029
899.559	102.25599
899.951	96.2245
900.342	88.22244
900.734	14.03498
901.125	92.23981
901.517	44.1082
901.908	119.28182
902.299	61.14892
902.69	64.15072
903.082	86.20701
903.473	50.11981
903.863	63.16047
904.254	38.08848
904.645	132.32363
905.036	14.03415
905.426	148.33248
905.817	82.20015
906.207	57.13572
906.597	85.19756
906.987	135.34495
907.378	93.23353
907.768	63.16627
908.158	39.09535
908.547	66.1701
908.937	70.17909
909.327	96.23126
909.717	88.22205
910.106	82.19589
910.495	118.29112
910.885	90.22644
911.274	104.25753
911.663	61.15461
912.052	116.28292
912.441	80.20244
912.83	70.16016
913.219	87.22635
913.608	54.13225
913.997	24.06047
914.385	116.27382
914.774	77.18665
915.162	77.18264
915.55	118.28199
915.939	39.09867
916.327	90.22311
916.715	47.11988
917.103	60.14749
917.491	88.21631
917.878	90.21976
918.266	92.23694
918.654	52.13285
919.041	50.13056
919.429	61.14374
919.816	40.10162
920.203	58.14051
920.591	66.16325
920.978	98.23795
921.365	47.12342
921.752	93.22
922.139	130.27762
922.525	33.07954
922.912	89.21557
923.299	58.14399
923.685	70.18203
924.072	102.2329
924.458	58.14352
924.844	52.12867
925.231	66.15319
925.617	51.12972
926.003	88.22347
926.389	67.16855
926.774	44.11166
927.16	86.21226
927.546	83.21066
927.931	107.26433
928.317	79.181
928.702	90.21137
929.088	73.17195
929.473	96.24232
929.858	26.06315
930.243	53.12717
930.628	48.11686
931.013	46.11412
931.398	114.25894
931.783	83.21735
932.167	70.17054
932.552	87.21658
932.937	92.22665
933.321	35.08808
933.705	48.12107
934.09	104.26035
934.474	114.26753
934.858	76.19627
935.242	34.07907
935.626	85.21628
936.009	28.07475
936.393	51.12977
936.777	50.12805
937.16	68.17641
937.544	78.18283
937.927	76.19197
938.311	98.23715
938.694	85.2235
939.077	40.09596
939.46	116.28145
939.843	85.17605
940.226	81.20668
940.609	87.19829
940.991	64.16253
941.374	63.15363
941.757	105.25653
942.139	29.06543
942.522	133.30937
942.904	60.14399
943.286	73.18476
943.668	96.24672
944.05	114.27753
944.432	79.19394
944.814	91.22249
945.196	-3.00738
945.578	28.06684
945.959	64.14961
946.341	117.28371
946.722	81.18901
947.104	116.27382
947.485	87.20101
947.866	51.12848
948.247	78.19583
948.628	98.23697
949.009	56.14327
949.39	61.15158
949.771	87.20093
950.152	84.20488
950.532	7.01736
950.913	122.29032
951.293	59.15915
951.674	87.20898
952.054	49.12145
952.434	63.15603
952.814	115.27025
953.194	77.20061
953.574	114.27753
953.954	75.17728
954.334	86.21296
954.714	54.13151
955.093	131.3173
955.473	64.15964
955.853	49.12688
956.232	83.2263
956.611	98.23294
956.99	67.16788
957.37	50.12742
957.749	73.17342
958.128	56.14095
958.506	52.13485
958.885	92.23048
959.264	65.15886
959.643	118.26487
960.021	78.1923
960.4	85.19131
960.778	78.19117
961.156	87.21666
961.535	118.27139
961.913	94.21809
962.291	52.13336
962.669	52.13168
963.047	87.22058
963.424	70.17802
963.802	75.18357
964.18	134.334
964.557	80.18319
964.935	98.23007
965.312	93.24039
965.69	96.23842
966.067	68.16505
966.444	108.26331
966.821	125.31805
967.198	93.22382
967.575	116.28176
967.952	109.25395
968.329	50.12168
968.705	90.19137
969.082	63.16121
969.458	21.05066
969.835	67.16259
970.211	88.22434
970.587	62.15403
970.963	101.2568
971.339	61.15898
971.715	100.24744
972.091	68.1669
972.467	102.25202
972.843	61.15108
973.219	112.26581
973.594	62.16184
973.97	127.29786
974.345	51.12204
974.721	75.18077
975.096	61.14731
975.471	89.20956
975.846	94.22395
976.221	79.19959
976.596	51.12223
976.971	64.15761
977.346	123.28227
977.72	88.22268
978.095	62.1599
978.469	86.20387
978.844	94.23447
979.218	33.07936
979.593	71.16945
979.967	87.21049
980.341	102.23243
980.715	91.2276
981.089	62.15488
981.463	71.16235
981.837	17.0418
982.21	117.26871
982.584	58.13988
982.957	67.16679
983.331	103.24101
983.704	97.23628
984.078	47.11589
984.451	102.25239
984.824	43.10486
985.197	88.21223
985.57	43.10798
985.943	116.28303
986.316	115.27918
986.688	93.22246
987.061	87.20245
987.434	61.15865
987.806	139.33148
988.179	61.14363
988.551	118.29572
988.923	81.19833
989.295	102.25248
989.667	42.10049
990.039	54.13333
990.411	73.16726
990.783	117.26581
991.155	27.06515
991.527	137.33196
991.898	79.1958
992.27	47.11632
992.641	119.29483
993.012	98.22845
993.384	46.1098
993.755	69.17532
994.126	40.0964
994.497	53.13002
994.868	95.21626
995.239	97.233
995.61	108.2689
995.98	68.16462
996.351	59.14586
996.722	44.10217
997.092	69.16278
997.462	55.12834
997.833	86.20245
998.203	84.20235
998.573	66.16385
998.943	77.17961
999.313	87.207
999.683	29.06987
1000.053	81.18521
1000.423	76.18377
1000.792	84.21641
1001.162	62.15223
1001.531	86.21062
1001.901	72.17875
1002.27	110.24285
1002.639	84.21332
1003.009	122.28608
1003.378	48.12276
1003.747	75.17632
1004.116	58.13856
1004.485	58.1384
1004.853	97.24366
1005.222	94.23515
1005.591	77.18187
1005.959	24.05436
1006.328	57.12808
1006.696	75.18002
1007.064	103.25659
1007.433	68.16937
1007.801	95.23123
1008.169	96.24041
1008.537	87.19115
1008.905	97.22385
1009.273	79.19408
1009.64	64.15224
1010.008	74.17556
1010.375	117.28051
1010.743	128.29097
1011.11	13.03098
1011.478	99.24277
1011.845	94.21913
1012.212	65.14665
1012.579	57.13972
1012.946	83.19626
1013.313	134.31373
1013.68	90.20061
1014.047	66.15676
1014.414	49.11573
1014.78	83.20496
1015.147	80.19235
1015.513	92.21986
1015.88	93.23596
1016.246	120.29235
1016.612	150.33642
1016.978	104.25224
1017.344	78.19173
1017.71	109.26282
1018.076	105.24492
1018.442	89.22733
1018.808	49.12247
1019.174	65.16258
1019.539	132.29885
1019.905	67.15745
1020.27	53.13069
1020.636	74.17657
1021.001	101.23938
1021.366	51.12242
1021.731	78.19955
1022.096	33.08346
1022.461	109.25495
1022.826	93.21914
1023.191	54.14153
1023.556	74.17257
1023.92	96.23397
1024.285	99.23934
1024.649	91.22125
1025.014	60.1483
1025.378	51.12816
1025.742	73.18047
1026.107	71.15986
1026.471	116.26722
1026.835	76.18744
1027.199	69.16543
1027.562	69.15974
1027.926	73.17768
1028.29	73.1839
1028.654	109.24773
1029.017	88.21471
1029.381	73.17355
1029.744	109.27498
1030.107	89.2089
1030.471	64.15277
1030.834	81.18305
1031.197	115.27351
1031.56	105.24501
1031.923	75.19299
1032.286	124.2869
1032.648	87.20652
1033.011	62.14191
1033.374	87.20293
1033.736	46.12097
1034.099	96.23187
1034.461	37.09365
1034.823	47.11704
1035.185	105.26157
1035.548	96.23152
1035.91	98.2325
1036.272	77.17422
1036.634	114.27545
1036.995	37.08715
1037.357	93.22433
1037.719	70.16952
1038.08	115.26951
1038.442	75.17707
1038.803	76.18148
1039.165	64.16103
1039.526	50.12077
1039.887	88.20893
1040.248	44.10848
1040.609	108.2639
1040.97	53.12939
1041.331	65.16404
1041.692	52.12127
1042.053	86.19431
1042.413	87.20117
1042.774	60.14558
1043.134	94.2218
1043.495	68.17029
1043.855	57.13801
1044.215	98.24098
1044.576	26.06242
1044.936	97.22019
1045.296	117.28829
1045.656	87.21192
1046.016	88.21078
1046.375	44.1068
1046.735	63.14237
1047.095	57.13317
1047.454	88.18483
1047.814	73.17462
1048.173	85.20162
1048.533	88.19996
1048.892	4.00968
1049.251	92.22906
1049.61	71.17404
1049.969	56.13178
1050.328	77.1659
1050.687	84.20297
1051.046	68.16493
1051.405	84.20755
1051.763	68.15571
1052.122	44.10979
1052.48	55.13467
1052.839	72.16857
1053.197	74.17325
1053.555	132.29581
1053.914	84.20404
1054.272	95.22759
1054.63	73.17762
1054.988	52.12341
1055.345	41.08841
1055.703	111.26389
1056.061	87.22223
1056.419	74.19065
1056.776	105.25184
1057.134	47.10881
1057.491	102.25285
1057.848	99.24412
1058.206	106.24642
1058.563	69.15141
1058.92	117.26591
1059.277	116.2825
1059.634	104.24196
1059.991	72.17167
1060.348	52.11739
1060.704	35.0836
1061.061	130.29708
1061.418	69.16663
1061.774	63.15506
1062.131	66.17392
1062.487	55.12839
1062.843	96.2372
1063.199	66.16355
1063.555	40.09281
1063.911	75.18847
1064.267	140.286
1064.623	19.04639
1064.979	125.29168
1065.335	108.25513
1065.691	82.19521
1066.046	94.20466
1066.402	62.14043
1066.757	102.25488
1067.112	109.26441
1067.468	73.17148
1067.823	100.23797
1068.178	97.23238
1068.533	88.21167
1068.888	119.28041
1069.243	61.15014
1069.598	56.13582
1069.952	23.05204
1070.307	53.13103
1070.662	58.13739
1071.016	50.11196
1071.371	95.21399
1071.725	109.25764
1072.079	93.2217
1072.434	46.11178
1072.788	122.2863
1073.142	137.33133
1073.496	77.18158
1073.85	76.17521
1074.203	95.22837
1074.557	121.31772
1074.911	114.26857
1075.265	73.1688
1075.618	105.25356
1075.971	71.16808
1076.325	72.18213
1076.678	16.03681
1077.031	39.08839
1077.385	122.26449
1077.738	58.13062
1078.091	69.15619
1078.444	78.17997
1078.796	72.17581
1079.149	71.17578
1079.502	67.15763
1079.855	107.24653
1080.207	87.21271
1080.56	51.13169
1080.912	55.13367
1081.264	82.19611
1081.617	61.14825
1081.969	54.13601
1082.321	60.14612
1082.673	25.0573
1083.025	72.16996
1083.377	-136.30339
1083.728	105.24212
1084.08	105.25929
1084.432	28.06776
1084.783	141.32422
1085.135	39.09786
1085.486	36.08253
1085.838	74.1813
1086.189	51.12367
1086.54	94.2224
1086.891	18.04574
1087.242	66.16007
1087.593	101.24335
1087.944	110.24569
1088.295	75.16949
1088.646	55.13307
1088.996	77.1844
1089.347	74.18062
1089.698	54.12742
1090.048	80.20653
1090.398	118.26976
1090.749	82.19484
1091.099	26.06561
1091.449	79.19559
1091.799	100.2479
1092.149	31.07579
1092.499	61.14836
1092.849	82.20706
1093.199	84.20907
1093.548	53.12717
1093.898	43.10763
1094.248	61.15631
1094.597	34.08695
1094.947	81.21478
1095.296	75.18419
1095.645	109.28037
1095.994	76.18148
1096.343	74.18525
1096.692	66.17275
1097.041	29.07871
1097.39	110.27268
1097.739	76.19648
1098.088	96.25502
1098.437	39.10255
1098.785	71.19059
1099.134	112.29404
1099.482	83.22688
1099.83	79.20639
1100.179	51.13287
1100.527	83.21912
1100.875	57.15038
1101.223	50.13265
1101.571	53.14626
1101.919	14.03677
1102.267	51.14343
1102.615	8.02571
1102.962	19.06111
1103.31	10.03211
1103.658	21.06756
