Data from N2 R11 sample 1_Subt2__1__16-04-14-534.txt Node

Date: Mon Sep 01 16:04:14 PDT 2025
User: uwsun
Spectrometer: HDX01956
Trigger mode: 0
Integration Time (sec): 5.000000E-1
Scans to average: 1
Nonlinearity correction enabled: true
Boxcar width: 0
Storing dark spectrum: false
XAxis mode: Wavelengths
Number of Pixels in Spectrum: 2068
>>>>>Begin Spectral Data<<<<<
194.03	-25.07044
194.578	-28.08885
195.127	-39.12213
195.676	-22.06896
196.225	7.01855
196.773	13.03557
197.321	-20.05385
197.87	38.09337
198.418	7.01708
198.966	-30.07413
199.513	-92.21927
200.061	-43.10321
200.609	29.07261
201.156	-35.0723
201.704	-37.0882
202.251	-37.09291
202.798	0
203.345	13.03036
203.892	-33.07879
204.438	-4.00905
204.985	-61.13673
205.532	-47.11734
206.078	-1.00231
206.624	-53.12348
207.17	31.06748
207.716	-17.03887
208.262	-8.01495
208.808	-28.06471
209.354	-18.04125
209.899	44.10459
210.445	-17.0397
210.99	-17.03853
211.535	6.01331
212.08	-2.00439
212.625	-7.01657
213.17	10.02389
213.715	-65.13679
214.259	26.05692
214.804	65.15006
215.348	-14.03036
215.892	9.02035
216.436	53.11517
216.98	18.03764
217.524	1.00223
218.068	27.06399
218.612	22.05225
219.155	48.10566
219.698	6.01351
220.242	22.05191
220.785	48.10531
221.328	14.033
221.871	87.20652
222.414	44.10334
222.956	-45.10319
223.499	48.1014
224.041	57.12513
224.583	50.10214
225.126	-4.00838
225.668	7.01608
226.21	-20.04778
226.751	-26.05398
227.293	61.13086
227.835	5.01153
228.376	40.08727
228.918	36.08584
229.459	-31.07328
230	-42.09548
230.541	9.01966
231.082	-43.09947
231.622	21.04575
232.163	5.01143
232.704	5.01169
233.244	-11.02584
233.784	-5.01166
234.324	-46.09576
234.864	-17.03658
235.404	49.10947
235.944	7.01572
236.484	-5.01184
237.023	-2.00446
237.563	-7.01527
238.102	3.00669
238.641	-12.02873
239.18	-84.1877
239.719	6.01421
240.258	32.06757
240.797	-28.06339
241.335	26.05985
241.874	23.04141
242.412	12.02707
242.95	-12.02694
243.488	-2.00431
244.026	9.01945
244.564	46.0883
245.102	18.03782
245.64	53.11943
246.177	48.10028
246.715	56.12544
247.252	32.06887
247.789	106.18454
248.326	-37.08362
248.863	-6.01235
249.4	25.05317
249.936	-2.00386
250.473	6.01309
251.009	-36.07771
251.546	-11.02277
252.082	-9.01854
252.618	-31.06501
253.154	-27.06094
253.69	-22.04664
254.226	19.04225
254.761	0
255.297	-26.05348
255.832	24.05279
256.367	8.0176
256.903	-1.00205
257.438	18.03947
257.972	-15.03133
258.507	-51.10969
259.042	32.06442
259.576	-85.17282
260.111	16.0345
260.645	18.03629
261.179	-38.08312
261.713	-30.06251
262.247	-10.02157
262.781	-34.06668
263.315	-33.07555
263.849	-20.04666
264.382	8.01714
264.915	-43.09416
265.449	-79.17999
265.982	-21.04474
266.515	17.03834
267.048	-42.08319
267.58	36.07288
268.113	-43.08679
268.646	-19.04359
269.178	-9.0186
269.71	38.07639
270.243	5.0106
270.775	-26.06156
271.307	36.08008
271.838	97.21061
272.37	-8.01825
272.902	18.03782
273.433	-18.03652
273.965	-35.07935
274.496	-11.02545
275.027	3.00687
275.558	-27.06074
276.089	-53.12051
276.62	-34.08076
277.15	-12.0275
277.681	5.01004
278.211	-32.0731
278.741	-74.15186
279.272	-5.01049
279.802	-8.01846
280.332	-53.11591
280.861	-3.00665
281.391	-8.01665
281.921	0
282.45	4.00921
282.98	-43.104
283.509	-16.03309
284.038	-2.00417
284.567	33.07046
285.096	-4.00887
285.625	0
286.153	-29.06235
286.682	6.01249
287.21	-37.08177
287.739	-30.06501
288.267	-24.05307
288.795	2.00482
289.323	-76.16336
289.851	-19.04067
290.378	7.01424
290.906	-82.18225
291.433	-8.01815
291.961	-56.11591
292.488	-20.04535
293.015	-22.04686
293.542	9.0205
294.069	-8.01775
294.596	-12.027
295.122	-50.10872
295.649	19.03764
296.175	-44.09738
296.702	-16.03519
297.228	-18.03971
297.754	5.01006
298.28	-50.10265
298.806	-50.10872
299.332	-92.18487
299.857	-63.12861
300.383	-11.02513
300.908	-110.24204
301.433	-56.12239
301.958	-33.06884
302.483	-59.13225
303.008	-4.00885
303.533	-32.07513
304.058	-45.09566
304.582	-60.12663
305.107	-113.26658
305.631	7.01418
306.155	-93.19434
306.679	-81.16904
307.203	-35.07187
307.727	-86.18302
308.251	-38.08344
308.775	-74.15522
309.298	-63.13299
309.822	-72.16195
310.345	-63.13218
310.868	-30.06284
311.391	-26.05634
311.914	-55.1211
312.437	-40.0803
312.96	-42.08627
313.482	-42.0867
314.005	-73.161
314.527	-76.175
315.049	-30.0662
315.571	-108.20851
316.093	-61.1312
316.615	-124.26182
317.137	-72.13507
317.659	-27.05657
318.18	-66.13813
318.702	-67.13367
319.223	-86.15099
319.744	-47.08915
320.265	-79.16274
320.786	-84.17612
321.307	-107.22766
321.828	-58.11031
322.348	-38.0746
322.869	-81.1595
323.389	-24.03148
323.909	-71.13605
324.43	-34.06861
324.95	-82.15512
325.47	-124.25389
325.989	-73.14076
326.509	-106.18943
327.029	-133.24476
327.548	-114.20721
328.067	-146.28729
328.587	-124.25354
329.106	-115.21046
329.625	-84.18188
330.144	-124.22882
330.662	-154.28533
331.181	-134.25013
331.7	-165.3093
332.218	-108.18166
332.736	-123.22613
333.255	-113.20408
333.773	-145.26818
334.291	-73.14178
334.808	-131.22246
335.326	-111.18992
335.844	-153.26771
336.361	-183.35407
336.879	-153.26616
337.396	-162.29251
337.913	-135.22788
338.43	-145.23784
338.947	-184.32424
339.464	-167.25549
339.981	-189.32583
340.497	-190.34588
341.014	-221.39404
341.53	-214.34369
342.046	-172.30072
342.562	-180.32368
343.078	-222.37159
343.594	-138.22896
344.11	-162.26744
344.626	-215.38235
345.141	-259.40995
345.657	-133.20347
346.172	-139.22584
346.687	-205.31606
347.202	-186.27453
347.717	-166.2628
348.232	-185.31093
348.747	-203.30486
349.261	-277.38533
349.776	-249.38459
350.29	-283.45777
350.805	-167.26873
351.319	-225.33567
351.833	-264.37446
352.347	-220.32472
352.861	-258.37663
353.374	-207.29722
353.888	-236.35904
354.401	-291.41604
354.915	-318.42975
355.428	-298.46233
355.941	-266.37014
356.454	-215.28677
356.967	-269.38506
357.48	-260.35574
357.993	-242.35808
358.505	-308.45188
359.018	-237.33988
359.53	-295.41355
360.042	-253.31487
360.554	-271.38135
361.066	-331.46939
361.578	-240.28137
362.09	-297.40201
362.602	-308.36652
363.113	-319.40747
363.625	-291.34716
364.136	-251.28546
364.647	-441.54602
365.158	-267.32177
365.669	-282.35533
366.18	-348.43457
366.691	-307.33809
367.201	-336.41633
367.712	-323.36045
368.222	-376.42664
368.733	-331.32658
369.243	-368.3729
369.753	-300.31972
370.263	-359.40563
370.773	-398.47305
371.282	-398.42771
371.792	-453.426
372.301	-371.37329
372.811	-407.47191
373.32	-447.3303
373.829	-530.47694
374.338	-456.33715
374.847	-513.38907
375.356	-584.45886
375.865	-576.30158
376.373	-590.34067
376.882	-555.41581
377.39	-581.35943
377.898	-704.38992
378.407	-719.26405
378.915	-684.18033
379.423	-734.23076
379.93	-790.17087
380.438	-886.17547
380.946	-791.03865
381.453	-957.02448
381.96	-1105.93577
382.468	-1173.76038
382.975	-1022.75515
383.482	-1072.63635
383.989	-1175.6939
384.495	-1266.50467
385.002	-1438.29511
385.509	-1444.29222
386.015	-1549.16627
386.521	-1477.20079
387.028	-1712.09857
387.534	-1723.14086
388.04	-1638.1673
388.546	-2039.14231
389.051	-2104.40635
389.557	-2250.63933
390.063	-1850.94742
390.568	-2221.20991
391.073	-2494.94142
391.578	-2662.17647
392.084	-2859.41121
392.589	-3224.39967
393.093	-3712.08552
393.598	-3709.36003
394.103	-3864.3853
394.607	-4246.10461
395.112	-4502.25718
395.616	-4801.47715
396.12	-5532.93307
396.624	-6359.76571
397.128	-6695.00721
397.632	-6892.23588
398.136	-7715.87559
398.639	-9877.76102
399.143	-11632.3899
399.646	-12699.12223
400.15	-14193.44113
400.653	-16657.25134
401.156	-19710.44468
401.659	-23767.89863
402.162	-19781.13454
402.664	-5388.79345
403.167	-965.4283
403.67	0
404.172	0
404.674	0
405.176	0
405.678	0
406.18	0
406.682	0
407.184	0
407.686	0
408.187	0
408.688	0
409.19	0
409.691	0
410.192	0
410.693	-6749.94784
411.194	-11079.95718
411.694	-9948.99971
412.195	-8396.11339
412.696	-9244.92717
413.196	-10886.42971
413.696	-11867.18533
414.196	-10004.37729
414.696	-7245.10993
415.196	-4625.22441
415.696	-393.32151
416.196	235.97018
416.695	-2241.50713
417.195	-4132.00618
417.694	-4003.67043
418.194	-3348.11689
418.693	-3646.89176
419.192	-3645.36948
419.691	-3603.93084
420.19	-3027.16264
420.688	-2939.46473
421.187	-2449.78544
421.685	-2052.26529
422.184	-1602.72334
422.682	-1363.93535
423.18	-1744.48539
423.678	-1901.03067
424.176	-1775.1121
424.674	-1641.50002
425.172	-1277.95512
425.669	-1111.65566
426.167	-849.64078
426.664	-972.49798
427.161	-954.47027
427.659	-885.52421
428.156	-936.49284
428.652	-933.62261
429.149	-908.6483
429.646	-823.67909
430.143	-692.81917
430.639	-712.86084
431.135	-683.96053
431.632	-684.96358
432.128	-716.07658
432.624	-736.1815
433.12	-784.08135
433.616	-749.09065
434.111	-883.24675
434.607	-766.26883
435.103	-546.12769
435.598	-560.15201
436.093	-536.27925
436.588	-506.27212
437.083	-438.25898
437.578	-507.35846
438.073	-669.59752
438.568	-489.45386
439.062	-485.34854
439.557	-430.40056
440.051	-538.49216
440.546	-584.55965
441.04	-482.50135
441.534	-453.5332
442.028	-441.49083
442.522	-405.44513
443.015	-418.40609
443.509	-443.53724
444.002	-473.58197
444.496	-460.48114
444.989	-415.51633
445.482	-462.60158
445.975	-479.53775
446.468	-484.5162
446.961	-461.49181
447.454	-424.49514
447.947	-485.6121
448.439	-468.63351
448.931	-505.61037
449.424	-454.65888
449.916	-435.59558
450.408	-499.62234
450.9	-473.65401
451.392	-529.79724
451.884	-454.60282
452.375	-508.74925
452.867	-380.49739
453.358	-411.52946
453.849	-453.55256
454.341	-452.60137
454.832	-458.57736
455.323	-431.63811
455.814	-396.54868
456.304	-416.58611
456.795	-377.52284
457.285	-395.54853
457.776	-382.55293
458.266	-481.73573
458.756	-390.603
459.247	-452.69359
459.737	-429.65847
460.226	-417.59969
460.716	-369.57169
461.206	-441.71226
461.695	-389.66247
462.185	-427.68417
462.674	-355.54773
463.163	-338.49744
463.653	-396.55826
464.142	-452.76378
464.63	-363.62085
465.119	-387.61934
465.608	-400.64509
466.096	-340.51547
466.585	-305.49615
467.073	-327.56197
467.561	-339.58977
468.05	-318.53261
468.538	-309.55439
469.026	-325.5699
469.513	-362.55442
470.001	-373.62562
470.489	-319.55527
470.976	-335.57788
471.463	-312.58878
471.951	-329.6332
472.438	-328.58439
472.925	-344.61259
473.412	-296.56516
473.899	-254.4455
474.385	-285.54561
474.872	-325.59091
475.359	-296.56653
475.845	-259.41136
476.331	-217.36651
476.817	-297.58125
477.303	-298.5538
477.789	-308.60035
478.275	-312.62811
478.761	-236.4576
479.247	-281.51324
479.732	-365.75358
480.218	-284.61069
480.703	-271.55524
481.188	-282.49644
481.673	-264.49794
482.158	-335.58775
482.643	-272.58464
483.128	-284.53856
483.612	-302.59677
484.097	-205.42059
484.581	-259.51072
485.066	-258.52992
485.55	-271.50124
486.034	-254.46333
486.518	-315.634
487.002	-323.68124
487.486	-249.51917
487.969	-261.54661
488.453	-234.51011
488.936	-255.49503
489.42	-263.50593
489.903	-230.50479
490.386	-683.10351
490.869	-191.35945
491.352	-203.4353
491.835	-184.329
492.318	-213.41725
492.8	-225.40679
493.283	-258.57838
493.765	-259.56352
494.247	-169.34689
494.73	-207.40204
495.212	-188.4027
495.694	-244.50434
496.175	-314.66589
496.657	-198.41642
497.139	-196.30494
497.62	-284.60175
498.102	-256.56847
498.583	-257.58124
499.064	-289.58087
499.545	-213.43404
500.026	-243.48886
500.507	-245.5131
500.988	-221.49412
501.469	-280.63544
501.949	-204.45432
502.43	-273.58641
502.91	-261.48902
503.39	-218.49515
503.87	-229.48469
504.35	-210.45002
504.83	-280.56109
505.31	-281.62281
505.79	-269.58677
506.269	-202.42801
506.749	-301.63261
507.228	-266.57026
507.707	-202.4046
508.187	-219.47852
508.666	-284.64033
509.145	-259.5537
509.623	-246.52875
510.102	-250.55653
510.581	-186.4096
511.059	-226.51561
511.538	-232.55185
512.016	-196.42691
512.494	-206.45802
512.972	-177.38365
513.45	-250.52879
513.928	-242.53895
514.406	-279.61683
514.884	-200.46915
515.361	-191.41717
515.839	-158.3257
516.316	-183.40122
516.793	-208.48487
517.27	-123.27047
517.747	-240.56803
518.224	-213.45517
518.701	-190.38849
519.178	-257.58857
519.654	-163.35586
520.131	-210.47853
520.607	-143.32408
521.083	-233.4938
521.56	-169.36552
522.036	-177.35789
522.512	-150.3396
522.987	-216.47207
523.463	-226.49852
523.939	-167.37693
524.414	-157.33376
524.89	-201.4418
525.365	-167.34758
525.84	-215.47058
526.315	-234.52459
526.79	-186.38808
527.265	-198.4188
527.74	-198.44662
528.215	-158.34254
528.689	-215.4433
529.164	-182.36724
529.638	-188.44841
530.112	-216.47307
530.587	-161.31538
531.061	-167.37031
531.534	-145.3242
532.008	-176.39067
532.482	-163.34681
532.956	-254.60557
533.429	-172.38624
533.903	-152.31164
534.376	-164.33594
534.849	-182.39271
535.322	-191.42017
535.795	-211.48265
536.268	-173.38553
536.741	-171.38202
537.213	-150.32131
537.686	-153.3435
538.158	-174.36062
538.631	-148.33398
539.103	-202.42221
539.575	-97.18578
540.047	-121.24511
540.519	-107.23539
540.991	-156.3552
541.463	-138.309
541.934	-185.39533
542.406	-149.32805
542.877	-168.35286
543.348	-129.28807
543.82	-107.24171
544.291	-100.21495
544.762	-149.32613
545.233	-160.37078
545.703	-137.27892
546.174	-64.13514
546.645	-149.32599
547.115	-96.21061
547.585	-75.15666
548.056	-88.19119
548.526	-65.1371
548.996	-32.06899
549.466	-4.00873
549.935	-30.06293
550.405	25.04791
550.875	-5.01045
551.344	3.00636
551.814	29.05845
552.283	70.13242
552.752	55.1106
553.221	66.12295
553.69	113.21392
554.159	141.29308
554.628	184.3421
555.096	174.37223
555.565	238.43899
556.033	308.59892
556.502	338.67418
556.97	372.67036
557.438	444.85024
557.906	444.85723
558.374	500.91772
558.842	540.02645
559.31	658.1319
559.777	626.17987
560.245	788.39662
560.712	871.48463
561.18	953.4904
561.647	1025.59982
562.114	1135.75603
562.581	1300.14294
563.048	1368.0293
563.514	1450.26905
563.981	1566.1682
564.448	1750.21528
564.914	1837.40203
565.381	2049.41648
565.847	2219.58575
566.313	2297.57882
566.779	2478.46312
567.245	2636.63917
567.711	2874.74621
568.176	2940.39381
568.642	3144.95891
569.108	3371.79283
569.573	3592.49529
570.038	3829.75458
570.504	4006.96623
570.969	4264.55093
571.434	4573.52203
571.899	4681.95986
572.363	4913.56568
572.828	5307.4086
573.293	5453.33155
573.757	5620.26413
574.222	5817.0123
574.686	6108.95309
575.15	6258.23636
575.614	6364.04382
576.078	6539.13933
576.542	6689.0191
577.006	6817.98715
577.469	6937.46343
577.933	6961.9812
578.396	6960.25691
578.86	7017.22915
579.323	7088.28058
579.786	7078.91776
580.249	6879.03871
580.712	6985.39887
581.175	6838.41497
581.637	6855.12167
582.1	6802.916
582.563	6751.82823
583.025	6430.33797
583.487	6264.52802
583.95	6150.77484
584.412	6057.72591
584.874	5848.51152
585.336	5697.4286
585.797	5572.98728
586.259	5494.52304
586.721	5165.62355
587.182	5181.65001
587.643	4971.56288
588.105	4887.85154
588.566	4709.30346
589.027	4509.14599
589.488	4300.9639
589.949	4353.31019
590.41	4100.2361
590.87	4003.15286
591.331	3910.8916
591.791	3654.34182
592.252	3641.28139
592.712	3571.6321
593.172	3384.32407
593.632	3360.22162
594.092	3197.34487
594.552	3086.2035
595.011	2946.52362
595.471	2891.43137
595.931	2845.41618
596.39	2734.76334
596.849	2622.63459
597.308	2648.33204
597.768	2528.05427
598.227	2512.79745
598.685	2526.59433
599.144	2383.63292
599.603	2355.69051
600.062	2391.1736
600.52	2296.40361
600.978	2285.67571
601.437	2262.52723
601.895	2127.18865
602.353	2182.38275
602.811	2162.36889
603.269	2138.66451
603.727	2138.66268
604.184	2094.39108
604.642	2070.72833
605.099	2152.53808
605.557	2096.7256
606.014	2091.22065
606.471	2071.78258
606.928	2033.16981
607.385	2048.6455
607.842	2112.4534
608.299	2178.56262
608.755	2134.67395
609.212	2134.34214
609.668	2201.32513
610.125	2263.74436
610.581	2276.71746
611.037	2248.54652
611.493	2284.6966
611.949	2264.74083
612.405	2324.02401
612.861	2335.70954
613.316	2244.71564
613.772	2228.5583
614.227	2250.67181
614.683	2275.31411
615.138	2197.62582
615.593	2212.60802
616.048	2294.58964
616.503	2273.90401
616.958	2206.94728
617.412	2265.72004
617.867	2182.40456
618.321	2199.19643
618.776	2137.43234
619.23	2123.6588
619.684	2107.51958
620.138	2142.65503
620.592	1995.75955
621.046	2012.6481
621.5	1948.7434
621.954	1986.4914
622.407	1947.43188
622.861	1819.67622
623.314	1868.48164
623.768	1778.50434
624.221	1786.97568
624.674	1751.45719
625.127	1724.49853
625.58	1774.46431
626.033	1731.33449
626.485	1640.51806
626.938	1632.50856
627.39	1597.4064
627.843	1613.40781
628.295	1578.38097
628.747	1563.46089
629.199	1465.23951
629.651	1473.24527
630.103	1503.30087
630.555	1431.02506
631.006	1458.34466
631.458	1406.3112
631.909	1413.25964
632.361	1425.30983
632.812	1360.21295
633.263	1461.12249
633.714	1405.06404
634.165	1391.40811
634.616	1426.38689
635.067	1392.16377
635.518	1374.35168
635.968	1417.92438
636.419	1354.07625
636.869	1405.38527
637.319	1379.26964
637.769	1392.18881
638.219	1402.40751
638.669	1307.28697
639.119	1415.48847
639.569	1321.34287
640.019	1414.32828
640.468	1471.2791
640.918	1464.51326
641.367	1442.26939
641.816	1455.27498
642.265	1452.37424
642.714	1532.45363
643.163	1575.47432
643.612	1474.50647
644.061	1565.20062
644.51	1577.44499
644.958	1548.30896
645.406	1603.63689
645.855	1616.74521
646.303	1640.6032
646.751	1731.56941
647.199	1696.54916
647.647	1661.56032
648.095	1723.59717
648.543	1788.27224
648.99	1714.7434
649.438	1748.72492
649.885	1776.94565
650.333	1731.07224
650.78	1759.83116
651.227	1780.87887
651.674	1781.63208
652.121	1806.90682
652.568	1733.83554
653.015	1895.1535
653.461	1808.818
653.908	1856.78
654.354	1804.84227
654.801	1816.77241
655.247	1873.57419
655.693	1882.28462
656.139	1851.89661
656.585	1849.90003
657.031	1863.78487
657.477	1912.53149
657.922	1900.76972
658.368	1882.05331
658.813	1934.85258
659.259	1887.93521
659.704	1902.82643
660.149	2012.89896
660.594	1957.94675
661.039	1952.77483
661.484	1960.98865
661.929	1963.89698
662.373	2010.25645
662.818	2000.17772
663.262	2047.07137
663.707	2027.30151
664.151	2137.2053
664.595	2161.15289
665.039	2143.30324
665.483	2203.45188
665.927	2281.11224
666.371	2267.00459
666.814	2294.18907
667.258	2325.13807
667.701	2396.76078
668.145	2503.49673
668.588	2375.36577
669.031	2410.14623
669.474	2398.27814
669.917	2486.89911
670.36	2615.5133
670.803	2622.37045
671.245	2676.68472
671.688	2633.43546
672.13	2659.97513
672.573	2720.701
673.015	2765.36987
673.457	2781.84526
673.899	2734.42261
674.341	2811.40826
674.783	2806.36332
675.225	2917.53063
675.666	2758.36659
676.108	2865.84034
676.549	2906.31873
676.991	2911.91605
677.432	2980.3972
677.873	2960.18289
678.314	3057.36483
678.755	3007.47891
679.196	2993.11919
679.637	3038.51887
680.078	3037.25743
680.518	3090.23425
680.959	3105.38745
681.399	3123.60639
681.839	3201.48456
682.28	3150.56985
682.72	3101.11239
683.16	3236.62936
683.6	3195.09457
684.039	3233.57838
684.479	3179.53758
684.919	3139.13997
685.358	3342.76566
685.798	3285.99765
686.237	3341.43849
686.676	3395.16787
687.115	3476.21673
687.554	3383.30434
687.993	3433.85907
688.432	3508.03015
688.871	3382.01513
689.309	3564.29827
689.748	3641.46778
690.186	3611.29853
690.625	3618.15725
691.063	3550.33197
691.501	3542.55007
691.939	3721.55902
692.377	3770.38495
692.815	3689.26894
693.253	3860.26212
693.69	3774.69652
694.128	3756.33609
694.565	3816.2164
695.003	3850.65981
695.44	3838.10139
695.877	3829.05745
696.314	3815.55843
696.751	3950.86966
697.188	3926.91089
697.625	4069.86309
698.061	3955.19893
698.498	4033.24126
698.934	4037.19894
699.371	4015.03604
699.807	4114.03422
700.243	4071.17247
700.679	4189.70257
701.115	4220.96282
701.551	4205.96434
701.987	4252.62784
702.422	4176.02823
702.858	4284.00182
703.294	4340.62728
703.729	4319.18918
704.164	4311.06507
704.599	4376.49125
705.035	4372.51611
705.47	4354.11494
705.904	4308.82558
706.339	4483.74191
706.774	4380.829
707.209	4462.67152
707.643	4457.97476
708.078	4457.07722
708.512	4425.29368
708.946	4587.89611
709.38	4432.88989
709.814	4539.58001
710.248	4612.00682
710.682	4604.81798
711.116	4559.85152
711.549	4577.49207
711.983	4485.67651
712.416	4625.77361
712.85	4604.18849
713.283	4594.79069
713.716	4604.25953
714.149	4527.88972
714.582	4507.47085
715.015	4575.24704
715.448	4515.3277
715.881	4532.29783
716.313	4466.7863
716.746	4482.80715
717.178	4404.00592
717.61	4447.41156
718.043	4520.2328
718.475	4373.08742
718.907	4327.46374
719.339	4316.62568
719.77	4244.97432
720.202	4273.46761
720.634	4119.22699
721.065	4192.00892
721.497	4185.26191
721.928	4045.3295
722.359	4029.1937
722.79	4090.12046
723.221	4080.51877
723.652	4027.7459
724.083	3866.8122
724.514	3820.95802
724.945	3811.11182
725.375	3778.02733
725.806	3845.54544
726.236	3718.78262
726.666	3653.21986
727.096	3719.45219
727.526	3590.73669
727.956	3594.96283
728.386	3550.52344
728.816	3474.72868
729.246	3418.4487
729.675	3316.55293
730.105	3402.55076
730.534	3310.22727
730.964	3308.75547
731.393	3254.64103
731.822	3256.82798
732.251	3234.78144
732.68	3229.29181
733.109	3115.58114
733.537	3153.4449
733.966	3095.63205
734.395	3051.17833
734.823	3077.04664
735.251	2948.43328
735.68	3024.69545
736.108	2926.7482
736.536	2862.30712
736.964	2857.20827
737.392	2767.64919
737.82	2847.40737
738.247	2730.38069
738.675	2707.36768
739.102	2688.61442
739.53	2606.70514
739.957	2571.75697
740.384	2593.52464
740.811	2635.69459
741.238	2525.43306
741.665	2428.12714
742.092	2428.28713
742.519	2300.40987
742.945	2435.31264
743.372	2345.4383
743.798	2277.60812
744.225	2297.2063
744.651	2224.44516
745.077	2166.37663
745.503	2221.30081
745.929	2159.18208
746.355	2202.39297
746.781	2061.27698
747.207	2011.98508
747.632	1962.12174
748.058	2018.27857
748.483	2048.93215
748.908	2017.25626
749.334	1926.13415
749.759	1900.93628
750.184	1820.91495
750.609	1866.08885
751.033	1876.93541
751.458	1780.65662
751.883	1734.00569
752.307	1706.77333
752.732	1661.95819
753.156	1656.91249
753.58	1657.76678
754.005	1655.02292
754.429	1583.65372
754.853	1540.79832
755.277	1534.63
755.7	1519.78143
756.124	1486.74176
756.548	1446.53866
756.971	1405.59243
757.394	1434.81437
757.818	1412.78015
758.241	1414.73241
758.664	1352.63461
759.087	1225.10713
759.51	1285.4985
759.933	1162.22848
760.356	1283.58979
760.778	1172.30362
761.201	1188.29807
761.623	1245.36923
762.046	1186.22786
762.468	1150.21174
762.89	1121.24178
763.312	1103.18546
763.734	1055.0766
764.156	1071.16524
764.578	1086.01162
765	1044.09377
765.421	959.05127
765.843	984.1765
766.264	943.91544
766.686	925.97252
767.107	887.82857
767.528	863.872
767.949	799.7735
768.37	850.79256
768.791	867.7929
769.212	767.68765
769.632	723.47684
770.053	790.82694
770.473	760.61734
770.894	741.63654
771.314	756.57955
771.734	691.42288
772.154	719.63937
772.575	701.43249
772.994	636.28804
773.414	713.51164
773.834	626.4114
774.254	666.45516
774.673	633.38561
775.093	547.23837
775.512	558.25434
775.931	589.35786
776.351	537.2226
776.77	528.1839
777.189	496.08786
777.607	495.17075
778.026	517.18553
778.445	483.11939
778.864	479.14201
779.282	447.00179
779.701	462.08436
780.119	445.04987
780.537	446.03819
780.955	469.11044
781.373	460.05821
781.791	378.8009
782.209	462.98825
782.627	437.07897
783.045	397.8586
783.462	375.90884
783.88	364.89526
784.297	375.89414
784.715	366.89253
785.132	342.7887
785.549	344.82009
785.966	307.74129
786.383	345.80811
786.8	345.76177
787.217	324.73349
787.633	239.57952
788.05	359.80956
788.466	322.72599
788.883	290.71199
789.299	297.68699
789.715	323.75037
790.131	292.69855
790.547	279.67217
790.963	239.57647
791.379	276.67336
791.795	265.58392
792.21	257.58124
792.626	225.51984
793.041	249.59581
793.457	251.60129
793.872	227.51925
794.287	204.47554
794.702	237.56754
795.117	223.53951
795.532	202.49486
795.947	235.54985
796.362	217.50554
796.776	258.5848
797.191	185.44421
797.605	143.33171
798.02	177.42306
798.434	216.46867
798.848	220.52774
799.262	153.37434
799.676	193.4613
800.09	196.47196
800.504	208.49287
800.918	188.42667
801.331	217.55522
801.745	178.40135
802.158	150.37007
802.572	187.44474
802.985	217.51131
803.398	132.31183
803.811	189.47645
804.224	155.38051
804.637	142.33428
805.05	174.39618
805.462	195.46893
805.875	128.3285
806.288	101.24252
806.7	119.29677
807.112	173.39398
807.525	152.37003
807.937	101.2485
808.349	173.42579
808.761	141.34281
809.173	137.32833
809.584	169.41072
809.996	110.26759
810.408	103.26429
810.819	114.26628
811.231	101.25953
811.642	28.06735
812.053	103.24365
812.464	188.43738
812.875	177.44397
813.286	113.28874
813.697	175.40176
814.108	157.37784
814.519	148.32537
814.929	151.37985
815.34	172.40962
815.75	115.28991
816.16	123.30385
816.571	82.21258
816.981	141.32889
817.391	117.2803
817.801	95.23494
818.211	166.38895
818.62	108.25829
819.03	135.32711
819.44	178.45633
819.849	75.18887
820.259	139.35154
820.668	113.27576
821.077	77.19099
821.486	112.26786
821.895	137.33458
822.304	121.31772
822.713	100.23523
823.122	84.20915
823.531	96.22661
823.939	120.28973
824.348	119.28683
824.756	131.32456
825.164	139.34552
825.573	102.25442
825.981	101.24914
826.389	151.37384
826.797	67.16788
827.205	138.31256
827.612	139.3387
828.02	65.15281
828.428	94.23829
828.835	92.24104
829.243	121.28567
829.65	77.19113
830.057	111.26734
830.464	124.29905
830.871	109.25914
831.278	72.17397
831.685	98.21763
832.092	87.21231
832.499	116.25148
832.905	98.24675
833.312	92.20905
833.718	99.24528
834.124	86.19597
834.531	95.23829
834.937	81.20734
835.343	107.25634
835.749	123.28442
836.155	79.20632
836.561	90.22041
836.966	118.28587
837.372	92.23305
837.777	79.1963
838.183	76.16884
838.588	66.16385
838.993	121.29165
839.399	70.17099
839.804	45.11006
840.209	70.17795
840.613	85.18848
841.018	107.26888
841.423	95.24232
841.828	89.22405
842.232	157.38242
842.637	94.2206
843.041	85.21696
843.445	52.13069
843.849	77.19015
844.253	123.28916
844.657	69.17351
845.061	93.20991
845.465	70.16888
845.869	81.18767
846.272	65.15821
846.676	73.17629
847.079	65.16515
847.483	120.29628
847.886	116.27954
848.289	50.13362
848.692	111.27863
849.095	79.18919
849.498	131.328
849.901	78.17846
850.304	113.26751
850.707	54.13786
851.109	95.23898
851.512	75.18385
851.914	35.08858
852.316	59.14927
852.718	56.14462
853.121	105.25519
853.523	91.21151
853.925	57.14871
854.326	50.12522
854.728	39.10063
855.13	71.18269
855.531	66.15755
855.933	93.22195
856.334	94.23285
856.736	47.10561
857.137	52.12113
857.538	21.05315
857.939	53.13107
858.34	112.27031
858.741	89.2314
859.142	105.25011
859.542	89.23354
859.943	86.21265
860.343	14.03495
860.744	50.12222
861.144	65.15839
861.544	24.05806
861.945	67.17048
862.345	93.22602
862.745	44.10963
863.145	129.30433
863.544	66.16654
863.944	94.2206
864.344	74.18331
864.743	119.29203
865.143	122.30981
865.542	42.09776
865.941	51.12641
866.34	126.298
866.74	103.2743
867.139	52.12465
867.537	81.20552
867.936	76.18232
868.335	66.16767
868.734	74.18852
869.132	84.1942
869.531	153.36346
869.929	36.08243
870.327	76.18155
870.726	132.32471
871.124	53.12401
871.522	68.17287
871.92	101.24712
872.318	129.31116
872.715	104.25526
873.113	94.22747
873.511	90.22286
873.908	-13.03322
874.306	69.17121
874.703	140.34502
875.1	80.20381
875.497	81.19331
875.894	47.11534
876.291	112.27205
876.688	61.15718
877.085	75.17934
877.482	76.18957
877.878	27.06535
878.275	47.11959
878.671	101.22293
879.068	98.23474
879.464	47.1138
879.86	55.13011
880.256	75.18446
880.652	71.18008
881.048	84.20709
881.444	73.17322
881.84	80.20244
882.236	76.1904
882.631	81.19789
883.027	107.25663
883.422	70.17852
883.817	3.00761
884.213	78.19934
884.608	48.11786
885.003	64.15406
885.398	43.10786
885.793	62.15544
886.188	64.15883
886.582	118.29934
886.977	120.28128
887.371	66.1666
887.766	27.06748
888.16	104.25725
888.554	143.34793
888.949	111.27592
889.343	76.18495
889.737	47.12537
890.131	47.11806
890.525	47.12035
890.918	67.16824
891.312	92.2186
891.706	100.26031
892.099	111.27963
892.492	109.23252
892.886	41.10058
893.279	42.10723
893.672	62.15762
894.065	31.07796
894.458	74.18545
894.851	87.21192
895.244	39.09986
895.637	75.17995
896.029	53.12963
896.422	85.2065
896.814	52.12933
897.206	45.10736
897.599	104.25489
897.991	71.17113
898.383	121.28224
898.775	89.19949
899.167	-30.07112
899.559	99.2486
899.951	102.23825
900.342	106.26708
900.734	22.0549
901.125	112.29095
901.517	17.04201
901.908	109.25864
902.299	43.10533
902.69	69.16234
903.082	49.11878
903.473	42.10079
903.863	62.15795
904.254	58.13452
904.645	57.14169
905.036	33.0802
905.426	117.26451
905.817	91.22174
906.207	65.15453
906.597	17.04004
906.987	74.19111
907.378	78.19639
907.768	42.11124
908.158	81.19649
908.547	67.17264
908.937	81.20683
909.327	91.21942
909.717	115.28877
910.106	36.08676
910.495	99.2451
910.885	106.26593
911.274	71.17688
911.663	95.23932
912.052	109.2662
912.441	39.09941
912.83	53.12168
913.219	111.2876
913.608	97.23566
913.997	39.098
914.385	126.29684
914.774	79.19142
915.162	72.17095
915.55	73.17595
915.939	66.16618
916.327	103.25473
916.715	74.18786
917.103	104.25356
917.491	54.13357
917.878	96.23415
918.266	68.17586
918.654	56.14297
919.041	29.076
919.429	66.15537
919.816	70.17688
920.203	52.12612
920.591	50.12404
920.978	117.28307
921.365	92.23973
921.752	55.13106
922.139	120.25682
922.525	45.10822
922.912	98.23697
923.299	65.16116
923.685	62.16145
924.072	58.13361
924.458	61.15086
924.844	61.15069
925.231	57.13254
925.617	50.1272
926.003	89.22597
926.389	63.1586
926.774	93.23395
927.16	68.16839
927.546	65.16551
927.931	67.16673
928.317	69.15841
928.702	100.2344
929.088	63.14868
929.473	85.21498
929.858	29.0704
930.243	66.15797
930.628	28.06842
931.013	31.07712
931.398	103.23448
931.783	96.25084
932.167	70.17054
932.552	70.1748
932.937	93.22907
933.321	50.12549
933.705	76.19074
934.09	83.20857
934.474	73.17269
934.858	58.15026
935.242	35.08138
935.626	40.10259
936.009	60.15934
936.393	22.05626
936.777	50.12805
937.16	50.13011
937.544	107.24939
937.927	43.10926
938.311	86.20858
938.694	103.27
939.077	88.20917
939.46	112.27195
939.843	96.19834
940.226	75.19157
940.609	80.1826
940.991	46.11719
941.374	57.13915
941.757	97.23733
942.139	85.18958
942.522	100.23413
942.904	94.22412
943.286	81.20471
943.668	89.22901
944.05	92.22489
944.432	79.19394
944.814	97.23689
945.196	18.04413
945.578	45.10707
945.959	80.18642
946.341	76.18571
946.722	98.22791
947.104	39.09343
947.485	131.30002
947.866	80.20049
948.247	75.1884
948.628	97.2346
949.009	54.1382
949.39	99.2443
949.771	99.2281
950.152	51.12516
950.532	39.09613
950.913	71.17062
951.293	34.09209
951.674	50.12095
952.054	57.14107
952.434	76.18778
952.814	70.16594
953.194	84.21859
953.574	85.20805
953.954	89.2098
954.334	91.22513
954.714	13.0319
955.093	90.21968
955.473	61.15224
955.853	104.26672
956.232	95.25851
956.611	90.21426
956.99	103.25641
957.37	61.15516
957.749	64.1523
958.128	92.23006
958.506	66.17074
958.885	43.10868
959.264	59.14436
959.643	79.17875
960.021	40.0993
960.4	82.18467
960.778	71.17424
961.156	56.14024
961.535	97.22403
961.913	101.23401
962.291	54.13844
962.669	44.11158
963.047	38.09718
963.424	54.13772
963.802	32.07895
964.18	144.35827
964.557	115.26147
964.935	105.24617
965.312	39.10175
965.69	108.26763
966.067	102.24599
966.444	141.34165
966.821	118.30061
967.198	95.22855
967.575	80.19563
967.952	113.26306
968.329	56.13613
968.705	96.20386
969.082	61.15614
969.458	-2.00485
969.835	67.16259
970.211	65.16638
970.587	75.18589
970.963	78.19913
971.339	15.0394
971.715	94.23285
972.091	90.22
972.467	96.23746
972.843	85.20959
973.219	138.32587
973.594	74.19276
973.97	124.291
974.345	41.0983
974.721	117.27976
975.096	66.15923
975.471	86.20261
975.846	91.21693
976.221	47.11942
976.596	110.26066
976.971	72.17705
977.346	104.23957
977.72	85.21521
978.095	66.1701
978.469	122.2872
978.844	122.30276
979.218	23.05542
979.593	97.23035
979.967	74.17948
980.341	76.1741
980.715	95.23744
981.089	52.13013
981.463	77.17586
981.837	56.13669
982.21	123.28215
982.584	59.14226
982.957	70.17416
983.331	59.13924
983.704	61.14959
984.078	53.13055
984.451	128.31521
984.824	92.22229
985.197	114.27358
985.57	89.22164
985.943	81.19892
986.316	143.34532
986.688	84.20128
987.061	73.17034
987.434	62.16123
987.806	89.21428
988.179	107.24968
988.551	93.23412
988.923	83.20316
989.295	95.23546
989.667	20.04805
990.039	36.08918
990.411	107.24348
990.783	68.15602
991.155	70.16754
991.527	140.33904
991.898	84.20801
992.27	68.16765
992.641	81.20208
993.012	86.20095
993.384	54.1287
993.755	69.17532
994.126	86.20544
994.497	41.1008
994.868	86.19613
995.239	57.13796
995.61	32.08077
995.98	83.20036
996.351	53.13117
996.722	10.02338
997.092	46.10901
997.462	35.08199
997.833	85.20014
998.203	86.20709
998.573	53.13189
998.943	74.17271
999.313	27.06498
999.683	93.22136
1000.053	67.15363
1000.423	68.16468
1000.792	62.16034
1001.162	56.13765
1001.531	65.15981
1001.901	50.12463
1002.27	80.17773
1002.639	50.12774
1003.009	51.12125
1003.378	84.21347
1003.747	79.18558
1004.116	55.13146
1004.485	59.14076
1004.853	100.25106
1005.222	111.27682
1005.591	100.23513
1005.959	74.1659
1006.328	60.13474
1006.696	59.14205
1007.064	70.17543
1007.433	81.20127
1007.801	111.26937
1008.169	76.19101
1008.537	131.28515
1008.905	63.14637
1009.273	115.28064
1009.64	33.07897
1010.008	98.23142
1010.375	149.35505
1010.743	150.33946
1011.11	72.16963
1011.478	76.18716
1011.845	98.22827
1012.212	77.1733
1012.579	43.10568
1012.946	93.21948
1013.313	106.24953
1013.68	82.18308
1014.047	56.13327
1014.414	67.15769
1014.78	77.19036
1015.147	85.20418
1015.513	82.19634
1015.88	110.27825
1016.246	117.2852
1016.612	79.17977
1016.978	91.22125
1017.344	38.0941
1017.71	91.22017
1018.076	72.16903
1018.442	100.25494
1018.808	40.10014
1019.174	69.17245
1019.539	126.28561
1019.905	41.09684
1020.27	76.18661
1020.636	111.26298
1021.001	45.10781
1021.366	50.12004
1021.731	68.17427
1022.096	45.11357
1022.461	40.09482
1022.826	42.09995
1023.191	64.16746
1023.556	61.14262
1023.92	70.17143
1024.285	72.17495
1024.649	75.18289
1025.014	111.27179
1025.378	46.1157
1025.742	85.20967
1026.107	98.21943
1026.471	63.14666
1026.835	75.18501
1027.199	72.17253
1027.562	76.1757
1027.926	88.21359
1028.29	78.19632
1028.654	126.28538
1029.017	99.24106
1029.381	68.16182
1029.744	70.17783
1030.107	73.17188
1030.471	55.13151
1030.834	71.16078
1031.197	88.21038
1031.56	85.19912
1031.923	61.15735
1032.286	95.22107
1032.648	124.29225
1033.011	72.16447
1033.374	54.12678
1033.736	39.10269
1034.099	84.20335
1034.461	48.12125
1034.823	60.14907
1035.185	125.31026
1035.548	98.23626
1035.91	53.12683
1036.272	76.172
1036.634	75.18255
1036.995	50.11748
1037.357	68.1648
1037.719	71.17191
1038.08	80.18877
1038.442	69.1631
1038.803	107.25399
1039.165	73.18338
1039.526	71.17081
1039.887	85.20193
1040.248	49.12069
1040.609	86.21101
1040.97	67.16314
1041.331	101.25325
1041.692	44.10277
1042.053	99.22309
1042.413	85.19663
1042.774	129.30893
1043.134	71.16828
1043.495	76.19005
1043.855	68.16431
1044.215	63.15592
1044.576	92.21809
1044.936	109.24683
1045.296	106.26171
1045.656	80.19512
1046.016	76.18246
1046.375	65.15715
1046.735	67.15129
1047.095	101.23392
1047.454	88.18483
1047.814	56.13439
1048.173	125.2942
1048.533	93.21111
1048.892	51.12232
1049.251	82.20454
1049.61	58.14252
1049.969	70.16427
1050.328	64.13828
1050.687	84.20297
1051.046	59.14334
1051.405	57.14153
1051.763	65.14893
1052.122	46.11474
1052.48	89.21655
1052.839	71.16626
1053.197	63.14782
1053.555	155.3457
1053.914	103.2493
1054.272	92.22053
1054.63	30.07358
1054.988	76.17954
1055.345	67.14367
1055.703	75.17954
1056.061	48.12345
1056.419	59.1524
1056.776	95.22829
1057.134	61.14083
1057.491	113.27956
1057.848	93.22957
1058.206	83.19383
1058.563	45.09924
1058.92	62.14248
1059.277	101.24666
1059.634	117.27151
1059.991	89.21151
1060.348	48.10845
1060.704	46.10964
1061.061	97.22314
1061.418	67.16186
1061.774	66.16236
1062.131	39.10324
1062.487	83.19269
1062.843	69.17133
1063.199	74.18311
1063.555	48.11119
1063.911	55.13871
1064.267	129.26419
1064.623	68.16449
1064.979	111.25973
1065.335	91.21568
1065.691	86.20458
1066.046	69.15103
1066.402	59.13371
1066.757	65.16351
1067.112	111.26916
1067.468	80.18767
1067.823	63.15099
1068.178	53.12804
1068.533	64.15464
1068.888	60.143
1069.243	64.15744
1069.598	72.1741
1069.952	48.10805
1070.307	43.1065
1070.662	49.11627
1071.016	23.05179
1071.371	89.20072
1071.725	74.1761
1072.079	96.22872
1072.434	63.1526
1072.788	63.14955
1073.142	81.19797
1073.496	40.09501
1073.85	82.18882
1074.203	54.13082
1074.557	43.1144
1074.911	92.21767
1075.265	108.24799
1075.618	81.19649
1075.971	56.13296
1076.325	60.1521
1076.678	50.11426
1077.031	85.19084
1077.385	94.20501
1077.738	69.15504
1078.091	80.18068
1078.444	72.16632
1078.796	73.17821
1079.149	87.21476
1079.502	78.18312
1079.855	67.1556
1080.207	75.18378
1080.56	41.10605
1080.912	69.16726
1081.264	83.19847
1081.617	71.17223
1081.969	49.12353
1082.321	80.1941
1082.673	22.05046
1083.025	105.24627
1083.377	104.22046
1083.728	96.22176
1084.08	81.20091
1084.432	68.16331
1084.783	112.25903
1085.135	68.16974
1085.486	32.07342
1085.838	26.06427
1086.189	44.10684
1086.54	90.2131
1086.891	69.17376
1087.242	62.15049
1087.593	99.23862
1087.944	86.19304
1088.295	111.249
1088.646	84.20212
1088.996	45.10842
1089.347	96.23336
1089.698	55.12975
1090.048	59.15287
1090.398	124.28314
1090.749	105.24838
1091.099	35.08817
1091.449	48.11951
1091.799	89.22107
1092.149	3.00737
1092.499	63.15317
1092.849	45.11438
1093.199	74.18452
1093.548	11.0266
1093.898	50.12499
1094.248	48.12328
1094.597	28.07168
1094.947	77.20431
1095.296	71.17449
1095.645	78.20172
1095.994	80.19089
1096.343	103.2565
1096.692	39.10255
1097.041	33.08951
1097.39	100.24835
1097.739	70.18116
1098.088	86.22884
1098.437	76.19858
1098.785	101.26977
1099.134	89.23457
1099.482	64.17547
1099.83	61.15985
1100.179	37.09663
1100.527	76.20088
1100.875	40.10583
1101.223	34.09044
1101.571	49.13531
1101.919	36.09419
1102.267	61.17129
1102.615	-4.01287
1102.962	17.05469
1103.31	2.00643
1103.658	17.05472
