Data from N2 R11 sample 5_Subt2__2__16-01-02-039.txt Node

Date: Mon Sep 01 16:01:02 PDT 2025
User: uwsun
Spectrometer: HDX01956
Trigger mode: 0
Integration Time (sec): 5.000000E-1
Scans to average: 1
Nonlinearity correction enabled: true
Boxcar width: 0
Storing dark spectrum: false
XAxis mode: Wavelengths
Number of Pixels in Spectrum: 2068
>>>>>Begin Spectral Data<<<<<
194.03	-13.03656
194.578	-25.0793
195.127	-24.07502
195.676	-9.02816
196.225	58.15238
196.773	21.05738
197.321	19.05083
197.87	53.12987
198.418	84.20197
198.966	-25.06171
199.513	-59.13973
200.061	-26.06221
200.609	50.12472
201.156	-23.04738
201.704	-47.11226
202.251	-42.10556
202.798	27.06574
203.345	72.16619
203.892	45.10583
204.438	34.07629
204.985	15.0331
205.532	1.00247
206.078	19.0438
206.624	-62.1447
207.17	21.04581
207.716	-7.01597
208.262	-5.00934
208.808	-52.12074
209.354	-27.06199
209.899	54.12811
210.445	-12.028
210.99	-14.03171
211.535	36.07935
212.08	11.0241
212.625	25.0588
213.17	57.13494
213.715	-62.13039
214.259	46.10028
214.804	58.13409
215.348	72.15329
215.892	39.08763
216.436	54.11732
216.98	88.18116
217.524	16.03555
218.068	75.17611
218.612	81.1902
219.155	40.0882
219.698	22.04936
220.242	68.15902
220.785	14.03093
221.328	58.13553
221.871	31.07438
222.414	37.08702
222.956	-27.06169
223.499	26.05519
224.041	95.20688
224.583	52.10618
225.126	18.03752
225.668	20.04583
226.21	-22.05258
226.751	-18.03731
227.293	33.07122
227.835	25.05744
228.376	41.08944
228.918	27.06449
229.459	7.01642
230	8.018
230.541	-13.02853
231.082	15.0343
231.622	-5.01095
232.163	3.00686
232.704	29.06748
233.244	24.05599
233.784	59.13589
234.324	-33.0685
234.864	16.03418
235.404	39.08731
235.944	49.10906
236.484	28.06589
237.023	29.06425
237.563	22.0477
238.102	46.10173
238.641	18.04285
239.18	40.08709
239.719	50.11738
240.258	60.12591
240.797	47.10478
241.335	70.15971
241.874	39.06993
242.412	20.04504
242.95	-28.06306
243.488	25.05352
244.026	3.00649
244.564	52.09967
245.102	-2.00422
245.64	43.0971
246.177	19.03995
246.715	50.11214
247.252	104.22036
247.789	147.25315
248.326	-4.00898
248.863	41.08347
249.4	67.14119
249.936	62.11797
250.473	43.09304
251.009	27.0575
251.546	25.05134
252.082	30.06126
252.618	34.07028
253.154	9.02016
253.69	13.02735
254.226	28.06215
254.761	27.05642
255.297	11.02244
255.832	-10.02215
256.367	45.0982
256.903	24.04894
257.438	18.03947
257.972	32.06614
258.507	-42.09016
259.042	41.08237
259.576	5.00996
260.111	34.07302
260.645	71.14139
261.179	27.05825
261.713	28.05759
262.247	31.06627
262.781	-29.05681
263.315	37.08351
263.849	7.01624
264.382	17.03634
264.915	46.09883
265.449	-28.06314
265.982	83.17283
266.515	8.01808
267.048	48.09307
267.58	51.10288
268.113	11.02193
268.646	-36.08286
269.178	-5.01032
269.71	20.04037
270.243	-1.00212
270.775	25.05861
271.307	49.1087
271.838	40.0879
272.37	47.106
272.902	95.19623
273.433	17.03422
273.965	-3.00676
274.496	-15.03473
275.027	0
275.558	-20.04493
276.089	-13.02932
276.62	18.04232
277.15	37.08396
277.681	2.00402
278.211	14.03168
278.741	-15.03037
279.272	-7.01469
279.802	24.05502
280.332	14.03018
280.861	15.03311
281.391	-13.02708
281.921	29.06404
282.45	30.06869
282.98	33.07867
283.509	4.00823
284.038	44.09091
284.567	65.13782
285.096	18.03972
285.625	-25.0521
286.153	21.04466
286.682	-3.00626
287.21	-22.04847
287.739	19.04074
288.267	-22.04863
288.795	84.19921
289.323	-39.08316
289.851	29.06143
290.378	11.02236
290.906	-31.06817
291.433	23.05185
291.961	29.05888
292.488	4.00903
293.015	12.02537
293.542	-18.04123
294.069	-22.04896
294.596	38.08463
295.122	8.01718
295.649	31.06124
296.175	11.02407
296.702	16.03495
297.228	51.11087
297.754	-16.03234
298.28	2.00406
298.806	-47.10213
299.332	-20.03952
299.857	-3.00604
300.383	23.05219
300.908	-73.15938
301.433	-6.01297
301.958	5.01034
302.483	-13.02886
303.008	7.01545
303.533	15.03489
304.058	31.06481
304.582	-15.03135
305.107	-12.02775
305.631	14.02831
306.155	-42.08677
306.679	-37.07646
307.203	27.05467
307.727	16.03329
308.251	15.03257
308.775	-62.12971
309.298	-28.05865
309.822	-31.06914
310.345	43.0881
310.868	27.05585
311.391	-9.01943
311.914	-57.12555
312.437	22.04353
312.96	-29.05939
313.482	-20.04108
314.005	-68.14981
314.527	-26.05927
315.049	24.05236
315.571	-60.1145
316.093	54.11327
316.615	-21.04334
317.137	10.01838
317.659	56.11518
318.18	-25.05185
318.702	-18.0355
319.223	-46.07991
319.744	4.00749
320.265	-30.06112
320.786	-36.07468
321.307	-55.1157
321.828	-19.03579
322.348	-7.01364
322.869	-70.13748
323.389	21.02713
323.909	18.03375
324.43	16.03191
324.95	-4.00742
325.47	-24.04803
325.989	15.02831
326.509	-24.04198
327.029	-38.06826
327.548	-70.12581
328.067	-46.08838
328.587	-46.09239
329.106	-83.15067
329.625	29.06127
330.144	-26.0468
330.662	-70.12697
331.181	-60.10994
331.7	-77.1412
332.218	-34.05603
332.736	-33.05929
333.255	-41.07268
333.773	-64.11597
334.291	-42.08097
334.808	-116.19618
335.326	-14.02333
335.844	-72.12329
336.361	-90.17025
336.879	-60.1018
337.396	-85.15045
337.913	-73.12115
338.43	-43.06852
338.947	-123.21329
339.464	-129.19512
339.981	-104.17522
340.497	-79.13976
341.014	-126.21913
341.53	-119.18595
342.046	-143.2481
342.562	-124.21977
343.078	-123.20029
343.594	-100.16416
344.11	-88.14229
344.626	-68.11632
345.141	-50.07438
345.657	-42.06252
346.172	-120.19392
346.687	-113.16949
347.202	-126.18255
347.717	-107.16651
348.232	-129.21349
348.747	-94.13653
349.261	-135.17921
349.776	-160.24064
350.29	-185.29095
350.805	-127.20204
351.319	-140.20347
351.833	-162.22235
352.347	-137.19707
352.861	-118.16481
353.374	-133.18653
353.888	-94.13695
354.401	-140.19065
354.915	-129.16347
355.428	-153.22727
355.941	-154.20656
356.454	-78.09929
356.967	-162.22409
357.48	-113.14719
357.993	-161.23232
358.505	-175.24623
359.018	-123.17008
359.53	-243.33497
360.042	-92.108
360.554	-107.1427
361.066	-175.2359
361.578	-136.15329
362.09	-112.14237
362.602	-135.15048
363.113	-131.15647
363.625	-183.20968
364.136	-109.11728
364.647	-221.25228
365.158	-215.2542
365.669	-183.22259
366.18	-182.21399
366.691	-157.16278
367.201	-183.21445
367.712	-165.1729
368.222	-173.18114
368.733	-235.22234
369.243	-212.20083
369.753	-125.12389
370.263	-235.25291
370.773	-271.30705
371.282	-256.25952
371.792	-270.23329
372.301	-240.22817
372.811	-256.28002
373.32	-392.28101
373.829	-331.2706
374.338	-347.24145
374.847	-305.20598
375.356	-358.24871
375.865	-329.1421
376.373	-389.19493
376.882	-367.24739
377.39	-365.19552
377.898	-522.25313
378.407	-436.11698
378.915	-369.05879
379.423	-456.10005
379.93	-441.04563
380.438	-549.04917
380.946	-504.98231
381.453	-655.95946
381.96	-791.88616
382.468	-876.75968
382.975	-725.77826
383.482	-701.71401
383.989	-758.73523
384.495	-874.60189
385.002	-1061.43769
385.509	-1108.41688
386.015	-1014.44514
386.521	-1152.36881
387.028	-1198.3756
387.534	-1159.45791
388.04	-1124.45602
388.546	-1445.47656
389.051	-1624.66395
389.557	-1757.88661
390.063	-1310.13973
390.568	-1595.42104
391.073	-1747.08457
391.578	-1689.30775
392.084	-2070.38568
392.589	-2454.19362
393.093	-2848.65142
393.598	-2848.33802
394.103	-3007.77749
394.607	-3087.70258
395.112	-3182.39218
395.616	-3475.36109
396.12	-4192.75315
396.624	-4693.8835
397.128	-5004.69129
397.632	-4956.38568
398.136	-5682.09043
398.639	-7411.7874
399.143	-9192.49031
399.646	-10023.67846
400.15	-10932.93781
400.653	-13135.17353
401.156	-15597.9594
401.659	-19133.23814
402.162	-14268.50605
402.664	-2256.69315
403.167	-352.43566
403.67	0
404.172	0
404.674	0
405.176	0
405.678	0
406.18	0
406.682	0
407.184	0
407.686	0
408.187	0
408.688	0
409.19	0
409.691	0
410.192	0
410.693	-416.89679
411.194	-5119.64812
411.694	-3907.64113
412.195	-3214.9208
412.696	-4738.76267
413.196	-6836.89296
413.696	-8130.36718
414.196	-6282.97615
414.696	-3486.47845
415.196	-524.30936
415.696	3200.778
416.196	3240.38781
416.695	-17.24796
417.195	-2261.57324
417.694	-1991.27275
418.194	-1540.90726
418.693	-2047.19373
419.192	-2065.16175
419.691	-1840.14804
420.19	-1707.43787
420.688	-1470.57568
421.187	-1006.27611
421.685	-581.90914
422.184	-182.16934
422.682	-253.09745
423.18	-712.82791
423.678	-1046.52005
424.176	-1024.94138
424.674	-921.50456
425.172	-554.09095
425.669	-479.90987
426.167	-347.87848
426.664	-406.80883
427.161	-366.80132
427.659	-487.72655
428.156	-482.72773
428.652	-518.75745
429.149	-511.76918
429.646	-316.85189
430.143	-383.8749
430.639	-323.90815
431.135	-464.94564
431.632	-376.94887
432.128	-397.00412
432.624	-465.073
433.12	-518.01169
433.616	-497.02149
434.111	-698.15095
434.607	-606.17855
435.103	-378.06749
435.598	-330.06425
436.093	-322.14218
436.588	-281.12755
437.083	-269.14176
437.578	-303.18988
438.073	-490.40122
438.568	-347.3015
439.062	-322.21062
439.557	-297.26018
440.051	-401.34393
440.546	-366.31729
441.04	-358.3534
441.534	-316.35304
442.028	-318.33702
442.522	-443.4942
443.015	-277.25268
443.509	-312.36043
444.002	-364.43037
444.496	-351.35077
444.989	-348.42267
445.482	-345.43128
445.975	-412.45054
446.468	-316.31428
446.961	-365.37434
447.454	-383.44039
447.947	-406.49818
448.439	-361.47138
448.931	-411.47976
449.424	-317.44043
449.916	-303.39694
450.408	-364.43227
450.9	-408.55221
451.392	-382.55018
451.884	-362.46579
452.375	-409.58487
452.867	-319.40887
453.358	-373.4742
453.849	-333.38861
454.341	-368.4758
454.832	-350.42449
455.323	-423.62473
455.814	-383.52843
456.304	-381.53078
456.795	-335.45826
457.285	-286.38317
457.776	-316.44797
458.266	-364.53737
458.756	-364.55848
459.247	-347.51587
459.737	-412.62918
460.226	-379.53853
460.716	-331.50707
461.206	-351.55242
461.695	-352.59345
462.185	-325.50556
462.674	-271.40775
463.163	-316.46191
463.653	-340.47073
464.142	-352.5786
464.63	-244.40395
465.119	-355.56292
465.608	-317.49918
466.096	-291.43469
466.585	-276.44531
467.073	-300.51183
467.561	-307.52957
468.05	-236.38637
468.538	-273.48525
469.026	-261.44997
469.513	-280.41838
470.001	-304.50023
470.489	-261.44732
470.976	-254.42867
471.463	-268.50028
471.951	-252.47601
472.438	-314.55742
472.925	-318.56247
473.412	-249.47
473.899	-248.43429
474.385	-228.43046
474.872	-290.52257
475.359	-277.52773
475.845	-249.39434
476.331	-200.33624
476.817	-232.44704
477.303	-272.50221
477.789	-249.47853
478.275	-248.4919
478.761	-217.41884
479.247	-223.40132
479.732	-277.5606
480.218	-246.52466
480.703	-258.52705
481.188	-228.39569
481.673	-247.46393
482.158	-240.41055
482.643	-185.39019
483.128	-253.47614
483.612	-265.51911
484.097	-169.34391
484.581	-230.45044
485.066	-210.42666
485.55	-296.55091
486.034	-222.40167
486.518	-243.48097
487.002	-241.49914
487.486	-209.4319
487.969	-256.53555
488.453	-218.47362
488.936	-253.49091
489.42	-214.40681
489.903	-183.39767
490.386	-580.91132
490.869	-198.37327
491.352	-159.33771
491.835	-164.29172
492.318	-231.45444
492.8	-189.33855
493.283	-223.49633
493.765	-228.49281
494.247	-156.31926
494.73	-205.39796
495.212	-221.47676
495.694	-240.49562
496.175	-315.66816
496.657	-161.33584
497.139	-130.19835
497.62	-278.58826
498.102	-244.54047
498.583	-222.49851
499.064	-259.51697
499.545	-196.39785
500.026	-258.52083
500.507	-241.50428
500.988	-244.54813
501.469	-244.5497
501.949	-211.47059
502.43	-253.54111
502.91	-263.49301
503.39	-201.45497
503.87	-238.50473
504.35	-198.4232
504.83	-243.48278
505.31	-239.52509
505.79	-218.47039
506.269	-189.39933
506.749	-248.51513
507.228	-234.4982
507.707	-230.46367
508.187	-197.42845
508.666	-257.57626
509.145	-253.54017
509.623	-226.48368
510.102	-150.327
510.581	-150.32783
511.059	-232.52993
511.538	-208.49249
512.016	-201.43827
512.494	-166.36602
512.972	-227.49726
513.45	-261.55338
513.928	-208.45997
514.406	-245.53782
514.884	-172.40127
515.361	-183.39902
515.839	-190.39449
516.316	-168.36717
516.793	-157.36231
517.27	-172.38211
517.747	-160.37283
518.224	-190.40399
518.701	-210.43134
519.178	-228.51912
519.654	-138.29969
520.131	-183.41473
520.607	-163.37091
521.083	-249.52955
521.56	-177.38348
522.036	-198.40228
522.512	-163.37001
522.987	-219.47893
523.463	-197.43191
523.939	-208.47339
524.414	-151.32058
524.89	-199.43722
525.365	-183.38224
525.84	-229.5027
526.315	-180.39905
526.79	-165.34266
527.265	-187.39458
527.74	-191.43022
528.215	-213.46719
528.689	-179.36609
529.164	-176.35464
529.638	-196.4682
530.112	-232.50982
530.587	-194.383
531.061	-210.46982
531.534	-181.4077
532.008	-200.44615
532.482	-155.32922
532.956	-228.54088
533.429	-151.33762
533.903	-119.24216
534.376	-185.38076
534.849	-165.35473
535.322	-150.32714
535.795	-132.29715
536.268	-207.46454
536.741	-155.34513
537.213	-140.29924
537.686	-211.47935
538.158	-162.33485
538.631	-116.26006
539.103	-191.39824
539.575	-158.30709
540.047	-147.29955
540.519	-83.18167
540.991	-58.12944
541.463	-140.3136
541.934	-147.31154
542.406	-123.26933
542.877	-134.27934
543.348	-82.18134
543.82	-67.15012
544.291	-92.19741
544.762	-99.2144
545.233	-93.21265
545.703	-88.17716
546.174	-33.0692
546.645	-147.32148
547.115	-30.0649
547.585	-35.07246
548.056	-44.0947
548.526	-46.09662
548.996	12.02563
549.466	39.08435
549.935	0
550.405	42.08015
550.875	19.03949
551.344	51.107
551.814	143.28065
552.283	157.29067
552.752	97.19316
553.221	140.25602
553.69	213.39336
554.159	160.33116
554.628	193.35803
555.096	238.50208
555.565	295.53635
556.033	333.64368
556.502	326.65206
556.97	350.63427
557.438	374.72831
557.906	456.87787
558.374	481.88706
558.842	530.00985
559.31	609.06111
559.777	606.14769
560.245	760.35666
560.712	779.36025
561.18	812.32113
561.647	896.45012
562.114	953.55182
562.581	1091.90181
563.048	1161.82899
563.514	1201.0121
563.981	1341.98797
564.448	1393.97519
564.914	1563.22541
565.381	1653.2202
565.847	1767.38707
566.313	1935.45475
566.779	2078.38784
567.245	2090.53672
567.711	2222.67666
568.176	2346.41481
568.642	2521.95794
569.108	2696.87906
569.573	2820.68484
570.038	3040.08406
570.504	3042.35619
570.969	3304.93682
571.434	3427.11426
571.899	3616.50628
572.363	3869.13967
572.828	4048.09803
573.293	4016.10683
573.757	4330.9419
574.222	4466.67063
574.686	4493.67352
575.15	4721.90704
575.614	4765.67202
576.078	4882.73749
576.542	4937.54722
577.006	5073.40625
577.469	5158.97624
577.933	5191.28663
578.396	5290.62565
578.86	5263.58326
579.323	5215.65369
579.786	5116.16125
580.249	5229.38014
580.712	5175.87195
581.175	5087.96465
581.637	5050.59419
582.1	4965.36851
582.563	5003.23934
583.025	4817.00479
583.487	4786.01162
583.95	4622.3975
584.412	4655.30359
584.874	4456.23112
585.336	4263.18625
585.797	4162.72066
586.259	4192.22989
586.721	4027.2516
587.182	3912.3433
587.643	3831.18655
588.105	3653.499
588.566	3592.90755
589.027	3415.66067
589.488	3286.42984
589.949	3222.78379
590.41	3098.72724
590.87	3059.51603
591.331	2925.27217
591.791	2845.57108
592.252	2696.52547
592.712	2631.79494
593.172	2566.47682
593.632	2511.38221
594.092	2481.43925
594.552	2359.2842
595.011	2182.49036
595.471	2183.40845
595.931	2089.36495
596.39	2070.63024
596.849	1961.48021
597.308	2000.25275
597.768	1891.78224
598.227	1899.58579
598.685	1842.39354
599.144	1784.40504
599.603	1759.43924
600.062	1804.04915
600.52	1714.19543
600.978	1697.39961
601.437	1680.27697
601.895	1650.01338
602.353	1663.16709
602.811	1586.11136
603.269	1607.36158
603.727	1577.33658
604.184	1535.10776
604.642	1666.48126
605.099	1572.23353
605.557	1595.41331
606.014	1588.01028
606.471	1507.38952
606.928	1530.94679
607.385	1575.35041
607.842	1692.258
608.299	1663.31122
608.755	1657.40811
609.212	1639.12952
609.668	1578.06605
610.125	1700.46023
610.581	1782.49128
611.037	1770.35027
611.493	1661.39048
611.949	1671.43615
612.405	1732.90247
612.861	1790.47752
613.316	1763.48518
613.772	1704.32352
614.227	1693.40133
614.683	1763.15236
615.138	1664.35736
615.593	1679.35008
616.048	1705.33613
616.503	1752.62202
616.958	1601.55292
617.412	1576.34701
617.867	1549.10955
618.321	1631.99937
618.776	1536.13013
619.23	1559.32348
619.684	1489.16629
620.138	1555.31191
620.592	1433.33065
621.046	1411.22083
621.5	1362.26553
621.954	1345.05448
622.407	1371.04788
622.861	1334.2465
623.314	1249.99441
623.768	1266.06591
624.221	1175.59985
624.674	1183.95496
625.127	1163.97363
625.58	1169.93385
626.033	1189.8841
626.485	1123.98344
626.938	1163.02971
627.39	1136.94472
627.843	1124.92206
628.295	1004.77223
628.747	1015.84802
629.199	1098.85841
629.651	1010.74864
630.103	1001.75729
630.555	949.54528
631.006	1004.82011
631.458	939.74215
631.909	991.7733
632.361	933.71984
632.812	942.71092
633.263	1039.70377
633.714	1005.65512
634.165	959.84904
634.616	963.81422
635.067	992.72011
635.518	1015.90303
635.968	1026.56849
636.419	1060.76487
636.869	1010.89596
637.319	997.81334
637.769	982.7252
638.219	1100.03864
638.669	995.88285
639.119	1075.05581
639.569	1076.02759
640.019	1116.98789
640.468	1119.9099
640.918	1171.16473
641.367	1115.91831
641.816	1120.91928
642.265	1182.07541
642.714	1224.12827
643.163	1253.14754
643.612	1176.15731
644.061	1218.89787
644.51	1324.20074
644.958	1288.06825
645.406	1274.283
645.855	1361.46749
646.303	1343.30871
646.751	1302.17813
647.199	1415.30116
647.647	1323.23688
648.095	1423.33227
648.543	1429.0336
648.99	1441.48074
649.438	1492.49405
649.885	1434.59711
650.333	1468.91917
650.78	1520.60722
651.227	1428.53288
651.674	1516.41551
652.121	1412.5198
652.568	1485.59332
653.015	1531.79652
653.461	1463.50291
653.908	1512.4922
654.354	1513.57801
654.801	1521.51882
655.247	1535.33252
655.693	1485.85704
656.139	1482.56047
656.585	1478.56023
657.031	1508.48828
657.477	1469.22334
657.922	1547.49248
658.368	1578.77311
658.813	1589.58219
659.259	1526.6162
659.704	1538.52983
660.149	1597.58811
660.594	1615.6728
661.039	1575.49552
661.484	1637.72722
661.929	1624.63591
662.373	1623.90783
662.818	1596.82084
663.262	1577.69063
663.707	1727.04104
664.151	1758.92659
664.595	1693.81366
665.039	1777.02235
665.483	1756.09483
665.927	1824.84325
666.371	1741.696
666.814	1903.96213
667.258	1816.84358
667.701	1937.59315
668.145	1962.1917
668.588	1964.12672
669.031	1952.9227
669.474	1978.05442
669.917	2076.76519
670.36	2083.26261
670.803	2168.19278
671.245	2105.57977
671.688	2146.23323
672.13	2130.83362
672.573	2148.43746
673.015	2191.18233
673.457	2290.77749
673.899	2196.23301
674.341	2256.24262
674.783	2282.21744
675.225	2296.35566
675.666	2311.23843
676.108	2391.80178
676.549	2430.23156
676.991	2352.85991
677.432	2395.43034
677.873	2476.12633
678.314	2419.26725
678.755	2495.39077
679.196	2511.08023
679.637	2553.44415
680.078	2482.19536
680.518	2481.1782
680.959	2502.31602
681.399	2485.49647
681.839	2509.4062
682.28	2560.49232
682.72	2620.1035
683.16	2558.54655
683.6	2645.10289
684.039	2688.65671
684.479	2573.46999
684.919	2659.138
685.358	2675.70694
685.798	2734.92193
686.237	2761.44322
686.676	2834.22119
687.115	2865.28373
687.554	2891.34425
687.993	2860.95527
688.432	2832.12596
688.871	2902.08224
689.309	2976.3806
689.748	3023.65351
690.186	3053.39219
690.625	3062.26586
691.063	3024.40756
691.501	3063.60408
691.939	3107.65489
692.377	3140.51171
692.815	3178.37932
693.253	3187.42688
693.69	3285.8608
694.128	3232.4558
694.565	3278.35941
695.003	3353.76989
695.44	3267.26308
695.877	3422.18774
696.314	3401.71561
696.751	3447.05271
697.188	3446.08181
697.625	3527.07489
698.061	3551.33714
698.498	3629.3869
698.934	3677.33376
699.371	3578.19931
699.807	3750.18441
700.243	3735.30388
700.679	3732.90776
701.115	3797.1478
701.551	3750.15942
701.987	3790.84402
702.422	3874.16039
702.858	3919.16793
703.294	4007.79353
703.729	3880.38033
704.164	4010.20471
704.599	4063.65267
705.035	3894.75333
705.47	4135.21978
705.904	4033.95918
706.339	4149.91349
706.774	4138.95038
707.209	4124.84543
707.643	4216.09681
708.078	4129.23718
708.512	4126.43385
708.946	4319.03738
709.38	4281.96761
709.814	4290.71366
710.248	4244.19569
710.682	4311.97307
711.116	4259.00836
711.549	4210.66645
711.983	4247.80179
712.416	4345.92341
712.85	4261.36119
713.283	4287.95289
713.716	4362.38281
714.149	4379.96785
714.582	4259.60438
715.015	4297.38658
715.448	4223.46917
715.881	4149.50432
716.313	4203.92184
716.746	4184.96005
717.178	4099.15416
717.61	4197.52911
718.043	4148.41237
718.475	4119.2094
718.907	4226.51021
719.339	4021.77304
719.77	3891.13385
720.202	3986.58846
720.634	4029.26622
721.065	3854.15693
721.497	3893.38413
721.928	3852.40488
722.359	3761.29787
722.79	3773.24882
723.221	3786.62512
723.652	3780.82657
724.083	3608.91275
724.514	3612.03485
724.945	3610.18149
725.375	3515.11563
725.806	3425.65217
726.236	3453.83648
726.666	3360.2958
727.096	3323.54144
727.526	3295.78049
727.956	3324.03926
728.386	3326.56485
728.816	3204.75637
729.246	3234.47626
729.675	3111.56855
730.105	3097.57891
730.534	3017.26076
730.964	3089.76147
731.393	3089.64721
731.822	3005.82163
732.251	3027.77837
732.68	2997.31001
733.109	2887.57115
733.537	2927.44679
733.966	2841.613
734.395	2859.18262
734.823	2874.05922
735.251	2773.41725
735.68	2730.6525
736.108	2644.68613
736.536	2679.28604
736.964	2610.1805
737.392	2551.58807
737.82	2580.35998
738.247	2525.33372
738.675	2555.33362
739.102	2482.5468
739.53	2369.60271
739.957	2411.68494
740.384	2434.46772
740.811	2424.61106
741.238	2350.36503
741.665	2240.05754
742.092	2238.20634
742.519	2171.33762
742.945	2186.20072
743.372	2150.33036
743.798	2146.52187
744.225	2123.11858
744.651	2055.33308
745.077	2130.35348
745.503	2047.19445
745.929	2023.09906
746.355	2045.28934
746.781	1965.20629
747.207	1850.87442
747.632	1824.01208
748.058	1871.16015
748.483	1916.85097
748.908	1791.06894
749.334	1830.05492
749.759	1716.78974
750.184	1804.90195
750.609	1747.98443
751.033	1733.81998
751.458	1663.56641
751.883	1653.9259
752.307	1667.73857
752.732	1563.85237
753.156	1597.85087
753.58	1576.6882
754.005	1543.89719
754.429	1547.61812
754.853	1434.67426
755.277	1432.52047
755.7	1470.72419
756.124	1360.5868
756.548	1365.44614
756.971	1418.6081
757.394	1352.70388
757.818	1329.66694
758.241	1268.5345
758.664	1247.48961
759.087	1177.04995
759.51	1227.41812
759.933	1221.3089
760.356	1246.53614
760.778	1183.31931
761.201	1178.28409
761.623	1139.22242
762.046	1136.15973
762.468	1157.22152
762.89	1085.18761
763.312	1108.19284
763.734	1047.06467
764.156	1005.06208
764.578	1013.91138
765	944.9379
765.421	879.91399
765.843	942.10164
766.264	937.90583
766.686	901.93126
767.107	847.76165
767.528	819.79309
767.949	845.85779
768.37	810.72307
768.791	887.82612
769.212	789.72811
769.632	792.59274
770.053	738.72419
770.473	715.53631
770.894	728.61216
771.314	719.51443
771.734	668.38255
772.154	665.53261
772.575	697.42559
772.994	624.26716
773.414	668.43
773.834	584.32787
774.254	620.36767
774.673	635.3894
775.093	582.30836
775.512	527.19206
775.931	534.24435
776.351	532.21242
776.77	491.10916
777.189	564.21958
777.607	490.16002
778.026	479.1066
778.445	433.01321
778.864	490.16582
779.282	477.06258
779.701	439.03489
780.119	403.96051
780.537	434.01258
780.955	414.99257
781.373	445.02669
781.791	374.79312
782.209	446.95733
782.627	366.91739
783.045	411.88621
783.462	366.88854
783.88	339.83763
784.297	396.9404
784.715	305.75226
785.132	358.82295
785.549	322.77089
785.966	326.78433
786.383	333.78184
786.8	337.74536
787.217	244.56138
787.633	313.74835
788.05	336.76127
788.466	320.72178
788.883	262.64658
789.299	279.64766
789.715	288.6737
790.131	305.72783
790.547	270.6516
790.963	209.50697
791.379	222.54708
791.795	305.66642
792.21	222.50566
792.626	260.59651
793.041	233.55923
793.457	241.57843
793.872	222.50832
794.287	168.3944
794.702	224.53774
795.117	200.48596
795.532	168.41417
795.947	193.4553
796.362	230.53446
796.776	262.59339
797.191	224.53385
797.605	141.3272
798.02	150.36038
798.434	205.44585
798.848	210.50471
799.262	142.34814
799.676	180.4313
800.09	188.45338
800.504	189.44949
800.918	200.45279
801.331	149.38579
801.745	168.37958
802.158	154.37966
802.572	197.46762
802.985	202.47736
803.398	139.32792
803.811	234.58512
804.224	141.34703
804.637	148.34799
805.05	166.37857
805.462	150.3638
805.875	126.32348
806.288	132.31509
806.7	153.3792
807.112	141.32318
807.525	143.34871
807.937	135.33006
808.349	142.35149
808.761	110.26899
809.173	124.29792
809.584	164.39894
809.996	116.28187
810.408	67.173
810.819	93.21812
811.231	71.18339
811.642	69.16467
812.053	107.25292
812.464	167.39014
812.875	171.42938
813.286	113.28874
813.697	188.43047
814.108	152.36615
814.519	124.27399
814.929	131.33072
815.34	119.28628
815.75	108.27261
816.16	127.3135
816.571	150.38428
816.981	143.33342
817.391	110.26388
817.801	70.17391
818.211	98.23267
818.62	91.21834
819.03	104.25347
819.44	115.29807
819.849	108.27037
820.259	133.33673
820.668	83.20368
821.077	87.21539
821.486	123.29355
821.895	128.31312
822.304	103.27128
822.713	110.25824
823.122	99.24582
823.531	98.23124
823.939	96.23283
824.348	124.29859
824.756	92.22956
825.164	130.32367
825.573	101.25198
825.981	116.28535
826.389	106.26459
826.797	71.17777
827.205	64.14714
827.612	108.26469
828.02	25.05923
828.428	87.22082
828.835	64.16848
829.243	97.23008
829.65	66.16415
830.057	109.26262
830.464	60.14645
830.871	122.28932
831.278	112.26857
831.685	112.24799
832.092	123.29815
832.499	76.16617
832.905	53.13452
833.312	126.28434
833.718	107.26471
834.124	92.20939
834.531	90.22596
834.937	120.30506
835.343	83.19975
835.749	122.28216
836.155	78.20374
836.561	104.25404
836.966	68.16629
837.372	87.22058
837.777	66.16439
838.183	113.24911
838.588	67.1663
838.993	99.23961
839.399	109.26431
839.804	46.11249
840.209	54.13767
840.613	95.21022
841.018	84.21195
841.423	80.2046
841.828	68.17183
842.232	118.28952
842.637	101.2367
843.041	70.17915
843.445	46.11574
843.849	46.11424
844.253	106.25002
844.657	29.07345
845.061	75.16991
845.465	74.1784
845.869	68.15796
846.272	69.16782
846.676	100.24026
847.079	82.20772
847.483	55.13741
847.886	148.35449
848.289	45.12036
848.692	72.182
849.095	48.11563
849.498	109.274
849.901	64.14684
850.304	89.21167
850.707	51.13027
851.109	113.28334
851.512	74.18143
851.914	24.06086
852.316	61.15428
852.718	60.15485
853.121	72.17607
853.523	60.14031
853.925	32.08384
854.326	25.06289
854.728	37.09551
855.13	18.04674
855.531	74.17637
855.933	110.26167
856.334	30.07518
856.736	68.15214
857.137	45.10497
857.538	19.04811
857.939	42.10408
858.34	119.28683
858.741	76.19804
859.142	75.17968
859.542	74.19467
859.943	69.17114
860.343	10.02498
860.744	65.15845
861.144	88.21351
861.544	33.07969
861.945	74.18806
862.345	83.2021
862.745	52.12938
863.145	121.2859
863.544	59.14906
863.944	45.10661
864.344	99.24412
864.743	107.26316
865.143	71.18193
865.542	26.06071
865.941	78.19237
866.34	77.18384
866.74	66.17684
867.139	50.1199
867.537	75.1905
867.936	69.16575
868.335	104.26242
868.734	60.15323
869.132	75.1737
869.531	99.23763
869.929	41.09379
870.327	70.16741
870.726	79.19623
871.124	76.17703
871.522	79.20044
871.92	76.18682
872.318	76.18516
872.715	115.28169
873.113	74.17975
873.511	58.14446
873.908	16.04068
874.306	42.10473
874.703	73.18212
875.1	132.33318
875.497	91.21676
875.894	19.04687
876.291	77.18826
876.688	38.09831
877.085	80.19111
877.482	82.20432
877.878	58.13956
878.275	55.13975
878.671	91.20128
879.068	90.2159
879.464	106.2538
879.86	43.10196
880.256	62.15285
880.652	88.22252
881.048	116.2843
881.444	69.16385
881.84	63.1599
882.236	69.17308
882.631	70.17137
883.027	113.27071
883.422	44.11273
883.817	29.07321
884.213	51.13096
884.608	4.0099
885.003	71.17068
885.398	51.12774
885.793	71.17771
886.188	20.05003
886.582	130.32907
886.977	71.16802
887.371	81.20391
887.766	36.08983
888.16	78.19385
888.554	110.26929
888.949	72.18025
889.343	97.23513
889.737	49.13067
890.131	54.13548
890.525	121.3058
890.918	106.2643
891.312	79.18818
891.706	88.22954
892.099	71.18014
892.492	77.1654
892.886	55.13457
893.279	51.13
893.672	40.10208
894.065	76.18957
894.458	70.17556
894.851	90.2191
895.244	58.14802
895.637	89.21298
896.029	70.17067
896.422	96.23275
896.814	64.15883
897.206	31.07415
897.599	138.33608
897.991	48.1162
898.383	79.18579
898.775	73.16416
899.167	56.13055
899.559	110.27567
899.951	83.19459
900.342	114.28683
900.734	45.11182
901.125	65.17022
901.517	60.14711
901.908	115.27256
902.299	36.0883
902.69	85.19936
903.082	109.26123
903.473	54.1293
903.863	84.21317
904.254	109.25024
904.645	93.22966
905.036	26.06327
905.426	101.22909
905.817	53.13006
906.207	27.06466
906.597	76.17696
906.987	92.23685
907.378	88.22117
907.768	61.16104
908.158	84.20365
908.547	55.14202
908.937	56.14362
909.327	94.22653
909.717	118.29614
910.106	71.16997
910.495	142.34879
910.885	100.25115
911.274	78.19407
911.663	69.17463
912.052	113.27576
912.441	68.17244
912.83	112.25409
913.219	71.18523
913.608	66.16128
913.997	15.03786
914.385	90.21352
914.774	84.20335
915.162	64.15219
915.55	114.27264
915.939	64.1612
916.327	80.19868
916.715	75.19036
917.103	127.30831
917.491	87.21389
917.878	60.14732
918.266	61.15795
918.654	110.27815
919.041	31.08121
919.429	31.07347
919.816	88.22165
920.203	63.15248
920.591	73.18034
920.978	87.21168
921.365	67.17534
921.752	125.29386
922.139	75.16208
922.525	85.20286
922.912	38.09293
923.299	70.1734
923.685	81.21024
924.072	69.1586
924.458	72.1777
924.844	41.10166
925.231	90.2079
925.617	42.107
926.003	56.14302
926.389	59.14863
926.774	78.19674
927.16	71.17572
927.546	64.16299
927.931	100.24735
928.317	69.15841
928.702	94.2206
929.088	42.09953
929.473	80.20251
929.858	14.03408
930.243	59.1414
930.628	79.19121
931.013	87.21421
931.398	115.26116
931.783	121.31481
932.167	44.10772
932.552	68.16986
932.937	111.2725
933.321	79.19723
933.705	71.17835
934.09	154.38203
934.474	143.33368
934.858	76.19627
935.242	44.10213
935.626	55.14069
936.009	55.14618
936.393	58.1474
936.777	59.15086
937.16	90.23259
937.544	131.30388
937.927	18.04594
938.311	145.34777
938.694	98.25711
939.077	113.26731
939.46	140.33814
939.843	96.19834
940.226	80.20417
940.609	59.13524
940.991	62.1575
941.374	48.11738
941.757	63.15512
942.139	67.14999
942.522	108.25246
942.904	104.24749
943.286	80.20222
943.668	93.23914
944.05	59.14511
944.432	96.23493
944.814	102.24887
945.196	6.01474
945.578	37.08817
945.959	49.11488
946.341	124.30029
946.722	106.24613
947.104	70.16671
947.485	82.18965
947.866	73.18318
948.247	75.1884
948.628	83.20127
949.009	66.16856
949.39	93.22974
949.771	81.1873
950.152	54.13244
950.532	14.03467
950.913	46.11106
951.293	74.19913
951.674	94.2255
952.054	45.11162
952.434	52.12905
952.814	104.24492
953.194	94.24419
953.574	109.2656
953.954	94.22137
954.334	112.27602
954.714	40.09767
955.093	87.21247
955.473	19.04778
955.853	54.1397
956.232	81.22091
956.611	110.26086
956.99	73.18272
957.37	62.15767
957.749	69.16404
958.128	51.12848
958.506	62.16051
958.885	77.19342
959.264	19.04683
959.643	84.18987
960.021	79.19473
960.4	89.20014
960.778	102.24887
961.156	78.19456
961.535	92.21269
961.913	54.12628
962.291	82.2092
962.669	47.11912
963.047	53.13519
963.424	69.1755
963.802	32.07895
964.18	106.26555
964.557	79.18093
964.935	92.21624
965.312	62.16112
965.69	92.22865
966.067	82.19851
966.444	97.23698
966.821	102.26058
967.198	99.23799
967.575	103.2508
967.952	128.29709
968.329	44.1072
968.705	121.25554
969.082	51.13077
969.458	25.06026
969.835	118.28361
970.211	50.12832
970.587	84.20785
970.963	113.2867
971.339	76.19757
971.715	77.19133
972.091	79.19351
972.467	117.28829
972.843	35.0871
973.219	134.31667
973.594	51.13337
973.97	127.29786
974.345	80.19038
974.721	80.19264
975.096	68.164
975.471	80.18869
975.846	106.25196
976.221	24.06123
976.596	60.14355
976.971	59.14543
977.346	96.2215
977.72	108.27232
978.095	65.16755
978.469	89.21086
978.844	137.33905
979.218	33.07936
979.593	95.22568
979.967	76.18426
980.341	55.12652
980.715	82.20543
981.089	125.30868
981.463	51.11709
981.837	72.17522
982.21	131.30002
982.584	61.14703
982.957	11.02766
983.331	124.28895
983.704	92.22431
984.078	85.20813
984.451	116.2863
984.824	55.13382
985.197	68.16462
985.57	100.24853
985.943	123.29972
986.316	98.23867
986.688	99.23654
987.061	110.25481
987.434	66.17151
987.806	63.15243
988.179	18.04274
988.551	74.18692
988.923	96.23441
989.295	121.29847
989.667	47.11234
990.039	74.18203
990.411	99.22564
990.783	67.15376
991.155	30.07235
991.527	134.32487
991.898	106.26142
992.27	71.17495
992.641	79.19716
993.012	105.24443
993.384	86.20371
993.755	106.26756
994.126	86.20544
994.497	28.06901
994.868	94.21403
995.239	62.14992
995.61	55.13826
995.98	62.15026
996.351	82.20186
996.722	60.13888
997.092	80.18833
997.462	74.17203
997.833	96.22555
998.203	101.24252
998.573	99.2443
998.943	91.21168
999.313	36.08649
999.683	69.16499
1000.053	82.18746
1000.423	85.20519
1000.792	92.23669
1001.162	64.15709
1001.531	84.20579
1001.901	104.25668
1002.27	131.28794
1002.639	81.20581
1003.009	69.16348
1003.378	85.21597
1003.747	87.20405
1004.116	31.07444
1004.485	68.16195
1004.853	111.27813
1005.222	80.20063
1005.591	80.18884
1005.959	33.07461
1006.328	18.04077
1006.696	66.15869
1007.064	65.16304
1007.433	85.21106
1007.801	104.25271
1008.169	99.24779
1008.537	82.18035
1008.905	50.11647
1009.273	109.2663
1009.64	36.0861
1010.008	99.23374
1010.375	156.37123
1010.743	164.37009
1011.11	43.10188
1011.478	116.28356
1011.845	119.27604
1012.212	28.06365
1012.579	76.18564
1012.946	61.14486
1013.313	94.2218
1013.68	76.16989
1014.047	70.16613
1014.414	59.13908
1014.78	34.08472
1015.147	99.23718
1015.513	72.17272
1015.88	88.22347
1016.246	111.27088
1016.612	106.23989
1016.978	97.23557
1017.344	122.29745
1017.71	146.34957
1018.076	125.29042
1018.442	95.2424
1018.808	97.24033
1019.174	66.16505
1019.539	162.36453
1019.905	59.13887
1020.27	58.14289
1020.636	107.2537
1021.001	64.15277
1021.366	76.18155
1021.731	91.23228
1022.096	32.08095
1022.461	81.1905
1022.826	75.17735
1023.191	67.17522
1023.556	39.09158
1023.92	83.20278
1024.285	124.29837
1024.649	44.10792
1025.014	120.29333
1025.378	58.14557
1025.742	66.16337
1026.107	93.20845
1026.471	142.32541
1026.835	87.21413
1027.199	56.1346
1027.562	57.13228
1027.926	89.21598
1028.29	55.139
1028.654	136.3074
1029.017	111.26967
1029.381	29.06953
1029.744	62.15773
1030.107	119.27768
1030.471	43.10306
1030.834	74.16747
1031.197	138.32676
1031.56	93.21752
1031.923	47.12153
1032.286	73.17061
1032.648	53.12664
1033.011	29.06682
1033.374	104.24177
1033.736	34.0896
1034.099	71.1723
1034.461	37.09365
1034.823	56.13923
1035.185	82.20513
1035.548	47.1144
1035.91	83.19748
1036.272	72.16308
1036.634	92.22322
1036.995	48.11282
1037.357	76.18391
1037.719	111.26673
1038.08	134.31287
1038.442	67.15843
1038.803	69.16499
1039.165	72.1809
1039.526	51.12316
1039.887	62.14794
1040.248	39.09624
1040.609	88.21583
1040.97	72.17515
1041.331	63.15905
1041.692	53.12358
1042.053	113.25391
1042.413	79.18297
1042.774	147.35082
1043.134	89.21021
1043.495	78.19498
1043.855	77.18574
1044.215	94.23132
1044.576	59.14076
1044.936	69.15752
1045.296	76.18868
1045.656	103.25014
1046.016	66.15875
1046.375	96.23073
1046.735	31.07051
1047.095	76.17689
1047.454	96.20128
1047.814	73.17462
1048.173	110.25965
1048.533	95.21556
1048.892	55.13182
1049.251	92.22906
1049.61	61.14981
1049.969	79.18507
1050.328	77.1659
1050.687	72.17436
1051.046	81.19598
1051.405	76.18806
1051.763	35.08068
1052.122	59.14682
1052.48	66.16128
1052.839	64.15008
1053.197	60.14086
1053.555	116.26081
1053.914	97.23504
1054.272	82.19694
1054.63	47.11491
1054.988	38.09043
1055.345	57.12249
1055.703	89.21249
1056.061	99.25234
1056.419	38.09851
1056.776	79.19042
1057.134	92.21109
1057.491	86.21381
1057.848	71.17598
1058.206	97.2259
1058.563	89.19447
1058.92	98.22359
1059.277	104.25385
1059.634	94.21913
1059.991	153.35912
1060.348	54.12186
1060.704	42.10018
1061.061	91.20959
1061.418	48.11637
1061.774	58.14289
1062.131	42.11113
1062.487	20.04701
1062.843	74.18358
1063.199	109.26798
1063.555	61.14094
1063.911	87.21815
1064.267	137.28006
1064.623	105.25222
1064.979	113.2643
1065.335	91.21568
1065.691	53.12688
1066.046	51.11205
1066.402	56.12699
1066.757	72.1809
1067.112	85.20712
1067.468	18.04274
1067.823	40.09629
1068.178	115.27456
1068.533	105.25174
1068.888	91.2156
1069.243	86.21069
1069.598	52.12621
1069.952	34.07676
1070.307	25.06212
1070.662	48.11392
1071.016	28.06298
1071.371	69.15625
1071.725	126.29684
1072.079	72.17233
1072.434	54.13102
1072.788	109.25645
1073.142	95.23158
1073.496	43.10207
1073.85	97.22269
1074.203	90.21656
1074.557	88.23236
1074.911	113.26627
1075.265	79.18246
1075.618	107.25829
1075.971	67.15874
1076.325	67.16963
1076.678	65.14809
1077.031	29.06586
1077.385	97.21142
1077.738	107.23855
1078.091	46.10461
1078.444	88.20264
1078.796	56.13715
1079.149	91.22447
1079.502	23.05458
1079.855	49.11421
1080.207	91.22232
1080.56	57.14703
1080.912	95.22915
1081.264	80.1914
1081.617	70.16984
1081.969	59.14847
1082.321	82.19888
1082.673	42.09594
1083.025	107.25086
1083.377	135.28424
1083.728	107.24663
1084.08	74.18378
1084.432	70.16805
1084.783	113.26129
1085.135	47.11777
1085.486	64.1459
1085.838	53.13035
1086.189	77.18581
1086.54	91.21543
1086.891	71.17874
1087.242	58.14088
1087.593	101.24335
1087.944	44.09962
1088.295	112.2512
1088.646	109.26103
1088.996	52.12512
1089.347	82.19985
1089.698	45.10637
1090.048	80.20653
1090.398	58.1342
1090.749	82.19484
1091.099	39.09818
1091.449	100.24663
1091.799	98.24303
1092.149	24.05876
1092.499	62.15077
1092.849	78.1971
1093.199	105.26034
1093.548	66.15797
1093.898	60.14972
1094.248	84.21437
1094.597	33.08441
1094.947	29.07756
1095.296	38.09396
1095.645	107.27533
1095.994	82.19559
1096.343	68.17042
1096.692	73.19084
1097.041	20.05436
1097.39	74.18465
1097.739	38.09889
1098.088	94.24979
1098.437	15.0396
1098.785	77.20649
1099.134	103.27083
1099.482	89.24304
1099.83	79.20639
1100.179	53.13804
1100.527	90.23732
1100.875	46.12159
1101.223	49.13002
1101.571	18.04995
1101.919	3.00789
1102.267	44.12388
1102.615	-5.01609
1102.962	14.04506
1103.31	6.01928
1103.658	18.05793
