Data from N2 R11 sample 6_Subt2__2__16-01-24-034.txt Node

Date: Mon Sep 01 16:01:24 PDT 2025
User: uwsun
Spectrometer: HDX01956
Trigger mode: 0
Integration Time (sec): 5.000000E-1
Scans to average: 1
Nonlinearity correction enabled: true
Boxcar width: 0
Storing dark spectrum: false
XAxis mode: Wavelengths
Number of Pixels in Spectrum: 2068
>>>>>Begin Spectral Data<<<<<
194.03	1.00281
194.578	9.02843
195.127	7.02179
195.676	-5.01564
196.225	101.26341
196.773	25.06827
197.321	57.15155
197.87	65.15892
198.418	100.23971
198.966	30.07331
199.513	9.02103
200.061	-20.0478
200.609	89.22043
201.156	-9.01848
201.704	29.06826
202.251	20.04971
202.798	3.00734
203.345	95.21828
203.892	33.07779
204.438	62.13831
204.985	-32.0713
205.532	30.07385
206.078	27.06214
206.624	30.06875
207.17	72.15536
207.716	-37.08494
208.262	25.04633
208.808	-16.03689
209.354	-6.01372
209.899	100.23513
210.445	19.04406
210.99	38.08516
211.535	69.15103
212.08	105.22545
212.625	74.17237
213.17	42.09972
213.715	-18.03749
214.259	42.09164
214.804	81.18641
215.348	57.12175
215.892	66.14748
216.436	123.2633
216.98	108.22133
217.524	28.06205
218.068	71.16685
218.612	73.17168
219.155	56.12306
219.698	93.20562
220.242	72.16824
220.785	45.09879
221.328	54.12628
221.871	80.19016
222.414	60.14048
222.956	-7.01593
223.499	64.13472
224.041	84.18335
224.583	125.25101
225.126	68.14018
225.668	26.05951
226.21	51.12018
226.751	28.05743
227.293	70.14988
227.835	43.09844
228.376	89.19217
228.918	32.07636
229.459	41.09556
230	7.01575
230.541	43.09324
231.082	65.14713
231.622	41.08894
232.163	44.09978
232.704	45.10439
233.244	14.03273
233.784	95.21723
234.324	5.01029
234.864	53.11233
235.404	82.18194
235.944	87.19211
236.484	57.13337
237.023	31.06866
237.563	34.07352
238.102	58.12794
238.641	41.09718
239.18	-3.00659
239.719	54.12668
240.258	64.13419
240.797	37.08266
241.335	43.09864
241.874	13.02347
242.412	35.07858
242.95	-4.00896
243.488	102.21471
244.026	43.09225
244.564	33.06354
245.102	50.10432
245.64	30.06792
246.177	64.13324
246.715	89.19801
247.252	101.21415
247.789	144.24818
248.326	33.07351
248.863	77.15548
249.4	89.18664
249.936	35.06704
250.473	29.06294
251.009	32.06807
251.546	86.17417
252.082	101.20291
252.618	40.08257
253.154	24.05361
253.69	25.05245
254.226	40.08857
254.761	44.0916
255.297	34.06898
255.832	58.12666
256.367	31.06785
256.903	71.14323
257.438	42.09164
257.972	19.03939
258.507	57.11975
259.042	26.05241
259.576	7.01393
260.111	72.15336
260.645	115.22666
261.179	64.13697
261.713	44.09017
262.247	66.14003
262.781	29.05603
263.315	25.05657
263.849	23.05321
264.382	53.11242
264.915	78.16643
265.449	-8.01796
265.982	44.09242
266.515	52.11644
267.048	61.11791
267.58	86.1721
268.113	39.07723
268.646	41.09292
269.178	13.02673
269.71	65.12986
270.243	69.14419
270.775	49.11434
271.307	64.14153
271.838	54.11832
272.37	58.13051
272.902	91.18814
273.433	52.10382
273.965	51.11361
274.496	65.14809
275.027	21.0479
275.558	28.06228
276.089	21.04703
276.62	57.13301
277.15	116.25899
277.681	58.11504
278.211	44.09897
278.741	8.01611
279.272	44.09127
279.802	30.06869
280.332	71.1512
280.861	15.03311
281.391	2.00415
281.921	57.12513
282.45	0
282.98	35.0834
283.509	44.08976
284.038	43.08886
284.567	89.18772
285.096	48.10526
285.625	18.03716
286.153	-1.00214
286.682	21.04355
287.21	-5.01098
287.739	54.11492
288.267	7.01538
288.795	83.19687
289.323	4.00845
289.851	37.07825
290.378	32.06475
290.906	-42.09257
291.433	38.0854
291.961	25.0508
292.488	24.05394
293.015	34.07154
293.542	9.0205
294.069	42.09222
294.596	66.14614
295.122	46.09798
295.649	55.10805
296.175	5.01095
296.702	68.14692
297.228	109.23404
297.754	27.05404
298.28	36.07247
298.806	-17.03671
299.332	17.0333
299.857	-15.03029
300.383	62.13957
300.908	-51.11083
301.433	10.02155
301.958	58.11854
302.483	-38.08481
303.008	35.0768
303.533	30.06958
304.058	17.03565
304.582	9.01871
305.107	-16.03703
305.631	62.12401
306.155	-15.0308
306.679	12.02453
307.203	8.01627
307.727	19.03951
308.251	21.04554
308.775	-18.03729
309.298	-27.05655
309.822	19.04194
310.345	50.10228
310.868	32.06611
311.391	38.08122
311.914	13.02821
312.437	79.15424
312.96	21.04252
313.482	-4.00819
314.005	35.07544
314.527	20.04517
315.049	0
315.571	-24.0454
316.093	21.04437
316.615	14.02867
317.137	55.09994
317.659	65.13342
318.18	29.05942
318.702	15.02936
319.223	-2.00343
319.744	31.05768
320.265	-13.02638
320.786	-21.04342
321.307	-10.02083
321.828	40.07426
322.348	31.05986
322.869	27.05181
323.389	92.11597
323.909	19.03562
324.43	85.16682
324.95	15.0277
325.47	-52.10473
325.989	-48.092
326.509	-27.04727
327.029	-47.08462
327.548	-33.05874
328.067	-66.12742
328.587	13.02576
329.106	12.02126
329.625	72.15069
330.144	-32.05769
330.662	-37.06655
331.181	-20.03628
331.7	-21.03797
332.218	19.03085
332.736	20.03545
333.255	-38.06731
333.773	-32.05751
334.291	-8.0153
334.808	-13.02137
335.326	31.05102
335.844	-6.01009
336.361	-78.14712
336.879	-47.07947
337.396	-49.08592
337.913	-9.01467
338.43	-51.08146
338.947	13.02173
339.464	-90.13454
339.981	-45.0746
340.497	-59.10383
341.014	-56.09558
341.53	-48.07345
342.046	-112.19272
342.562	-34.05885
343.078	-35.05558
343.594	-33.05316
344.11	-64.10278
344.626	-57.09721
345.141	-59.08801
345.657	22.03211
346.172	-74.11803
346.687	-76.11272
347.202	-109.15708
347.717	-118.18423
348.232	-82.13394
348.747	-99.14401
349.261	-103.13526
349.776	-102.15073
350.29	-91.13921
350.805	-51.07937
351.319	-39.05491
351.833	-131.17798
352.347	-137.19707
352.861	-87.1203
353.374	-24.03249
353.888	-54.0777
354.401	-123.16656
354.915	-168.2158
355.428	-34.04868
355.941	-171.23066
356.454	-31.03882
356.967	-41.0545
357.48	-106.13774
357.993	-113.16061
358.505	-165.23142
359.018	-97.133
359.53	-95.12467
360.042	-22.02516
360.554	-141.19019
361.066	-122.16157
361.578	-68.07465
362.09	-112.14237
362.602	-147.16461
363.113	-85.09982
363.625	-136.15306
364.136	-68.07197
364.647	-203.23015
365.158	-59.06576
365.669	-52.06027
366.18	-129.14869
366.691	-119.12146
367.201	-131.15054
367.712	-169.17738
368.222	-142.1468
368.733	-191.17719
369.243	-132.12063
369.753	-130.12912
370.263	-173.18158
370.773	-199.21927
371.282	-155.15051
371.792	-227.19212
372.301	-249.23767
372.811	-254.27761
373.32	-306.20892
373.829	-276.21945
374.338	-205.13122
374.847	-309.20917
375.356	-256.16757
375.865	-349.15328
376.373	-232.10284
376.882	-246.1542
377.39	-269.13442
377.898	-417.18603
378.407	-405.10442
378.915	-311.04383
379.423	-337.06082
379.93	-380.03218
380.438	-457.02808
380.946	-454.9777
381.453	-468.94731
381.96	-629.88364
382.468	-751.77355
382.975	-626.79579
383.482	-577.75295
383.989	-730.74107
384.495	-769.63836
385.002	-889.51677
385.509	-897.51259
386.015	-809.56063
386.521	-950.4805
387.028	-985.4964
387.534	-1046.52122
388.04	-884.5902
388.546	-1273.5687
389.051	-1509.71999
389.557	-1424.0193
390.063	-1130.17811
390.568	-1350.45902
391.073	-1555.07471
391.578	-1704.30959
392.084	-1817.29332
392.589	-2300.1008
393.093	-2647.46348
393.598	-2594.89763
394.103	-2628.80409
394.607	-2928.1029
395.112	-3020.63923
395.616	-3259.13773
396.12	-3755.54919
396.624	-4310.39445
397.128	-4558.04913
397.632	-4726.54099
398.136	-5222.84376
398.639	-7215.00795
399.143	-8727.73032
399.646	-9560.23597
400.15	-10593.78219
400.653	-12766.37866
401.156	-15178.4938
401.659	-18163.58146
402.162	-13186.18827
402.664	-2081.98496
403.167	-318.66039
403.67	0
404.172	0
404.674	0
405.176	0
405.678	0
406.18	0
406.682	0
407.184	0
407.686	0
408.187	0
408.688	0
409.19	0
409.691	0
410.192	0
410.693	0
411.194	-3110.59853
411.694	-2244.24338
412.195	-1223.22226
412.696	-2656.71148
413.196	-4689.55761
413.696	-5829.75956
414.196	-4159.72664
414.696	-1494.41084
415.196	1044.24028
415.696	4798.87628
416.196	4627.1518
416.695	924.16127
417.195	-1282.60339
417.694	-1194.12626
418.194	-677.36636
418.693	-1304.08349
419.192	-1304.35899
419.691	-1231.1821
420.19	-1041.22255
420.688	-578.42267
421.187	-228.43811
421.685	54.48252
422.184	285.9278
422.682	363.72747
423.18	-429.17175
423.678	-580.97817
424.176	-488.56395
424.674	-468.33852
425.172	-237.06311
425.669	-170.98044
426.167	172.95724
426.664	-83.96396
427.161	-71.96244
427.659	-52.96991
428.156	-126.928
428.652	-229.88462
429.149	-145.92753
429.646	-41.97904
430.143	55.97744
430.639	10.99617
431.135	0.99977
431.632	50.98794
432.128	-75.99404
432.624	-157.00972
433.12	-311.98863
433.616	-207.99174
434.111	-300.02668
434.607	-214.03518
435.103	-60.00478
435.598	-33.00335
436.093	88.02623
436.588	1.00035
437.083	55.02249
437.578	16.0081
438.073	-47.03018
438.568	37.02641
439.062	30.0156
439.557	41.0303
440.051	1.0007
440.546	-36.02639
441.04	-16.01352
441.534	-32.03186
442.028	0
442.522	-8.00744
443.015	-25.02022
443.509	-59.06172
444.002	-38.03957
444.496	19.01606
444.989	21.02215
445.482	-16.0177
445.975	-56.05275
446.468	-27.02359
446.961	-34.03014
447.454	-46.04623
447.947	-119.1311
448.439	-82.09697
448.931	-98.10114
449.424	-37.04679
449.916	2.00235
450.408	-94.10062
450.9	-84.10161
451.392	-104.13681
451.884	-118.13914
452.375	-179.23747
452.867	-90.10628
453.358	-128.14893
453.849	-152.16544
454.341	-109.12848
454.832	-159.17956
455.323	-116.15527
455.814	-84.1047
456.304	-118.15052
456.795	-148.1901
457.285	-32.03927
457.776	-31.03999
458.266	-128.17534
458.756	-109.15463
459.247	-194.27497
459.737	-183.26045
460.226	-147.19357
460.716	-146.2114
461.206	-156.23166
461.695	-157.25063
462.185	-156.23067
462.674	-91.1295
463.163	-120.16481
463.653	-128.16509
464.142	-158.24567
464.63	-81.12805
465.119	-118.17437
465.608	-143.21384
466.096	-109.15385
466.585	-130.20107
467.073	-146.23875
467.561	-133.21877
468.05	-83.13007
468.538	-120.20482
469.026	-109.18029
469.513	-99.13982
470.001	-91.14087
470.489	-61.09894
470.976	-137.22384
471.463	-79.14056
471.951	-95.17254
472.438	-107.17973
472.925	-148.25017
473.412	-55.09887
473.899	-93.15622
474.385	-87.15857
474.872	-127.21929
475.359	-74.13402
475.845	-98.14845
476.331	-12.01914
476.817	-109.20382
477.303	-147.26291
477.789	-115.21387
478.275	-134.2587
478.761	-94.17607
479.247	-98.1707
479.732	-175.34589
480.218	-89.18334
480.703	-143.2845
481.188	-93.15562
481.673	-138.25223
482.158	-147.24517
482.643	-74.15227
483.128	-104.18855
483.612	-83.15559
484.097	-95.19006
484.581	-81.15304
485.066	-168.33806
485.55	-136.24305
486.034	-91.15914
486.518	-113.21685
487.002	-138.27923
487.486	-140.28483
487.969	-143.29166
488.453	-84.17729
488.936	-138.26041
489.42	-105.1943
489.903	-132.28373
490.386	-580.91132
490.869	-88.16141
491.352	-110.23114
491.835	-70.12148
492.318	-128.24569
492.8	-81.14105
493.283	-144.31525
493.765	-188.40288
494.247	-100.20206
494.73	-84.15835
495.212	-101.21228
495.694	-150.30351
496.175	-211.4374
496.657	-74.15138
497.139	-75.11256
497.62	-206.42904
498.102	-161.35046
498.583	-155.34327
499.064	-160.31201
499.545	-140.28055
500.026	-130.25472
500.507	-146.29907
500.988	-98.21355
501.469	-235.52845
501.949	-149.32805
502.43	-163.34183
502.91	-120.217
503.39	-173.38936
503.87	-201.42282
504.35	-86.17936
504.83	-145.28148
505.31	-140.30118
505.79	-200.42989
506.269	-125.2604
506.749	-212.43682
507.228	-197.41605
507.707	-169.33591
508.187	-147.31631
508.666	-198.43859
509.145	-187.39354
509.623	-164.34628
510.102	-195.42915
510.581	-136.29635
511.059	-189.42798
511.538	-153.35842
512.016	-148.31908
512.494	-174.3843
512.972	-121.25913
513.45	-199.41622
513.928	-204.45075
514.406	-246.54013
514.884	-145.33648
515.361	-177.38545
515.839	-128.26208
516.316	-191.41946
516.793	-170.39332
517.27	-152.33627
517.747	-163.38005
518.224	-146.30746
518.701	-132.26635
519.178	-206.46695
519.654	-100.21541
520.131	-179.40534
520.607	-164.37326
521.083	-190.39889
521.56	-150.32311
522.036	-190.38532
522.512	-138.31167
522.987	-168.36344
523.463	-153.33233
523.939	-97.21581
524.414	-133.28126
524.89	-188.41209
525.365	-166.34543
525.84	-170.36855
526.315	-137.301
526.79	-146.30191
527.265	-169.35519
527.74	-181.40686
528.215	-137.29568
528.689	-169.34485
529.164	-174.35045
529.638	-158.37469
530.112	-223.48912
530.587	-168.32964
531.061	-214.47916
531.534	-161.36116
532.008	-176.39067
532.482	-133.28113
532.956	-156.36494
533.429	-137.30543
533.903	-114.23172
534.376	-145.29574
534.849	-141.30157
535.322	-121.26227
535.795	-145.32728
536.268	-134.29621
536.741	-141.31305
537.213	-128.27288
537.686	-172.38766
538.158	-129.26467
538.631	-134.30152
539.103	-147.3035
539.575	-90.17209
540.047	-115.23264
540.519	-67.14615
540.991	-92.20676
541.463	-73.16127
541.934	-102.21405
542.406	-63.1362
542.877	-70.14384
543.348	-56.12317
543.82	-56.12519
544.291	-42.08915
544.762	-60.12886
545.233	-62.14088
545.703	-35.0696
546.174	-37.07766
546.645	-47.10061
547.115	33.07043
547.585	-8.01646
548.056	-16.03423
548.526	-3.00624
548.996	61.12889
549.466	105.22389
549.935	42.0867
550.405	70.13268
550.875	161.32405
551.344	117.24189
551.814	169.32964
552.283	214.39056
552.752	238.45839
553.221	190.34307
553.69	276.50168
554.159	256.51846
554.628	336.60113
555.096	334.68974
555.565	407.71899
556.033	475.88697
556.502	442.86033
556.97	544.93733
557.438	560.04077
557.906	651.19316
558.374	684.19619
558.842	705.28715
559.31	739.24419
559.777	841.50276
560.245	989.66292
560.712	1068.7258
561.18	1155.70304
561.647	1241.81859
562.114	1258.87804
562.581	1486.32723
563.048	1535.166
563.514	1694.47091
563.981	1820.32489
564.448	1974.31747
564.914	2107.52137
565.381	2282.48048
565.847	2460.63464
566.313	2545.61422
566.779	2763.45854
567.245	2897.62585
567.711	3093.71639
568.176	3271.30755
568.642	3521.86544
569.108	3707.67611
569.573	4029.29594
570.038	4186.56123
570.504	4407.74576
570.969	4633.34892
571.434	4877.35231
571.899	5082.73548
572.363	5324.35128
572.828	5514.31181
573.293	5699.22773
573.757	5918.15678
574.222	6196.92245
574.686	6312.92337
575.15	6419.21221
575.614	6618.03651
576.078	6721.14333
576.542	6826.03764
577.006	6762.97765
577.469	7108.49346
577.933	7025.00169
578.396	7160.31061
578.86	7153.26995
579.323	7049.26979
579.786	7081.91907
580.249	6981.06433
580.712	6957.39428
581.175	6850.41587
581.637	6812.11491
582.1	6762.90832
582.563	6696.81823
583.025	6527.32755
583.487	6417.53292
583.95	6371.75734
584.412	6187.70829
584.874	6153.41272
585.336	6072.29888
585.797	5828.89984
586.259	5909.35401
586.721	5665.38516
587.182	5504.48944
587.643	5340.37184
588.105	5173.69474
588.566	5019.13653
589.027	4943.89994
589.488	4833.66309
589.949	4646.1465
590.41	4564.97357
590.87	4484.89001
591.331	4311.67313
591.791	4193.07634
592.252	3993.11348
592.712	3942.47301
593.172	3764.16473
593.632	3697.08014
594.092	3694.15426
594.552	3462.07115
595.011	3323.43015
595.471	3262.34144
595.931	3176.34397
596.39	3022.74039
596.849	2893.6218
597.308	2869.30492
597.768	2810.08833
598.227	2732.81404
598.685	2667.59888
599.144	2597.65688
599.603	2527.71833
600.062	2463.1743
600.52	2441.42073
600.978	2371.69587
601.437	2410.55404
601.895	2263.2108
602.353	2242.39576
602.811	2207.3793
603.269	2252.70283
603.727	2116.65427
604.184	2119.39854
604.642	2145.76082
605.099	2079.51317
605.557	2013.68695
606.014	2073.21615
606.471	2013.75344
606.928	1943.14293
607.385	1926.58562
607.842	2030.42516
608.299	1970.48429
608.755	1966.59964
609.212	1998.30095
609.668	1888.22936
610.125	1965.62301
610.581	2020.62225
611.037	1954.44507
611.493	1963.57431
611.949	1901.58526
612.405	1843.94273
612.861	1938.5617
613.316	1847.53773
613.772	1813.38885
614.227	1836.49262
614.683	1859.19647
615.138	1803.44771
615.593	1768.40778
616.048	1758.3693
616.503	1767.63302
616.958	1727.65866
617.412	1709.44701
617.867	1658.1814
618.321	1662.01549
618.776	1615.18528
619.23	1609.36313
619.684	1582.23814
620.138	1577.32956
620.592	1415.31267
621.046	1533.33081
621.5	1435.34041
621.954	1383.08949
622.407	1295.97845
622.861	1274.17966
623.314	1303.04841
623.768	1239.03675
624.221	1198.61927
624.674	1168.93803
625.127	1190.00385
625.58	1256.02789
626.033	1212.90815
626.485	1105.96065
626.938	1099.95098
627.39	1093.89232
627.843	1137.93763
628.295	1050.83156
628.747	1049.89371
629.199	1052.80236
629.651	966.6917
630.103	1015.77544
630.555	968.56798
631.006	998.81195
631.458	927.72495
631.909	975.75175
632.361	979.78412
632.812	894.64328
633.263	935.57696
633.714	939.5743
634.165	947.8311
634.616	894.71242
635.067	958.6759
635.518	953.81377
635.968	1028.57063
636.419	1011.70558
636.869	986.86171
637.319	899.67524
637.769	998.74607
638.219	987.88131
638.669	959.8305
639.119	1005.95544
639.569	1020.94947
640.019	1035.88167
640.468	961.70891
640.918	1048.99729
641.367	1027.80777
641.816	1000.7679
642.265	1061.92224
642.714	1096.97024
643.163	1101.96362
643.612	1045.98052
644.061	1084.75374
644.51	1107.94902
644.958	1119.88236
645.406	1121.08641
645.855	1146.18931
646.303	1172.10491
646.751	1086.92337
647.199	1183.04642
647.647	1168.05606
648.095	1167.0463
648.543	1230.85801
648.99	1163.14777
649.438	1218.18561
649.885	1191.28805
650.333	1249.75027
650.78	1144.15609
651.227	1108.12569
651.674	1125.99007
652.121	1145.18162
652.568	1142.17117
653.015	1094.21533
653.461	1098.05909
653.908	1147.07821
654.354	1108.0901
654.801	1065.98326
655.247	1129.91983
655.693	1094.29969
656.139	1110.10407
656.585	1077.06063
657.031	1052.95272
657.477	1098.84339
657.922	1085.97379
658.368	1118.19727
658.813	1183.13718
659.259	1060.0402
659.704	1055.96557
660.149	1021.91993
660.594	1027.97279
661.039	1092.96703
661.484	1101.09959
661.929	1076.01081
662.373	1089.21469
662.818	1049.11394
663.262	1041.02794
663.707	1088.23114
664.151	1139.21301
664.595	1055.05624
665.039	1111.22379
665.483	1133.31678
665.927	1195.19721
666.371	1065.97153
666.814	1201.24457
667.258	1108.08501
667.701	1243.03773
668.145	1229.40291
668.588	1192.30911
669.031	1149.1292
669.474	1214.28728
669.917	1275.14023
670.36	1287.47175
670.803	1256.35514
671.245	1290.02841
671.688	1262.39531
672.13	1238.12565
672.573	1298.56959
673.015	1296.39244
673.457	1355.18088
673.899	1329.46388
674.341	1296.40903
674.783	1342.44332
675.225	1341.52297
675.666	1306.4038
676.108	1384.20855
676.549	1362.44012
676.991	1391.25809
677.432	1385.97726
677.873	1358.36489
678.314	1372.47562
678.755	1429.60169
679.196	1364.33943
679.637	1368.5483
680.078	1460.51828
680.518	1391.43214
680.959	1427.55253
681.399	1445.68759
681.839	1491.67974
682.28	1383.59338
682.72	1427.40861
683.16	1428.68128
683.6	1519.49903
684.039	1452.16297
684.479	1457.66747
684.919	1464.46416
685.358	1458.791
685.798	1490.94622
686.237	1600.78155
686.676	1540.58043
687.115	1481.55538
687.554	1591.70317
687.993	1524.40645
688.432	1504.48842
688.871	1560.51571
689.309	1545.67627
689.748	1577.28054
690.186	1628.76721
690.625	1586.65234
691.063	1618.76618
691.501	1656.92149
691.939	1634.92838
692.377	1690.90084
692.815	1663.79787
693.253	1650.81382
693.69	1680.51583
694.128	1750.92733
694.565	1682.81113
695.003	1771.14304
695.44	1782.83906
695.877	1721.76166
696.314	1780.51818
696.751	1746.70618
697.188	1794.76073
697.625	1869.82545
698.061	1765.90583
698.498	1825.99904
698.934	1928.05662
699.371	1782.84385
699.807	1918.97302
700.243	1869.00441
700.679	1886.77726
701.115	1943.9787
701.551	1941.97386
701.987	1897.75942
702.422	1884.96152
702.858	1896.9857
703.294	1982.83921
703.729	1988.17253
704.164	1971.08456
704.599	2007.78179
705.035	1925.74837
705.47	1965.12221
705.904	2014.9692
706.339	2073.00904
706.774	2080.0331
707.209	1966.89542
707.643	2074.14466
708.078	2127.2406
708.512	2046.30827
708.946	2102.1564
709.38	2127.11525
709.814	2032.9052
710.248	2101.23179
710.682	2115.12144
711.116	2090.11228
711.549	2099.51198
711.983	2101.9849
712.416	2171.13172
712.85	2071.31887
713.283	2044.05868
713.716	2114.39161
714.149	2135.15157
714.582	2144.88245
715.015	2094.36092
715.448	2139.42189
715.881	2122.76956
716.313	2049.01668
716.746	2051.03593
717.178	2038.12333
717.61	2065.39917
718.043	2061.31178
718.475	2006.14105
718.907	2058.39026
719.339	1918.79136
719.77	1856.92853
720.202	1952.29395
720.634	1924.09135
721.065	1884.9548
721.497	1928.13228
721.928	1897.11101
722.359	1765.9201
722.79	1851.966
723.221	1801.14139
723.652	1851.30268
724.083	1783.68094
724.514	1737.71765
724.945	1718.78531
725.375	1718.7314
725.806	1725.03437
726.236	1657.06869
726.666	1607.71167
727.096	1590.82605
727.526	1527.88097
727.956	1589.54788
728.386	1580.82826
728.816	1528.86685
729.246	1479.66347
729.675	1435.65584
730.105	1520.76044
730.534	1464.52389
730.964	1466.79431
731.393	1520.7978
731.822	1419.76867
732.251	1401.72196
732.68	1398.47688
733.109	1325.5243
733.537	1355.49739
733.966	1330.55514
734.395	1282.27634
734.823	1318.25533
735.251	1205.29623
735.68	1282.52142
736.108	1249.50391
736.536	1267.31961
736.964	1184.16662
737.392	1198.39658
737.82	1206.28875
738.247	1180.24793
738.675	1201.27208
739.102	1077.20707
739.53	1063.23495
739.957	1047.23682
740.384	1098.21134
740.811	1090.26927
741.238	1065.1296
741.665	982.88487
742.092	1038.03782
742.519	981.02989
742.945	985.96908
743.372	960.99993
743.798	918.01442
744.225	945.88468
744.651	898.92607
745.077	941.98501
745.503	922.90544
745.929	870.78347
746.355	889.89409
746.781	867.8456
747.207	818.65113
747.632	827.73984
748.058	809.75706
748.483	826.63224
748.908	779.69401
749.334	760.63833
749.759	759.56307
750.184	751.56597
750.609	745.61249
751.033	775.59748
751.458	744.45626
751.883	758.65146
752.307	678.41829
752.732	627.4128
753.156	695.52721
753.58	693.46089
754.005	696.57702
754.429	694.44411
754.853	638.42267
755.277	699.46453
755.7	633.41587
756.124	643.43472
756.548	581.2497
756.971	610.34783
757.394	617.44221
757.818	545.28966
758.241	563.30764
758.664	522.21588
759.087	528.0763
759.51	524.20184
759.933	495.10093
760.356	562.32046
760.778	506.14937
761.201	526.17748
761.623	494.11028
762.046	505.10647
762.468	511.13281
762.89	523.18972
763.312	476.08024
763.734	414.9387
764.156	506.15447
764.578	442.9512
765	468.06249
765.421	401.96233
765.843	439.08034
766.264	448.01124
766.686	390.92865
767.107	344.79615
767.528	354.85168
767.949	390.94003
768.37	295.69831
768.791	409.9332
769.212	313.75492
769.632	310.69323
770.053	303.76895
770.473	329.76642
770.894	371.88359
771.314	329.75313
771.734	308.68961
772.154	336.82611
772.575	361.79543
772.994	259.57047
773.414	308.71143
773.834	281.67903
774.254	278.65795
774.673	294.69043
775.093	249.59877
775.512	232.55715
775.931	252.62077
776.351	216.52444
776.77	281.66312
777.189	255.58868
777.607	210.52493
778.026	232.56328
778.445	177.43579
778.864	236.58991
779.282	233.54623
779.701	239.58647
780.119	210.51903
780.537	222.54062
780.955	241.59684
781.373	205.49652
781.791	218.47805
782.209	236.5295
782.627	161.41844
783.045	173.39207
783.462	229.57024
783.88	142.36353
784.297	207.50946
784.715	167.42235
785.132	185.43998
785.549	166.40924
785.966	197.48557
786.383	140.34108
786.8	195.44408
787.217	165.38562
787.633	154.37938
788.05	232.53676
788.466	236.54146
788.883	116.29395
789.299	177.41918
789.715	155.37204
790.131	115.2844
790.547	165.4061
790.963	157.38456
791.379	153.38184
791.795	140.31657
792.21	172.39574
792.626	135.31749
793.041	183.44341
793.457	137.33532
793.872	142.33037
794.287	84.20043
794.702	139.33908
795.117	104.25725
795.532	137.33968
795.947	151.35913
796.362	158.37237
796.776	136.31591
797.191	145.35081
797.605	85.19944
798.02	99.24016
798.434	134.29583
798.848	104.25498
799.262	95.23494
799.676	156.3755
800.09	110.26919
800.504	106.25612
800.918	104.24005
801.331	131.34024
801.745	138.3137
802.158	95.23675
802.572	126.30318
802.985	146.34877
803.398	127.30031
803.811	166.42019
804.224	152.37335
804.637	76.18121
805.05	101.23336
805.462	120.29268
805.875	77.19937
806.288	71.17146
806.7	109.27233
807.112	115.26497
807.525	117.28669
807.937	66.16343
808.349	116.2885
808.761	104.2546
809.173	119.28617
809.584	115.28231
809.996	62.15218
810.408	28.07279
810.819	88.2066
811.231	16.04172
811.642	48.11502
812.053	72.17134
812.464	134.31508
812.875	166.4172
813.286	103.26365
813.697	133.30791
814.108	94.22893
814.519	127.28044
814.929	88.22387
815.34	55.13392
815.75	131.3293
816.16	88.21879
816.571	59.15356
816.981	84.19813
817.391	111.26623
817.801	66.16409
818.211	83.19763
818.62	105.25126
819.03	116.28208
819.44	126.32596
819.849	79.1988
820.259	115.29209
820.668	63.15518
821.077	46.11474
821.486	107.25615
821.895	133.32505
822.304	77.20369
822.713	74.17495
823.122	74.18458
823.531	109.25665
823.939	96.23283
824.348	85.20619
824.756	108.26871
825.164	55.13881
825.573	57.14334
825.981	123.30218
826.389	117.29147
826.797	57.14308
827.205	47.10842
827.612	112.27429
828.02	28.0663
828.428	82.20831
828.835	59.15545
829.243	110.26026
829.65	64.15923
830.057	85.20573
830.464	85.2065
830.871	106.25215
831.278	93.22382
831.685	103.22849
832.092	115.27918
832.499	92.20048
832.905	74.18712
833.312	87.19789
833.718	126.31063
834.124	91.20716
834.531	93.23336
834.937	89.22749
835.343	121.28911
835.749	127.29343
836.155	91.23717
836.561	65.15993
836.966	115.27876
837.372	77.19557
837.777	69.17177
838.183	98.21672
838.588	69.17121
838.993	130.3128
839.399	45.11043
839.804	53.12944
840.209	49.12503
840.613	65.14473
841.018	97.24419
841.423	101.25735
841.828	93.23395
842.232	133.32541
842.637	57.13473
843.041	60.15383
843.445	74.18525
843.849	63.15598
844.253	87.20596
844.657	53.13366
845.061	80.18105
845.465	96.23047
845.869	92.21269
846.272	52.12688
846.676	113.27082
847.079	55.13999
847.483	137.33719
847.886	89.21557
848.289	84.22322
848.692	59.14948
849.095	100.23852
849.498	156.38883
849.901	100.22778
850.304	45.10793
850.707	76.19327
851.109	101.2538
851.512	88.21519
851.914	21.05328
852.316	71.17925
852.718	28.07266
853.121	80.19534
853.523	23.05418
853.925	56.14613
854.326	68.16974
854.728	79.20243
855.13	60.15469
855.531	49.11735
855.933	68.16306
856.334	55.13722
856.736	100.22225
857.137	89.2058
857.538	59.14831
857.939	48.11882
858.34	112.27031
858.741	74.1929
859.142	63.15128
859.542	88.23096
859.943	82.2029
860.343	89.21913
860.744	94.2279
861.144	66.1608
861.544	36.08689
861.945	72.18304
862.345	68.16604
862.745	82.2029
863.145	130.30662
863.544	50.12652
863.944	100.2344
864.344	137.33545
864.743	92.2269
865.143	115.2924
865.542	63.14603
865.941	51.12641
866.34	81.19324
866.74	75.20066
867.139	72.17193
867.537	80.20301
867.936	80.19177
868.335	80.20273
868.734	72.18349
869.132	96.22141
869.531	98.23527
869.929	57.12997
870.327	85.2027
870.726	105.25958
871.124	114.26355
871.522	81.20544
871.92	81.19892
872.318	70.17073
872.715	89.21905
873.113	56.13648
873.511	78.19357
873.908	50.12634
874.306	93.22974
874.703	70.17473
875.1	101.25635
875.497	101.24012
875.894	17.04195
876.291	75.18344
876.688	81.20799
877.085	71.1699
877.482	109.27026
877.878	60.14432
878.275	62.15734
878.671	105.23157
879.068	80.19228
879.464	59.14253
879.86	46.10901
880.256	101.24721
880.652	47.11972
881.048	61.15102
881.444	41.09789
881.84	118.29657
882.236	88.21998
882.631	104.25299
883.027	129.3081
883.422	73.18607
883.817	-2.00508
884.213	71.18168
884.608	51.12516
885.003	98.23438
885.398	84.20915
885.793	77.19252
886.188	42.10465
886.582	104.26448
886.977	61.14463
887.371	74.18652
887.766	59.14661
888.16	67.16685
888.554	82.20179
888.949	82.20491
889.343	117.28254
889.737	35.09355
890.131	58.14541
890.525	76.19362
890.918	38.09592
891.312	111.26278
891.706	84.21926
892.099	65.1651
892.492	88.18858
892.886	69.16839
893.279	72.18284
893.672	62.15762
894.065	91.22637
894.458	85.2126
894.851	87.21192
895.244	32.08204
895.637	80.19177
896.029	72.17548
896.422	111.26835
896.814	97.23927
897.206	83.19657
897.599	131.31945
897.991	57.13775
898.383	47.11122
898.775	86.19288
899.167	77.17876
899.559	49.12415
899.951	94.21991
900.342	71.18002
900.734	8.02001
901.125	51.13387
901.517	72.17613
901.908	101.24003
902.299	51.12474
902.69	85.19936
903.082	103.24713
903.473	36.08649
903.863	94.23812
904.254	59.13681
904.645	76.18826
905.036	57.13791
905.426	84.19118
905.817	87.21216
906.207	87.20596
906.597	60.14015
906.987	86.22164
907.378	70.1765
907.768	75.19754
908.158	61.14853
908.547	52.13434
908.937	72.18414
909.327	87.20994
909.717	105.26414
910.106	63.15105
910.495	106.2621
910.885	64.16178
911.274	60.14977
911.663	66.16713
912.052	86.21093
912.441	74.18746
912.83	49.11258
913.219	126.32562
913.608	77.18777
913.997	52.13037
914.385	88.20885
914.774	111.26734
915.162	55.13101
915.55	75.18071
915.939	40.10118
916.327	97.24015
916.715	59.15018
917.103	83.20316
917.491	113.27648
917.878	94.22935
918.266	81.20901
918.654	75.19083
919.041	48.12538
919.429	60.14141
919.816	87.21917
920.203	49.11891
920.591	91.22406
920.978	84.2045
921.365	41.10777
921.752	94.22232
922.139	104.22335
922.525	45.10822
922.912	90.21795
923.299	88.21727
923.685	44.11493
924.072	105.23961
924.458	35.08697
924.844	64.15802
925.231	82.18973
925.617	47.11963
926.003	90.22847
926.389	60.15113
926.774	86.21661
927.16	79.19523
927.546	37.09468
927.931	94.23277
928.317	100.22815
928.702	91.21368
929.088	61.14402
929.473	66.16749
929.858	20.04864
930.243	43.10337
930.628	54.13131
931.013	49.12149
931.398	150.33822
931.783	69.18112
932.167	80.19454
932.552	81.20186
932.937	114.2797
933.321	33.08308
933.705	43.10856
934.09	101.25298
934.474	70.16568
934.858	48.12456
935.242	43.09983
935.626	60.15334
936.009	55.14618
936.393	94.23736
936.777	76.19375
937.16	67.17384
937.544	125.2903
937.927	32.08147
938.311	99.23952
938.694	112.29314
939.077	62.14811
939.46	115.27907
939.843	137.28044
940.226	89.22677
940.609	77.17586
940.991	70.17758
941.374	53.12949
941.757	66.16242
942.139	36.08111
942.522	53.12523
942.904	93.22178
943.286	74.18726
943.668	86.22141
944.05	82.20082
944.432	62.15268
944.814	92.22489
945.196	23.05634
945.578	34.08107
945.959	59.13805
946.341	112.27184
946.722	136.31391
947.104	93.22051
947.485	92.21236
947.866	50.12598
948.247	40.10111
948.628	54.13166
949.009	57.1458
949.39	74.18344
949.771	89.20547
950.152	81.19767
950.532	-15.03734
950.913	72.17299
951.293	67.1805
951.674	61.14725
952.054	35.08697
952.434	43.10689
952.814	92.21717
953.194	79.20575
953.574	122.29656
953.954	100.23523
954.334	95.23486
954.714	40.09767
955.093	95.23166
955.473	60.14977
955.853	55.14226
956.232	80.21822
956.611	80.19082
956.99	46.1157
957.37	66.16773
957.749	93.22008
958.128	62.15588
958.506	62.16051
958.885	47.1187
959.264	53.12982
959.643	72.16314
960.021	63.15575
960.4	70.15803
960.778	111.27038
961.156	70.17486
961.535	107.24663
961.913	65.15168
962.291	62.15873
962.669	55.1392
963.047	61.15538
963.424	61.15538
963.802	85.20766
964.18	150.37279
964.557	136.30791
964.935	96.22547
965.312	30.07839
965.69	82.20417
966.067	44.10728
966.444	76.1864
966.821	103.26309
967.198	126.30134
967.575	97.23645
967.952	103.24025
968.329	94.22687
968.705	116.24525
969.082	86.21917
969.458	8.01934
969.835	43.10482
970.211	66.16891
970.587	56.13928
970.963	64.16379
971.339	45.1176
971.715	84.20846
972.091	110.26789
972.467	111.27381
972.843	76.18771
973.219	93.22153
973.594	39.1022
973.97	136.31841
974.345	65.15513
974.721	89.21395
975.096	50.121
975.471	76.1794
975.846	96.22863
976.221	68.17213
976.596	60.14355
976.971	123.2996
977.346	84.19428
977.72	76.19273
978.095	78.2006
978.469	117.2757
978.844	124.30761
979.218	48.1151
979.593	108.25592
979.967	92.22238
980.341	82.18761
980.715	84.21036
981.089	72.17953
981.463	61.13976
981.837	51.1246
982.21	115.26423
982.584	78.1874
982.957	24.06021
983.331	62.14624
983.704	53.13016
984.078	75.18398
984.451	122.30077
984.824	47.11453
985.197	93.22407
985.57	57.14277
985.943	127.30923
986.316	128.30998
986.688	116.27626
987.061	120.27742
987.434	43.11218
987.806	72.1739
988.179	68.15989
988.551	92.23164
988.923	84.20557
989.295	124.3057
989.667	34.08147
990.039	52.12844
990.411	64.1469
990.783	105.23913
991.155	21.05073
991.527	129.31304
991.898	70.17378
992.27	19.04726
992.641	107.26568
993.012	122.28306
993.384	69.16398
993.755	30.07675
994.126	63.15116
994.497	39.09592
994.868	82.18716
995.239	84.20228
995.61	92.22973
995.98	55.13347
996.351	57.14097
996.722	96.22062
997.092	21.05
997.462	51.1191
997.833	74.17461
998.203	100.24016
998.573	47.11709
998.943	58.13579
999.313	60.1435
999.683	61.14608
1000.053	81.18521
1000.423	53.12871
1000.792	70.18078
1001.162	54.13279
1001.531	81.19856
1001.901	71.1763
1002.27	102.22557
1002.639	86.21832
1003.009	79.18681
1003.378	99.25092
1003.747	103.24082
1004.116	17.04093
1004.485	89.2111
1004.853	99.2486
1005.222	102.25479
1005.591	101.23744
1005.959	28.06337
1006.328	74.1657
1006.696	36.08705
1007.064	66.16552
1007.433	75.18657
1007.801	135.32613
1008.169	89.22316
1008.537	83.18251
1008.905	91.21026
1009.273	58.14304
1009.64	48.11453
1010.008	47.11208
1010.375	134.32023
1010.743	127.28876
1011.11	40.09482
1011.478	67.16527
1011.845	84.1962
1012.212	41.09296
1012.579	88.21447
1012.946	92.21717
1013.313	115.27025
1013.68	92.20498
1014.047	57.13562
1014.414	17.0404
1014.78	33.08224
1015.147	129.30728
1015.513	71.17036
1015.88	86.21847
1016.246	103.25173
1016.612	58.13254
1016.978	72.17568
1017.344	66.1626
1017.71	85.20588
1018.076	75.17597
1018.442	89.22733
1018.808	70.17429
1019.174	68.16999
1019.539	155.34928
1019.905	47.11088
1020.27	38.09396
1020.636	124.29304
1021.001	67.15984
1021.366	57.13666
1021.731	69.17681
1022.096	21.05323
1022.461	79.18587
1022.826	89.20988
1023.191	68.1778
1023.556	74.17257
1023.92	83.20278
1024.285	83.20127
1024.649	69.16845
1025.014	84.20671
1025.378	70.1753
1025.742	94.23149
1026.107	81.18201
1026.471	71.16502
1026.835	41.10177
1027.199	55.13222
1027.562	62.14374
1027.926	95.23028
1028.29	96.24085
1028.654	88.20086
1029.017	90.21951
1029.381	71.16886
1029.744	50.12747
1030.107	86.20198
1030.471	88.20909
1030.834	88.19859
1031.197	115.27351
1031.56	57.13426
1031.923	6.01562
1032.286	119.2756
1032.648	76.18079
1033.011	38.0874
1033.374	88.20522
1033.736	56.14702
1034.099	76.18426
1034.461	31.07854
1034.823	29.07246
1035.185	81.20267
1035.548	74.17921
1035.91	132.3111
1036.272	64.14519
1036.634	75.18255
1036.995	57.13374
1037.357	57.13843
1037.719	96.23135
1038.08	113.26492
1038.442	2.00479
1038.803	72.17206
1039.165	54.13611
1039.526	43.104
1039.887	65.15501
1040.248	31.07661
1040.609	79.19408
1040.97	44.1076
1041.331	91.22859
1041.692	59.1374
1042.053	100.2253
1042.413	106.24418
1042.774	95.22898
1043.134	69.1636
1043.495	105.26119
1043.855	67.16192
1044.215	74.18277
1044.576	40.09577
1044.936	63.144
1045.296	79.19602
1045.656	85.20712
1046.016	124.29497
1046.375	59.1428
1046.735	56.12673
1047.095	74.1723
1047.454	119.24823
1047.814	86.20521
1048.173	126.2965
1048.533	65.14839
1048.892	19.04585
1049.251	66.16511
1049.61	71.17404
1049.969	87.20349
1050.328	61.13188
1050.687	69.16719
1051.046	82.19836
1051.405	92.22698
1051.763	39.08982
1052.122	61.15174
1052.48	69.16851
1052.839	63.14776
1053.197	93.21693
1053.555	124.27834
1053.914	60.1464
1054.272	81.19457
1054.63	36.0882
1054.988	52.12341
1055.345	119.25231
1055.703	101.24058
1056.061	65.16667
1056.419	56.14472
1056.776	89.21411
1057.134	85.1953
1057.491	60.14988
1057.848	78.19308
1058.206	78.18233
1058.563	76.16652
1058.92	89.20342
1059.277	91.22265
1059.634	122.28283
1059.991	101.23947
1060.348	24.05449
1060.704	18.04313
1061.061	153.34801
1061.418	58.14035
1061.774	72.17692
1062.131	34.09008
1062.487	46.10757
1062.843	96.2372
1063.199	110.27039
1063.555	41.09511
1063.911	103.25752
1064.267	139.28402
1064.623	68.16449
1064.979	94.22068
1065.335	120.28282
1065.691	65.15525
1066.046	70.15318
1066.402	104.23354
1066.757	102.25488
1067.112	94.22867
1067.468	63.14828
1067.823	105.24963
1068.178	92.22062
1068.533	70.16895
1068.888	57.13593
1069.243	90.22033
1069.598	48.11659
1069.952	46.10359
1070.307	55.13592
1070.662	67.15843
1071.016	67.1495
1071.371	86.19407
1071.725	69.16436
1072.079	57.13682
1072.434	54.13102
1072.788	89.21021
1073.142	103.2507
1073.496	36.08557
1073.85	79.18202
1074.203	68.16431
1074.557	54.1434
1074.911	100.23623
1075.265	95.21871
1075.618	110.26538
1075.971	71.16808
1076.325	62.15711
1076.678	71.16156
1077.031	77.17316
1077.385	100.21782
1077.738	114.25379
1078.091	42.09559
1078.444	85.19585
1078.796	69.16858
1079.149	95.23417
1079.502	63.14834
1079.855	77.17848
1080.207	103.25108
1080.56	50.12913
1080.912	90.2173
1081.264	56.1346
1081.617	75.1818
1081.969	69.17333
1082.321	137.32883
1082.673	23.05274
1083.025	75.17694
1083.377	-192.43327
1083.728	118.27139
1084.08	83.20579
1084.432	33.07978
1084.783	120.27709
1085.135	70.17467
1085.486	56.12787
1085.838	112.27245
1086.189	55.13327
1086.54	90.2131
1086.891	61.15384
1087.242	90.2173
1087.593	68.16486
1087.944	96.21505
1088.295	124.27742
1088.646	78.1879
1088.996	45.10842
1089.347	52.12744
1089.698	35.08289
1090.048	76.19634
1090.398	84.19335
1090.749	62.14788
1091.099	49.12313
1091.449	96.23694
1091.799	66.16463
1092.149	0
1092.499	30.07339
1092.849	75.18962
1093.199	97.24085
1093.548	72.17213
1093.898	53.13242
1094.248	68.17403
1094.597	22.05638
1094.947	55.14647
1095.296	80.19629
1095.645	64.16591
1095.994	86.20497
1096.343	76.19019
1096.692	53.13903
1097.041	15.04081
1097.39	65.16246
1097.739	113.29026
1098.088	127.33562
1098.437	2.00529
1098.785	60.16135
1099.134	105.27599
1099.482	41.11282
1099.83	98.25519
1100.179	53.13804
1100.527	55.14589
1100.875	74.19467
1101.223	62.16415
1101.571	45.12434
1101.919	20.05247
1102.267	34.09587
1102.615	-5.01609
1102.962	14.04506
1103.31	-6.0193
1103.658	13.04186
