Data from N2 R11 sample 11_Subt2__4__15-49-38-055.txt Node

Date: Mon Sep 01 15:49:38 PDT 2025
User: uwsun
Spectrometer: HDX01956
Trigger mode: 0
Integration Time (sec): 5.000000E-1
Scans to average: 1
Nonlinearity correction enabled: true
Boxcar width: 0
Storing dark spectrum: false
XAxis mode: Wavelengths
Number of Pixels in Spectrum: 2068
>>>>>Begin Spectral Data<<<<<
194.03	-118.33716
194.578	-114.36548
195.127	-121.38277
195.676	-122.38711
196.225	-56.14995
196.773	-99.27569
197.321	-108.29497
197.87	-142.36047
198.418	-199.50399
198.966	-222.56772
199.513	-253.62151
200.061	-212.52513
200.609	-150.38764
201.156	-259.56185
201.704	-232.57361
202.251	-235.61095
202.798	-248.63464
203.345	-171.41371
203.892	-215.5311
204.438	-172.40221
204.985	-232.53825
205.532	-196.50247
206.078	-177.42387
206.624	-209.50183
207.17	-169.38347
207.716	-256.61338
208.262	-154.29817
208.808	-273.66145
209.354	-267.64229
209.899	-206.51307
210.445	-241.58743
210.99	-232.54867
211.535	-185.42658
212.08	-245.5656
212.625	-161.39231
213.17	-182.45066
213.715	-266.58453
214.259	-153.34759
214.804	-170.41075
215.348	-213.48154
215.892	-176.41286
216.436	-173.39398
216.98	-148.32086
217.524	-175.40417
218.068	-181.44613
218.612	-175.43135
219.155	-163.37466
219.698	-150.34843
220.242	-182.44637
220.785	-145.33102
221.328	-171.41745
221.871	-142.35188
222.414	-197.48432
222.956	-199.47036
223.499	-179.39691
224.041	-150.34361
224.583	-144.30712
225.126	-160.34672
225.668	-173.41176
226.21	-209.51723
226.751	-198.42687
227.293	-144.32256
227.835	-194.4652
228.376	-82.18353
228.918	-129.31727
229.459	-173.42013
230	-198.46428
230.541	-160.36194
231.082	-166.39336
231.622	-191.43479
232.163	-168.39733
232.704	-152.36629
233.244	-217.53013
233.784	-154.36971
234.324	-206.44412
234.864	-190.42402
235.404	-124.2869
235.944	-166.3859
236.484	-159.38772
237.023	-178.41134
237.563	-216.492
238.102	-206.47945
238.641	-176.43453
239.18	-231.53179
239.719	-207.51021
240.258	-184.4069
240.797	-195.45644
241.335	-140.3329
241.874	-183.34694
242.412	-196.46085
242.95	-214.50023
243.488	-175.39079
244.026	-185.41636
244.564	-156.31405
245.102	-212.46803
245.64	-131.30628
246.177	-167.36552
246.715	-168.39363
247.252	-184.41437
247.789	-106.19492
248.326	-256.60425
248.863	-214.46097
249.4	-187.41603
249.936	-196.3964
250.473	-217.49557
251.009	-214.47956
251.546	-225.4881
252.082	-208.44766
252.618	-190.41244
253.154	-219.51362
253.69	-144.31339
254.226	-176.40721
254.761	-173.37754
255.297	-235.50609
255.832	-241.55946
256.367	-187.4281
256.903	-178.37963
257.438	-226.52101
257.972	-179.38748
258.507	-259.58194
259.042	-205.43522
259.576	-233.4897
260.111	-208.46995
260.645	-195.41237
261.179	-228.5187
261.713	-243.53029
262.247	-178.39774
262.781	-185.37578
263.315	-250.59718
263.849	-226.54851
264.382	-201.44996
264.915	-246.56168
265.449	-307.73148
265.982	-212.47038
266.515	-230.54478
267.048	-176.35954
267.58	-157.33186
268.113	-251.53079
268.646	-207.49268
269.178	-251.54682
269.71	-179.37787
270.243	-207.459
270.775	-228.56083
271.307	-210.49088
271.838	-211.48808
272.37	-252.60288
272.902	-203.44732
273.433	-230.48925
273.965	-218.51257
274.496	-173.41303
275.027	-226.54109
275.558	-243.57079
276.089	-328.78705
276.62	-212.52071
277.15	-228.54505
277.681	-204.42941
278.211	-203.47963
278.741	-224.47525
279.272	-225.49475
279.802	-222.53395
280.332	-258.5886
280.861	-225.5215
281.391	-213.46344
281.921	-215.49891
282.45	-229.55152
282.98	-245.61494
283.509	-181.38813
284.038	-256.56445
284.567	-213.47898
285.096	-223.51686
285.625	-240.52407
286.153	-270.61051
286.682	-273.60332
287.21	-231.53116
287.739	-224.50547
288.267	-268.62275
288.795	-239.60183
289.323	-254.56684
289.851	-244.54768
290.378	-248.53397
290.906	-278.64292
291.433	-260.61987
291.961	-283.61548
292.488	-267.63571
293.015	-284.63928
293.542	-248.59421
294.069	-264.61684
294.596	-230.54057
295.122	-247.55953
295.649	-232.48663
296.175	-235.54078
296.702	-263.60835
297.228	-272.63179
297.754	-280.60027
298.28	-268.57728
298.806	-310.71121
299.332	-299.62951
299.857	-294.63165
300.383	-281.67673
300.908	-342.78901
301.433	-316.72846
301.958	-235.51218
302.483	-324.76561
303.008	-242.56189
303.533	-299.73828
304.058	-259.57621
304.582	-358.80484
305.107	-341.83979
305.631	-271.58387
306.155	-344.75877
306.679	-333.73374
307.203	-332.7274
307.727	-352.79232
308.251	-307.71208
308.775	-404.90897
309.298	-403.91396
309.822	-341.80905
310.345	-345.76878
310.868	-342.76572
311.391	-320.7368
311.914	-331.77078
312.437	-321.68623
312.96	-331.72414
313.482	-358.7913
314.005	-370.86649
314.527	-394.96436
315.049	-352.82886
315.571	-397.81964
316.093	-349.79698
316.615	-383.8545
317.137	-336.67144
317.659	-337.75437
318.18	-346.76893
318.702	-406.87374
319.223	-361.67975
319.744	-396.81519
320.265	-437.97252
320.786	-468.06163
321.307	-403.91247
321.828	-399.82192
322.348	-429.91986
322.869	-460.98653
323.389	-364.5331
323.909	-416.86369
324.43	-399.87251
324.95	-458.94621
325.47	-449.9868
325.989	-499.05834
326.509	-534.05795
327.029	-503.00967
327.548	-555.1199
328.067	-503.07055
328.587	-473.04103
329.106	-517.04022
329.625	-494.16004
330.144	-528.07093
330.662	-568.15904
331.181	-538.10269
331.7	-522.0626
332.218	-511.95468
332.736	-518.04487
333.255	-602.2213
333.773	-575.17574
334.291	-555.19933
334.808	-638.2308
335.326	-603.16678
335.844	-652.28917
336.361	-663.42753
336.879	-653.28482
337.396	-646.30892
337.913	-636.21871
338.43	-680.28122
338.947	-667.32226
339.464	-689.2173
339.981	-706.38373
340.497	-717.4778
341.014	-723.45481
341.53	-713.30703
342.046	-742.4907
342.562	-725.48427
343.078	-723.37539
343.594	-734.41769
344.11	-713.35634
344.626	-786.60314
345.141	-795.45255
345.657	-730.31508
346.172	-777.48905
346.687	-809.46999
347.202	-749.29675
347.717	-813.52743
348.232	-795.55807
348.747	-852.53146
349.261	-842.38621
349.776	-860.56801
350.29	-934.78916
350.805	-830.58734
351.319	-881.57764
351.833	-906.54902
352.347	-877.55677
352.861	-870.51199
353.374	-839.4453
353.888	-931.71186
354.401	-897.52907
354.915	-1013.68772
355.428	-1001.87489
355.941	-973.66615
356.454	-886.45001
356.967	-993.74867
357.48	-963.62434
357.993	-973.76423
358.505	-1046.88684
359.018	-982.74139
359.53	-1053.83921
360.042	-995.5699
360.554	-994.72541
361.066	-1031.7903
361.578	-998.50748
362.09	-1047.77321
362.602	-1048.59379
363.113	-1090.77141
363.625	-1100.71102
364.136	-1050.56755
364.647	-1229.95784
365.158	-1080.69537
365.669	-1153.90622
366.18	-1132.81329
366.691	-1150.69716
367.201	-1183.91738
367.712	-1132.67042
368.222	-1176.75373
368.733	-1256.74958
369.243	-1260.77198
369.753	-1212.78173
370.263	-1254.91819
370.773	-1272.00908
371.282	-1297.91176
371.792	-1424.94468
372.301	-1417.07933
372.811	-1435.32486
373.32	-1498.77586
373.829	-1530.04232
374.338	-1570.90618
374.847	-1592.94167
375.356	-1688.12634
375.865	-1726.71419
376.373	-1791.92644
376.882	-1755.21645
377.39	-1853.13405
377.898	-2041.26391
378.407	-2100.92442
378.915	-2060.63218
379.423	-2188.93851
379.93	-2249.73624
380.438	-2433.91742
380.946	-2489.65003
381.453	-2654.68575
381.96	-2851.55862
382.468	-3122.31756
382.975	-3117.31562
383.482	-3209.89055
383.989	-3315.35616
384.495	-3421.66294
385.002	-3696.05394
385.509	-3920.33021
386.015	-4080.47282
386.521	-4270.68205
387.028	-4527.49649
387.534	-4620.19708
388.04	-4733.43147
388.546	-5051.04426
389.051	-5493.04193
389.557	-5827.14279
390.063	-5779.07632
390.568	-6180.35535
391.073	-6542.84378
391.578	-6725.09138
392.084	-7149.11847
392.589	-7748.01386
393.093	-8493.72132
393.598	-8984.30757
394.103	-9764.08194
394.607	-10578.2078
395.112	-11210.69619
395.616	-11929.28964
396.12	-13286.75242
396.624	-14766.8063
397.128	-15802.41817
397.632	-17152.0032
398.136	-18815.55038
398.639	-21592.4261
399.143	-24888.88256
399.646	-27447.02253
400.15	-30401.01244
400.653	-34454.25768
401.156	-39566.09129
401.659	-46751.74523
402.162	-48138.70005
402.664	-42909.7154
403.167	-36230.42442
403.67	-10516.86887
404.172	-1466.75786
404.674	0
405.176	0
405.678	0
406.18	0
406.682	0
407.184	0
407.686	0
408.187	0
408.688	-14806.47608
409.19	-30459.67937
409.691	-37256.60469
410.192	-41209.0697
410.693	-43627.94234
411.194	-45331.55877
411.694	-42718.69251
412.195	-39092.94056
412.696	-37169.65508
413.196	-37168.23736
413.696	-37647.03299
414.196	-36481.67889
414.696	-33371.7589
415.196	-29310.38897
415.696	-22645.10455
416.196	-17906.65079
416.695	-16445.13529
417.195	-16287.72417
417.694	-15405.37131
418.194	-14180.79073
418.693	-13905.17182
419.192	-13398.77342
419.691	-13177.15386
420.19	-12667.00125
420.688	-12101.90249
421.187	-11323.79669
421.685	-10193.65371
422.184	-8890.55957
422.682	-7878.18543
423.18	-7136.73619
423.678	-6624.64479
424.176	-6259.72963
424.674	-5885.20639
425.172	-5309.82926
425.669	-4998.98949
426.167	-4441.98975
426.664	-4207.23492
427.161	-3903.52784
427.659	-3700.16457
428.156	-3545.86105
428.652	-3307.79755
429.149	-3178.75143
429.646	-3016.61133
430.143	-2824.1164
430.639	-2705.19929
431.135	-2609.59631
431.632	-2393.27148
432.128	-2366.69365
432.624	-2308.97433
433.12	-2339.57613
433.616	-2220.46607
434.111	-2248.81833
434.607	-2171.97188
435.103	-1890.40174
435.598	-1779.30658
436.093	-1809.88752
436.588	-1694.73607
437.083	-1619.74972
437.578	-1552.78274
438.073	-1644.16551
438.568	-1508.07082
439.062	-1426.59019
439.557	-1358.81521
440.051	-1398.80194
440.546	-1409.85887
441.04	-1371.9656
441.534	-1316.05655
442.028	-1259.85981
442.522	-1325.99965
443.015	-1231.63337
443.509	-1205.87368
444.002	-1210.88969
444.496	-1209.66369
444.989	-1192.9002
445.482	-1215.99596
445.975	-1231.79391
446.468	-1142.54897
446.961	-1154.58378
447.454	-1133.68156
447.947	-1184.86703
448.439	-1153.9188
448.931	-1176.77485
449.424	-1112.94717
449.916	-1087.80951
450.408	-1138.74582
450.9	-1143.9281
451.392	-1140.03367
451.884	-1067.71208
452.375	-1103.92582
452.867	-975.53732
453.358	-1097.75248
453.849	-1075.61041
454.341	-1036.65131
454.832	-1002.50723
455.323	-1035.81715
455.814	-991.6401
456.304	-947.56185
456.795	-948.55962
457.285	-943.5432
457.776	-880.47226
458.266	-977.71505
458.756	-929.66465
459.247	-967.71074
459.737	-993.77962
460.226	-930.55364
460.716	-935.69002
461.206	-890.61955
461.695	-879.69376
462.185	-872.5739
462.674	-833.46625
463.163	-831.40866
463.653	-819.31057
464.142	-873.64277
464.63	-778.47769
465.119	-799.42828
465.608	-816.47036
466.096	-724.22318
466.585	-741.35233
467.073	-765.46743
467.561	-752.44973
468.05	-754.41257
468.538	-742.47768
469.026	-692.32877
469.513	-722.22309
470.001	-685.24551
470.489	-700.33964
470.976	-671.25959
471.463	-680.39674
471.951	-675.40484
472.438	-695.35411
472.925	-703.36648
473.412	-631.30034
473.899	-625.20135
474.385	-616.27137
474.872	-627.22547
475.359	-646.33875
475.845	-588.02092
476.331	-533.97806
476.817	-553.14549
477.303	-604.20583
477.789	-564.16389
478.275	-564.19878
478.761	-527.09057
479.247	-535.03793
479.732	-565.21628
480.218	-567.29047
480.703	-522.12767
481.188	-500.93066
481.673	-527.05599
482.158	-580.08123
482.643	-503.13215
483.128	-513.02504
483.612	-489.00637
484.097	-456.98849
484.581	-467.96588
485.066	-424.90345
485.55	-457.88466
486.034	-463.88941
486.518	-472.98431
487.002	-495.08088
487.486	-477.04238
487.969	-455.99368
488.453	-420.95153
488.936	-467.95247
489.42	-412.82102
489.903	-390.88466
490.386	-829.3954
490.869	-332.64652
491.352	-378.84108
491.835	-359.671
492.318	-377.76717
492.8	-331.61467
493.283	-370.84849
493.765	-390.87209
494.247	-313.66334
494.73	-385.77953
495.212	-326.71907
495.694	-385.8209
496.175	-382.8221
496.657	-275.58816
497.139	-234.36813
497.62	-373.80567
498.102	-305.68416
498.583	-289.65786
499.064	-313.63259
499.545	-229.46834
500.026	-277.56163
500.507	-246.51531
500.988	-225.50348
501.469	-233.52374
501.949	-189.41961
502.43	-199.42064
502.91	-152.27712
503.39	-117.2603
503.87	-74.15131
504.35	-14.02873
504.83	-32.06044
505.31	-25.05245
505.79	19.03891
506.269	34.06832
506.749	84.16155
507.228	130.25484
507.707	215.3891
508.187	302.58697
508.666	226.45623
509.145	411.7511
509.623	466.84798
510.102	517.96733
510.581	660.19358
511.059	657.22901
511.538	827.5614
512.016	894.49658
512.494	1111.79611
512.972	1116.75521
513.45	1207.74896
513.928	1413.07718
514.406	1479.08466
514.884	1723.53139
515.361	1899.36538
515.839	2006.2143
516.316	2084.46192
516.793	2340.79727
517.27	2503.62314
517.747	2549.88655
518.224	2706.39071
518.701	2815.18916
519.178	2819.69609
519.654	2946.52589
520.131	2853.7184
520.607	2973.75195
521.083	3001.2798
521.56	2849.48401
522.036	2847.14457
522.512	2836.75117
522.987	2693.49997
523.463	2580.53706
523.939	2565.71363
524.414	2430.42382
524.89	2392.52987
525.365	2238.29905
525.84	2139.4437
526.315	1995.4765
526.79	1961.22125
527.265	1873.22787
527.74	1702.37007
528.215	1607.19685
528.689	1544.95954
529.164	1437.8498
529.638	1354.2681
530.112	1281.927
530.587	1225.63072
531.061	1167.87123
531.534	1174.91178
532.008	975.64554
532.482	1013.60669
532.956	852.59495
533.429	896.5688
533.903	916.42774
534.376	802.2851
534.849	720.25203
535.322	732.29648
535.795	716.32937
536.268	667.22562
536.741	617.15177
537.213	572.03254
537.686	550.05414
538.158	443.79159
538.631	470.92615
539.103	425.76491
539.575	456.75716
540.047	442.78023
540.519	415.81258
540.991	367.74683
541.463	313.63549
541.934	307.58602
542.406	318.63134
542.877	318.59627
543.348	272.55691
543.82	272.56675
544.291	266.52662
544.762	223.44966
545.233	167.36182
545.703	189.35622
546.174	178.35587
546.645	142.29153
547.115	192.39561
547.585	188.36976
548.056	124.25722
548.526	156.31304
548.996	147.30473
549.466	145.3065
549.935	81.16573
550.405	114.21375
550.875	122.24776
551.344	134.27598
551.814	158.30899
552.283	150.27819
552.752	143.28171
553.221	169.30679
553.69	188.34937
554.159	150.31116
554.628	153.28666
555.096	158.33917
555.565	269.49231
556.033	305.59351
556.502	284.57358
556.97	325.59271
557.438	359.70159
557.906	424.82254
558.374	387.7305
558.842	520.99483
559.31	558.98664
559.777	521.00687
560.245	659.20664
560.712	749.31806
561.18	693.16464
561.647	789.31491
562.114	876.45676
562.581	954.72225
563.048	1079.73925
563.514	1095.88779
563.981	1303.95334
564.448	1418.9953
564.914	1508.18287
565.381	1626.20255
565.847	1764.38526
566.313	1879.42731
566.779	2089.3913
567.245	2135.55251
567.711	2298.69839
568.176	2544.42937
568.642	2627.97387
569.108	2877.87868
569.573	3145.63634
570.038	3275.00599
570.504	3498.20694
570.969	3694.81451
571.434	3927.88025
571.899	4226.21438
572.363	4439.83289
572.828	4739.7133
573.293	4963.58046
573.757	5351.38459
574.222	5486.13639
574.686	5708.06577
575.15	6024.29286
575.614	6292.0522
576.078	6460.14342
576.542	6742.02487
577.006	6970.02381
577.469	7187.51386
577.933	7265.1062
578.396	7458.44379
578.86	7551.4673
579.323	7681.58282
579.786	7760.39819
580.249	7662.43212
580.712	7668.6813
581.175	7730.74906
581.637	7847.65003
582.1	7746.43739
582.563	7799.44531
583.025	7719.68069
583.487	7633.15042
583.95	7486.14414
584.412	7589.19508
584.874	7435.51831
585.336	7437.42732
585.797	7221.00579
586.259	7085.28537
586.721	7063.23405
587.182	6943.22989
587.643	6695.04561
588.105	6604.23157
588.566	6435.72243
589.027	6181.35627
589.488	6130.10583
589.949	5892.51589
590.41	5742.46553
590.87	5532.33445
591.331	5476.06008
591.791	5180.5279
592.252	5010.54959
592.712	4901.95121
593.172	4711.65218
593.632	4657.56226
594.092	4475.74129
594.552	4246.67641
595.011	4161.05381
595.471	3939.05299
595.931	3895.04964
596.39	3765.51153
596.849	3605.42613
597.308	3478.12004
597.768	3370.02585
598.227	3372.7168
598.685	3196.52326
599.144	3087.6156
599.603	3068.69492
600.062	2937.11149
600.52	2866.40206
600.978	2779.7293
601.437	2730.56694
601.895	2652.21393
602.353	2568.42753
602.811	2494.41582
603.269	2425.74438
603.727	2412.73992
604.184	2359.44931
604.642	2223.79039
605.099	2192.55019
605.557	2225.77591
606.014	2157.23534
606.471	2077.78545
606.928	2086.18312
607.385	1981.61397
607.842	2071.43986
608.299	2050.518
608.755	2014.62294
609.212	2010.30509
609.668	1903.23549
610.125	1953.61678
610.581	1977.6017
611.037	2014.47065
611.493	1941.56324
611.949	1862.56283
612.405	1963.97681
612.861	1896.53948
613.316	1876.55463
613.772	1889.42912
614.227	1812.47839
614.683	1883.20646
615.138	1766.42511
615.593	1782.4163
616.048	1838.41534
616.503	1818.6691
616.958	1749.6758
617.412	1790.50109
617.867	1748.23387
618.321	1774.0698
618.776	1711.24579
619.23	1583.34276
619.684	1642.28085
620.138	1546.30457
620.592	1506.40079
621.046	1488.29168
621.5	1504.40705
621.954	1475.16932
622.407	1371.04788
622.861	1345.25842
623.314	1330.07501
623.768	1291.09236
624.221	1206.62592
624.674	1202.97614
625.127	1202.01761
625.58	1241.01194
626.033	1113.80138
626.485	1040.87599
626.938	1123.98139
627.39	990.76016
627.843	1040.81787
628.295	1004.77223
628.747	987.80961
629.199	958.68204
629.651	938.65457
630.103	908.63235
630.555	881.46148
631.006	879.64356
631.458	890.67113
631.909	845.5682
632.361	841.58555
632.812	719.37905
633.263	786.37863
633.714	778.361
634.165	786.57776
634.616	672.35547
635.067	678.27244
635.518	709.42857
635.968	686.15316
636.419	678.24618
636.869	622.27803
637.319	567.14258
637.769	580.12514
638.219	655.34805
638.669	601.24564
639.119	572.22636
639.569	573.21239
640.019	593.19781
640.468	527.04138
640.918	530.13569
641.367	527.04771
641.816	553.0903
642.265	536.09957
642.714	531.09151
643.163	467.96978
643.612	407.89188
644.061	472.896
644.51	425.88217
644.958	446.88836
645.406	486.04618
645.855	458.01955
646.303	453.96461
646.751	402.83909
647.199	463.95504
647.647	435.9134
648.095	405.85304
648.543	466.86564
648.99	393.86629
649.438	395.85938
649.885	362.83481
650.333	413.73416
650.78	398.88814
651.227	370.83692
651.674	333.71096
652.121	404.90897
652.568	370.83624
653.015	389.91542
653.461	351.7802
653.908	400.86342
654.354	361.80642
654.801	337.74131
655.247	389.79412
655.693	351.85899
656.139	320.72414
656.585	307.69741
657.031	282.62411
657.477	282.57948
657.922	335.72577
658.368	374.86453
658.813	310.6855
659.259	313.71133
659.704	269.5992
660.149	319.70378
660.594	319.71761
661.039	303.65645
661.484	335.75823
661.929	320.71057
662.373	241.58502
662.818	278.65999
663.262	239.55482
663.707	286.69307
664.151	319.74138
664.595	259.60077
665.039	308.73147
665.483	272.66484
665.927	263.59723
666.371	230.51477
666.814	256.59063
667.258	246.56146
667.701	377.76822
668.145	280.67062
668.588	241.57315
669.031	223.50907
669.474	232.54272
669.917	278.59444
670.36	208.50332
670.803	297.68889
671.245	220.45392
671.688	303.70976
672.13	190.41823
672.573	229.56651
673.015	261.60684
673.457	218.46474
673.899	234.55233
674.341	248.58128
674.783	244.5681
675.225	217.52103
675.666	173.40907
676.108	200.42785
676.549	258.59382
676.991	218.4714
677.432	184.36291
677.873	199.453
678.314	192.45109
678.755	201.47987
679.196	184.41572
679.637	201.4828
680.078	210.48316
680.518	218.49916
680.959	184.43466
681.399	195.47515
681.839	178.42764
682.28	137.3357
682.72	154.35022
683.16	193.47238
683.6	203.45669
684.039	193.3983
684.479	149.36266
684.919	146.33431
685.358	187.46753
685.798	165.42677
686.237	194.46271
686.676	224.51084
687.115	193.44751
687.554	153.36108
687.993	128.28401
688.432	197.44428
688.871	157.35422
689.309	184.43398
689.748	150.31422
690.186	198.46664
690.625	137.32031
691.063	124.29712
691.501	167.4089
691.939	121.30099
692.377	154.37294
692.815	138.32878
693.253	177.4216
693.69	127.28009
694.128	108.26194
694.565	139.33071
695.003	118.29891
695.44	116.27318
695.877	104.24387
696.314	171.36653
696.751	204.45978
697.188	110.2538
697.625	177.4039
698.061	128.30671
698.498	146.3521
698.934	124.29871
699.371	119.28041
699.807	160.37621
700.243	123.29591
700.679	147.33261
701.115	196.45636
701.551	118.27875
701.987	197.43846
702.422	123.2922
702.858	129.30716
703.294	146.33054
703.729	147.35806
704.164	90.21804
704.599	161.3573
705.035	148.33043
705.47	79.19351
705.904	129.30054
706.339	195.44892
706.774	111.26095
707.209	118.2728
707.643	87.21049
708.078	95.23244
708.512	77.19363
708.946	133.31863
709.38	128.30343
709.814	132.30225
710.248	139.33782
710.682	135.32046
711.116	47.11359
711.549	105.27112
711.983	95.22116
712.416	126.29834
712.85	108.26968
713.283	131.30988
713.716	155.38697
714.149	149.3541
714.582	130.29252
715.015	136.3396
715.448	116.29238
715.881	154.33686
716.313	136.31828
716.746	79.18767
717.178	93.22484
717.61	110.27914
718.043	119.29656
718.475	115.27918
718.907	149.37522
719.339	91.20791
719.77	53.12726
720.202	109.27577
720.634	80.19592
721.065	103.24525
721.497	112.2749
721.928	66.16349
722.359	41.10021
722.79	54.13087
723.221	109.27469
723.652	162.41444
724.083	86.19582
724.514	117.26968
724.945	76.18037
725.375	72.1687
725.806	73.18377
726.236	96.24663
726.666	101.24031
727.096	91.22447
727.526	93.2368
727.956	52.12003
728.386	134.32902
728.816	86.2184
729.246	69.16908
729.675	36.08983
730.105	108.26636
730.534	119.27888
730.964	158.39638
731.393	161.39713
731.822	116.29593
732.251	71.18142
732.68	145.34074
733.109	83.20572
733.537	82.19933
733.966	98.244
734.395	95.22081
734.823	83.18933
735.251	70.17016
735.68	133.33217
736.108	116.29322
736.536	100.23706
736.964	70.16421
737.392	102.25571
737.82	123.29512
738.247	115.27582
738.675	147.34988
739.102	69.17358
739.53	54.13869
739.957	66.17086
740.384	144.3537
740.811	111.28133
741.238	43.10634
741.665	89.20768
742.092	124.2961
742.519	37.09274
742.945	84.20297
743.372	93.23101
743.798	108.27746
744.225	107.25497
744.651	76.19184
745.077	66.16588
745.503	92.22548
745.929	78.18854
746.355	130.32261
746.781	71.17726
747.207	55.13051
747.632	75.18392
748.058	115.28669
748.483	98.22683
748.908	108.26841
749.334	96.2365
749.759	78.18533
750.184	29.07019
750.609	106.26085
751.033	79.1884
751.458	98.22133
751.883	97.24103
752.307	77.18264
752.732	38.09599
753.156	68.16919
753.58	109.25944
754.005	81.20654
754.429	88.20797
754.853	75.18684
755.277	73.17422
755.7	105.26062
756.124	33.08296
756.548	35.0842
756.971	83.20376
757.394	60.15565
757.818	40.10398
758.241	51.13055
758.664	93.23521
759.087	33.07494
759.51	86.21483
759.933	88.21255
760.356	106.27147
760.778	53.1316
761.201	109.26531
761.623	88.21455
762.046	93.22178
762.468	137.32783
762.89	91.22538
763.312	46.11366
763.734	58.14099
764.156	97.23989
764.578	86.19922
765	110.26829
765.421	46.11781
765.843	82.21543
766.264	103.2493
766.686	64.16189
767.107	41.10058
767.528	-16.04118
767.949	89.22669
768.37	72.17777
768.791	80.19461
769.212	28.07116
769.632	14.03321
770.053	55.14569
770.473	44.10824
770.894	103.2579
771.314	108.25819
771.734	52.12256
772.154	81.2085
772.575	78.18205
772.994	40.09215
773.414	101.24289
773.834	55.13856
774.254	51.12599
774.673	108.26282
775.093	71.17649
775.512	71.17572
775.931	62.15806
776.351	69.17214
776.77	36.08898
777.189	103.24497
777.607	63.16166
778.026	43.10809
778.445	32.08089
778.864	92.23595
779.282	79.19078
779.701	69.17463
780.119	44.11205
780.537	33.08319
780.955	83.21149
781.373	57.1419
781.791	57.12923
782.209	131.30026
782.627	6.01601
783.045	100.22999
783.462	65.16667
783.88	62.16095
784.297	60.15167
784.715	55.14187
785.132	75.18214
785.549	51.12839
785.966	112.28038
786.383	64.15813
786.8	106.24574
787.217	58.1384
787.633	42.1056
788.05	114.26993
788.466	140.32739
788.883	68.17379
789.299	70.1692
789.715	87.21152
790.131	103.25529
790.547	67.16788
790.963	108.26694
791.379	46.11702
791.795	80.18311
792.21	114.26533
792.626	88.20885
793.041	71.17565
793.457	87.21492
793.872	65.15352
794.287	9.02178
794.702	65.16075
795.117	46.11499
795.532	62.15583
795.947	133.31741
796.362	104.24768
796.776	134.31139
797.191	108.26312
797.605	28.06643
798.02	95.23063
798.434	79.17642
798.848	80.19701
799.262	45.11231
799.676	120.29082
800.09	85.20898
800.504	69.16788
800.918	67.15579
801.331	72.1889
801.745	52.12027
802.158	68.17029
802.572	120.28907
802.985	73.17682
803.398	104.24702
803.811	146.37089
804.224	109.26986
804.637	74.17651
805.05	104.24015
805.462	98.24
805.875	48.12491
806.288	32.07785
806.7	81.2034
807.112	86.1993
807.525	99.2434
807.937	43.10693
808.349	76.1904
808.761	77.18945
809.173	37.09036
809.584	96.2365
809.996	44.10836
810.408	35.09088
810.819	30.07123
811.231	5.01306
811.642	-47.11466
812.053	31.07435
812.464	65.15489
812.875	63.16126
813.286	58.14963
813.697	140.32366
814.108	86.20976
814.519	126.27829
814.929	79.20129
815.34	75.18194
815.75	74.18792
816.16	94.23345
816.571	71.18441
816.981	97.22821
817.391	108.25918
817.801	36.08999
818.211	72.1718
818.62	66.15911
819.03	66.162
819.44	78.20346
819.849	58.14651
820.259	103.26217
820.668	41.1014
821.077	42.10484
821.486	109.26083
821.895	87.21445
822.304	76.20108
822.713	65.15394
823.122	88.21895
823.531	83.19642
823.939	105.25423
824.348	88.21335
824.756	96.23937
825.164	76.19108
825.573	90.22498
825.981	57.14174
826.389	41.10355
826.797	43.10821
827.205	55.12667
827.612	97.23822
828.02	60.14119
828.428	98.24825
828.835	71.18669
829.243	89.21143
829.65	83.20579
830.057	59.1435
830.464	56.13679
830.871	107.25448
831.278	76.1835
831.685	69.15415
832.092	83.2027
832.499	64.14029
832.905	121.3034
833.312	69.15752
833.718	77.19154
834.124	67.15326
834.531	101.25307
834.937	101.25762
835.343	75.18077
835.749	79.18427
836.155	86.22433
836.561	52.12825
836.966	88.21439
837.372	78.19808
837.777	55.13727
838.183	87.19284
838.588	66.16385
838.993	105.25385
839.399	60.14683
839.804	29.07114
840.209	68.17293
840.613	17.03823
841.018	48.1219
841.423	69.17681
841.828	51.12926
842.232	111.2727
842.637	50.11835
843.041	18.04649
843.445	84.20991
843.849	23.05736
844.253	80.18965
844.657	35.08855
845.061	100.22539
845.465	68.16412
845.869	102.23534
846.272	46.11236
846.676	88.21191
847.079	31.07924
847.483	119.29386
847.886	90.21795
848.289	50.13362
848.692	83.20939
849.095	94.22447
849.498	123.30842
849.901	85.1942
850.304	73.17415
850.707	72.18323
851.109	92.23156
851.512	68.1669
851.914	62.15616
852.316	55.13925
852.718	34.08814
853.121	55.13492
853.523	82.19093
853.925	50.1306
854.326	43.10782
854.728	83.21253
855.13	51.13169
855.531	35.08404
855.933	85.20317
856.334	58.14462
856.736	36.08107
857.137	55.12804
857.538	57.14334
857.939	42.10408
858.34	73.17748
858.741	50.13087
859.142	76.18204
859.542	38.10058
859.943	50.12445
860.343	17.04241
860.744	82.19925
861.144	62.15116
861.544	0
861.945	27.06919
862.345	84.2045
862.745	59.14661
863.145	112.26509
863.544	72.18148
863.944	80.18825
864.344	99.24412
864.743	134.32792
865.143	79.20215
865.542	42.09776
865.941	50.12395
866.34	125.29569
866.74	89.23757
867.139	76.18135
867.537	75.1905
867.936	56.13485
868.335	80.20273
868.734	107.271
869.132	111.25524
869.531	99.23763
869.929	37.08471
870.327	49.11766
870.726	104.25715
871.124	84.19536
871.522	53.13509
871.92	105.25672
872.318	85.20674
872.715	123.30084
873.113	66.16056
873.511	86.21311
873.908	-23.05887
874.306	54.13435
874.703	77.19196
875.1	81.20632
875.497	90.21442
875.894	38.09341
876.291	96.23388
876.688	58.14953
877.085	68.16282
877.482	94.2337
877.878	60.14432
878.275	67.16987
878.671	126.27666
879.068	114.27223
879.464	45.109
879.86	50.11839
880.256	108.264
880.652	60.15248
881.048	77.19008
881.444	85.20123
881.84	84.21241
882.236	53.13333
882.631	82.2003
883.027	66.15953
883.422	63.16087
883.817	90.22474
884.213	63.16143
884.608	74.18082
885.003	63.15168
885.398	75.18704
885.793	82.20483
886.188	47.117
886.582	120.3043
886.977	107.25145
887.371	74.18652
887.766	33.08239
888.16	61.15207
888.554	95.23322
888.949	70.1753
889.343	74.18015
889.737	35.09355
890.131	64.16028
890.525	93.23621
890.918	80.20042
891.312	90.21393
891.706	53.13908
892.099	87.22011
892.492	97.20746
892.886	40.09814
893.279	70.17783
893.672	35.0894
894.065	105.26053
894.458	34.08582
894.851	104.25252
895.244	55.14044
895.637	86.20591
896.029	54.13205
896.422	99.23988
896.814	80.19796
897.206	50.11917
897.599	117.28605
897.991	67.16161
898.383	48.11357
898.775	80.17965
899.167	42.09818
899.559	109.27321
899.951	117.27248
900.342	68.1725
900.734	18.04495
901.125	92.23981
901.517	52.12768
901.908	92.21902
902.299	59.14409
902.69	76.17856
903.082	99.23772
903.473	13.03137
903.863	72.1831
904.254	65.15054
904.645	105.25872
905.036	40.09709
905.426	97.22019
905.817	81.19774
906.207	69.16392
906.597	18.04239
906.987	90.23179
907.378	91.22859
907.768	63.16627
908.158	72.17495
908.547	64.165
908.937	85.21689
909.327	68.16468
909.717	94.23693
910.106	44.10587
910.495	114.28146
910.885	61.15428
911.274	98.24294
911.663	88.22197
912.052	98.23983
912.441	110.27686
912.83	60.13756
913.219	76.19811
913.608	69.16851
913.997	25.06298
914.385	144.33806
914.774	72.17469
915.162	42.10029
915.55	107.25624
915.939	53.13376
916.327	81.20113
916.715	49.12494
917.103	101.24639
917.491	119.29084
917.878	78.19088
918.266	63.16307
918.654	58.14802
919.041	24.06295
919.429	69.16234
919.816	112.28088
920.203	60.1453
920.591	59.14613
920.978	106.25699
921.365	55.14423
921.752	76.18037
922.139	72.15569
922.525	91.21693
922.912	108.26066
923.299	74.18318
923.685	79.20512
924.072	117.26635
924.458	61.15086
924.844	52.12867
925.231	56.13024
925.617	16.04095
926.003	88.22347
926.389	61.15362
926.774	68.17183
927.16	122.29911
927.546	56.14282
927.931	103.25463
928.317	56.1289
928.702	136.31654
929.088	42.09953
929.473	81.20501
929.858	61.1472
930.243	28.0675
930.628	59.14334
931.013	75.18507
931.398	98.22332
931.783	124.32245
932.167	51.12469
932.552	94.2337
932.937	85.20967
933.321	34.08558
933.705	94.23515
934.09	95.23821
934.474	110.25834
934.858	58.15026
935.242	56.12967
935.626	67.17102
936.009	82.21696
936.393	122.30651
936.777	58.14833
937.16	55.143
937.544	81.18975
937.927	68.17201
938.311	98.23715
938.694	108.28287
939.077	65.15519
939.46	108.26243
939.843	109.22454
940.226	66.16885
940.609	36.0829
940.991	40.10201
941.374	49.1198
941.757	88.21567
942.139	55.12343
942.522	112.2616
942.904	79.1889
943.286	61.15472
943.668	117.29959
944.05	53.1305
944.432	66.16242
944.814	102.24887
945.196	14.03435
945.578	62.14703
945.959	81.18871
946.341	141.34036
946.722	55.129
947.104	103.24374
947.485	78.18054
947.866	51.12848
948.247	70.176
948.628	82.19888
949.009	56.14327
949.39	82.20298
949.771	116.26636
950.152	75.18323
950.532	-12.02986
950.913	83.199
951.293	51.13775
951.674	123.29343
952.054	65.16063
952.434	72.17803
952.814	87.20556
953.194	113.29258
953.574	129.31316
953.954	89.2098
954.334	99.24456
954.714	59.14355
955.093	137.33146
955.473	42.10518
955.853	81.20857
956.232	87.23705
956.611	106.25157
956.99	82.20491
957.37	63.16019
957.749	106.25021
958.128	56.14095
958.506	61.15795
958.885	51.12871
959.264	56.1371
959.643	95.21425
960.021	13.03243
960.4	58.13126
960.778	144.34859
961.156	60.15015
961.535	67.15567
961.913	112.25893
962.291	53.1359
962.669	41.10403
963.047	62.15789
963.424	64.16293
963.802	48.11808
964.18	111.27783
964.557	72.16513
964.935	129.30101
965.312	83.21491
965.69	93.23109
966.067	94.22704
966.444	48.11834
966.821	96.24552
967.198	100.24035
967.575	135.32674
967.952	113.26306
968.329	54.13131
968.705	109.23081
969.082	53.13586
969.458	31.07464
969.835	83.20081
970.211	45.11559
970.587	79.19566
970.963	84.21422
971.339	42.10982
971.715	76.18888
972.091	54.13289
972.467	106.26171
972.843	35.0871
973.219	139.32817
973.594	50.13078
973.97	99.23346
974.345	96.22775
974.721	77.18553
975.096	75.18064
975.471	92.21649
975.846	134.3168
976.221	81.20457
976.596	88.20942
976.971	94.23021
977.346	96.2215
977.72	60.15259
978.095	50.12922
978.469	78.18519
978.844	103.2565
979.218	18.04341
979.593	78.1859
979.967	113.27206
980.341	84.19211
980.715	93.23252
981.089	89.22123
981.463	44.10116
981.837	73.17762
982.21	115.26423
982.584	26.06308
982.957	36.09012
983.331	100.23413
983.704	48.11799
984.078	37.0914
984.451	135.33202
984.824	48.11694
985.197	90.21697
985.57	86.21428
985.943	131.31873
986.316	154.37111
986.688	97.23185
987.061	97.22528
987.434	71.18435
987.806	86.20717
988.179	55.12965
988.551	59.14943
988.923	61.14992
989.295	82.20372
989.667	68.16188
990.039	56.13821
990.411	81.18529
990.783	96.21903
991.155	22.05314
991.527	149.36022
991.898	57.14184
992.27	72.17738
992.641	106.26325
993.012	123.28532
993.384	82.19439
993.755	30.07675
994.126	61.14642
994.497	74.18082
994.868	79.18042
995.239	93.22357
995.61	54.13577
995.98	58.14067
996.351	41.10169
996.722	60.13888
997.092	45.10666
997.462	66.15368
997.833	104.24397
998.203	80.19286
998.573	57.14174
998.943	61.14273
999.313	77.18356
999.683	68.16263
1000.053	116.26337
1000.423	88.21231
1000.792	134.34221
1001.162	51.12548
1001.531	95.23227
1001.901	59.14682
1002.27	97.21473
1002.639	94.23829
1003.009	132.30892
1003.378	71.18085
1003.747	74.174
1004.116	71.16919
1004.485	109.25754
1004.853	93.23378
1005.222	84.21051
1005.591	80.18884
1005.959	65.14599
1006.328	81.18111
1006.696	50.12059
1007.064	78.1952
1007.433	99.24519
1007.801	109.26461
1008.169	89.22316
1008.537	81.17819
1008.905	65.15096
1009.273	120.29257
1009.64	85.20138
1010.008	111.26146
1010.375	143.34115
1010.743	119.27101
1011.11	62.14635
1011.478	106.25959
1011.845	70.16395
1012.212	64.14443
1012.579	113.27412
1012.946	131.30688
1013.313	122.2863
1013.68	99.22026
1014.047	67.15911
1014.414	27.06404
1014.78	57.14143
1015.147	79.18998
1015.513	104.24797
1015.88	89.22597
1016.246	128.31138
1016.612	123.2774
1016.978	95.2308
1017.344	44.10884
1017.71	95.22967
1018.076	116.26999
1018.442	110.27993
1018.808	79.19638
1019.174	51.12788
1019.539	146.3296
1019.905	63.14816
1020.27	49.12092
1020.636	122.28843
1021.001	119.28106
1021.366	49.11766
1021.731	98.24984
1022.096	30.07591
1022.461	69.16265
1022.826	64.15166
1023.191	56.14672
1023.556	89.20694
1023.92	87.21239
1024.285	88.21319
1024.649	58.14189
1025.014	111.27179
1025.378	53.13314
1025.742	67.16582
1026.107	86.19304
1026.471	76.17647
1026.835	76.18744
1027.199	39.09404
1027.562	97.22332
1027.926	76.18488
1028.29	59.14901
1028.654	78.17839
1029.017	112.27205
1029.381	60.143
1029.744	73.18535
1030.107	102.23881
1030.471	55.13151
1030.834	79.1786
1031.197	110.26187
1031.56	82.19221
1031.923	90.23098
1032.286	74.17291
1032.648	59.14081
1033.011	110.24935
1033.374	90.20981
1033.736	46.12097
1034.099	105.25318
1034.461	19.04824
1034.823	33.08239
1035.185	64.16062
1035.548	107.25751
1035.91	74.17637
1036.272	89.20088
1036.634	127.30611
1036.995	95.22124
1037.357	60.14563
1037.719	78.18861
1038.08	88.20732
1038.442	81.19102
1038.803	84.20028
1039.165	13.03301
1039.526	84.20159
1039.887	77.1832
1040.248	35.08643
1040.609	116.28303
1040.97	96.23248
1041.331	45.11397
1041.692	39.09118
1042.053	77.1743
1042.413	88.20345
1042.774	87.21002
1043.134	73.17295
1043.495	97.24165
1043.855	90.21656
1044.215	83.20466
1044.576	65.15489
1044.936	137.30846
1045.296	119.29311
1045.656	93.22628
1046.016	87.20843
1046.375	79.19049
1046.735	51.11554
1047.095	87.20205
1047.454	106.22175
1047.814	47.11299
1048.173	101.23883
1048.533	64.14614
1048.892	34.08181
1049.251	78.1947
1049.61	54.13279
1049.969	111.2584
1050.328	117.24992
1050.687	64.15522
1051.046	62.15054
1051.405	86.21241
1051.763	18.04163
1052.122	31.07754
1052.48	90.21894
1052.839	63.14776
1053.197	87.20317
1053.555	145.32407
1053.914	106.25641
1054.272	89.21346
1054.63	55.13427
1054.988	32.07624
1055.345	91.19413
1055.703	117.27784
1056.061	79.20207
1056.419	63.16262
1056.776	92.2212
1057.134	62.14311
1057.491	99.24555
1057.848	92.22715
1058.206	34.08016
1058.563	57.12539
1058.92	91.20791
1059.277	118.28726
1059.634	75.17549
1059.991	102.2418
1060.348	53.11963
1060.704	6.01441
1061.061	123.28148
1061.418	71.17139
1061.774	58.14289
1062.131	36.09535
1062.487	35.08203
1062.843	82.20313
1063.199	89.21962
1063.555	48.11119
1063.911	110.27468
1064.267	91.18797
1064.623	52.12617
1064.979	143.3325
1065.335	104.24587
1065.691	93.22093
1066.046	72.15749
1066.402	79.17831
1066.757	71.17842
1067.112	50.12263
1067.468	49.11564
1067.823	68.16282
1068.178	99.23709
1068.533	95.2282
1068.888	132.31025
1069.243	47.11598
1069.598	92.22162
1069.952	46.10359
1070.307	24.05965
1070.662	69.1631
1071.016	21.0473
1071.371	58.13163
1071.725	121.28534
1072.079	85.20294
1072.434	67.16216
1072.788	72.17062
1073.142	98.23876
1073.496	42.09972
1073.85	83.19109
1074.203	101.24252
1074.557	51.1355
1074.911	118.27778
1075.265	67.15511
1075.618	82.19888
1075.971	106.24924
1076.325	55.13955
1076.678	6.01383
1077.031	93.20845
1077.385	92.20073
1077.738	71.15947
1078.091	71.16065
1078.444	73.1686
1078.796	67.16375
1079.149	71.17578
1079.502	8.01904
1079.855	76.17619
1080.207	77.18861
1080.56	41.10605
1080.912	59.14329
1081.264	76.18197
1081.617	70.16984
1081.969	33.08343
1082.321	69.16776
1082.673	55.12531
1083.025	113.26461
1083.377	103.21839
1083.728	133.30497
1084.08	62.15431
1084.432	102.24338
1084.783	97.22501
1085.135	63.1574
1085.486	57.13013
1085.838	86.21022
1086.189	67.16198
1086.54	107.25252
1086.891	67.16879
1087.242	15.03673
1087.593	84.20304
1087.944	53.11977
1088.295	145.323
1088.646	73.17602
1088.996	55.13227
1089.347	99.24052
1089.698	65.15305
1090.048	63.16312
1090.398	92.21142
1090.749	79.18782
1091.099	79.19745
1091.449	76.18826
1091.799	80.19904
1092.149	26.06363
1092.499	70.16997
1092.849	39.09923
1093.199	112.27734
1093.548	75.1792
1093.898	47.11755
1094.248	84.21437
1094.597	52.13257
1094.947	38.10148
1095.296	82.20112
1095.645	46.11962
1095.994	48.11524
1096.343	77.19266
1096.692	12.0317
1097.041	5.01362
1097.39	69.17233
1097.739	62.16067
1098.088	111.29413
1098.437	64.16757
1098.785	113.30123
1099.134	126.33001
1099.482	80.21878
1099.83	71.18574
1100.179	15.03932
1100.527	99.26066
1100.875	47.12421
1101.223	108.28373
1101.571	39.10786
1101.919	24.06292
1102.267	34.09587
1102.615	8.02571
1102.962	22.07073
1103.31	8.0257
1103.658	11.03543
