Data from N2 R11 sample 7_Subt2__3__16-01-58-530.txt Node

Date: Mon Sep 01 16:01:58 PDT 2025
User: uwsun
Spectrometer: HDX01956
Trigger mode: 0
Integration Time (sec): 5.000000E-1
Scans to average: 1
Nonlinearity correction enabled: true
Boxcar width: 0
Storing dark spectrum: false
XAxis mode: Wavelengths
Number of Pixels in Spectrum: 2068
>>>>>Begin Spectral Data<<<<<
194.03	-60.16995
194.578	-57.18151
195.127	-60.18839
195.676	-70.22071
196.225	-8.02125
196.773	-1.00274
197.321	-61.16535
197.87	-61.15263
198.418	-101.25134
198.966	-149.37616
199.513	-148.35652
200.061	-174.42801
200.609	-64.16293
201.156	-161.34196
201.704	-98.23635
202.251	-120.30581
202.798	-112.27977
203.345	-83.19748
203.892	-88.21231
204.438	-123.28487
204.985	-184.42284
205.532	-158.40236
206.078	-102.24077
206.624	-110.25915
207.17	-58.12864
207.716	-125.29202
208.262	-112.21467
208.808	-160.37943
209.354	-161.37952
209.899	-56.13567
210.445	-139.33237
210.99	-125.2895
211.535	-65.14629
212.08	-113.25401
212.625	-90.2164
213.17	-87.21168
213.715	-179.38616
214.259	-61.136
214.804	-68.16114
215.348	-93.2051
215.892	-65.14917
216.436	-62.13803
216.98	-69.14707
217.524	-106.24145
218.068	-65.15679
218.612	-77.18637
219.155	-88.19923
219.698	-108.24879
220.242	-70.16812
220.785	-60.13463
221.328	-72.17253
221.871	-48.1169
222.414	-55.13166
222.956	-147.34396
223.499	-94.20475
224.041	-47.10543
224.583	-56.11715
225.126	-89.18994
225.668	-102.23946
226.21	-100.24254
226.751	-74.15529
227.293	-103.22878
227.835	-76.17815
228.376	-20.04419
228.918	-58.14078
229.459	-104.2493
230	-61.1392
230.541	-88.19615
231.082	-104.24349
231.622	-57.12624
232.163	-93.21676
232.704	-103.24591
233.244	-112.26827
233.784	-105.24973
234.324	-149.3173
234.864	-67.14572
235.404	-51.11629
235.944	-75.17122
236.484	-94.22644
237.023	-116.26476
237.563	-129.28867
238.102	-93.21163
238.641	-121.29572
239.18	-159.36078
239.719	-89.2146
240.258	-92.19954
240.797	-107.24614
241.335	-101.23836
241.874	-112.20865
242.412	-115.26613
242.95	-126.28944
243.488	-85.18628
244.026	-89.19637
244.564	-87.17236
245.102	-86.18485
245.64	-74.17108
246.177	-85.18282
246.715	-30.06839
247.252	-111.24624
247.789	9.01607
248.326	-112.25697
248.863	-92.19298
249.4	-35.07541
249.936	-118.23438
250.473	-106.23666
251.009	-116.2547
251.546	-121.25667
252.082	-110.23175
252.618	-105.2238
253.154	-116.26658
253.69	-71.15212
254.226	-95.21626
254.761	-102.21925
255.297	-112.23482
255.832	-123.27887
256.367	-97.21805
256.903	-123.2592
257.438	-68.15182
257.972	-110.23461
258.507	-158.34765
259.042	-114.23722
259.576	-133.27337
260.111	-89.1962
260.645	-67.13771
261.179	-145.32434
261.713	-117.24851
262.247	-111.2446
262.781	-112.22371
263.315	-117.27237
263.849	-113.26844
264.382	-96.21026
264.915	-108.23973
265.449	-154.35617
265.982	-95.20565
266.515	-89.20506
267.048	-178.36379
267.58	-41.08446
268.113	-91.18569
268.646	-142.33376
269.178	-126.26721
269.71	-83.17152
270.243	-96.20795
270.775	-127.30657
271.307	-64.14531
271.838	-66.14827
272.37	-138.32296
272.902	-135.29324
273.433	-113.23425
273.965	-93.21334
274.496	-116.27392
275.027	-94.21939
275.558	-102.233
276.089	-175.4077
276.62	-143.34676
277.15	-125.29294
277.681	-117.24156
278.211	-125.29088
278.741	-156.32606
279.272	-123.26467
279.802	-118.27821
280.332	-157.35089
280.861	-130.29564
281.391	-165.35535
281.921	-94.21291
282.45	-105.24694
282.98	-120.29442
283.509	-112.23659
284.038	-122.26144
284.567	-135.29873
285.096	-76.17102
285.625	-180.38807
286.153	-109.23838
286.682	-129.2765
287.21	-168.38143
287.739	-171.3817
288.267	-209.48
288.795	-146.36153
289.323	-172.37734
289.851	-116.25352
290.378	-164.34674
290.906	-169.38238
291.433	-131.3046
291.961	-145.3061
292.488	-149.34672
293.015	-169.37146
293.542	-166.39153
294.069	-167.38278
294.596	-161.37332
295.122	-170.37908
295.649	-137.28133
296.175	-134.30214
296.702	-119.26739
297.228	-115.25883
297.754	-129.26754
298.28	-159.33447
298.806	-172.3837
299.332	-171.34988
299.857	-160.33383
300.383	-119.27779
300.908	-204.45771
301.433	-193.43401
301.958	-137.29238
302.483	-186.42778
303.008	-169.38674
303.533	-117.27923
304.058	-126.27258
304.582	-201.43734
305.107	-195.46733
305.631	-118.24587
306.155	-190.40558
306.679	-203.43511
307.203	-200.426
307.727	-206.44983
308.251	-214.48725
308.775	-205.44244
309.298	-229.50101
309.822	-217.50256
310.345	-177.3807
310.868	-207.45058
311.391	-197.44246
311.914	-240.54887
312.437	-173.35799
312.96	-222.4745
313.482	-173.36761
314.005	-197.44573
314.527	-271.6482
315.049	-215.49279
315.571	-253.50546
316.093	-225.50099
316.615	-243.52647
317.137	-258.50624
317.659	-189.41018
318.18	-258.5629
318.702	-216.44586
319.223	-210.38073
319.744	-255.50827
320.265	-274.58919
320.786	-265.5778
321.307	-212.46137
321.828	-248.49351
322.348	-250.51535
322.869	-315.65444
323.389	-464.70066
323.909	-271.54444
324.43	-221.46509
324.95	-280.55538
325.47	-300.6387
325.989	-325.66467
326.509	-330.62397
327.029	-317.6104
327.548	-360.69537
328.067	-313.64013
328.587	-302.6424
329.106	-335.64723
329.625	-270.60777
330.144	-327.6342
330.662	-334.6467
331.181	-354.69691
331.7	-370.72875
332.218	-351.62976
332.736	-339.65716
333.255	-392.75864
333.773	-403.79356
334.291	-301.61643
334.808	-365.65926
335.326	-350.6375
335.844	-424.79506
336.361	-412.84088
336.879	-407.75583
337.396	-453.87901
337.913	-441.80675
338.43	-439.77959
338.947	-436.81918
339.464	-467.77864
339.981	-410.7487
340.497	-461.8971
341.014	-480.91341
341.53	-512.89253
342.046	-475.89708
342.562	-463.89327
343.078	-469.8385
343.594	-465.84165
344.11	-459.82062
344.626	-528.01335
345.141	-477.80277
345.657	-455.76322
346.172	-528.95255
346.687	-544.92334
347.202	-532.86932
347.717	-530.92783
348.232	-544.00244
348.747	-580.97119
349.261	-566.86153
349.776	-549.92352
350.29	-581.01755
350.805	-529.93948
351.319	-538.87962
351.833	-604.95017
352.347	-584.95918
352.861	-592.95448
353.374	-543.86277
353.888	-641.0923
354.401	-548.84753
354.915	-638.95456
355.428	-656.12364
355.941	-682.07614
356.454	-574.85866
356.967	-616.97917
357.48	-636.97863
357.993	-642.06551
358.505	-713.17619
359.018	-678.10685
359.53	-665.04229
360.042	-717.03988
360.554	-641.00805
361.066	-745.19518
361.578	-670.91354
362.09	-748.16365
362.602	-731.006
363.113	-746.09451
363.625	-756.05707
364.136	-740.00034
364.647	-852.21024
365.158	-735.03777
365.669	-710.02937
366.18	-792.14521
366.691	-697.88719
367.201	-792.14165
367.712	-767.00475
368.222	-775.0146
368.733	-872.06397
369.243	-817.98767
369.753	-844.09987
370.263	-836.11968
370.773	-899.26811
371.282	-919.19703
371.792	-1003.18035
372.301	-984.25247
372.811	-978.38152
373.32	-1015.99007
373.829	-1082.22914
374.338	-1104.11402
374.847	-1155.18617
375.356	-1171.20877
375.865	-1107.81136
376.373	-1249.05216
376.882	-1243.28962
377.39	-1254.11898
377.898	-1430.20997
378.407	-1404.88159
378.915	-1382.71721
379.423	-1490.89141
379.93	-1548.7592
380.438	-1728.86964
380.946	-1760.66559
381.453	-1869.61975
381.96	-2011.46547
382.468	-2240.23823
382.975	-2229.23277
383.482	-2258.91162
383.989	-2365.17141
384.495	-2421.70364
385.002	-2646.27697
385.509	-2845.35506
386.015	-2952.87117
386.521	-3018.88575
387.028	-3199.73268
387.534	-3339.62053
388.04	-3313.65175
388.546	-3699.52587
389.051	-3902.58908
389.557	-4253.70739
390.063	-4010.85483
390.568	-4433.09972
391.073	-4693.82811
391.578	-4901.0464
392.084	-5156.32961
392.589	-5720.37992
393.093	-6421.12903
393.598	-6615.1287
394.103	-7116.09713
394.607	-7698.49139
395.112	-8173.06456
395.616	-8696.67958
396.12	-9803.86178
396.624	-10819.12687
397.128	-11635.90341
397.632	-12564.94938
398.136	-13881.15717
398.639	-16339.14218
399.143	-18782.32685
399.646	-20730.16225
400.15	-22957.71358
400.653	-26155.14735
401.156	-30188.68951
401.659	-35720.48224
402.162	-34843.13749
402.664	-25174.58383
403.167	-10655.11998
403.67	-1675.35904
404.172	0
404.674	0
405.176	0
405.678	0
406.18	0
406.682	0
407.184	0
407.686	0
408.187	0
408.688	0
409.19	-1915.32739
409.691	-14239.32765
410.192	-21674.31177
410.693	-26621.32134
411.194	-29568.43405
411.694	-27707.81656
412.195	-25126.43785
412.696	-24473.82596
413.196	-25442.34841
413.696	-26133.64968
414.196	-24674.14405
414.696	-21705.05626
415.196	-18397.65724
415.696	-12705.56806
416.196	-10035.65146
416.695	-10243.74134
417.195	-10770.22517
417.694	-10228.6997
418.194	-9303.93429
418.693	-9293.19399
419.192	-9009.92136
419.691	-8898.68511
420.19	-8347.9786
420.688	-7892.66822
421.187	-7361.48382
421.685	-6627.49498
422.184	-5570.81881
422.682	-4980.52535
423.18	-4725.71855
423.678	-4540.212
424.176	-4254.07525
424.674	-3937.4095
425.172	-3507.83032
425.669	-3201.61451
426.167	-2868.66506
426.664	-2768.74923
427.161	-2596.93233
427.659	-2426.26465
428.156	-2342.19131
428.652	-2231.76423
429.149	-2171.80576
429.646	-1977.75213
430.143	-1930.15473
430.639	-1861.25871
431.135	-1797.54053
431.632	-1629.401
432.128	-1600.6614
432.624	-1589.8914
433.12	-1646.66202
433.616	-1583.65087
434.111	-1662.94716
434.607	-1541.99633
435.103	-1367.72744
435.598	-1292.69728
436.093	-1224.97257
436.588	-1141.90188
437.083	-1145.00338
437.578	-1104.05241
438.073	-1210.36099
438.568	-1024.18543
439.062	-1051.00067
439.557	-974.13456
440.051	-1012.13056
440.546	-1035.1925
441.04	-1023.30566
441.534	-980.38261
442.028	-948.26644
442.522	-924.22601
443.015	-897.05614
443.509	-907.28675
444.002	-889.2579
444.496	-849.0309
444.989	-853.22732
445.482	-908.36355
445.975	-938.24222
446.468	-837.02061
446.961	-828.01498
447.454	-840.13475
447.947	-907.31516
448.439	-832.26171
448.931	-866.18468
449.424	-794.27368
449.916	-827.27765
450.408	-828.15307
450.9	-874.36598
451.392	-835.37351
451.884	-793.17267
452.375	-865.41514
452.867	-740.087
453.358	-856.27279
453.849	-745.00416
454.341	-745.08801
454.832	-767.0715
455.323	-791.29948
455.814	-748.15416
456.304	-737.14415
456.795	-708.08647
457.285	-731.12487
457.776	-672.0597
458.266	-712.16251
458.756	-680.13994
459.247	-732.21531
459.737	-773.30654
460.226	-692.08003
460.716	-687.16271
461.206	-674.15887
461.695	-636.1536
462.185	-713.23427
462.674	-619.02808
463.163	-586.92876
463.653	-618.93353
464.142	-639.13288
464.63	-628.14889
465.119	-692.20259
465.608	-628.07671
466.096	-566.91665
466.585	-570.99684
467.073	-531.96262
467.561	-591.09496
468.05	-506.89138
468.538	-541.02661
469.026	-535.99014
469.513	-565.91787
470.001	-563.99367
470.489	-554.02244
470.976	-563.02844
471.463	-546.08732
471.951	-513.02884
472.438	-588.11625
472.925	-554.03829
473.412	-477.95077
473.899	-396.72057
474.385	-442.87835
474.872	-503.95602
475.359	-522.05151
475.845	-429.71486
476.331	-408.72508
476.817	-436.88137
477.303	-453.8744
477.789	-448.90231
478.275	-481.00366
478.761	-437.88805
479.247	-380.71148
479.732	-465.98155
480.218	-454.00937
480.703	-408.86181
481.188	-402.73001
481.673	-387.75201
482.158	-461.83568
482.643	-367.80492
483.128	-452.89236
483.612	-377.75809
484.097	-356.75528
484.581	-367.74206
485.066	-385.81341
485.55	-365.691
486.034	-379.71329
486.518	-376.7674
487.002	-390.83462
487.486	-393.84559
487.969	-381.81907
488.453	-345.76973
488.936	-380.75972
489.42	-346.67891
489.903	-319.7132
490.386	-799.33381
490.869	-293.56527
491.352	-294.64279
491.835	-273.49938
492.318	-341.68823
492.8	-311.57465
493.283	-338.77015
493.765	-335.74062
494.247	-314.6656
494.73	-281.55541
495.212	-257.5587
495.694	-306.64127
496.175	-365.78265
496.657	-262.55878
497.139	-200.31153
497.62	-299.63561
498.102	-296.66274
498.583	-266.60269
499.064	-287.57658
499.545	-250.51373
500.026	-271.54871
500.507	-244.5109
500.988	-174.38527
501.469	-221.49555
501.949	-167.36907
502.43	-217.4605
502.91	-142.25823
503.39	-102.22623
503.87	-163.34001
504.35	-78.16238
504.83	-102.19598
505.31	-79.16772
505.79	-64.13353
506.269	-26.05297
506.749	-10.01967
507.228	56.1117
507.707	93.17356
508.187	161.32345
508.666	178.3633
509.145	234.44678
509.623	262.50145
510.102	368.7139
510.581	480.90897
511.059	510.98986
511.538	607.20706
512.016	668.18657
512.494	779.37598
512.972	930.54007
513.45	921.451
513.928	1104.77423
514.406	1230.86796
514.884	1326.17886
515.361	1417.05409
515.839	1537.99267
516.316	1686.26901
516.793	1726.503
517.27	1858.4261
517.747	1952.68257
518.224	1994.30124
518.701	2076.17559
519.178	2036.56476
519.654	2070.45706
520.131	2049.58955
520.607	2050.62521
521.083	2002.25509
521.56	2000.38812
522.036	1906.09663
522.512	1911.54757
522.987	1819.30865
523.463	1738.29027
523.939	1702.39554
524.414	1604.13152
524.89	1506.13854
525.365	1388.90841
525.84	1252.89823
526.315	1244.94425
526.79	1222.76378
527.265	1023.58928
527.74	987.68569
528.215	997.6301
528.689	898.39144
529.164	825.28202
529.638	846.61254
530.112	734.28385
530.587	655.03609
531.061	636.17235
531.534	624.17148
532.008	527.99823
532.482	513.93093
532.956	482.98552
533.429	441.86512
533.903	496.86828
534.376	412.73409
534.849	349.66717
535.322	318.62456
535.795	316.64583
536.268	293.58972
536.741	282.57085
537.213	273.53124
537.686	212.44016
538.158	220.41577
538.631	231.48079
539.103	172.32967
539.575	218.38577
540.047	214.40026
540.519	192.39579
540.991	166.35327
541.463	147.30977
541.934	135.26846
542.406	94.19639
542.877	103.20339
543.348	128.27062
543.82	106.22902
544.291	110.22574
544.762	98.20329
545.233	84.18522
545.703	91.17564
546.174	110.22339
546.645	36.07568
547.115	125.26144
547.585	96.19291
548.056	35.07405
548.526	80.16335
548.996	143.2967
549.466	126.26745
549.935	91.18577
550.405	110.20645
550.875	147.29682
551.344	183.37274
551.814	182.3539
552.283	276.49581
552.752	226.43653
553.221	211.37894
553.69	286.51854
554.159	243.49359
554.628	330.59131
555.096	358.73531
555.565	469.81516
556.033	516.95377
556.502	504.96655
556.97	570.97535
557.438	669.2102
557.906	813.43021
558.374	708.23047
558.842	889.54877
559.31	933.48945
559.777	1023.74364
560.245	1150.8506
560.712	1256.92466
561.18	1296.83114
561.647	1506.03359
562.114	1545.11353
562.581	1740.53285
563.048	1882.38008
563.514	2069.69036
563.981	2238.48046
564.448	2419.41895
564.914	2637.6137
565.381	2825.50017
565.847	3001.62002
566.313	3231.5354
566.779	3404.3046
567.245	3683.39856
567.711	4053.36171
568.176	4281.83487
568.642	4592.36058
569.108	4938.0343
569.573	5130.68791
570.038	5422.91045
570.504	5868.03409
570.969	6163.60521
571.434	6555.83595
571.899	6873.24188
572.363	7345.22683
572.828	7773.55866
573.293	8009.78977
573.757	8461.38558
574.222	8708.78071
574.686	9178.78077
575.15	9441.37771
575.614	9712.16935
576.078	10039.14141
576.542	10408.54852
577.006	10598.35537
577.469	10737.4849
577.933	10853.5081
578.396	11020.90336
578.86	11135.48356
579.323	11104.29503
579.786	11181.24866
580.249	11103.55343
580.712	11137.27298
581.175	10944.37977
581.637	11040.13514
582.1	10850.52947
582.563	10677.8698
583.025	10726.54562
583.487	10514.50131
583.95	10364.61461
584.412	10194.0133
584.874	10130.33866
585.336	9954.82998
585.797	9819.61951
586.259	9689.03568
586.721	9460.43207
587.182	9258.93435
587.643	9027.42476
588.105	8867.113
588.566	8742.84282
589.027	8596.66232
589.488	8395.28741
589.949	8083.02324
590.41	7926.44838
590.87	7804.60095
591.331	7619.29727
591.791	7392.31478
592.252	7220.18731
592.712	7054.3604
593.172	6832.02358
593.632	6698.91522
594.092	6418.96239
594.552	6271.81555
595.011	6059.13415
595.471	5881.07733
595.931	5734.10216
596.39	5522.5816
596.849	5296.53461
597.308	5119.25222
597.768	5015.25052
598.227	4979.92692
598.685	4799.75713
599.144	4643.92134
599.603	4483.09997
600.062	4351.46809
600.52	4335.79942
600.978	4204.25603
601.437	4125.09692
601.895	4020.71528
602.353	3942.01545
602.811	3893.02764
603.269	3728.53802
603.727	3670.55961
604.184	3542.24812
604.642	3400.78949
605.099	3402.47987
605.557	3378.77563
606.014	3214.13865
606.471	3171.91982
606.928	3064.13749
607.385	2915.78615
607.842	3053.48251
608.299	3030.60095
608.755	2907.77768
609.212	2870.36838
609.668	2866.32952
610.125	2805.81563
610.581	2818.77915
611.037	2726.59312
611.493	2606.75052
611.949	2507.79466
612.405	2547.01547
612.861	2488.73828
613.316	2495.77223
613.772	2454.6016
614.227	2369.70139
614.683	2416.32879
615.138	2331.66174
615.593	2201.60473
616.048	2184.56075
616.503	2257.89829
616.958	2081.88862
617.412	2122.67113
617.867	2044.36453
618.321	2041.16346
618.776	1989.38217
619.23	1920.56569
619.684	1920.44266
620.138	1849.51629
620.592	1803.64115
621.046	1744.49253
621.5	1696.5718
621.954	1636.29257
622.407	1595.22793
622.861	1583.49127
623.314	1556.27396
623.768	1529.31784
624.221	1517.84519
624.674	1417.19342
625.127	1436.26116
625.58	1401.17222
626.033	1372.06228
626.485	1301.19239
626.938	1379.27339
627.39	1296.12456
627.843	1265.08203
628.295	1196.00639
628.747	1189.06985
629.199	1176.94922
629.651	1131.89644
630.103	1085.86355
630.555	1048.66008
631.006	1085.92705
631.458	996.82203
631.909	1084.89403
632.361	994.80468
632.812	946.71647
633.263	948.59333
633.714	954.593
634.165	950.8356
634.616	892.7094
635.067	917.62122
635.518	934.78572
635.968	967.50364
636.419	859.50819
636.869	861.6749
637.319	793.51611
637.769	757.40738
638.219	842.6608
638.669	702.42255
639.119	735.52105
639.569	749.52448
640.019	766.48666
640.468	714.35001
640.918	771.56718
641.367	723.37272
641.816	696.32683
642.265	723.42144
642.714	695.37657
643.163	643.28115
643.612	604.26665
644.061	671.21073
644.51	635.25462
644.958	651.23339
645.406	613.28413
645.855	674.43416
646.303	607.24744
646.751	598.19218
647.199	667.31117
647.647	563.147
648.095	559.13573
648.543	642.1391
648.99	601.26506
649.438	630.30031
649.885	601.31769
650.333	628.05312
650.78	593.26789
651.227	530.15768
651.674	588.18416
652.121	556.20995
652.568	554.20304
653.015	566.28378
653.461	530.13227
653.908	596.23058
654.354	598.2684
654.801	602.24855
655.247	574.12091
655.693	501.18952
656.139	493.07423
656.585	562.20852
657.031	491.03726
657.477	513.99925
657.922	501.04501
658.368	507.13884
658.813	581.21003
659.259	498.08721
659.704	524.10347
660.149	494.04794
660.594	526.13099
661.039	545.11782
661.484	542.17294
661.929	524.11218
662.373	491.13346
662.818	479.0908
663.262	491.08072
663.707	506.17301
664.151	500.11827
664.595	482.06642
665.039	483.10612
665.483	533.23691
665.927	537.14948
666.371	416.89526
666.814	473.0419
667.258	453.99057
667.701	605.16731
668.145	538.22266
668.588	521.16986
669.031	494.06389
669.474	493.09194
669.917	567.13472
670.36	483.10568
670.803	539.18804
671.245	528.01237
671.688	503.12984
672.13	463.96061
672.573	516.2066
673.015	523.15079
673.457	521.03576
673.899	530.1767
674.341	495.10184
674.783	494.0912
675.225	519.17204
675.666	501.10692
676.108	480.96453
676.549	553.19551
676.991	503.01944
677.432	478.87777
677.873	503.07241
678.314	491.08388
678.755	539.20093
679.196	450.96134
679.637	514.1586
680.078	525.12956
680.518	513.10275
680.959	478.06239
681.399	520.18741
681.839	514.15341
682.28	474.08613
682.72	474.00587
683.16	491.13257
683.6	544.13612
684.039	491.94548
684.479	495.12412
684.919	508.07629
685.358	521.22092
685.798	515.24809
686.237	551.22162
686.676	544.15821
687.115	552.18647
687.554	507.1118
687.993	529.0737
688.432	545.13947
688.871	504.0543
689.309	502.10844
689.748	585.10596
690.186	571.24553
690.625	551.18102
691.063	548.20412
691.501	561.27011
691.939	580.31876
692.377	495.11912
692.815	529.16304
693.253	575.26221
693.69	591.17465
694.128	550.22016
694.565	582.26393
695.003	596.37756
695.44	583.24541
695.877	570.21208
696.314	617.19335
696.751	632.29744
697.188	590.22853
697.625	657.35156
698.061	598.30147
698.498	626.3694
698.934	661.42688
699.371	570.22259
699.807	651.38126
700.243	610.32874
700.679	666.34519
701.115	682.43296
701.551	697.4584
701.987	707.40495
702.422	694.46396
702.858	710.4984
703.294	684.37655
703.729	678.4839
704.164	698.49364
704.599	702.38041
705.035	690.3657
705.47	680.47576
705.904	735.50477
706.339	737.51023
706.774	742.52631
707.209	728.47598
707.643	775.6275
708.078	739.58725
708.512	730.61525
708.946	761.60088
709.38	736.53636
709.814	785.55872
710.248	791.68299
710.682	777.61236
711.116	739.54842
711.549	739.69243
711.983	775.55887
712.416	809.65868
712.85	805.75058
713.283	784.61642
713.716	814.78401
714.149	808.67265
714.582	800.55054
715.015	799.75002
715.448	781.72851
715.881	859.5974
716.313	751.54242
716.746	712.48161
717.178	739.56478
717.61	802.77906
718.043	765.67762
718.475	765.62622
718.907	816.80338
719.339	682.37
719.77	711.4897
720.202	729.63546
720.634	729.56575
721.065	759.57567
721.497	724.57134
721.928	704.53567
722.359	691.48024
722.79	727.53465
723.221	734.63759
723.652	779.77123
724.083	666.33597
724.514	737.48574
724.945	675.41356
725.375	646.34054
725.806	672.50534
726.236	662.52781
726.666	635.35254
727.096	674.4801
727.526	628.44354
727.956	629.28226
728.386	611.36437
728.816	565.30919
729.246	561.24589
729.675	601.34201
730.105	585.31269
730.534	591.25434
730.964	630.44238
731.393	618.39278
731.822	568.3299
732.251	547.27693
732.68	617.31359
733.109	595.33297
733.537	555.22642
733.966	550.25349
734.395	544.14968
734.823	592.20919
735.251	533.18019
735.68	554.2748
736.108	531.23954
736.536	509.10869
736.964	482.03711
737.392	516.19386
737.82	539.18804
738.247	470.04847
738.675	483.07286
739.102	478.11106
739.53	426.0199
739.957	437.05562
740.384	530.20591
740.811	489.15297
741.238	408.94086
741.665	428.93176
742.092	502.10936
742.519	386.90607
742.945	416.94171
743.372	473.09055
743.798	470.128
744.225	407.91366
744.651	399.94843
745.077	437.02219
745.503	393.90898
745.929	415.93887
746.355	441.02955
746.781	379.89294
747.207	367.81813
747.632	375.86805
748.058	377.89478
748.483	387.84413
748.908	354.84004
749.334	376.87812
749.759	324.73319
750.184	340.7744
750.609	362.84842
751.033	402.89891
751.458	328.7059
751.883	389.91471
752.307	335.75484
752.732	323.77402
753.156	354.83454
753.58	352.79848
754.005	377.9106
754.429	327.73681
754.853	299.71434
755.277	346.78233
755.7	380.89547
756.124	309.73794
756.548	283.64863
756.971	319.74869
757.394	342.84365
757.818	292.72589
758.241	311.75943
758.664	279.68207
759.087	227.49516
759.51	325.77644
759.933	233.5473
760.356	302.74664
760.778	300.71111
761.201	312.7304
761.623	313.73088
762.046	302.69119
762.468	289.6714
762.89	321.76131
763.312	281.66415
763.734	218.51397
764.156	265.63506
764.578	282.62776
765	236.56202
765.421	204.5079
765.843	246.6282
766.264	272.63728
766.686	274.66698
767.107	218.51716
767.528	197.48807
767.949	242.59965
768.37	227.54442
768.791	208.49382
769.212	164.40669
769.632	219.49893
770.053	203.52432
770.473	189.45243
770.894	237.57898
771.314	211.49447
771.734	158.36469
772.154	214.53802
772.575	213.48389
772.994	115.26095
773.414	260.60631
773.834	155.38346
774.254	204.48973
774.673	208.49667
775.093	146.35795
775.512	138.33733
775.931	172.42995
776.351	181.44235
776.77	163.39347
777.189	195.45555
777.607	103.26244
778.026	145.3578
778.445	103.25706
778.864	167.42265
779.282	162.38506
779.701	175.43452
780.119	130.32602
780.537	138.34134
780.955	185.46286
781.373	130.31931
781.791	161.3573
782.209	192.43468
782.627	152.39566
783.045	178.40299
783.462	94.23981
783.88	105.27056
784.297	104.26082
784.715	120.30603
785.132	128.30776
785.549	98.24462
785.966	148.36809
786.383	138.33633
786.8	159.36473
787.217	95.22507
787.633	88.21942
788.05	170.39816
788.466	159.37043
788.883	105.2666
789.299	105.25212
789.715	158.37902
790.131	101.25042
790.547	119.29537
790.963	104.25725
791.379	106.26679
791.795	153.34505
792.21	118.27443
792.626	78.18548
793.041	128.31335
793.457	139.34009
793.872	79.18608
794.287	90.2145
794.702	114.27939
795.117	104.25725
795.532	39.09843
795.947	94.22601
796.362	103.24535
796.776	135.31365
797.191	96.23441
797.605	64.15078
798.02	73.17795
798.434	97.21581
798.848	97.23813
799.262	112.27612
799.676	93.22653
800.09	84.20656
800.504	83.20142
800.918	61.14201
801.331	93.24313
801.745	131.29821
802.158	86.21467
802.572	148.35463
802.985	118.28339
803.398	103.24469
803.811	132.33616
804.224	118.29166
804.637	33.07933
805.05	77.17876
805.462	90.22074
805.875	62.16095
806.288	76.18336
806.7	58.14625
807.112	99.22883
807.525	99.2434
807.937	43.10693
808.349	87.21752
808.761	84.2064
809.173	70.1699
809.584	118.28952
809.996	59.1449
810.408	28.07279
810.819	58.13696
811.231	31.08063
811.642	-17.04124
812.053	39.0934
812.464	87.20644
812.875	114.28919
813.286	91.23342
813.697	153.3528
814.108	89.21695
814.519	98.21772
814.929	112.28371
815.34	70.16997
815.75	40.10219
816.16	73.18199
816.571	94.24318
816.981	57.13515
817.391	107.25683
817.801	37.09248
818.211	61.14586
818.62	93.22306
819.03	81.19826
819.44	106.27517
819.849	107.26791
820.259	82.20949
820.668	44.10876
821.077	63.15666
821.486	72.17351
821.895	107.26277
822.304	68.18016
822.713	75.17728
823.122	103.25557
823.531	66.1567
823.939	65.15857
824.348	79.19186
824.756	70.17537
825.164	61.15378
825.573	59.14831
825.981	52.12943
826.389	104.25969
826.797	61.15301
827.205	62.1426
827.612	61.1508
828.02	19.04507
828.428	101.25571
828.835	56.14762
829.243	81.19272
829.65	77.19113
830.057	90.21763
830.464	70.17054
830.871	71.17003
831.278	116.27795
831.685	43.09658
832.092	70.17137
832.499	98.21328
832.905	57.14457
833.312	79.17999
833.718	110.27199
834.124	105.23835
834.531	76.19129
834.937	85.21742
835.343	72.17364
835.749	110.25501
836.155	28.07376
836.561	58.14289
836.966	79.19279
837.372	69.1755
837.777	57.14221
838.183	67.14913
838.588	55.13682
838.993	93.22535
839.399	65.15892
839.804	59.14393
840.209	45.1149
840.613	65.14473
841.018	66.16707
841.423	84.21468
841.828	69.17432
842.232	108.26547
842.637	100.2344
843.041	74.18925
843.445	87.21728
843.849	69.17064
844.253	104.2454
844.657	56.14115
845.061	63.14307
845.465	50.12109
845.869	86.19906
846.272	44.10752
846.676	92.22137
847.079	36.09194
847.483	82.20387
847.886	79.19171
848.289	62.16536
848.692	82.20691
849.095	80.19155
849.498	125.31332
849.901	95.21661
850.304	91.21635
850.707	68.17317
851.109	102.25627
851.512	62.15235
851.914	31.07852
852.316	96.24128
852.718	32.08299
853.121	53.13006
853.523	77.17947
853.925	39.10206
854.326	38.09537
854.728	55.14152
855.13	49.12657
855.531	52.12446
855.933	112.26632
856.334	66.16433
856.736	22.04969
857.137	79.18304
857.538	66.1657
857.939	70.17258
858.34	53.12934
858.741	86.22371
859.142	51.12274
859.542	66.17386
859.943	71.17604
860.343	26.06476
860.744	100.24217
861.144	125.30117
861.544	27.06528
861.945	42.10734
862.345	90.21886
862.745	66.16379
863.145	96.22793
863.544	40.1014
863.944	84.19751
864.344	69.17108
864.743	82.20261
865.143	76.19457
865.542	25.05838
865.941	60.14847
866.34	104.24702
866.74	87.2323
867.139	58.13887
867.537	60.1528
867.936	100.23879
868.335	64.16264
868.734	64.16333
869.132	85.19647
869.531	101.24234
869.929	79.17933
870.327	45.10814
870.726	111.27411
871.124	76.17703
871.522	54.13762
871.92	86.21101
872.318	71.17314
872.715	120.29366
873.113	117.2819
873.511	59.14693
873.908	23.0584
874.306	33.08242
874.703	108.26773
875.1	85.21635
875.497	78.18626
875.894	12.02964
876.291	74.18103
876.688	62.15973
877.085	83.19816
877.482	62.15504
877.878	45.10855
878.275	64.16235
878.671	119.26168
879.068	88.21118
879.464	91.21851
879.86	34.08076
880.256	90.22074
880.652	11.0282
881.048	79.19494
881.444	81.19191
881.84	75.18995
882.236	91.22736
882.631	72.1762
883.027	97.23309
883.422	43.11018
883.817	38.09578
884.213	89.22701
884.608	26.0641
885.003	21.05096
885.398	53.13271
885.793	30.07564
886.188	78.19308
886.582	127.32165
886.977	60.14229
887.371	71.17906
887.766	17.04257
888.16	41.10258
888.554	104.25489
888.949	96.23928
889.343	104.25176
889.737	37.09886
890.131	68.17017
890.525	40.10255
890.918	52.13093
891.312	67.15996
891.706	70.18316
892.099	82.20765
892.492	129.27399
892.886	82.19963
893.279	79.20037
893.672	57.14503
894.065	61.15257
894.458	70.17556
894.851	139.33528
895.244	75.19083
895.637	97.23176
896.029	79.19229
896.422	92.22322
896.814	82.20283
897.206	49.11681
897.599	105.25729
897.991	93.22323
898.383	75.17652
898.775	68.15308
899.167	26.06097
899.559	98.24613
899.951	86.20151
900.342	103.25966
900.734	28.06979
901.125	63.16504
901.517	89.21703
901.908	114.27024
902.299	32.07854
902.69	57.13442
903.082	81.19516
903.473	41.09841
903.863	48.12259
904.254	79.18246
904.645	112.27561
905.036	26.06327
905.426	108.24461
905.817	97.2361
906.207	69.16392
906.597	74.17237
906.987	58.1502
907.378	25.06354
907.768	67.17671
908.158	61.14853
908.547	27.07006
908.937	68.17403
909.327	107.25722
909.717	94.23693
910.106	74.17705
910.495	104.25725
910.885	102.25608
911.274	47.1176
911.663	67.16963
912.052	70.1722
912.441	54.13728
912.83	88.20061
913.219	113.29269
913.608	107.25946
913.997	25.06298
914.385	128.30144
914.774	100.24135
915.162	46.10976
915.55	103.24685
915.939	99.24779
916.327	97.24015
916.715	31.0793
917.103	103.25117
917.491	91.22356
917.878	97.23654
918.266	57.14769
918.654	41.10495
919.041	65.16929
919.429	59.13908
919.816	76.19184
920.203	42.10206
920.591	56.13877
920.978	122.29489
921.365	80.20889
921.752	63.14989
922.139	75.16208
922.525	33.07954
922.912	69.16776
923.299	64.15871
923.685	54.14081
924.072	82.18799
924.458	38.09437
924.844	52.12867
925.231	77.17833
925.617	27.06897
926.003	97.24594
926.389	55.13866
926.774	94.23642
927.16	115.28231
927.546	33.0845
927.931	68.16919
928.317	89.20351
928.702	94.2206
929.088	79.18587
929.473	51.12977
929.858	44.10652
930.243	71.16977
930.628	72.1745
931.013	93.22873
931.398	108.24561
931.783	66.17334
932.167	73.17775
932.552	95.23615
932.937	69.17071
933.321	69.17258
933.705	73.18331
934.09	101.25298
934.474	129.30184
934.858	49.12714
935.242	21.04896
935.626	61.15587
936.009	58.15408
936.393	65.16498
936.777	72.18368
937.16	42.10944
937.544	96.22423
937.927	59.14948
938.311	121.29154
938.694	101.26485
939.077	47.1126
939.46	92.22422
939.843	117.24059
940.226	38.0977
940.609	81.18484
940.991	74.18759
941.374	64.15604
941.757	118.28759
942.139	88.19615
942.522	85.19959
942.904	95.22646
943.286	85.21467
943.668	98.25177
944.05	58.14268
944.432	98.23974
944.814	62.1524
945.196	14.03435
945.578	17.04067
945.959	55.1288
946.341	153.36849
946.722	96.22335
947.104	95.22516
947.485	76.17598
947.866	74.18565
948.247	101.25252
948.628	72.17495
949.009	67.17108
949.39	71.1761
949.771	110.25289
950.152	103.25033
950.532	16.03961
950.913	74.17772
951.293	43.1163
951.674	94.2255
952.054	35.08697
952.434	79.19509
952.814	111.26105
953.194	91.23652
953.574	100.24408
953.954	56.13286
954.334	77.19099
954.714	52.12669
955.093	93.22687
955.473	48.12008
955.853	86.22125
956.232	63.17232
956.611	94.22361
956.99	38.09571
957.37	79.2003
957.749	91.21543
958.128	29.07335
958.506	62.16051
958.885	60.15118
959.264	63.15403
959.643	63.14301
960.021	31.07709
960.4	69.15581
960.778	93.22729
961.156	30.07548
961.535	80.18539
961.913	105.24308
962.291	48.12319
962.669	39.09899
963.047	98.24799
963.424	63.16041
963.802	17.04206
964.18	78.19639
964.557	92.21015
964.935	105.24617
965.312	53.13794
965.69	112.27734
966.067	50.12177
966.444	49.12078
966.821	79.20264
967.198	120.28732
967.575	81.19804
967.952	87.20357
968.329	51.12409
968.705	98.20801
969.082	47.1206
969.458	30.07224
969.835	86.20795
970.211	68.17397
970.587	46.11462
970.963	80.20417
971.339	57.14866
971.715	110.27169
972.091	71.17417
972.467	80.19846
972.843	64.15842
973.219	122.28899
973.594	57.14891
973.97	62.14726
974.345	14.03374
974.721	98.23518
975.096	52.12579
975.471	75.17707
975.846	85.20286
976.221	44.11186
976.596	38.0913
976.971	83.20368
977.346	141.32241
977.72	56.14251
978.095	59.15224
978.469	93.22017
978.844	103.2565
979.218	19.04581
979.593	102.24199
979.967	48.11699
980.341	72.16507
980.715	49.12349
981.089	96.23833
981.463	27.06228
981.837	56.13669
982.21	105.24173
982.584	52.12555
982.957	43.10751
983.331	60.14158
983.704	109.26491
984.078	59.14516
984.451	124.30559
984.824	48.11694
985.197	99.23826
985.57	92.22898
985.943	118.2878
986.316	113.27442
986.688	112.26694
987.061	78.18183
987.434	71.18435
987.806	116.27785
988.179	55.12965
988.551	104.26129
988.923	61.14992
989.295	135.33215
989.667	42.10049
990.039	46.11374
990.411	72.165
990.783	71.16281
991.155	40.09629
991.527	138.33432
991.898	75.18603
992.27	94.23063
992.641	90.22417
993.012	126.29211
993.384	47.11217
993.755	98.24772
994.126	54.12979
994.497	47.11543
994.868	98.22296
995.239	67.16186
995.61	9.02281
995.98	82.19798
996.351	54.13362
996.722	60.13888
997.092	48.1137
997.462	25.05868
997.833	61.1443
998.203	96.23073
998.573	66.16385
998.943	95.22081
999.313	78.1859
999.683	82.19559
1000.053	54.12415
1000.423	64.15511
1000.792	89.22909
1001.162	90.21984
1001.531	72.17679
1001.901	34.08499
1002.27	118.26008
1002.639	127.32005
1003.009	57.13536
1003.378	67.17078
1003.747	67.15776
1004.116	100.23697
1004.485	54.12895
1004.853	50.12666
1005.222	91.22777
1005.591	118.27648
1005.959	24.05436
1006.328	43.0969
1006.696	76.18239
1007.064	86.2149
1007.433	97.24033
1007.801	131.3167
1008.169	78.19597
1008.537	50.11071
1008.905	97.22385
1009.273	84.20618
1009.64	76.18037
1010.008	81.19191
1010.375	119.2852
1010.743	173.38968
1011.11	49.11596
1011.478	93.22831
1011.845	95.22142
1012.212	91.20422
1012.579	21.05182
1012.946	119.27943
1013.313	80.18928
1013.68	95.21153
1014.047	80.1895
1014.414	60.14141
1014.78	89.21954
1015.147	109.26063
1015.513	49.11806
1015.88	131.33013
1016.246	96.23493
1016.612	92.2088
1016.978	92.22364
1017.344	71.17475
1017.71	115.27698
1018.076	102.23806
1018.442	92.23487
1018.808	65.16199
1019.174	60.15021
1019.539	145.32741
1019.905	51.12022
1020.27	58.14289
1020.636	65.15537
1021.001	104.24635
1021.366	51.12242
1021.731	75.19198
1022.096	49.12357
1022.461	68.16033
1022.826	66.15634
1023.191	66.17263
1023.556	78.18176
1023.92	74.18109
1024.285	112.27011
1024.649	55.13462
1025.014	88.21639
1025.378	75.18765
1025.742	57.14133
1026.107	89.19965
1026.471	134.30757
1026.835	59.14597
1027.199	52.12508
1027.562	90.20749
1027.926	105.25404
1028.29	54.1365
1028.654	66.15131
1029.017	58.14231
1029.381	71.16886
1029.744	59.15018
1030.107	121.28224
1030.471	79.18803
1030.834	51.11596
1031.197	72.17266
1031.56	85.19912
1031.923	69.17773
1032.286	96.22335
1032.648	84.19951
1033.011	21.04846
1033.374	90.20981
1033.736	43.11314
1034.099	70.1699
1034.461	43.10871
1034.823	80.19803
1035.185	75.18786
1035.548	77.18637
1035.91	61.14575
1036.272	96.21637
1036.634	80.19454
1036.995	68.15921
1037.357	95.22907
1037.719	96.23135
1038.08	76.17947
1038.442	67.15843
1038.803	72.17206
1039.165	82.20565
1039.526	79.18977
1039.887	77.1832
1040.248	41.10114
1040.609	107.26151
1040.97	76.18474
1041.331	105.26309
1041.692	27.06328
1042.053	83.18765
1042.413	73.16927
1042.774	93.22424
1043.134	86.20324
1043.495	75.18759
1043.855	68.16431
1044.215	63.15592
1044.576	92.21809
1044.936	101.22909
1045.296	57.142
1045.656	70.17105
1046.016	108.2577
1046.375	64.15476
1046.735	108.24183
1047.095	53.12392
1047.454	158.32673
1047.814	77.18405
1048.173	93.22025
1048.533	98.22224
1048.892	40.09614
1049.251	79.19716
1049.61	40.09862
1049.969	56.13178
1050.328	122.26031
1050.687	57.13843
1051.046	47.11444
1051.405	83.20512
1051.763	24.05544
1052.122	36.08996
1052.48	88.21415
1052.839	68.15933
1053.197	35.08257
1053.555	140.31322
1053.914	41.10039
1054.272	102.24404
1054.63	37.09063
1054.988	44.10459
1055.345	124.26263
1055.703	66.15827
1056.061	84.21468
1056.419	54.1396
1056.776	56.13557
1057.134	59.13627
1057.491	76.1893
1057.848	56.13918
1058.206	58.13611
1058.563	60.13191
1058.92	90.20567
1059.277	64.15738
1059.634	97.22599
1059.991	107.25341
1060.348	51.11516
1060.704	24.05744
1061.061	116.26583
1061.418	68.16424
1061.774	75.18419
1062.131	52.13735
1062.487	79.18355
1062.843	96.2372
1063.199	61.1513
1063.555	88.20223
1063.911	61.15367
1064.267	155.31556
1064.623	40.09727
1064.979	105.24598
1065.335	128.3012
1065.691	79.18818
1066.046	68.14887
1066.402	61.13819
1066.757	93.23277
1067.112	83.20233
1067.468	35.08283
1067.823	65.15572
1068.178	77.18517
1068.533	75.18084
1068.888	77.18292
1069.243	48.11843
1069.598	81.19553
1069.952	62.13917
1070.307	26.0646
1070.662	34.08091
1071.016	33.07415
1071.371	40.09111
1071.725	96.22749
1072.079	43.10349
1072.434	46.11178
1072.788	90.21253
1073.142	100.24354
1073.496	70.1653
1073.85	67.15474
1074.203	81.19524
1074.557	57.15129
1074.911	98.2316
1075.265	58.13452
1075.618	99.23934
1075.971	103.24233
1076.325	58.14708
1076.678	46.10521
1077.031	94.21065
1077.385	106.23059
1077.738	64.14395
1078.091	29.06618
1078.444	90.20716
1078.796	74.18062
1079.149	114.28001
1079.502	53.12503
1079.855	54.12574
1080.207	96.23432
1080.56	49.12657
1080.912	85.20542
1081.264	48.11554
1081.617	79.19135
1081.969	19.04816
1082.321	93.22509
1082.673	65.14779
1083.025	66.15598
1083.377	74.1579
1083.728	84.19451
1084.08	73.18133
1084.432	56.1348
1084.783	78.18162
1085.135	54.13514
1085.486	71.16163
1085.838	45.11084
1086.189	41.09961
1086.54	74.17576
1086.891	32.08112
1087.242	83.20066
1087.593	105.2528
1087.944	75.16873
1088.295	80.18061
1088.646	49.11869
1088.996	2.00486
1089.347	86.20944
1089.698	20.0475
1090.048	53.13747
1090.398	86.19787
1090.749	64.1526
1091.099	64.16039
1091.449	95.23451
1091.799	86.21374
1092.149	7.01719
1092.499	48.11703
1092.849	52.13201
1093.199	100.24817
1093.548	49.11766
1093.898	47.11755
1094.248	86.2194
1094.597	-12.03094
1094.947	72.1912
1095.296	80.19629
1095.645	73.18895
1095.994	69.16499
1096.343	90.22466
1096.692	48.12602
1097.041	53.14329
1097.39	44.11039
1097.739	44.11438
1098.088	88.23408
1098.437	26.06852
1098.785	79.21178
1099.134	94.24754
1099.482	36.09914
1099.83	80.20896
1100.179	23.06021
1100.527	78.2061
1100.875	30.07951
1101.223	52.13791
1101.571	46.12708
1101.919	-6.01581
1102.267	36.10148
1102.615	-1.00322
1102.962	4.01289
1103.31	-5.01609
1103.658	10.03221
