Data from N2 R11 sample 5_Subt2__3__16-01-03-039.txt Node

Date: Mon Sep 01 16:01:03 PDT 2025
User: uwsun
Spectrometer: HDX01956
Trigger mode: 0
Integration Time (sec): 5.000000E-1
Scans to average: 1
Nonlinearity correction enabled: true
Boxcar width: 0
Storing dark spectrum: false
XAxis mode: Wavelengths
Number of Pixels in Spectrum: 2068
>>>>>Begin Spectral Data<<<<<
194.03	-15.0422
194.578	-5.01582
195.127	-5.01559
195.676	-11.03443
196.225	11.02913
196.773	17.04648
197.321	29.07746
197.87	28.06893
198.418	39.09457
198.966	-17.0419
199.513	-28.06592
200.061	-5.01191
200.609	56.13953
201.156	-6.01231
201.704	-17.04037
202.251	-11.02749
202.798	16.03904
203.345	66.15252
203.892	-7.01663
204.438	45.10074
204.985	-22.04892
205.532	-17.04221
206.078	45.10319
206.624	8.01841
207.17	33.0718
207.716	-18.04117
208.262	-10.01869
208.808	-34.07867
209.354	-1.00228
209.899	122.28563
210.445	-2.00466
210.99	-11.0249
211.535	52.11423
212.08	15.03283
212.625	69.16088
213.17	62.14664
213.715	-2.00415
214.259	74.16036
214.804	34.07898
215.348	57.12175
215.892	8.01809
216.436	75.16222
216.98	71.14672
217.524	-19.04252
218.068	60.1413
218.612	34.08057
219.155	66.14474
219.698	28.06275
220.242	50.11734
220.785	46.10096
221.328	25.0588
221.871	50.11954
222.414	79.18427
222.956	1.00227
223.499	30.06362
224.041	38.08375
224.583	69.14035
225.126	19.0396
225.668	-3.00691
226.21	2.00476
226.751	2.00413
227.293	67.14355
227.835	44.10071
228.376	38.08295
228.918	55.13066
229.459	11.02579
230	37.08276
230.541	23.05009
231.082	-1.00229
231.622	48.10397
232.163	33.075
232.704	46.10669
233.244	29.06759
233.784	94.21498
234.324	6.01235
234.864	22.04694
235.404	23.05166
235.944	68.15075
236.484	33.07758
237.023	13.0289
237.563	39.08424
238.102	32.07097
238.641	58.13702
239.18	-14.03083
239.719	40.09409
240.258	47.09891
240.797	37.08266
241.335	6.01387
241.874	24.0432
242.412	22.04953
242.95	0
243.488	14.03004
244.026	40.08587
244.564	32.06163
245.102	16.03364
245.64	68.15276
246.177	11.02317
246.715	56.12544
247.252	83.17668
247.789	131.22656
248.326	-24.05409
248.863	51.10359
249.4	35.07428
249.936	72.13667
250.473	0
251.009	22.0469
251.546	22.04521
252.082	55.11167
252.618	44.09074
253.154	-4.00899
253.69	9.01895
254.226	28.06215
254.761	34.07094
255.297	37.07502
255.832	7.01545
256.367	29.0635
256.903	81.16303
257.438	55.11967
257.972	41.08458
258.507	47.09896
259.042	14.0283
259.576	-58.11719
260.111	32.06875
260.645	37.07426
261.179	-37.08092
261.713	59.1205
262.247	67.14212
262.781	20.03872
263.315	34.07679
263.849	6.01393
264.382	18.03847
264.915	23.04966
265.449	-51.11554
265.982	36.07575
266.515	75.16714
267.048	26.05068
267.58	88.17602
268.113	54.10656
268.646	48.10863
269.178	-12.02481
269.71	46.09231
270.243	16.03383
270.775	5.01177
271.307	47.10431
271.838	61.13346
272.37	11.02499
272.902	40.08364
273.433	-2.00404
273.965	52.11581
274.496	39.08932
275.027	-24.05524
275.558	8.01787
276.089	-75.17129
276.62	39.09133
277.15	12.02737
277.681	24.04798
278.211	57.12787
278.741	10.02013
279.272	8.01673
279.802	10.02299
280.332	-3.00649
280.861	17.03751
281.391	31.06395
281.921	32.07062
282.45	9.0207
282.98	4.00959
283.509	-26.05389
284.038	9.01874
284.567	57.12107
285.096	11.02431
285.625	8.01655
286.153	-37.07968
286.682	-7.01461
287.21	-40.08846
287.739	-14.03024
288.267	-8.01763
288.795	13.03125
289.323	-18.03821
289.851	61.12832
290.378	2.00407
290.906	-55.12155
291.433	14.03162
291.961	24.04878
292.488	30.06734
293.015	-4.00849
293.542	14.03186
294.069	-17.03779
294.596	8.01793
295.122	51.10851
295.649	14.02777
296.175	32.0697
296.702	42.09125
297.228	29.06334
297.754	8.01608
298.28	12.02429
298.806	9.01932
299.332	-35.06941
299.857	20.04006
300.383	79.17722
300.908	-58.12623
301.433	6.01294
301.958	34.06987
302.483	-24.05341
303.008	10.02206
303.533	18.04185
304.058	62.12873
304.582	-5.01043
305.107	-66.15428
305.631	79.15739
306.155	17.03466
306.679	-35.0723
307.203	-8.01633
307.727	22.04572
308.251	-16.03497
308.775	-41.08537
309.298	-56.11804
309.822	-2.00443
310.345	6.0124
310.868	-2.00416
311.391	8.01721
311.914	-12.02618
312.437	60.11767
312.96	-18.03677
313.482	-20.04108
314.005	-32.06997
314.527	-25.05698
315.049	29.06321
315.571	-54.1029
316.093	20.04227
316.615	-14.02885
317.137	3.00552
317.659	12.02493
318.18	49.09994
318.702	-14.02759
319.223	-8.01376
319.744	33.06137
320.265	-43.08786
320.786	-60.12513
321.307	-18.03756
321.828	31.05768
322.348	-27.05287
322.869	-23.04467
323.389	51.06521
323.909	-17.03215
324.43	65.12817
324.95	-9.01672
325.47	-17.03396
325.989	-72.1388
326.509	-42.07382
327.029	-54.0974
327.548	-109.19787
328.067	-48.09227
328.587	-40.08023
329.106	-16.02855
329.625	7.01486
330.144	-48.08689
330.662	-70.12697
331.181	-51.09324
331.7	-44.08001
332.218	-57.09454
332.736	-19.03402
333.255	-68.1214
333.773	-50.09028
334.291	-6.01147
334.808	-25.04124
335.326	-82.13921
335.844	-46.07822
336.361	-107.20325
336.879	-116.19981
337.396	-54.09481
337.913	-73.12115
338.43	-66.10587
338.947	-69.11793
339.464	-67.09946
339.981	-83.13904
340.497	-83.14699
341.014	-161.2826
341.53	-156.2464
342.046	-93.15921
342.562	-118.20881
343.078	-108.17512
343.594	-83.13561
344.11	-67.10769
344.626	-118.20456
345.141	-97.14637
345.657	-2.00294
346.172	-154.25127
346.687	-152.23068
347.202	-122.17654
347.717	-65.09991
348.232	-97.15911
348.747	-131.19246
349.261	-131.17366
349.776	-145.21709
350.29	-175.27442
350.805	-138.22024
351.319	-93.13319
351.833	-170.23394
352.347	-175.25474
352.861	-112.15612
353.374	-99.13734
353.888	-114.16712
354.401	-119.16093
354.915	-208.27087
355.428	-127.18715
355.941	-185.2507
356.454	-44.05535
356.967	-126.17226
357.48	-209.28118
357.993	-185.26896
358.505	-148.20644
359.018	-103.1415
359.53	-123.16295
360.042	-135.16101
360.554	-44.05745
361.066	-172.23162
361.578	-138.15566
362.09	-177.2301
362.602	-138.154
363.113	-120.14275
363.625	-192.22075
364.136	-68.07197
364.647	-240.27596
365.158	-106.1203
365.669	-187.22778
366.18	-144.16692
366.691	-137.14088
367.201	-132.15175
367.712	-174.183
368.222	-205.21745
368.733	-197.18325
369.243	-249.23975
369.753	-185.18806
370.263	-202.21453
370.773	-223.24802
371.282	-295.30397
371.792	-348.31194
372.301	-270.2601
372.811	-251.27401
373.32	-279.18752
373.829	-309.24984
374.338	-276.18432
374.847	-315.21397
375.356	-331.22641
375.865	-338.1471
376.373	-377.18723
376.882	-333.22002
377.39	-393.21468
377.898	-472.22012
378.407	-408.1056
378.915	-373.0599
379.423	-352.06523
379.93	-457.04955
380.438	-582.05808
380.946	-574.99131
381.453	-691.9642
381.96	-718.88318
382.468	-791.76826
382.975	-756.77373
383.482	-661.72592
383.989	-850.71862
384.495	-836.61463
385.002	-980.474
385.509	-952.48655
386.015	-930.4922
386.521	-1081.40762
387.028	-1174.38916
387.534	-1132.47311
388.04	-1147.44299
388.546	-1490.45184
389.051	-1586.68279
389.557	-1670.92449
390.063	-1269.14976
390.568	-1426.45041
391.073	-1760.08446
391.578	-1752.31453
392.084	-1939.3436
392.589	-2437.18429
393.093	-2810.61862
393.598	-2831.31054
394.103	-2936.60749
394.607	-3221.17898
395.112	-3308.95688
395.616	-3424.07675
396.12	-4121.24707
396.624	-4587.93859
397.128	-4999.64012
397.632	-5002.95623
398.136	-5715.54032
398.639	-7349.91516
399.143	-9023.02551
399.646	-9887.77963
400.15	-11157.73538
400.653	-13268.56934
401.156	-15614.09383
401.659	-18946.61152
402.162	-14132.36145
402.664	-2226.22627
403.167	-215.24409
403.67	0
404.172	0
404.674	0
405.176	0
405.678	0
406.18	0
406.682	0
407.184	0
407.686	0
408.187	0
408.688	0
409.19	0
409.691	0
410.192	0
410.693	-35.89543
411.194	-4808.60459
411.694	-3548.41296
412.195	-2884.42954
412.696	-4098.21568
413.196	-6328.56284
413.696	-7724.84644
414.196	-5812.29037
414.696	-2992.84951
415.196	-473.80713
415.696	3770.36808
416.196	3104.97452
416.695	168.41732
417.195	-2083.05004
417.694	-2004.45446
418.194	-1710.10669
418.693	-2028.97658
419.192	-2040.8903
419.691	-1888.68623
420.19	-1525.51768
420.688	-1289.7983
421.187	-956.79957
421.685	-628.28089
422.184	-292.85744
422.682	-175.77118
423.18	-793.99895
423.678	-1032.50666
424.176	-967.91227
424.674	-886.49686
425.172	-615.08951
425.669	-485.90809
426.167	-247.91775
426.664	-438.79227
427.161	-420.77096
427.659	-472.73468
428.156	-515.70961
428.652	-435.79158
429.149	-433.79966
429.646	-431.80485
430.143	-288.9006
430.639	-349.9027
431.135	-344.94907
431.632	-405.94795
432.128	-277.99345
432.624	-540.09787
433.12	-513.01082
433.616	-528.02774
434.111	-601.11066
434.607	-558.15517
435.103	-354.06046
435.598	-362.07426
436.093	-321.14162
436.588	-227.09859
437.083	-258.1349
437.578	-288.17881
438.073	-469.37998
438.568	-304.25874
439.062	-340.22479
439.557	-272.23547
440.051	-328.27146
440.546	-363.31424
441.04	-374.37174
441.534	-362.41168
442.028	-322.34181
442.522	-361.3899
443.015	-318.29553
443.509	-309.35656
444.002	-381.45331
444.496	-346.34503
444.989	-291.34614
445.482	-338.42148
445.975	-380.41028
446.468	-368.37415
446.961	-331.33466
447.454	-305.34035
447.947	-473.59443
448.439	-335.43354
448.931	-357.4083
449.424	-319.4435
449.916	-307.40272
450.408	-385.46076
450.9	-406.54914
451.392	-441.64696
451.884	-272.33913
452.375	-430.61899
452.867	-319.40887
453.358	-417.5383
453.849	-326.37945
454.341	-319.40549
454.832	-366.44648
455.323	-367.5327
455.814	-349.47618
456.304	-327.44761
456.795	-397.55416
457.285	-295.39641
457.776	-251.34847
458.266	-334.48853
458.756	-300.45153
459.247	-363.5423
459.737	-364.54791
460.226	-325.45388
460.716	-372.57685
461.206	-368.58204
461.695	-363.61384
462.185	-304.46998
462.674	-310.47193
463.163	-274.3953
463.653	-304.41597
464.142	-332.54267
464.63	-271.45201
465.119	-305.47666
465.608	-365.58278
466.096	-229.33563
466.585	-270.43488
467.073	-271.45873
467.561	-306.5277
468.05	-249.40914
468.538	-248.43795
469.026	-260.44812
469.513	-310.46743
470.001	-270.44007
470.489	-281.48419
470.976	-260.43951
471.463	-269.50227
471.951	-261.4941
472.438	-268.47006
472.925	-330.58552
473.412	-195.36319
473.899	-236.41197
474.385	-258.49069
474.872	-306.55367
475.359	-277.52773
475.845	-240.3791
476.331	-248.42241
476.817	-220.4227
477.303	-239.43762
477.789	-244.46836
478.275	-281.56166
478.761	-235.45555
479.247	-195.3484
479.732	-278.56275
480.218	-253.5404
480.703	-281.57703
481.188	-211.36453
481.673	-257.48391
482.158	-317.55354
482.643	-214.45423
483.128	-252.47414
483.612	-230.44682
484.097	-217.44642
484.581	-197.3828
485.066	-214.43519
485.55	-226.4133
486.034	-249.45363
486.518	-286.57179
487.002	-291.60944
487.486	-216.44706
487.969	-256.53555
488.453	-247.53993
488.936	-222.42757
489.42	-161.3021
489.903	-236.51861
490.386	-686.10931
490.869	-165.30853
491.352	-169.35973
491.835	-231.41806
492.318	-235.46274
492.8	-201.36116
493.283	-226.50332
493.765	-253.54977
494.247	-151.30868
494.73	-235.45947
495.212	-227.49033
495.694	-242.49998
496.175	-279.58715
496.657	-171.35749
497.139	-137.20947
497.62	-267.56363
498.102	-222.48949
498.583	-200.44708
499.064	-253.50429
499.545	-204.41485
500.026	-219.43814
500.507	-233.48668
500.988	-195.43365
501.469	-249.56154
501.949	-180.39888
502.43	-219.46494
502.91	-271.50901
503.39	-162.36378
503.87	-179.37472
504.35	-221.47472
504.83	-171.33402
505.31	-204.4449
505.79	-254.55229
506.269	-191.40373
506.749	-252.52391
507.228	-197.41605
507.707	-241.48707
508.187	-158.34078
508.666	-263.59044
509.145	-217.45969
509.623	-209.44565
510.102	-228.50524
510.581	-129.28068
511.059	-265.60932
511.538	-235.55931
512.016	-190.41332
512.494	-180.39805
512.972	-185.40167
513.45	-289.61649
513.928	-196.43235
514.406	-226.49413
514.884	-205.48135
515.361	-168.36515
515.839	-212.44232
516.316	-197.43319
516.793	-178.41249
517.27	-175.38902
517.747	-197.46239
518.224	-164.34674
518.701	-154.31231
519.178	-210.4764
519.654	-168.36717
520.131	-210.47853
520.607	-187.42758
521.083	-210.44282
521.56	-178.38573
522.036	-158.31808
522.512	-119.26772
522.987	-199.43335
523.463	-225.49621
523.939	-186.42144
524.414	-154.32716
524.89	-175.38255
525.365	-201.42152
525.84	-189.4114
526.315	-197.43828
526.79	-154.31903
527.265	-182.38361
527.74	-164.36736
528.215	-195.42608
528.689	-206.42388
529.164	-114.22643
529.638	-185.441
530.112	-204.44566
530.587	-220.43698
531.061	-162.35885
531.534	-154.34496
532.008	-199.44383
532.482	-117.24645
532.956	-227.53841
533.429	-184.4142
533.903	-187.38644
534.376	-184.37862
534.849	-176.37928
535.322	-164.35873
535.795	-150.33891
536.268	-149.3304
536.741	-182.40751
537.213	-166.35681
537.686	-221.50308
538.158	-132.271
538.631	-137.30846
539.103	-185.38522
539.575	-111.21332
540.047	-90.18102
540.519	-117.25793
540.991	-94.21135
541.463	-118.26313
541.934	-155.32907
542.406	-121.26484
542.877	-99.20477
543.348	-106.23559
543.82	-75.16832
544.291	-62.13218
544.762	-99.2144
545.233	-63.14319
545.703	-82.16485
546.174	-70.148
546.645	-97.20989
547.115	-43.09328
547.585	-22.04541
548.056	-75.16249
548.526	6.01246
548.996	-30.06465
549.466	34.07362
549.935	9.01872
550.405	25.04791
550.875	57.11747
551.344	84.17495
551.814	119.23487
552.283	185.34011
552.752	93.18537
553.221	106.19551
553.69	182.33872
554.159	148.30715
554.628	204.3774
555.096	243.51207
555.565	268.49061
556.033	352.67731
556.502	356.70711
556.97	397.71084
557.438	445.85195
557.906	467.89667
558.374	506.92733
558.842	517.98981
559.31	612.0655
559.777	637.19741
560.245	731.31453
560.712	825.42338
561.18	797.3021
561.647	921.48026
562.114	966.56736
562.581	1042.8395
563.048	1167.83533
563.514	1171.97872
563.981	1341.98797
564.448	1469.03403
564.914	1536.20483
565.381	1654.22084
565.847	1761.38343
566.313	1851.41273
566.779	1955.34348
567.245	2072.53001
567.711	2203.67062
568.176	2284.40538
568.642	2446.94237
569.108	2594.87099
569.573	2784.68695
570.038	2960.10575
570.504	3046.35524
570.969	3212.95661
571.434	3351.14378
571.899	3541.53546
572.363	3723.20926
572.828	3903.17201
573.293	4035.09696
573.757	4148.04231
574.222	4325.75036
574.686	4424.71266
575.15	4626.96099
575.614	4633.74672
576.078	4761.80556
576.542	4894.57089
577.006	4913.49231
577.469	5065.02804
577.933	4991.3905
578.396	5084.7344
578.86	5214.60856
579.323	5103.71326
579.786	5215.11243
580.249	4988.50631
580.712	5101.91223
581.175	4930.05287
581.637	4967.63939
582.1	4894.40697
582.563	4801.34825
583.025	4716.06212
583.487	4757.02723
583.95	4541.44329
584.412	4548.36381
584.874	4359.28473
585.336	4196.22234
585.797	4070.77116
586.259	4014.32224
586.721	3907.31138
587.182	3905.34668
587.643	3706.24499
588.105	3640.50432
588.566	3589.90894
589.027	3336.68477
589.488	3205.45392
589.949	3094.8095
590.41	2924.78565
590.87	2977.53202
591.331	2915.27422
591.791	2788.57634
592.252	2625.5271
592.712	2599.79254
593.172	2526.47571
593.632	2510.38218
594.092	2384.43108
594.552	2296.27777
595.011	2198.49468
595.471	2124.39286
595.931	2099.36792
596.39	2007.60231
596.849	1958.47884
597.308	1896.21492
597.768	1855.75794
598.227	1823.54085
598.685	1860.40298
599.144	1744.3806
599.603	1721.41439
600.062	1723.01383
600.52	1650.15774
600.978	1632.35321
601.437	1626.24111
601.895	1603.98788
602.353	1598.1262
602.811	1566.09801
603.269	1612.36544
603.727	1571.33178
604.184	1545.11489
604.642	1592.42222
605.099	1492.17137
605.557	1587.40674
606.014	1549.98689
606.471	1543.42218
606.928	1478.91306
607.385	1508.29443
607.842	1583.18581
608.299	1648.30093
608.755	1645.39918
609.212	1629.12338
609.668	1577.0654
610.125	1643.4181
610.581	1716.44734
611.037	1661.28211
611.493	1682.40553
611.949	1585.36975
612.405	1583.83469
612.861	1727.43663
613.316	1672.42208
613.772	1692.31578
614.227	1615.34482
614.683	1765.15334
615.138	1610.3182
615.593	1623.31061
616.048	1688.32503
616.503	1616.51405
616.958	1568.52308
617.412	1616.37856
617.867	1529.09536
618.321	1519.93322
618.776	1537.13086
619.23	1580.34037
619.684	1477.15652
620.138	1415.1903
620.592	1336.2305
621.046	1362.17318
621.5	1324.22476
621.954	1362.07029
622.407	1330.0105
622.861	1284.19101
623.314	1264.0089
623.768	1180.97198
624.221	1201.62177
624.674	1215.99045
625.127	1144.95117
625.58	1203.97179
626.033	1206.90192
626.485	1053.89322
626.938	1093.9433
627.39	1097.89726
627.843	1092.8831
628.295	942.6893
628.747	1074.92665
629.199	1032.77741
629.651	956.67852
630.103	970.7165
630.555	996.60084
631.006	994.8065
631.458	944.74927
631.909	992.77464
632.361	934.72126
632.812	948.71923
633.263	925.56427
633.714	1003.65272
634.165	903.76421
634.616	952.79828
635.067	966.68639
635.518	1003.88602
635.968	1034.57705
636.419	921.59117
636.869	963.8284
637.319	961.76361
637.769	1008.759
638.219	1092.02777
638.669	989.87421
639.119	1061.03579
639.569	1031.96531
640.019	1076.93616
640.468	1025.79298
640.918	1115.08953
641.367	1109.91099
641.816	1151.95633
642.265	1142.02577
642.714	1150.03791
643.163	1175.05503
643.612	1160.13637
644.061	1206.88559
644.51	1267.13824
644.958	1196.97057
645.406	1243.24484
645.855	1323.42129
646.303	1358.32538
646.751	1311.18792
647.199	1354.23865
647.647	1386.30445
648.095	1248.14291
648.543	1406.01485
648.99	1373.40551
649.438	1470.47167
649.885	1375.52685
650.333	1458.91229
650.78	1475.55969
651.227	1412.51465
651.674	1426.32884
652.121	1421.53011
652.568	1415.51551
653.015	1475.73147
653.461	1467.50713
653.908	1474.45443
654.354	1492.5562
654.801	1404.39821
655.247	1486.2899
655.693	1510.88804
656.139	1409.48043
656.585	1486.56877
657.031	1403.38058
657.477	1419.17872
657.922	1536.48221
658.368	1498.68625
658.813	1544.53978
659.259	1479.56667
659.704	1506.49856
660.149	1529.52388
660.594	1512.5715
661.039	1582.50174
661.484	1566.65828
661.929	1630.64134
662.373	1548.82559
662.818	1582.80601
663.262	1570.68358
663.707	1572.87816
664.151	1681.85569
664.595	1649.77265
665.039	1716.96593
665.483	1708.04675
665.927	1753.78686
666.371	1712.67274
666.814	1798.88093
667.258	1820.84668
667.701	1943.59631
668.145	1817.07137
668.588	1961.1245
669.031	1834.83944
669.474	1919.01226
669.917	2020.73776
670.36	1945.16284
670.803	2051.12275
671.245	2061.56279
671.688	2065.18277
672.13	2060.8005
672.573	2096.40143
673.015	2096.12877
673.457	2197.74721
673.899	2210.24054
674.341	2147.18474
674.783	2110.12781
675.225	2230.32133
675.666	2222.19641
676.108	2302.77902
676.549	2252.16029
676.991	2287.84065
677.432	2262.41079
677.873	2359.0903
678.314	2316.22657
678.755	2337.32864
679.196	2446.06399
679.637	2434.40247
680.078	2377.16161
680.518	2445.16764
680.959	2481.30939
681.399	2403.4629
681.839	2465.39092
682.28	2458.4562
682.72	2499.07954
683.16	2514.53103
683.6	2606.09685
684.039	2568.65315
684.479	2556.46476
684.919	2478.10167
685.358	2652.69997
685.798	2642.89025
686.237	2676.42737
686.676	2663.20295
687.115	2688.26507
687.554	2733.3286
687.993	2842.95563
688.432	2792.12418
688.871	2772.07972
689.309	2822.37201
689.748	2915.66919
690.186	2917.39093
690.625	2932.26922
691.063	2958.40696
691.501	3022.60307
691.939	3035.65346
692.377	3075.51377
692.815	3115.38435
693.253	3176.42785
693.69	3213.87703
694.128	3205.45851
694.565	3224.36667
695.003	3216.77951
695.44	3350.2481
695.877	3208.2286
696.314	3313.74111
696.751	3431.05699
697.188	3338.10803
697.625	3382.11355
698.061	3390.37427
698.498	3488.4232
698.934	3500.38254
699.371	3569.20196
699.807	3536.25179
700.243	3512.36881
700.679	3721.91196
701.115	3749.16533
701.551	3687.18126
701.987	3717.8729
702.422	3795.19047
702.858	3808.21092
703.294	3833.87009
703.729	3837.39592
704.164	3851.26835
704.599	3955.7038
705.035	3895.75289
705.47	3946.3003
705.904	3948.99678
706.339	4050.95997
706.774	4036.99769
707.209	3990.90787
707.643	4055.17082
708.078	4046.27356
708.512	4029.47424
708.946	4238.07738
709.38	4128.04217
709.814	4157.78097
710.248	4239.19807
710.682	4209.02403
711.116	4214.03037
711.549	4122.70307
711.983	4174.83823
712.416	4213.98953
712.85	4184.39643
713.283	4186.00308
713.716	4228.44576
714.149	4215.05036
714.582	4215.62712
715.015	4130.46197
715.448	4115.51618
715.881	4090.53414
716.313	4142.95135
716.746	4077.01098
717.178	3987.20288
717.61	4134.55619
718.043	4022.46525
718.475	3953.28021
718.907	4067.57774
719.339	3971.79612
719.77	3846.15159
720.202	3834.64174
720.634	3843.33955
721.065	3781.18441
721.497	3811.41358
721.928	3709.45245
722.359	3677.32543
722.79	3670.28332
723.221	3718.64521
723.652	3702.84707
724.083	3586.92029
724.514	3523.06279
724.945	3450.22588
725.375	3438.13643
725.806	3408.65485
726.236	3360.84747
726.666	3348.29811
727.096	3309.54327
727.526	3291.78079
727.956	3200.06372
728.386	3268.57163
728.816	3084.75621
729.246	3122.48468
729.675	3093.56885
730.105	2986.57673
730.534	3022.26056
730.964	3012.75717
731.393	2964.64174
731.822	2942.81424
732.251	2882.76125
732.68	2962.31025
733.109	2855.56729
733.537	2809.4361
733.966	2767.60007
734.395	2813.18057
734.823	2746.0555
735.251	2666.39818
735.68	2766.66068
736.108	2589.66789
736.536	2625.27586
736.964	2556.16939
737.392	2495.56704
737.82	2478.32964
738.247	2530.33519
738.675	2505.31909
739.102	2421.52112
739.53	2364.60011
739.957	2405.68187
740.384	2386.44705
740.811	2353.57577
741.238	2380.37822
741.665	2262.06696
742.092	2220.19733
742.519	2130.31202
742.945	2144.17738
743.372	2155.33349
743.798	2121.50388
744.225	2116.11458
744.651	2064.33961
745.077	2065.30912
745.503	1986.15163
745.929	2056.1205
746.355	2020.27107
746.781	1871.12993
747.207	1818.84999
747.632	1746.94416
748.058	1809.10493
748.483	1826.78789
748.908	1807.08357
749.334	1824.04972
749.759	1755.82308
750.184	1648.76426
750.609	1699.93865
751.033	1749.83372
751.458	1741.62776
751.883	1624.89563
752.307	1531.60749
752.732	1486.76342
753.156	1503.74655
753.58	1577.68921
754.005	1524.8746
754.429	1482.55106
754.853	1448.6912
755.277	1403.4877
755.7	1430.67591
756.124	1360.5868
756.548	1311.38129
756.971	1333.503
757.394	1320.65913
757.818	1313.64441
758.241	1250.50878
758.664	1249.49246
759.087	1186.06082
759.51	1208.39113
759.933	1137.19346
760.356	1146.38493
760.778	1179.31362
761.201	1137.22582
761.623	1105.17319
762.046	1070.06637
762.468	1110.15501
762.89	1127.2507
763.312	1056.11497
763.734	983.96869
764.156	992.04129
764.578	1049.96208
765	950.9476
765.421	833.8314
765.843	861.95453
766.264	923.88328
766.686	903.93472
767.107	838.7464
767.528	851.85066
767.949	789.75492
768.37	804.71252
768.791	786.6546
769.212	741.63926
769.632	761.54121
770.053	748.74414
770.473	777.64746
770.894	712.58194
771.314	748.56558
771.734	615.28776
772.154	670.54261
772.575	681.39786
772.994	607.23735
773.414	642.38197
773.834	590.3399
774.254	593.31541
774.673	611.34358
775.093	554.25246
775.512	546.23034
775.931	600.38022
776.351	531.21038
776.77	524.17588
777.189	534.162
777.607	487.15357
778.026	458.0624
778.445	460.07083
778.864	475.13333
779.282	495.09865
779.701	468.09719
780.119	403.96051
780.537	378.89352
780.955	434.03435
781.373	405.94379
781.791	404.85112
782.209	458.98055
782.627	381.95239
783.045	371.80683
783.462	374.90659
783.88	340.83995
784.297	339.8139
784.715	326.80094
785.132	364.83574
785.549	332.79331
785.966	335.8046
786.383	322.75764
786.8	342.75562
787.217	302.68675
787.633	276.66456
788.05	309.70394
788.466	363.81156
788.883	274.6747
789.299	304.7022
789.715	308.71765
790.131	266.63952
790.547	277.6676
790.963	234.56494
791.379	252.61756
791.795	262.57768
792.21	244.5533
792.626	236.54406
793.041	256.61174
793.457	257.61495
793.872	211.4842
794.287	165.38759
794.702	251.59945
795.117	185.45078
795.532	165.407
795.947	211.49602
796.362	233.54111
796.776	230.52431
797.191	170.40936
797.605	147.34072
798.02	193.45989
798.434	218.47281
798.848	163.39525
799.262	183.44524
799.676	203.48427
800.09	177.42774
800.504	133.31972
800.918	145.33195
801.331	173.44607
801.745	183.4122
802.158	146.36047
802.572	169.40332
802.985	178.4226
803.398	154.36224
803.811	218.54669
804.224	129.3182
804.637	133.31364
805.05	115.26497
805.462	171.41309
805.875	99.25536
806.288	137.32671
806.7	103.25762
807.112	151.34541
807.525	112.2747
807.937	97.23883
808.349	115.28607
808.761	146.35463
809.173	138.33067
809.584	186.45059
809.996	117.28424
810.408	104.26681
810.819	126.29361
811.231	89.22917
811.642	36.08646
812.053	107.25292
812.464	139.32651
812.875	188.47062
813.286	166.42019
813.697	209.47654
814.108	142.34271
814.519	121.26753
814.929	158.39695
815.34	148.35409
815.75	98.24781
816.16	142.34956
816.571	123.3166
816.981	150.34926
817.391	123.29433
817.801	101.24951
818.211	130.30674
818.62	98.23482
819.03	103.25108
819.44	119.30823
819.849	132.32901
820.259	138.34907
820.668	91.22298
821.077	73.1812
821.486	113.2702
821.895	110.26999
822.304	92.24276
822.713	76.17961
823.122	107.2653
823.531	97.22892
823.939	101.24473
824.348	117.28211
824.756	94.23447
825.164	128.31881
825.573	117.29104
825.981	116.28535
826.389	129.32066
826.797	82.20491
827.205	110.25056
827.612	86.21163
828.02	23.05451
828.428	104.26317
828.835	32.0847
829.243	146.34302
829.65	79.19602
830.057	111.26734
830.464	90.21845
830.871	103.24516
831.278	79.19063
831.685	110.24366
832.092	127.30761
832.499	92.20048
832.905	95.23932
833.312	97.22019
833.718	118.29134
834.124	93.21163
834.531	107.26781
834.937	105.26764
835.343	87.20922
835.749	98.22773
836.155	91.23717
836.561	96.23484
836.966	103.25023
837.372	79.20058
837.777	92.22806
838.183	94.20805
838.588	58.1442
838.993	101.24436
839.399	88.21423
839.804	56.13669
840.209	80.20301
840.613	56.12493
841.018	65.16457
841.423	108.27484
841.828	80.20172
842.232	101.24859
842.637	88.20676
843.041	79.20186
843.445	111.27602
843.849	78.19258
844.253	99.23383
844.657	97.2427
845.061	106.23862
845.465	71.17126
845.869	102.23534
846.272	44.10752
846.676	142.33844
847.079	80.20273
847.483	107.26481
847.886	121.29132
848.289	82.21797
848.692	63.15951
849.095	76.18211
849.498	70.1772
849.901	106.24116
850.304	115.27214
850.707	68.17317
851.109	119.29806
851.512	59.14506
851.914	70.17606
852.316	48.12168
852.718	13.03382
853.121	115.27897
853.523	54.12643
853.925	78.20276
854.326	32.0804
854.728	76.19484
855.13	56.14447
855.531	60.14339
855.933	91.21726
856.334	51.12733
856.736	43.0967
857.137	101.23299
857.538	27.06826
857.939	65.1604
858.34	103.24901
858.741	76.19804
859.142	56.13465
859.542	75.19727
859.943	105.25872
860.343	27.06724
860.744	103.2493
861.144	73.17762
861.544	58.1394
861.945	44.11241
862.345	96.23318
862.745	98.24178
863.145	93.22093
863.544	84.21127
863.944	114.26648
864.344	94.232
864.743	104.25593
865.143	71.18193
865.542	105.24135
865.941	77.18994
866.34	112.26561
866.74	97.25858
867.139	60.14361
867.537	108.27271
867.936	71.17049
868.335	92.23264
868.734	69.17594
869.132	54.12559
869.531	96.23056
869.929	59.13448
870.327	68.16269
870.726	99.24501
871.124	103.23864
871.522	87.22043
871.92	119.29019
872.318	65.15868
872.715	110.26969
873.113	56.13648
873.511	78.19357
873.908	39.09874
874.306	86.21272
874.703	75.18704
875.1	109.27626
875.497	66.15797
875.894	37.09097
876.291	45.11068
876.688	112.28603
877.085	79.18876
877.482	80.1994
877.878	70.16805
878.275	33.08417
878.671	87.1926
879.068	75.18043
879.464	101.24206
879.86	36.08547
880.256	117.28552
880.652	89.22501
881.048	100.24581
881.444	80.18957
881.84	79.19994
882.236	59.14826
882.631	96.23388
883.027	59.1428
883.422	58.14823
883.817	61.15312
884.213	74.18925
884.608	39.09592
885.003	43.10392
885.398	78.19442
885.793	58.14551
886.188	66.16373
886.582	128.32413
886.977	66.15634
887.371	84.21135
887.766	32.07991
888.16	123.30318
888.554	85.20905
888.949	104.25885
889.343	104.25176
889.737	40.10683
890.131	76.18992
890.525	82.20868
890.918	45.11345
891.312	107.2535
891.706	77.20123
892.099	89.22509
892.492	96.20537
892.886	98.23786
893.279	41.10469
893.672	87.22019
894.065	100.24835
894.458	75.18793
894.851	103.25014
895.244	77.19585
895.637	106.25283
896.029	59.14414
896.422	95.23037
896.814	86.21257
897.206	40.09552
897.599	127.30993
897.991	54.13058
898.383	70.16492
898.775	76.17081
899.167	64.14896
899.559	102.25599
899.951	95.2222
900.342	96.24232
900.734	46.11428
901.125	101.26287
901.517	65.15922
901.908	92.21902
902.299	60.14651
902.69	57.13442
903.082	82.19753
903.473	52.12455
903.863	58.14786
904.254	50.11615
904.645	147.3594
905.036	29.07053
905.426	121.27333
905.817	88.21455
906.207	61.14514
906.597	66.15398
906.987	77.19875
907.378	63.15905
907.768	68.17931
908.158	58.14131
908.547	67.17264
908.937	89.22693
909.327	114.27368
909.717	88.22205
910.106	71.16997
910.495	93.2305
910.885	83.20909
911.274	79.19652
911.663	98.24675
912.052	80.19643
912.441	81.20493
912.83	92.20956
913.219	99.25704
913.608	85.20697
913.997	41.10299
914.385	94.22283
914.774	41.10006
915.162	102.24077
915.55	95.22803
915.939	56.14125
916.327	134.3295
916.715	39.09962
917.103	117.28456
917.491	119.29084
917.878	95.23175
918.266	101.25971
918.654	67.17072
919.041	66.17187
919.429	71.16698
919.816	98.24639
920.203	63.15248
920.591	58.14368
920.978	69.16845
921.365	76.19858
921.752	73.17335
922.139	76.1642
922.525	89.21224
922.912	64.15575
923.299	67.16606
923.685	86.22302
924.072	64.14726
924.458	59.14597
924.844	56.13847
925.231	36.08405
925.617	67.16993
926.003	88.22347
926.389	58.14614
926.774	73.1843
927.16	113.27751
927.546	35.08959
927.931	111.27401
928.317	85.19452
928.702	104.24359
929.088	67.158
929.473	81.20501
929.858	13.03165
930.243	62.14851
930.628	40.09753
931.013	79.1948
931.398	84.19196
931.783	82.21477
932.167	48.11742
932.552	83.20677
932.937	111.2725
933.321	65.16269
933.705	80.20063
934.09	124.3093
934.474	129.30184
934.858	74.19118
935.242	26.06056
935.626	39.10004
936.009	68.18034
936.393	39.09944
936.777	60.15339
937.16	71.18409
937.544	123.28577
937.927	54.13694
938.311	106.25612
938.694	100.26227
939.077	85.20216
939.46	133.32166
939.843	115.23658
940.226	62.15873
940.609	49.11254
940.991	28.07156
941.374	61.14881
941.757	90.22049
942.139	35.07887
942.522	94.22034
942.904	100.23815
943.286	83.20969
943.668	59.15261
944.05	90.22008
944.432	58.14294
944.814	114.27753
945.196	20.04902
945.578	25.05971
945.959	82.19101
946.341	119.28845
946.722	95.22107
947.104	61.14553
947.485	124.28439
947.866	91.2276
948.247	71.17848
948.628	99.23934
949.009	78.19878
949.39	81.20054
949.771	112.25739
950.152	96.23362
950.532	-16.03984
950.913	111.26471
951.293	38.10286
951.674	92.22078
952.054	80.19716
952.434	86.2121
952.814	66.15658
953.194	84.21859
953.574	94.22969
953.954	63.14926
954.334	38.09492
954.714	37.0904
955.093	89.21727
955.473	58.14483
955.853	72.18569
956.232	68.18585
956.611	82.19551
956.99	58.14557
957.37	50.12742
957.749	92.21776
958.128	52.13098
958.506	49.12714
958.885	64.16114
959.264	53.12982
959.643	47.10704
960.021	60.14841
960.4	67.15135
960.778	83.20323
961.156	50.12535
961.535	108.24889
961.913	79.18384
962.291	48.12319
962.669	52.13168
963.047	101.25544
963.424	76.19307
963.802	62.15212
964.18	120.29986
964.557	140.3167
964.935	81.19079
965.312	53.13794
965.69	112.27734
966.067	81.19612
966.444	93.22738
966.821	93.23797
967.198	114.27327
967.575	105.25557
967.952	100.23339
968.329	80.19359
968.705	75.15999
969.082	80.20409
969.458	32.07703
969.835	81.19605
970.211	67.17144
970.587	90.22245
970.963	66.16885
971.339	51.13315
971.715	58.14462
972.091	95.23201
972.467	105.25929
972.843	45.11178
973.219	118.27973
973.594	45.1178
973.97	131.307
974.345	45.10781
974.721	100.23989
975.096	43.10419
975.471	92.21649
975.846	84.20051
976.221	75.18962
976.596	40.09607
976.971	71.17462
977.346	90.2079
977.72	85.21521
978.095	73.18791
978.469	66.15706
978.844	148.36554
979.218	47.11273
979.593	42.10079
979.967	81.1962
980.341	75.17184
980.715	97.24235
981.089	55.13756
981.463	65.14881
981.837	58.14152
982.21	90.20782
982.584	71.17081
982.957	49.12238
983.331	130.30257
983.704	56.13745
984.078	62.15246
984.451	115.28388
984.824	62.15066
985.197	86.20748
985.57	68.16999
985.943	128.31161
986.316	108.26253
986.688	100.23889
987.061	90.20931
987.434	67.17408
987.806	106.25438
988.179	39.09222
988.551	89.22421
988.923	72.17659
989.295	122.30088
989.667	20.04805
990.039	78.19173
990.411	66.15143
990.783	58.13334
991.155	44.10583
991.527	109.2655
991.898	47.11717
992.27	53.13103
992.641	131.32385
993.012	126.29211
993.384	40.09559
993.755	85.21536
994.126	92.21952
994.497	39.09592
994.868	112.25409
995.239	62.14992
995.61	84.21006
995.98	67.16223
996.351	44.10908
996.722	76.17535
997.092	102.23909
997.462	57.13296
997.833	139.32384
998.203	64.15476
998.573	39.0973
998.943	59.13811
999.313	66.15767
999.683	88.20966
1000.053	92.2099
1000.423	89.21468
1000.792	80.20625
1001.162	42.10351
1001.531	81.19856
1001.901	52.12957
1002.27	62.13825
1002.639	72.18323
1003.009	91.21468
1003.378	84.21347
1003.747	91.21326
1004.116	68.16213
1004.485	56.13368
1004.853	54.1367
1005.222	87.21791
1005.591	110.25814
1005.959	50.11265
1006.328	83.1855
1006.696	32.07744
1007.064	67.168
1007.433	83.20617
1007.801	104.25271
1008.169	77.19349
1008.537	80.17603
1008.905	61.14178
1009.273	130.31636
1009.64	24.05753
1010.008	21.05033
1010.375	128.30624
1010.743	127.28876
1011.11	58.13702
1011.478	83.20414
1011.845	88.20539
1012.212	57.12881
1012.579	37.09103
1012.946	87.20556
1013.313	120.28172
1013.68	126.27876
1014.047	64.15207
1014.414	92.21548
1014.78	63.15615
1015.147	113.26999
1015.513	111.2643
1015.88	93.23596
1016.246	69.1697
1016.612	128.28838
1016.978	99.24034
1017.344	84.20625
1017.71	127.30518
1018.076	107.24948
1018.442	93.23738
1018.808	82.20372
1019.174	44.11047
1019.539	113.25682
1019.905	49.11555
1020.27	46.11357
1020.636	109.25834
1021.001	125.29489
1021.366	47.1129
1021.731	53.13619
1022.096	57.14354
1022.461	97.22741
1022.826	78.18433
1023.191	95.24725
1023.556	73.17028
1023.92	106.25786
1024.285	65.15815
1024.649	89.21647
1025.014	73.18001
1025.378	77.19259
1025.742	75.18535
1026.107	84.18863
1026.471	107.24693
1026.835	88.21655
1027.199	62.14885
1027.562	74.17115
1027.926	66.16086
1028.29	67.16897
1028.654	64.14678
1029.017	85.20751
1029.381	29.06953
1029.744	79.20037
1030.107	105.24569
1030.471	91.2161
1030.834	95.21408
1031.197	111.2642
1031.56	54.12727
1031.923	43.11126
1032.286	119.2756
1032.648	107.25301
1033.011	52.11926
1033.374	117.2713
1033.736	47.12358
1034.099	83.20097
1034.461	67.16867
1034.823	36.08983
1035.185	108.2689
1035.548	57.13848
1035.91	86.2045
1036.272	69.15638
1036.634	96.23275
1036.995	80.18686
1037.357	85.20534
1037.719	76.18384
1038.08	97.22812
1038.442	68.16076
1038.803	78.18619
1039.165	79.19823
1039.526	68.16369
1039.887	72.17147
1040.248	48.11825
1040.609	96.23511
1040.97	62.15111
1041.331	72.18148
1041.692	28.06561
1042.053	89.20097
1042.413	81.18752
1042.774	116.27848
1043.134	109.25645
1043.495	125.30981
1043.855	42.10198
1044.215	106.26027
1044.576	52.12422
1044.936	94.21351
1045.296	84.20823
1045.656	101.24537
1046.016	97.23194
1046.375	89.21419
1046.735	34.07729
1047.095	67.15622
1047.454	90.18895
1047.814	92.21927
1048.173	87.20628
1048.533	69.15739
1048.892	-8.0194
1049.251	89.22172
1049.61	88.21503
1049.969	99.23101
1050.328	37.0804
1050.687	94.2267
1051.046	77.18644
1051.405	74.18318
1051.763	70.16022
1052.122	33.08251
1052.48	125.30209
1052.839	62.14544
1053.197	66.15477
1053.555	95.21451
1053.914	88.21359
1054.272	118.28145
1054.63	92.22305
1054.988	50.11871
1055.345	80.17107
1055.703	79.18897
1056.061	65.16667
1056.419	59.1524
1056.776	61.14753
1057.134	66.15222
1057.491	82.20402
1057.848	114.28033
1058.206	83.19383
1058.563	90.19662
1058.92	77.17642
1059.277	68.16709
1059.634	108.25107
1059.991	98.2325
1060.348	68.15301
1060.704	8.01921
1061.061	135.30819
1061.418	28.06814
1061.774	70.17207
1062.131	47.12425
1062.487	56.1307
1062.843	65.16152
1063.199	88.21719
1063.555	56.12952
1063.911	78.1959
1064.267	144.2939
1064.623	56.13577
1064.979	114.26659
1065.335	105.24819
1065.691	99.23491
1066.046	102.2217
1066.402	49.11128
1066.757	76.19081
1067.112	126.30467
1067.468	57.13431
1067.823	121.28678
1068.178	48.11607
1068.533	98.23527
1068.888	113.26658
1069.243	57.1404
1069.598	67.16216
1069.952	32.07227
1070.307	33.08188
1070.662	65.15376
1071.016	-8.01813
1071.371	86.19407
1071.725	107.25301
1072.079	60.14394
1072.434	66.15977
1072.788	106.24953
1073.142	101.24593
1073.496	49.11618
1073.85	91.20917
1074.203	95.22837
1074.557	61.1618
1074.911	91.21535
1075.265	107.24575
1075.618	89.21557
1075.971	105.24694
1076.325	46.1169
1076.678	50.11426
1077.031	98.21943
1077.385	96.20928
1077.738	59.13284
1078.091	58.13158
1078.444	61.14122
1078.796	91.22141
1079.149	74.18311
1079.502	52.1227
1079.855	82.18988
1080.207	72.17653
1080.56	64.16488
1080.912	64.15528
1081.264	94.2243
1081.617	87.21041
1081.969	73.18324
1082.321	65.15815
1082.673	64.14555
1083.025	49.11618
1083.377	109.23081
1083.728	67.15567
1084.08	85.21067
1084.432	58.13956
1084.783	76.17703
1085.135	61.15246
1085.486	44.10071
1085.838	111.27007
1086.189	97.23318
1086.54	70.16639
1086.891	63.15882
1087.242	83.20066
1087.593	84.20304
1087.944	67.15098
1088.295	71.16058
1088.646	99.23754
1088.996	49.11797
1089.347	99.24052
1089.698	16.03803
1090.048	110.2825
1090.398	54.12504
1090.749	45.10768
1091.099	56.14055
1091.449	62.15398
1091.799	70.17448
1092.149	3.00737
1092.499	86.20819
1092.849	69.17463
1093.199	115.28461
1093.548	43.10337
1093.898	77.19154
1094.248	91.23195
1094.597	22.05638
1094.947	59.15702
1095.296	102.24924
1095.645	50.12993
1095.994	78.18619
1096.343	82.20498
1096.692	21.05539
1097.041	36.0976
1097.39	92.22881
1097.739	90.23211
1098.088	73.19466
1098.437	42.11038
1098.785	58.15602
1099.134	107.28115
1099.482	99.26992
1099.83	60.15726
1100.179	44.11477
1100.527	61.16164
1100.875	32.08478
1101.223	64.16939
1101.571	41.11336
1101.919	-21.05548
1102.267	41.11548
1102.615	1.00322
1102.962	14.04506
1103.31	6.01928
1103.658	8.02578
