Data from N2 R11 sample 2_Subt2__3__16-06-01-032.txt Node

Date: Mon Sep 01 16:06:01 PDT 2025
User: uwsun
Spectrometer: HDX01956
Trigger mode: 0
Integration Time (sec): 5.000000E-1
Scans to average: 1
Nonlinearity correction enabled: true
Boxcar width: 0
Storing dark spectrum: false
XAxis mode: Wavelengths
Number of Pixels in Spectrum: 2068
>>>>>Begin Spectral Data<<<<<
194.03	4.01122
194.578	-20.0634
195.127	-24.07502
195.676	-31.09727
196.225	60.15758
196.773	18.04921
197.321	24.06416
197.87	36.08849
198.418	49.1186
198.966	-8.01969
199.513	-63.14932
200.061	-79.19092
200.609	27.06763
201.156	-24.04945
201.704	-24.05707
202.251	-28.0702
202.798	-24.059
203.345	7.01637
203.892	21.04962
204.438	15.03379
204.985	9.01988
205.532	-30.07467
206.078	-2.00463
206.624	-27.06258
207.17	62.13407
207.716	-35.08032
208.262	14.02602
208.808	-53.12309
209.354	-36.0828
209.899	63.1492
210.445	1.00233
210.99	-39.08878
211.535	69.15103
212.08	-15.03304
212.625	4.00945
213.17	15.0358
213.715	-70.14748
214.259	30.06562
214.804	19.04427
215.348	25.05377
215.892	10.0226
216.436	57.12376
216.98	45.09354
217.524	-14.0313
218.068	29.06871
218.612	71.16704
219.155	8.01776
219.698	11.02474
220.242	60.14053
220.785	-17.03781
221.328	40.0938
221.871	66.1573
222.414	50.11729
222.956	-1.00227
223.499	54.11392
224.041	53.11645
224.583	60.12229
225.126	47.09734
225.668	-2.0046
226.21	-33.07903
226.751	-38.07911
227.293	42.09047
227.835	19.04371
228.376	47.1024
228.918	33.07873
229.459	-2.0047
230	-12.02711
230.541	27.05875
231.082	35.07971
231.622	45.09754
232.163	-8.01833
232.704	19.0443
233.244	-22.05179
233.784	56.12905
234.324	0
234.864	2.00429
235.404	47.10504
235.944	44.09803
236.484	26.06121
237.023	-28.06277
237.563	9.01957
238.102	10.02228
238.641	5.01193
239.18	-5.01099
239.719	3.00711
240.258	18.03812
240.797	9.02022
241.335	14.0323
241.874	49.08763
242.412	-5.01132
242.95	-9.02019
243.488	22.04713
244.026	-5.01084
244.564	11.02129
245.102	23.04828
245.64	35.07916
246.177	-14.02965
246.715	56.12544
247.252	21.0453
247.789	92.16076
248.326	-31.06997
248.863	12.02459
249.4	52.10994
249.936	-1.00193
250.473	-3.00656
251.009	-9.01932
251.546	12.02471
252.082	5.01027
252.618	-22.04604
253.154	-32.0723
253.69	-15.03175
254.226	63.13883
254.761	2.0042
255.297	-11.02255
255.832	3.00663
256.367	15.03294
256.903	51.10336
257.438	59.12827
257.972	50.10293
258.507	-29.06208
259.042	51.10222
259.576	-48.09677
260.111	17.03664
260.645	59.11782
261.179	18.03891
261.713	41.08408
262.247	-17.03672
262.781	-14.02733
263.315	1.00227
263.849	-23.05369
264.382	49.10403
264.915	-25.05454
265.449	-64.14537
265.982	41.08617
266.515	38.08533
267.048	51.09882
267.58	30.06081
268.113	6.01197
268.646	-36.08286
269.178	-58.12118
269.71	5.01013
270.243	51.107
270.775	12.02821
271.307	17.03796
271.838	120.25927
272.37	31.07014
272.902	44.09193
273.433	-4.00809
273.965	47.10478
274.496	36.0825
275.027	13.0297
275.558	24.05343
276.089	-62.14123
276.62	-7.01654
277.15	21.04781
277.681	-15.03026
278.211	19.04296
278.741	-55.11238
279.272	-9.01889
279.802	23.05274
280.332	-3.00649
280.861	-7.01552
281.391	4.0083
281.921	-14.03119
282.45	13.02987
282.98	33.07867
283.509	-38.07897
284.038	24.04981
284.567	-3.00646
285.096	31.06823
285.625	-20.04164
286.153	-7.01498
286.682	-3.00626
287.21	28.06104
287.739	9.01934
288.267	-50.11117
288.795	-27.0654
289.323	-32.06813
289.851	40.08453
290.378	-9.01838
290.906	-52.11485
291.433	-22.05005
291.961	-43.08874
292.488	-8.0181
293.015	-1.00212
293.542	4.00912
294.069	-19.04225
294.596	12.02687
295.122	37.07896
295.649	11.02183
296.175	0
296.702	-12.02637
297.228	-16.03528
297.754	-32.06493
298.28	-21.04283
298.806	-59.12854
299.332	-37.07341
299.857	-20.04043
300.383	1.00228
300.908	-81.17714
301.433	-21.04556
301.958	-7.01452
302.483	1.00221
303.008	-33.07345
303.533	-9.02103
304.058	5.01051
304.582	-24.05025
305.107	-68.15902
305.631	28.05645
306.155	-28.05767
306.679	-52.10782
307.203	-38.07809
307.727	10.02084
308.251	28.06063
308.775	-77.16162
309.298	-87.18463
309.822	-23.05121
310.345	-29.06039
310.868	16.03318
311.391	9.01936
311.914	6.01304
312.437	5.00993
312.96	-73.15099
313.482	-19.03902
314.005	-50.10974
314.527	-40.09145
315.049	-28.06177
315.571	-75.14365
316.093	9.01907
316.615	-57.11858
317.137	-44.08197
317.659	5.0104
318.18	-7.01446
318.702	-62.12355
319.223	-74.12951
319.744	15.02802
320.265	-42.0858
320.786	-58.12091
321.307	-35.0733
321.828	12.02243
322.348	-20.03909
322.869	-100.19779
323.389	-12.01568
323.909	-34.06457
324.43	0
324.95	-128.24486
325.47	-69.13952
325.989	-73.14076
326.509	-85.15108
327.029	-77.13971
327.548	-81.14599
328.067	-60.11567
328.587	-42.08428
329.106	-52.09365
329.625	-10.02131
330.144	-72.13113
330.662	-99.1809
331.181	-102.18889
331.7	-43.07818
332.218	-61.10129
332.736	-41.07382
333.255	-77.13778
333.773	-48.08662
334.291	-44.08486
334.808	-101.17012
335.326	-56.0944
335.844	-154.26953
336.361	-46.08608
336.879	-128.22119
337.396	-157.28312
337.913	-108.18097
338.43	-152.24981
338.947	-113.19543
339.464	-153.2331
339.981	-151.25767
340.497	-106.18884
341.014	-132.22993
341.53	-100.15539
342.046	-172.30072
342.562	-61.10634
343.078	-143.23417
343.594	-173.28981
344.11	-129.21101
344.626	-197.3487
345.141	-76.11396
345.657	-153.23546
346.172	-123.19894
346.687	-163.24819
347.202	-178.26208
347.717	-144.22653
348.232	-166.27755
348.747	-118.17266
349.261	-223.3048
349.776	-164.24695
350.29	-189.29758
350.805	-146.23354
351.319	-120.17332
351.833	-195.27053
352.347	-177.25781
352.861	-186.26547
353.374	-125.17486
353.888	-150.22234
354.401	-180.24835
354.915	-242.31882
355.428	-217.32865
355.941	-214.29278
356.454	-127.16442
356.967	-173.24016
357.48	-187.24975
357.993	-200.29213
358.505	-161.22552
359.018	-191.26995
359.53	-235.3231
360.042	-172.20793
360.554	-186.25463
361.066	-212.28929
361.578	-176.20143
362.09	-231.30586
362.602	-238.27593
363.113	-268.33626
363.625	-152.17212
364.136	-197.21943
364.647	-314.3712
365.158	-254.30466
365.669	-227.28051
366.18	-227.27137
366.691	-207.21905
367.201	-246.29506
367.712	-305.33798
368.222	-236.25348
368.733	-303.29536
369.243	-345.34622
369.753	-193.19685
370.263	-255.27663
370.773	-291.33225
371.282	-298.30744
371.792	-348.31194
372.301	-327.3229
372.811	-342.38684
373.32	-378.26887
373.829	-403.34138
374.338	-409.29469
374.847	-361.25179
375.356	-457.33554
375.865	-388.17594
376.373	-448.23441
376.882	-375.25397
377.39	-439.2475
377.898	-618.322
378.407	-546.16713
378.915	-519.10799
379.423	-571.14733
379.93	-549.07543
380.438	-718.1026
380.946	-686.01187
381.453	-741.97211
381.96	-862.89205
382.468	-992.75409
382.975	-818.76611
383.482	-772.69445
383.989	-967.70339
384.495	-1070.54507
385.002	-1172.39092
385.509	-1210.37508
386.015	-1224.33039
386.521	-1278.30156
387.028	-1326.30386
387.534	-1510.25906
388.04	-1236.39247
388.546	-1735.31445
389.051	-1852.54539
389.557	-2050.74522
390.063	-1650.03065
390.568	-1936.32365
391.073	-2139.04181
391.578	-2144.30495
392.084	-2375.43907
392.589	-2802.3369
393.093	-3256.92751
393.598	-3177.81223
394.103	-3384.58214
394.607	-3522.17065
395.112	-3697.55814
395.616	-4063.36431
396.12	-4632.71181
396.624	-5471.36376
397.128	-5682.27151
397.632	-6034.04527
398.136	-6661.94072
398.639	-8745.11615
399.143	-10139.21238
399.646	-10953.85919
400.15	-12328.83751
400.653	-14385.75401
401.156	-16898.12596
401.659	-20613.62693
402.162	-16403.47143
402.664	-2511.51632
403.167	-550.85797
403.67	0
404.172	0
404.674	0
405.176	0
405.678	0
406.18	0
406.682	0
407.184	0
407.686	0
408.187	0
408.688	0
409.19	0
409.691	0
410.192	0
410.693	-3145.50741
411.194	-8077.04734
411.694	-7099.82494
412.195	-6329.93107
412.696	-6727.23682
413.196	-8688.98784
413.696	-9681.39942
414.196	-7990.95516
414.696	-4964.08796
415.196	-2359.38681
415.696	1440.76075
416.196	1533.62274
416.695	-1262.28031
417.195	-3116.45326
417.694	-2789.08498
418.194	-2338.06719
418.693	-2943.45702
419.192	-2825.32911
419.691	-2575.01103
420.19	-2439.76774
420.688	-1961.19305
421.187	-1910.43306
421.685	-1304.36888
422.184	-756.55623
422.682	-871.4261
423.18	-1283.87991
423.678	-1367.7804
424.176	-1356.06308
424.674	-1233.53876
425.172	-914.054
425.669	-833.78251
426.167	-700.71721
426.664	-772.61098
427.161	-714.60429
427.659	-634.64849
428.156	-729.59556
428.652	-663.70313
429.149	-644.72196
429.646	-571.75337
430.143	-493.84998
430.639	-520.87473
431.135	-599.95147
431.632	-523.94903
432.128	-552.03108
432.624	-618.12787
433.12	-717.05936
433.616	-555.03369
434.111	-709.15595
434.607	-647.19986
435.103	-507.11196
435.598	-438.10085
436.093	-417.19868
436.588	-362.17511
437.083	-397.22848
437.578	-432.29255
438.073	-573.48882
438.568	-353.30759
439.062	-424.29439
439.557	-396.36324
440.051	-414.35731
440.546	-418.37139
441.04	-455.46799
441.534	-406.46951
442.028	-312.32986
442.522	-378.41103
443.015	-413.40036
443.509	-381.45165
444.002	-419.50553
444.496	-405.41406
444.989	-399.4936
445.482	-482.63193
445.975	-446.49429
446.468	-436.45599
446.961	-390.40415
447.454	-386.44435
447.947	-475.59736
448.439	-404.53528
448.931	-404.47035
449.424	-379.53717
449.916	-381.51241
450.408	-410.4952
450.9	-465.64127
451.392	-445.65363
451.884	-387.50227
452.375	-468.68175
452.867	-347.44909
453.358	-434.56354
453.849	-430.52014
454.341	-444.58914
454.832	-444.55695
455.323	-432.63979
455.814	-439.61677
456.304	-387.54018
456.795	-375.51973
457.285	-337.4592
457.776	-299.42157
458.266	-381.56541
458.756	-387.59783
459.247	-434.6624
459.737	-433.6654
460.226	-364.51475
460.716	-401.62713
461.206	-404.64564
461.695	-388.66059
462.185	-339.52951
462.674	-290.43884
463.163	-386.5765
463.653	-315.43258
464.142	-390.64788
464.63	-327.55385
465.119	-375.59807
465.608	-383.61469
466.096	-352.53558
466.585	-340.55856
467.073	-240.40283
467.561	-347.60497
468.05	-317.53079
468.538	-332.59919
469.026	-358.63323
469.513	-335.50895
470.001	-309.50917
470.489	-318.55338
470.976	-279.47407
471.463	-372.71235
471.951	-315.60421
472.438	-334.59601
472.925	-353.63009
473.412	-281.53457
473.899	-233.40641
474.385	-279.53335
474.872	-278.49941
475.359	-308.59121
475.845	-263.4182
476.331	-231.39165
476.817	-265.51469
477.303	-253.4649
477.789	-241.46227
478.275	-355.72175
478.761	-260.50703
479.247	-189.33716
479.732	-287.58217
480.218	-313.67724
480.703	-286.58796
481.188	-253.442
481.673	-242.45398
482.158	-309.53842
482.643	-267.57327
483.128	-290.55075
483.612	-204.39385
484.097	-215.4421
484.581	-203.39502
485.066	-244.49959
485.55	-273.50519
486.034	-238.43238
486.518	-232.45802
487.002	-248.51444
487.486	-286.60122
487.969	-292.61572
488.453	-230.50096
488.936	-244.47243
489.42	-196.37095
489.903	-209.45667
490.386	-680.09772
490.869	-162.3027
491.352	-207.44426
491.835	-173.30845
492.318	-266.52761
492.8	-246.44714
493.283	-277.6234
493.765	-270.58883
494.247	-204.42204
494.73	-225.43888
495.212	-210.45196
495.694	-249.51525
496.175	-268.56264
496.657	-168.35099
497.139	-184.28527
497.62	-280.59276
498.102	-217.47796
498.583	-218.48912
499.064	-268.53605
499.545	-183.37036
500.026	-220.44024
500.507	-246.51531
500.988	-201.44755
501.469	-267.60434
501.949	-206.45897
502.43	-254.54336
502.91	-208.38461
503.39	-195.44085
503.87	-269.57433
504.35	-218.46797
504.83	-203.39954
505.31	-248.5459
505.79	-240.5203
506.269	-210.44574
506.749	-300.63037
507.228	-253.54087
507.707	-189.37742
508.187	-209.45571
508.666	-237.52923
509.145	-252.53792
509.623	-235.50392
510.102	-234.51919
510.581	-190.41876
511.059	-272.62629
511.538	-206.48757
512.016	-188.40879
512.494	-175.38659
512.972	-205.44699
513.45	-285.60743
513.928	-197.43464
514.406	-256.56327
514.884	-214.50336
515.361	-194.42399
515.839	-203.4227
516.316	-223.49303
516.793	-163.37661
517.27	-201.44922
517.747	-207.48681
518.224	-230.4933
518.701	-198.40559
519.178	-258.59098
519.654	-173.3785
520.131	-201.45719
520.607	-181.41336
521.083	-236.50049
521.56	-227.49705
522.036	-163.32852
522.512	-168.38174
522.987	-215.46978
523.463	-198.4342
523.939	-194.44028
524.414	-182.38901
524.89	-189.41437
525.365	-192.40184
525.84	-256.56516
526.315	-207.46148
526.79	-198.41422
527.265	-163.34213
527.74	-226.51269
528.215	-243.53635
528.689	-203.41743
529.164	-174.35045
529.638	-181.43113
530.112	-240.52829
530.587	-230.45791
531.061	-229.51433
531.534	-143.3196
532.008	-206.46011
532.482	-209.44913
532.956	-240.57066
533.429	-163.36535
533.903	-146.29893
534.376	-152.31051
534.849	-174.37481
535.322	-198.43621
535.795	-195.44462
536.268	-187.41793
536.741	-156.34743
537.213	-171.36795
537.686	-157.35277
538.158	-191.39736
538.631	-143.32237
539.103	-186.38739
539.575	-134.25895
540.047	-103.20779
540.519	-110.24214
540.991	-113.25505
541.463	-146.32745
541.934	-93.19477
542.406	-141.30992
542.877	-126.26219
543.348	-62.13654
543.82	-68.15239
544.291	-74.15817
544.762	-87.18793
545.233	-94.21498
545.703	-97.19568
546.174	-49.10312
546.645	-89.19225
547.115	-53.11522
547.585	-20.04127
548.056	-49.10557
548.526	-12.02502
548.996	3.00642
549.466	40.0865
549.935	15.03115
550.405	36.0688
550.875	41.0848
551.344	51.107
551.814	79.15739
552.283	104.1951
552.752	53.10662
553.221	111.20447
553.69	212.39162
554.159	139.28905
554.628	183.34033
555.096	232.49007
555.565	309.55981
556.033	331.64012
556.502	328.65576
556.97	373.67199
557.438	358.6998
557.906	476.91197
558.374	476.87894
558.842	465.90144
559.31	570.00321
559.777	579.10368
560.245	679.23708
560.712	733.29522
561.18	810.3186
561.647	839.37935
562.114	864.44147
562.581	1011.79898
563.048	1109.77275
563.514	1084.87421
563.981	1259.91174
564.448	1308.903
564.914	1392.08515
565.381	1516.12476
565.847	1582.26193
566.313	1724.33921
566.779	1806.27538
567.245	1937.47238
567.711	2045.6107
568.176	2135.37271
568.642	2268.8906
569.108	2334.8213
569.573	2534.68169
570.038	2665.16119
570.504	2819.39788
570.969	2933.99188
571.434	3045.24182
571.899	3298.61645
572.363	3339.36412
572.828	3482.35896
573.293	3686.26669
573.757	3818.21083
574.222	3948.95555
574.686	4019.93624
575.15	4067.26849
575.614	4232.97231
576.078	4336.04612
576.542	4380.86087
577.006	4476.73809
577.469	4555.31601
577.933	4543.6399
578.396	4555.03192
578.86	4674.90645
579.323	4608.99036
579.786	4570.45731
580.249	4484.78888
580.712	4536.23099
581.175	4459.31883
581.637	4394.96216
582.1	4318.73099
582.563	4255.65608
583.025	4190.35353
583.487	4178.35201
583.95	3968.76323
584.412	4105.61383
584.874	3838.54814
585.336	3919.36377
585.797	3765.92997
586.259	3712.46378
586.721	3563.46331
587.182	3577.49097
587.643	3404.36819
588.105	3342.61087
588.566	3259.04655
589.027	3183.72421
589.488	3151.46849
589.949	3056.81567
590.41	3011.75784
590.87	2893.54512
591.331	2931.27091
591.791	2863.56907
592.252	2810.51719
592.712	2715.79839
593.172	2662.47581
593.632	2691.37709
594.092	2654.44033
594.552	2545.28965
595.011	2484.54413
595.471	2534.45562
595.931	2435.43015
596.39	2564.75553
596.849	2446.62072
597.308	2465.33508
597.768	2436.03235
598.227	2449.7873
598.685	2483.59063
599.144	2504.64988
599.603	2569.72235
600.062	2686.15861
600.52	2599.42525
600.978	2711.73047
601.437	2732.56684
601.895	2845.18574
602.353	2925.39435
602.811	3011.36562
603.269	3061.74353
603.727	3136.72707
604.184	3224.36277
604.642	3310.81445
605.099	3556.42294
605.557	3606.69966
606.014	3645.96304
606.471	3797.72452
606.928	3980.74183
607.385	4063.4081
607.842	4338.93212
608.299	4557.94028
608.755	4595.10854
609.212	4775.51149
609.668	4842.42778
610.125	5051.88972
610.581	5228.74998
611.037	5347.4593
611.493	5424.61771
611.949	5539.63253
612.405	5640.65164
612.861	5729.48032
613.316	5782.50067
613.772	5956.23482
614.227	6048.34755
614.683	6170.87209
615.138	6151.2809
615.593	6141.25441
616.048	6192.19304
616.503	6241.58882
616.958	6158.70594
617.412	6201.3637
617.867	6061.02439
618.321	6043.76867
618.776	5927.11101
619.23	5920.4287
619.684	5833.27281
620.138	5791.46079
620.592	5607.79655
621.046	5510.65428
621.5	5429.90034
621.954	5310.52758
622.407	5105.56737
622.861	4971.17456
623.314	4867.84363
623.768	4696.07348
624.221	4604.21581
624.674	4460.15414
625.127	4426.28118
625.58	4360.19594
626.033	4194.10512
626.485	4070.62426
626.938	4072.61773
627.39	3970.5272
627.843	3820.57489
628.295	3785.59291
628.747	3726.79397
629.199	3540.60492
629.651	3495.61854
630.103	3442.69251
630.555	3251.34731
631.006	3322.88946
631.458	3221.94737
631.909	3260.82436
632.361	3173.91699
632.812	3051.87608
633.263	3044.53543
633.714	2996.524
634.165	3011.19299
634.616	2923.08647
635.067	2952.736
635.518	2943.12376
635.968	2948.26284
636.419	2916.64398
636.869	2817.1231
637.319	2835.96259
637.769	2802.79325
638.219	2906.17165
638.669	2753.13969
639.119	2831.29095
639.569	2836.2213
640.019	2808.00363
640.468	2861.82001
640.918	2930.24294
641.367	2864.84954
641.816	2872.83765
642.265	2978.01267
642.714	3015.0144
643.163	3045.97999
643.612	3041.20832
644.061	3052.52914
644.51	3084.9219
644.958	3091.72868
645.406	3125.20618
645.855	3043.37516
646.303	3122.09264
646.751	3148.91412
647.199	3160.92181
647.647	3264.966
648.095	3202.95853
648.543	3282.35653
648.99	3198.20977
649.438	3241.12715
649.885	3294.44034
650.333	3299.08303
650.78	3192.2915
651.227	3260.33104
651.674	3240.93849
652.121	3256.34191
652.568	3288.32161
653.015	3234.61647
653.461	3259.1978
653.908	3172.09813
654.354	3205.24928
654.801	3126.13661
655.247	3122.78281
655.693	3264.83556
656.139	3130.28549
656.585	3136.29244
657.031	3034.11397
657.477	3056.7018
657.922	3105.04812
658.368	3146.48598
658.813	3133.13328
659.259	3165.29961
659.704	3127.12659
660.149	3151.12848
660.594	3096.25109
661.039	3070.01344
661.484	3173.30128
661.929	3083.17569
662.373	3158.63872
662.818	3116.53803
663.262	3070.34694
663.707	3101.68538
664.151	3246.44131
664.595	3173.3595
665.039	3243.57142
665.483	3256.72234
665.927	3229.223
666.371	3212.09428
666.814	3371.29099
667.258	3271.22648
667.701	3455.67043
668.145	3425.56832
668.588	3454.46028
669.031	3423.16645
669.474	3390.3478
669.917	3591.77593
670.36	3519.52507
670.803	3540.34275
671.245	3556.50424
671.688	3533.42071
672.13	3576.84436
672.573	3636.6923
673.015	3736.25051
673.457	3642.65973
673.899	3720.32561
674.341	3749.28516
674.783	3734.23727
675.225	3745.41859
675.666	3747.24394
676.108	3878.5568
676.549	3808.14926
676.991	3892.64231
677.432	3773.11472
677.873	3811.98924
678.314	3778.21344
678.755	3908.2951
679.196	3850.90157
679.637	3883.35051
680.078	3964.01572
680.518	3895.02241
680.959	3870.20722
681.399	3823.47234
681.839	3885.31824
682.28	3779.44715
682.72	3783.93152
683.16	3828.50222
683.6	3798.92006
684.039	3894.32294
684.479	3914.36467
684.919	3843.94315
685.358	3900.63719
685.798	4023.84671
686.237	3967.25436
686.676	4028.94441
687.115	3964.04689
687.554	3961.11925
687.993	4045.6143
688.432	4003.84016
688.871	4038.77065
689.309	4021.13369
689.748	4101.25089
690.186	4132.09836
690.625	4170.93214
691.063	4154.10563
691.501	4060.37898
691.939	4193.38041
692.377	4221.20067
692.815	4157.08089
693.253	4270.0824
693.69	4263.46167
694.128	4241.1349
694.565	4334.98498
695.003	4305.47713
695.44	4325.878
695.877	4348.81652
696.314	4310.31143
696.751	4388.65343
697.188	4469.64158
697.625	4349.72316
698.061	4292.04496
698.498	4450.0418
698.934	4470.98884
699.371	4386.85516
699.807	4455.86293
700.243	4443.99107
700.679	4490.54339
701.115	4549.79157
701.551	4494.81545
701.987	4462.51567
702.422	4503.86097
702.858	4605.83236
703.294	4591.49031
703.729	4491.10172
704.164	4523.95468
704.599	4543.39941
705.035	4585.39878
705.47	4543.01674
705.904	4599.66958
706.339	4704.61984
706.774	4656.67923
707.209	4644.57117
707.643	4642.87501
708.078	4696.94811
708.512	4646.1783
708.946	4691.83888
709.38	4744.71923
709.814	4769.45105
710.248	4809.89735
710.682	4761.73063
711.116	4734.75478
711.549	4682.43712
711.983	4623.60047
712.416	4700.73193
712.85	4764.10145
713.283	4650.75977
713.716	4782.16301
714.149	4711.78865
714.582	4620.4078
715.015	4641.21191
715.448	4628.26847
715.881	4705.20019
716.313	4552.73966
716.746	4520.78663
717.178	4559.92331
717.61	4515.37719
718.043	4533.22602
718.475	4475.03472
718.907	4547.35452
719.339	4473.54121
719.77	4399.89542
720.202	4332.43997
720.634	4326.12894
721.065	4219.99534
721.497	4218.24661
721.928	4225.24928
722.359	4177.12705
722.79	4100.11593
723.221	4095.51257
723.652	4082.72498
724.083	3980.76143
724.514	3985.88762
724.945	3894.07903
725.375	3972.94686
725.806	3803.55935
726.236	3791.76239
726.666	3818.16229
727.096	3787.43028
727.526	3747.69709
727.956	3705.92341
728.386	3710.4803
728.816	3549.71463
729.246	3506.42989
729.675	3543.51134
730.105	3453.54153
730.534	3445.19798
730.964	3449.73825
731.393	3463.61298
731.822	3306.82506
732.251	3232.78153
732.68	3309.27922
733.109	3237.57456
733.537	3085.44843
733.966	3143.63146
734.395	3100.17407
734.823	3034.05111
735.251	3011.43466
735.68	3024.69545
736.108	2951.75127
736.536	2949.31016
736.964	2811.20587
737.392	2812.65806
737.82	2782.39995
738.247	2731.38086
738.675	2825.38403
739.102	2649.60383
739.53	2657.72202
739.957	2629.77859
740.384	2632.53596
740.811	2595.68115
741.238	2527.43371
741.665	2537.15646
742.092	2459.2979
742.519	2418.46521
742.945	2356.28195
743.372	2371.45057
743.798	2350.65049
744.225	2265.19183
744.651	2221.44336
745.077	2190.39152
745.503	2168.27085
745.929	2120.15971
746.355	2170.3734
746.781	2068.28185
747.207	1992.97307
747.632	1958.11878
748.058	2005.2688
748.483	1926.85759
748.908	1937.19468
749.334	1991.18359
749.759	1848.89762
750.184	1831.92376
750.609	1829.05734
751.033	1876.93541
751.458	1811.6787
751.883	1762.03234
752.307	1714.7803
752.732	1613.90739
753.156	1605.8594
753.58	1646.75643
754.005	1625.9911
754.429	1550.62113
754.853	1583.84588
755.277	1586.68243
755.7	1501.76064
756.124	1451.70011
756.548	1432.52307
756.971	1409.59727
757.394	1416.79063
757.818	1402.76684
758.241	1326.6154
758.664	1298.56127
759.087	1234.11763
759.51	1298.5161
759.933	1198.27792
760.356	1243.53173
760.778	1249.41119
761.201	1231.35718
761.623	1131.21093
762.046	1174.21172
762.468	1162.22848
762.89	1076.17388
763.312	1140.23955
763.734	1082.11644
764.156	1064.15449
764.578	1059.97596
765	1045.0953
765.421	935.01017
765.843	971.15351
766.264	954.93297
766.686	916.95711
767.107	894.84013
767.528	800.75846
767.949	843.85417
768.37	829.75627
768.791	845.75593
769.212	775.70241
769.632	735.49731
770.053	756.76004
770.473	728.55991
770.894	729.61404
771.314	779.61939
771.734	685.4124
772.154	682.56651
772.575	651.34522
772.994	610.24263
773.414	675.44282
773.834	626.4114
774.254	623.37344
774.673	587.29722
775.093	577.29843
775.512	555.24835
775.931	598.37617
776.351	512.17147
776.77	498.1234
777.189	534.162
777.607	537.25994
778.026	499.14831
778.445	442.03249
778.864	491.16798
779.282	504.11657
779.701	471.10359
780.119	483.13131
780.537	417.97823
780.955	430.02559
781.373	423.98223
781.791	411.86453
782.209	438.94179
782.627	407.01027
783.045	424.91169
783.462	369.89531
783.88	352.86767
784.297	391.92942
784.715	358.87433
785.132	355.81655
785.549	297.71444
785.966	298.72078
786.383	348.81466
786.8	364.80053
787.217	316.71654
787.633	275.66228
788.05	417.92918
788.466	354.79291
788.883	257.63483
789.299	309.71303
789.715	282.66044
790.131	259.62352
790.547	301.72214
790.963	283.6769
791.379	279.6803
791.795	258.56934
792.21	289.64934
792.626	266.60955
793.041	209.50393
793.457	221.53245
793.872	256.58216
794.287	224.5201
794.702	250.59718
795.117	163.39881
795.532	167.41178
795.947	235.54985
796.362	239.55438
796.776	265.59981
797.191	158.38133
797.605	148.34297
798.02	202.4805
798.434	218.47281
798.848	209.5024
799.262	165.4028
799.676	215.51172
800.09	181.43708
800.504	194.46094
800.918	173.39382
801.331	205.52563
801.745	140.31812
802.158	162.39879
802.572	192.45619
802.985	201.47509
803.398	191.44603
803.811	215.53946
804.224	168.41142
804.637	138.32511
805.05	186.42247
805.462	145.352
805.875	80.20703
806.288	85.20472
806.7	159.39364
807.112	153.34984
807.525	163.39599
807.937	113.2774
808.349	126.3128
808.761	138.3357
809.173	108.26026
809.584	160.38951
809.996	115.27949
810.408	88.2264
810.819	88.2066
811.231	68.17574
811.642	79.18818
812.053	110.25986
812.464	161.37657
812.875	133.33625
813.286	169.42756
813.697	193.44148
814.108	147.35445
814.519	152.33389
814.929	142.35778
815.34	97.23433
815.75	81.20544
816.16	122.30144
816.571	109.28125
816.981	151.35152
817.391	150.35709
817.801	108.26645
818.211	138.32511
818.62	135.3212
819.03	93.22712
819.44	115.29807
819.849	98.24578
820.259	122.30948
820.668	88.21575
821.077	71.1763
821.486	172.40663
821.895	139.33933
822.304	139.36387
822.713	91.21443
823.122	131.32337
823.531	100.23587
823.939	130.31328
824.348	108.26086
824.756	108.26871
825.164	131.3261
825.573	91.22744
825.981	122.29978
826.389	134.33278
826.797	92.22948
827.205	73.16753
827.612	123.30061
828.02	73.17135
828.428	96.24327
828.835	94.2462
829.243	131.30868
829.65	77.19113
830.057	101.24372
830.464	99.23988
830.871	102.24282
831.278	119.28498
831.685	120.26526
832.092	121.29341
832.499	127.27469
832.905	141.35227
833.312	117.26451
833.718	89.22091
834.124	114.25831
834.531	101.25307
834.937	84.2149
835.343	111.26572
835.749	150.34499
836.155	103.26789
836.561	62.15263
836.966	117.2835
837.372	82.20809
837.777	68.16931
838.183	95.21022
838.588	90.22245
838.993	86.20866
839.399	74.18062
839.804	34.08333
840.209	54.13767
840.613	87.19284
841.018	84.21195
841.423	85.21719
841.828	79.19923
842.232	102.251
842.637	80.18825
843.041	57.14621
843.445	102.25405
843.849	49.12163
844.253	123.28916
844.657	78.19583
845.061	87.19661
845.465	62.14981
845.869	79.18311
846.272	41.10024
846.676	103.24732
847.079	74.18772
847.483	151.37069
847.886	99.23934
848.289	84.22322
848.692	62.157
849.095	105.25021
849.498	152.37913
849.901	117.26559
850.304	63.15059
850.707	105.26565
851.109	130.32497
851.512	51.12557
851.914	35.08858
852.316	95.23881
852.718	29.07525
853.121	19.04692
853.523	110.25471
853.925	54.14095
854.326	70.17467
854.728	61.1568
855.13	62.15979
855.531	88.20917
855.933	117.27794
856.334	27.0677
856.736	65.14551
857.137	84.19443
857.538	46.11591
857.939	71.17501
858.34	107.25849
858.741	66.17228
859.142	95.22673
859.542	90.23612
859.943	88.21751
860.343	34.08456
860.744	112.27062
861.144	53.12944
861.544	70.16786
861.945	63.16041
862.345	92.22364
862.745	55.13677
863.145	116.27435
863.544	64.16155
863.944	112.26191
864.344	85.21013
864.743	117.28722
865.143	95.2424
865.542	50.11619
865.941	90.22147
866.34	111.26329
866.74	60.16093
867.139	72.17193
867.537	74.18799
867.936	81.19413
868.335	57.14503
868.734	50.12792
869.132	61.14167
869.531	108.25879
869.929	35.08016
870.327	41.0986
870.726	126.31029
871.124	120.27709
871.522	75.19043
871.92	77.18924
872.318	74.18035
872.715	78.19237
873.113	61.14853
873.511	79.19602
873.908	26.06598
874.306	55.13682
874.703	101.2507
875.1	74.18872
875.497	88.20974
875.894	25.0616
876.291	51.12529
876.688	80.20546
877.085	69.16518
877.482	82.20432
877.878	82.19641
878.275	94.23719
878.671	116.25524
879.068	58.13998
879.464	92.22087
879.86	97.22759
880.256	108.264
880.652	75.19009
881.048	70.17302
881.444	120.28216
881.84	72.18245
882.236	74.18545
882.631	94.2291
883.027	109.26133
883.422	72.18356
883.817	37.09328
884.213	78.19934
884.608	24.05919
885.003	45.10871
885.398	60.15004
885.793	72.18018
886.188	50.1244
886.582	114.2894
886.977	93.21914
887.371	96.24102
887.766	40.09974
888.16	136.33442
888.554	128.31231
888.949	88.21966
889.343	72.17535
889.737	64.17024
890.131	107.26588
890.525	80.20366
890.918	84.21029
891.312	81.19287
891.706	77.20123
892.099	90.22758
892.492	101.21583
892.886	79.19243
893.279	47.11988
893.672	55.13999
894.065	58.14515
894.458	59.14826
894.851	54.13235
895.244	98.24834
895.637	90.21533
896.029	63.1538
896.422	69.16814
896.814	52.12933
897.206	28.06702
897.599	120.29323
897.991	82.19724
898.383	62.1463
898.775	85.19068
899.167	56.13055
899.559	112.28058
899.951	118.27475
900.342	94.23736
900.734	8.02001
901.125	115.29858
901.517	24.05923
901.908	101.24003
902.299	65.15857
902.69	89.20858
903.082	63.15231
903.473	76.18121
903.863	56.14282
904.254	88.20288
904.645	140.34273
905.036	80.19272
905.426	108.24461
905.817	69.16883
906.207	81.19198
906.597	65.15168
906.987	56.14508
907.378	99.24833
907.768	75.19754
908.158	52.12683
908.547	53.1369
908.937	87.22191
909.327	95.22889
909.717	62.15717
910.106	38.09154
910.495	99.2451
910.885	104.26101
911.274	55.13741
911.663	97.24427
912.052	83.20368
912.441	74.18746
912.83	66.15113
913.219	113.29269
913.608	81.19738
913.997	47.11794
914.385	114.2692
914.774	60.14591
915.162	64.15219
915.55	84.20205
915.939	34.0861
916.327	71.17662
916.715	86.21785
917.103	88.21519
917.491	63.15558
917.878	70.17156
918.266	58.15026
918.654	86.2184
919.041	31.08121
919.429	43.10168
919.816	69.17439
920.203	71.17159
920.591	97.23857
920.978	131.31611
921.365	85.22176
921.752	90.21302
922.139	76.1642
922.525	63.15099
922.912	86.20842
923.299	88.21727
923.685	67.17432
924.072	98.22395
924.458	90.22139
924.844	42.10412
925.231	66.15319
925.617	44.11205
926.003	107.27081
926.389	74.18592
926.774	101.25371
927.16	112.2751
927.546	48.12259
927.931	75.18636
928.317	83.19002
928.702	86.20214
929.088	74.17427
929.473	69.17501
929.858	28.06799
930.243	69.16505
930.628	61.14814
931.013	103.25286
931.398	72.16493
931.783	65.17074
932.167	66.16092
932.552	87.21658
932.937	89.21938
933.321	49.123
933.705	82.20558
934.09	108.27017
934.474	112.26294
934.858	56.14513
935.242	62.14339
935.626	52.13308
936.009	54.14355
936.393	96.24232
936.777	65.16603
937.16	59.1533
937.544	81.18975
937.927	61.1545
938.311	94.22764
938.694	115.30084
939.077	44.10547
939.46	91.22183
939.843	118.24259
940.226	46.1181
940.609	46.10571
940.991	43.1096
941.374	99.23979
941.757	117.2852
942.139	39.08781
942.522	128.29803
942.904	57.13687
943.286	92.23206
943.668	49.12696
944.05	85.20805
944.432	60.14781
944.814	72.17666
945.196	57.13874
945.578	52.12356
945.959	117.27065
946.341	108.26233
946.722	96.22335
947.104	51.1219
947.485	82.18965
947.866	64.16085
948.247	32.081
948.628	90.21795
949.009	72.18368
949.39	104.2564
949.771	74.17135
950.152	71.17359
950.532	-8.01989
950.913	94.2249
951.293	32.0867
951.674	31.07526
952.054	67.16551
952.434	95.23391
952.814	76.17996
953.194	98.2544
953.574	144.34859
953.954	22.05254
954.334	66.16403
954.714	27.06609
955.093	143.34558
955.473	41.1027
955.853	80.20603
956.232	95.25851
956.611	110.26086
956.99	36.09071
957.37	73.18528
957.749	74.17576
958.128	108.26929
958.506	51.13228
958.885	55.13871
959.264	41.10065
959.643	85.19209
960.021	71.17527
960.4	79.17802
960.778	126.30605
961.156	53.1328
961.535	60.1396
961.913	68.15858
962.291	37.09514
962.669	58.14672
963.047	56.14277
963.424	60.15286
963.802	68.16666
964.18	98.24586
964.557	92.21015
964.935	109.25535
965.312	40.10434
965.69	74.18452
966.067	82.19851
966.444	65.15975
966.821	72.18491
967.198	114.27327
967.575	104.25318
967.952	75.1759
968.329	85.2055
968.705	93.19762
969.082	113.2866
969.458	28.06745
969.835	67.16259
970.211	79.20172
970.587	83.20542
970.963	104.26429
971.339	80.20782
971.715	58.14462
972.091	112.27266
972.467	77.19113
972.843	50.12409
973.219	147.34652
973.594	35.09178
973.97	103.24271
974.345	58.13861
974.721	94.22576
975.096	35.08494
975.471	82.19334
975.846	99.23564
976.221	64.16212
976.596	95.22577
976.971	80.19643
977.346	79.18289
977.72	74.18772
978.095	107.27379
978.469	76.18051
978.844	93.23202
979.218	75.17893
979.593	134.31594
979.967	88.21287
980.341	108.24581
980.715	73.18318
981.089	44.11027
981.463	65.14881
981.837	75.18241
982.21	161.36651
982.584	55.13272
982.957	59.14709
983.331	109.25475
983.704	85.20751
984.078	101.24657
984.451	144.35357
984.824	35.08548
985.197	106.25477
985.57	72.17986
985.943	111.27108
986.316	139.33592
986.688	100.23889
987.061	85.19788
987.434	82.2125
987.806	77.18581
988.179	66.15525
988.551	68.17195
988.923	88.21519
989.295	103.25491
989.667	34.08147
990.039	77.18931
990.411	43.09912
990.783	83.18986
991.155	28.06755
991.527	164.39536
991.898	52.12952
992.27	80.19679
992.641	105.26081
993.012	111.2581
993.384	39.09322
993.755	65.16527
994.126	76.1819
994.497	51.12516
994.868	103.2341
995.239	58.14035
995.61	63.15814
995.98	56.13587
996.351	48.1189
996.722	45.10447
997.092	51.12074
997.462	-4.00944
997.833	89.20939
998.203	125.29878
998.573	75.18589
998.943	56.13116
999.313	62.14822
999.683	62.14845
1000.053	101.23002
1000.423	98.23599
1000.792	49.12701
1001.162	57.14009
1001.531	47.11594
1001.901	67.16649
1002.27	98.2169
1002.639	63.16058
1003.009	57.13536
1003.378	71.18085
1003.747	101.23624
1004.116	41.09826
1004.485	115.2714
1004.853	82.20654
1005.222	80.20063
1005.591	119.27877
1005.959	43.09702
1006.328	66.14803
1006.696	56.1349
1007.064	96.23946
1007.433	100.24762
1007.801	103.25033
1008.169	83.20834
1008.537	84.18467
1008.905	22.05153
1009.273	119.29019
1009.64	73.17335
1010.008	80.18957
1010.375	144.34347
1010.743	188.42216
1011.11	46.10892
1011.478	71.17501
1011.845	74.17319
1012.212	64.14443
1012.579	86.20968
1012.946	95.22412
1013.313	108.25414
1013.68	128.28306
1014.047	23.05508
1014.414	36.08524
1014.78	81.2001
1015.147	85.20418
1015.513	67.16088
1015.88	101.2559
1016.246	89.21808
1016.612	133.29934
1016.978	80.1949
1017.344	78.19173
1017.71	121.29109
1018.076	128.29721
1018.442	99.25243
1018.808	48.11999
1019.174	74.18478
1019.539	165.37105
1019.905	59.13887
1020.27	52.12825
1020.636	80.19067
1021.001	114.26951
1021.366	38.09144
1021.731	81.20712
1022.096	31.07843
1022.461	78.18355
1022.826	81.19131
1023.191	42.1103
1023.556	92.21379
1023.92	99.24115
1024.285	100.24172
1024.649	79.1925
1025.014	88.21639
1025.378	55.13811
1025.742	48.11921
1026.107	95.21285
1026.471	96.22203
1026.835	62.1533
1027.199	67.1607
1027.562	88.20296
1027.926	81.19686
1028.29	69.17395
1028.654	108.24551
1029.017	78.19067
1029.381	55.13121
1029.744	75.19036
1030.107	86.20198
1030.471	42.10068
1030.834	57.12944
1031.197	114.27118
1031.56	74.17373
1031.923	61.15735
1032.286	75.17522
1032.648	115.27151
1033.011	30.06911
1033.374	144.33211
1033.736	52.13661
1034.099	73.17709
1034.461	54.13626
1034.823	58.14415
1035.185	84.21006
1035.548	116.2787
1035.91	76.18107
1036.272	96.21637
1036.634	126.30376
1036.995	72.16844
1037.357	89.21484
1037.719	58.14078
1038.08	103.24195
1038.442	58.13739
1038.803	76.18148
1039.165	84.21059
1039.526	62.14941
1039.887	77.1832
1040.248	46.11337
1040.609	69.16983
1040.97	78.18953
1041.331	78.19639
1041.692	69.16038
1042.053	120.26925
1042.413	89.20572
1042.774	112.26909
1043.134	111.26105
1043.495	112.27825
1043.855	79.19049
1044.215	83.20466
1044.576	71.16899
1044.936	128.28873
1045.296	126.30995
1045.656	110.26679
1046.016	137.32508
1046.375	92.22129
1046.735	63.14237
1047.095	63.14701
1047.454	97.20333
1047.814	69.16518
1048.173	105.24809
1048.533	61.13937
1048.892	2.00484
1049.251	77.19224
1049.61	76.18613
1049.969	46.10846
1050.328	74.15954
1050.687	70.16958
1051.046	132.31629
1051.405	45.11198
1051.763	49.11263
1052.122	35.08748
1052.48	79.19258
1052.839	87.20309
1053.197	86.20088
1053.555	117.263
1053.914	90.21836
1054.272	133.31632
1054.63	48.11734
1054.988	76.17954
1055.345	62.13309
1055.703	102.24292
1056.061	49.126
1056.419	34.0882
1056.776	99.23772
1057.134	64.14767
1057.491	84.20892
1057.848	28.06994
1058.206	49.11519
1058.563	70.15357
1058.92	80.18319
1059.277	46.11349
1059.634	92.21455
1059.991	103.24412
1060.348	51.11516
1060.704	43.10255
1061.061	93.21411
1061.418	77.18567
1061.774	63.15506
1062.131	58.15305
1062.487	66.15374
1062.843	76.18847
1063.199	38.09465
1063.555	69.15917
1063.911	100.25016
1064.267	116.23826
1064.623	50.12136
1064.979	153.35505
1065.335	129.3035
1065.691	83.19756
1066.046	60.13158
1066.402	41.09326
1066.757	47.11862
1067.112	76.1855
1067.468	53.12499
1067.823	86.20521
1068.178	97.23238
1068.533	117.27987
1068.888	90.21327
1069.243	79.1938
1069.598	73.17649
1069.952	15.034
1070.307	30.07448
1070.662	87.20493
1071.016	38.0853
1071.371	45.1024
1071.725	80.19016
1072.079	93.2217
1072.434	61.14781
1072.788	77.18229
1073.142	100.24354
1073.496	74.17461
1073.85	99.22719
1074.203	108.25898
1074.557	64.16967
1074.911	153.35772
1075.265	82.18927
1075.618	117.2819
1075.971	99.2331
1076.325	63.15962
1076.678	46.10521
1077.031	74.16652
1077.385	99.21568
1077.738	120.26681
1078.091	8.01833
1078.444	133.3035
1078.796	41.10069
1079.149	93.22932
1079.502	70.16459
1079.855	81.1876
1080.207	87.21271
1080.56	56.14447
1080.912	112.26929
1081.264	103.24535
1081.617	95.22941
1081.969	53.13352
1082.321	87.21081
1082.673	47.10725
1083.025	101.23707
1083.377	-118.26226
1083.728	88.20361
1084.08	69.17152
1084.432	95.22699
1084.783	148.33984
1085.135	71.17713
1085.486	34.07798
1085.838	78.19095
1086.189	79.19056
1086.54	134.31459
1086.891	63.15882
1087.242	83.20066
1087.593	111.26694
1087.944	89.19965
1088.295	67.15166
1088.646	87.20922
1088.996	68.16313
1089.347	47.1153
1089.698	71.16698
1090.048	75.19379
1090.398	71.16385
1090.749	103.24374
1091.099	53.13309
1091.449	106.26114
1091.799	113.27946
1092.149	12.02944
1092.499	64.15557
1092.849	48.12194
1093.199	87.21642
1093.548	47.1129
1093.898	81.20135
1094.248	89.22693
1094.597	29.07423
1094.947	58.15438
1095.296	69.16964
1095.645	64.16591
1095.994	82.19559
1096.343	71.17784
1096.692	43.11299
1097.041	68.1834
1097.39	122.30177
1097.739	62.16067
1098.088	100.26547
1098.437	59.15461
1098.785	80.21443
1099.134	105.27599
1099.482	85.23227
1099.83	81.21154
1100.179	45.11736
1100.527	110.28908
1100.875	84.22061
1101.223	67.17724
1101.571	59.16266
1101.919	45.11756
1102.267	59.16573
1102.615	2.00643
1102.962	16.05148
1103.31	-1.00322
1103.658	24.07718
