Data from N2 R11 sample 12_Subt2__2__15-49-10-051.txt Node

Date: Mon Sep 01 15:49:10 PDT 2025
User: uwsun
Spectrometer: HDX01956
Trigger mode: 0
Integration Time (sec): 5.000000E-1
Scans to average: 1
Nonlinearity correction enabled: true
Boxcar width: 0
Storing dark spectrum: false
XAxis mode: Wavelengths
Number of Pixels in Spectrum: 2068
>>>>>Begin Spectral Data<<<<<
194.03	-56.15853
194.578	-75.23934
195.127	-61.19155
195.676	-68.21435
196.225	19.05025
196.773	-11.03021
197.321	-76.20651
197.87	-125.31636
198.418	-88.21847
198.966	-126.31679
199.513	-162.39128
200.061	-140.34222
200.609	-108.27708
201.156	-180.3839
201.704	-116.28071
202.251	-128.32666
202.798	-134.33606
203.345	-73.17335
203.892	-87.20986
204.438	-108.24938
204.985	-96.21673
205.532	-141.358
206.078	-102.24077
206.624	-140.33175
207.17	-93.20777
207.716	-121.28246
208.262	-126.24232
208.808	-162.38432
209.354	-107.24958
209.899	-95.23184
210.445	-127.30298
210.99	-141.32759
211.535	-98.22206
212.08	-106.23793
212.625	-97.23354
213.17	-66.15995
213.715	-161.34599
214.259	-85.19044
214.804	-65.15394
215.348	-91.20061
215.892	-92.21227
216.436	-72.16062
216.98	-39.08258
217.524	-97.22055
218.068	-89.21565
218.612	-96.23318
219.155	-75.16935
219.698	-53.12075
220.242	-83.19983
220.785	-91.20548
221.328	-69.16524
221.871	-17.04116
222.414	-64.15347
222.956	-159.37291
223.499	-93.20253
224.041	-34.07607
224.583	-22.04568
225.126	-109.23364
225.668	-93.21795
226.21	-127.30958
226.751	-135.28711
227.293	-83.18359
227.835	-88.20676
228.376	-95.2132
228.918	-53.12852
229.459	-83.19816
230	-119.27473
230.541	-89.19842
231.082	-93.21727
231.622	-77.17124
232.163	-116.27158
232.704	-74.17569
233.244	-88.20982
233.784	-72.17015
234.324	-139.29536
234.864	-88.19225
235.404	-106.24438
235.944	-54.12276
236.484	-68.163
237.023	-93.21128
237.563	-95.2111
238.102	-94.21394
238.641	-83.20142
239.18	-132.29788
239.719	-85.2048
240.258	-70.15111
240.797	-122.28149
241.335	-41.09564
241.874	-104.19336
242.412	-95.21897
242.95	-110.25188
243.488	-82.17959
244.026	-83.1829
244.564	-94.18653
245.102	-61.13041
245.64	-79.18282
246.177	-96.20697
246.715	-52.11907
247.252	-95.21004
247.789	-9.01615
248.326	-120.27577
248.863	-40.08294
249.4	-75.16298
249.936	-97.19172
250.473	-102.22754
251.009	-135.29761
251.546	-101.21331
252.082	-108.22744
252.618	-68.14377
253.154	-98.2244
253.69	-114.24652
254.226	-120.27456
254.761	-89.19077
255.297	-95.19843
255.832	-120.2719
256.367	-75.16783
256.903	-100.20967
257.438	-92.20642
257.972	-105.2237
258.507	-143.31366
259.042	-110.22869
259.576	-164.33944
260.111	-76.16709
260.645	-50.10238
261.179	-130.28989
261.713	-130.2769
262.247	-61.13301
262.781	-136.27316
263.315	-116.26999
263.849	-97.22972
264.382	-61.13261
264.915	-111.24654
265.449	-203.47405
265.982	-96.20786
266.515	-88.20272
267.048	-133.26905
267.58	-50.10321
268.113	-136.28035
268.646	-65.15048
269.178	-151.32198
269.71	-87.17995
270.243	-77.16611
270.775	-103.24751
271.307	-78.1776
271.838	-58.13008
272.37	-105.24415
272.902	-110.23766
273.433	-120.24915
273.965	-111.25555
274.496	-104.24502
275.027	-145.3418
275.558	-123.28215
276.089	-185.43185
276.62	-112.27001
277.15	-113.2642
277.681	-93.19098
278.211	-88.20328
278.741	-178.37386
279.272	-134.28902
279.802	-111.26135
280.332	-145.32327
280.861	-114.25841
281.391	-126.26908
281.921	-132.30128
282.45	-120.28304
282.98	-140.34476
283.509	-69.14438
284.038	-129.27686
284.567	-69.15058
285.096	-140.31915
285.625	-112.23794
286.153	-110.24061
286.682	-178.38557
287.21	-136.30678
287.739	-121.2673
288.267	-155.35213
288.795	-105.25805
289.323	-164.35918
289.851	-91.19783
290.378	-153.3227
290.906	-181.41053
291.433	-142.33089
291.961	-180.3829
292.488	-120.27764
293.015	-125.27221
293.542	-169.39884
294.069	-156.35678
294.596	-117.26893
295.122	-140.31024
295.649	-156.32172
296.175	-92.20566
296.702	-100.22382
297.228	-117.26343
297.754	-170.3558
298.28	-131.27387
298.806	-200.44874
299.332	-219.45297
299.857	-174.36417
300.383	-160.3765
300.908	-215.48348
301.433	-176.39441
301.958	-142.30338
302.483	-185.42539
303.008	-122.27655
303.533	-130.31102
304.058	-149.32392
304.582	-224.48976
305.107	-235.56746
305.631	-136.28451
306.155	-226.48619
306.679	-202.43288
307.203	-165.34877
307.727	-168.36391
308.251	-188.4258
308.775	-202.43568
309.298	-233.51019
309.822	-152.34749
310.345	-178.38293
310.868	-187.40532
311.391	-185.41449
311.914	-221.50349
312.437	-179.3709
312.96	-200.42544
313.482	-229.49253
314.005	-204.46223
314.527	-213.50384
315.049	-196.44753
315.571	-244.48646
316.093	-196.43379
316.615	-205.44054
317.137	-176.33865
317.659	-196.426
318.18	-193.41529
318.702	-209.43074
319.223	-200.36168
319.744	-244.4851
320.265	-259.55514
320.786	-289.63333
321.307	-268.59016
321.828	-228.4516
322.348	-238.48929
322.869	-283.58377
323.389	-181.25013
323.909	-257.51464
324.43	-208.43648
324.95	-262.51749
325.47	-291.61833
325.989	-315.64276
326.509	-357.67949
327.029	-312.60005
327.548	-378.7333
328.067	-336.69075
328.587	-287.6085
329.106	-319.61396
329.625	-299.67704
330.144	-344.66988
330.662	-370.72258
331.181	-360.70972
331.7	-316.61448
332.218	-353.63367
332.736	-368.71833
333.255	-373.71858
333.773	-367.71655
334.291	-275.55987
334.808	-401.73097
335.326	-324.58624
335.844	-417.78058
336.361	-439.90147
336.879	-406.75379
337.396	-405.77686
337.913	-413.75018
338.43	-408.71869
338.947	-443.83376
339.464	-435.71888
339.981	-516.96761
340.497	-421.81145
341.014	-466.88374
341.53	-488.84528
342.046	-486.92033
342.562	-413.78723
343.078	-450.80058
343.594	-496.90488
344.11	-514.93203
344.626	-488.92954
345.141	-536.91664
345.657	-468.78783
346.172	-517.93008
346.687	-529.89422
347.202	-537.87872
347.717	-506.8802
348.232	-586.09136
348.747	-544.90189
349.261	-596.91537
349.776	-535.89652
350.29	-650.1593
350.805	-552.9862
351.319	-556.91365
351.833	-635.00609
352.347	-593.97641
352.861	-619.00378
353.374	-555.88489
353.888	-587.98749
354.401	-609.95888
354.915	-701.06713
355.428	-662.13576
355.941	-606.9368
356.454	-533.78737
356.967	-595.94006
357.48	-644.99329
357.993	-639.05964
358.505	-682.11526
359.018	-663.07776
359.53	-682.07428
360.042	-682.97997
360.554	-659.04183
361.066	-715.13715
361.578	-693.95209
362.09	-709.09026
362.602	-703.96022
363.113	-720.0478
363.625	-705.97113
364.136	-732.98856
364.647	-805.12627
365.158	-749.06231
365.669	-760.11923
366.18	-752.07365
366.691	-731.94157
367.201	-800.15611
367.712	-789.04139
368.222	-781.02457
368.733	-851.03039
369.243	-841.02405
369.753	-843.09819
370.263	-846.1369
370.773	-853.1854
371.282	-899.16289
371.792	-972.13053
372.301	-992.26622
372.811	-1016.45276
373.32	-1003.9732
373.829	-1116.28451
374.338	-1046.02931
374.847	-1138.16032
375.356	-1203.25856
375.865	-1233.96765
376.373	-1264.07277
376.882	-1208.23493
377.39	-1253.11755
377.898	-1490.29852
378.407	-1418.89832
378.915	-1427.76551
379.423	-1500.90336
379.93	-1572.78553
380.438	-1748.89329
380.946	-1720.62495
381.453	-1956.71135
381.96	-2059.51149
382.468	-2273.26666
382.975	-2191.20138
383.482	-2306.94324
383.989	-2385.1884
384.495	-2470.73185
385.002	-2761.32109
385.509	-2882.37339
386.015	-2977.87485
386.521	-3096.90211
387.028	-3268.7417
387.534	-3316.62015
388.04	-3446.66496
388.546	-3727.52467
389.051	-4020.57012
389.557	-4332.69384
390.063	-4033.8472
390.568	-4470.0882
391.073	-4725.81483
391.578	-4936.03237
392.084	-5231.29294
392.589	-5831.32212
393.093	-6470.10279
393.598	-6731.06303
394.103	-7201.0516
394.607	-7810.44523
395.112	-8221.05037
395.616	-8867.66178
396.12	-10040.93503
396.624	-11112.40643
397.128	-11766.10072
397.632	-12875.73951
398.136	-14285.62232
398.639	-16398.4044
399.143	-19161.60852
399.646	-21148.6235
400.15	-23358.8398
400.653	-26906.16059
401.156	-30734.20229
401.659	-36556.63941
402.162	-35764.74558
402.664	-26990.25852
403.167	-14114.2922
403.67	-2040.32775
404.172	0
404.674	0
405.176	0
405.678	0
406.18	0
406.682	0
407.184	0
407.686	0
408.187	0
408.688	0
409.19	-3426.3121
409.691	-15449.65244
410.192	-22645.04525
410.693	-27775.49988
411.194	-30417.84403
411.694	-28101.58728
412.195	-25579.46488
412.696	-24887.14272
413.196	-25636.00673
413.696	-26565.74922
414.196	-25007.76175
414.696	-21869.36562
415.196	-18515.35336
415.696	-12738.03829
416.196	-10010.34351
416.695	-10374.72944
417.195	-11061.6456
417.694	-10424.56771
418.194	-9499.63606
418.693	-9492.70973
419.192	-9189.30198
419.691	-9121.11143
420.19	-8606.42266
420.688	-8119.9737
421.187	-7408.54988
421.685	-6563.45282
422.184	-5570.81881
422.682	-5073.49627
423.18	-4792.68207
423.678	-4620.16753
424.176	-4359.0211
424.674	-3933.41146
425.172	-3632.78067
425.669	-3277.59369
426.167	-2948.64731
426.664	-2743.75213
427.161	-2699.93743
427.659	-2480.27837
428.156	-2464.21232
428.652	-2320.81427
429.149	-2152.7957
429.646	-2058.78885
430.143	-1904.13665
430.639	-1797.21159
431.135	-1792.53579
431.632	-1708.46816
432.128	-1651.71423
432.624	-1660.97787
433.12	-1683.70029
433.616	-1599.66706
434.111	-1687.97811
434.607	-1556.01416
435.103	-1336.69488
435.598	-1359.76902
436.093	-1230.9804
436.588	-1160.92604
437.083	-1125.9777
437.578	-1107.05669
438.073	-1241.41283
438.568	-1067.25553
439.062	-1031.97419
439.557	-953.10124
440.051	-1043.17942
440.546	-1025.17645
441.04	-972.21835
441.534	-982.38632
442.028	-949.26821
442.522	-969.30541
443.015	-903.0656
443.509	-903.27943
444.002	-914.30368
444.496	-825.99452
444.989	-877.27145
445.482	-890.32918
445.975	-905.18506
446.468	-848.03818
446.961	-846.04384
447.454	-837.12956
447.947	-906.3133
448.439	-829.25602
448.931	-895.23611
449.424	-851.38751
449.916	-829.2815
450.408	-887.25902
450.9	-869.35617
451.392	-894.49494
451.884	-745.08533
452.375	-844.3726
452.867	-770.14164
453.358	-850.26153
453.849	-815.12434
454.341	-783.15712
454.832	-753.04715
455.323	-833.38465
455.814	-724.10914
456.304	-775.2167
456.795	-713.09578
457.285	-685.0396
457.776	-626.97572
458.266	-737.21186
458.756	-705.19003
459.247	-745.24138
459.737	-744.24753
460.226	-711.11591
460.716	-745.28093
461.206	-721.25543
461.695	-674.23447
462.185	-696.19935
462.674	-615.0203
463.163	-659.06463
463.653	-587.8784
464.142	-702.26518
464.63	-588.06473
465.119	-649.11489
465.608	-660.1414
466.096	-561.90726
466.585	-531.91907
467.073	-592.08781
467.561	-534.97719
468.05	-577.03335
468.538	-556.05898
469.026	-546.01117
469.513	-550.88971
470.001	-559.98557
470.489	-556.02665
470.976	-499.8986
471.463	-532.05595
471.951	-474.94413
472.438	-516.96427
472.925	-533.9958
473.412	-456.90448
473.899	-504.9423
474.385	-477.95563
474.872	-479.90508
475.359	-502.0065
475.845	-504.85726
476.331	-402.7133
476.817	-454.92154
477.303	-415.79374
477.789	-430.86247
478.275	-499.04544
478.761	-437.88805
479.247	-389.72996
479.732	-438.91909
480.218	-423.93669
480.703	-416.88025
481.188	-412.75007
481.673	-402.78395
482.158	-499.91335
482.643	-384.84521
483.128	-403.78646
483.612	-389.78438
484.097	-350.74158
484.581	-390.79272
485.066	-359.75417
485.55	-344.64789
486.034	-362.67845
486.518	-377.76962
487.002	-385.82303
487.486	-379.81302
487.969	-351.74971
488.453	-389.87577
488.936	-384.76843
489.42	-329.64296
489.903	-321.71797
490.386	-793.32159
490.869	-272.52211
491.352	-297.64976
491.835	-259.47209
492.318	-309.61906
492.8	-294.54093
493.283	-318.72166
493.765	-326.71937
494.247	-256.53578
494.73	-267.526
495.212	-211.45421
495.694	-282.58785
496.175	-326.69315
496.657	-226.47823
497.139	-223.3497
497.62	-319.68107
498.102	-264.58721
498.583	-226.5079
499.064	-283.56802
499.545	-178.35983
500.026	-198.3942
500.507	-203.42119
500.988	-187.41517
501.469	-220.4932
501.949	-148.32578
502.43	-171.35924
502.91	-90.1615
503.39	-96.21265
503.87	-104.2141
504.35	-46.09508
504.83	-67.12764
505.31	-64.13543
505.79	12.02461
506.269	74.14733
506.749	90.17284
507.228	111.21857
507.707	188.34258
508.187	229.45284
508.666	264.52829
509.145	314.5879
509.623	355.66418
510.102	435.83038
510.581	598.09831
511.059	563.07728
511.538	678.32626
512.016	816.39474
512.494	932.58168
512.972	959.57559
513.45	1038.58131
513.928	1227.90479
514.406	1239.87671
514.884	1518.36555
515.361	1578.17811
515.839	1694.08435
516.316	1756.31142
516.793	1902.61571
517.27	2048.51371
517.747	2022.71945
518.224	2107.33672
518.701	2201.20034
519.178	2124.59935
519.654	2208.49914
520.131	2113.61516
520.607	2206.6847
521.083	2100.28391
521.56	2033.40039
522.036	2032.13411
522.512	1932.55861
522.987	1843.32077
523.463	1810.33061
523.939	1744.42343
524.414	1757.22207
524.89	1570.18627
525.365	1472.97093
525.84	1325.96642
526.315	1298.99765
526.79	1217.75922
527.265	1180.75126
527.74	1069.78624
528.215	1015.65133
528.689	909.40403
529.164	846.30673
529.638	889.67703
530.112	741.29374
530.587	732.13271
531.061	712.28782
531.534	687.27004
532.008	617.14153
532.482	588.04524
532.956	437.90263
533.429	551.05122
533.903	553.95361
534.376	440.77832
534.849	385.72958
535.322	347.67685
535.795	334.67983
536.268	269.54441
536.741	384.75917
537.213	316.60862
537.686	295.60113
538.158	261.4883
538.631	279.57448
539.103	184.35165
539.575	282.49072
540.047	231.43024
540.519	200.41154
540.991	189.4002
541.463	189.3946
541.934	123.24528
542.406	158.32541
542.877	189.36568
543.348	166.34804
543.82	213.44964
544.291	222.44404
544.762	137.28171
545.233	109.23908
545.703	112.21509
546.174	183.36544
546.645	101.20928
547.115	153.31802
547.585	183.36035
548.056	141.29138
548.526	126.25459
548.996	159.32872
549.466	190.39766
549.935	130.26304
550.405	205.37574
550.875	215.42735
551.344	248.49766
551.814	311.58617
552.283	342.60398
552.752	296.56214
553.221	333.57933
553.69	353.62911
554.159	360.71172
554.628	412.7227
555.096	466.93381
555.565	496.85595
556.033	608.09655
556.502	628.16684
556.97	692.1443
557.438	764.34908
557.906	898.54516
558.374	920.51088
558.842	992.68202
559.31	1117.69179
559.777	1177.92469
560.245	1362.06297
560.712	1455.10204
561.18	1592.04725
561.647	1673.14112
562.114	1843.29062
562.581	2081.72976
563.048	2175.49207
563.514	2304.77569
563.981	2503.51921
564.448	2779.41365
564.914	2948.59165
565.381	3245.41121
565.847	3435.50578
566.313	3660.38272
566.779	4021.02346
567.245	4287.09741
567.711	4575.07836
568.176	4863.5068
568.642	5135.05445
569.108	5571.70129
569.573	6018.302
570.038	6418.69326
570.504	6781.95814
570.969	7158.56055
571.434	7540.23184
571.899	7811.69194
572.363	8336.18894
572.828	8971.30593
573.293	9311.07836
573.757	9785.38037
574.222	10350.42202
574.686	10523.09043
575.15	11122.39681
575.614	11339.67043
576.078	11781.87395
576.542	12089.90668
577.006	12481.52927
577.469	12737.20504
577.933	12844.16745
578.396	13158.69397
578.86	13306.92989
579.323	13243.35157
579.786	13399.78663
580.249	13326.55719
580.712	13377.98618
581.175	13231.79736
581.637	13339.39419
582.1	13195.87397
582.563	13186.04557
583.025	12816.01006
583.487	12809.98208
583.95	12581.6976
584.412	12477.12331
584.874	12229.1539
585.336	12091.53442
585.797	11754.30476
586.259	11684.20347
586.721	11486.229
587.182	11430.90579
587.643	11212.02832
588.105	10916.43158
588.566	10628.74723
589.027	10469.56055
589.488	10272.0008
589.949	10097.22192
590.41	9837.99662
590.87	9870.63001
591.331	9761.41772
591.791	9240.90158
592.252	9054.48308
592.712	8913.21179
593.172	8790.94345
593.632	8594.57364
594.092	8289.10458
594.552	8132.84167
595.011	7813.60194
595.471	7671.42329
595.931	7518.2924
596.39	7263.39557
596.849	7150.24731
597.308	6855.90299
597.768	6791.6078
598.227	6562.33641
598.685	6346.13253
599.144	6122.23982
599.603	6108.32098
600.062	5920.74678
600.52	5772.07688
600.978	5699.46404
601.437	5463.37314
601.895	5298.02467
602.353	5214.31838
602.811	5137.34464
603.269	4973.87766
603.727	4832.95412
604.184	4765.60595
604.642	4480.29874
605.099	4477.9612
605.557	4411.31457
606.014	4251.64561
606.471	4132.56845
606.928	4022.7192
607.385	3873.5001
607.842	3921.15524
608.299	3934.27707
608.755	3819.51405
609.212	3710.08908
609.668	3558.11301
610.125	3489.68197
610.581	3493.63966
611.037	3395.45753
611.493	3354.65452
611.949	3212.75663
612.405	3125.88143
612.861	3172.70244
613.316	3072.76067
613.772	2943.5924
614.227	2855.73181
614.683	2923.29026
615.138	2768.70091
615.593	2696.67613
616.048	2655.63091
616.503	2618.98579
616.958	2520.04623
617.412	2508.77199
617.867	2433.44579
618.321	2457.21715
618.776	2357.47999
619.23	2221.69329
619.684	2309.57565
620.138	2229.68449
620.592	2103.81398
621.046	2088.68253
621.5	2058.80308
621.954	2072.52648
622.407	1949.43277
622.861	1896.72704
623.314	1900.49874
623.768	1820.53101
624.221	1751.96166
624.674	1744.45257
625.127	1732.50418
625.58	1742.44358
626.033	1714.32389
626.485	1597.48204
626.938	1546.43457
627.39	1537.3562
627.843	1538.34606
628.295	1560.36604
628.747	1479.38336
629.199	1472.2457
629.651	1387.16653
630.103	1375.1823
630.555	1376.9808
631.006	1361.24722
631.458	1307.20612
631.909	1341.18728
632.361	1321.20231
632.812	1288.13705
633.263	1324.00254
633.714	1170.8406
634.165	1224.21096
634.616	1145.06095
635.067	1188.95517
635.518	1130.05817
635.968	1210.75173
636.419	1148.86611
636.869	1101.0198
637.319	1062.9002
637.769	1040.79979
638.219	1045.96419
638.669	988.87276
639.119	1064.0401
639.569	964.86713
640.019	965.78516
640.468	974.72628
640.918	918.80413
641.367	928.67521
641.816	919.6585
642.265	952.772
642.714	949.76946
643.163	919.71511
643.612	792.59274
644.061	847.46067
644.51	856.60482
644.958	864.55308
645.406	826.64977
645.855	882.79265
646.303	873.68782
646.751	788.50253
647.199	839.58332
647.647	830.58964
648.095	814.55895
648.543	841.41643
648.99	786.58791
649.438	806.59862
649.885	823.7208
650.333	794.27224
650.78	764.57373
651.227	775.60606
651.674	750.45487
652.121	776.61064
652.568	772.59948
653.015	802.73262
653.461	699.43937
653.908	774.53507
654.354	774.57935
654.801	695.41187
655.247	754.41048
655.693	695.58908
656.139	696.45213
656.585	740.53107
657.031	705.4205
657.477	662.24235
657.922	666.33904
658.368	703.51634
658.813	786.56325
659.259	707.47609
659.704	683.38872
660.149	715.44463
660.594	664.3859
661.039	672.33933
661.484	725.50836
661.929	741.49929
662.373	638.43029
662.818	656.44113
663.262	627.34127
663.707	688.53805
664.151	738.57048
664.595	630.35147
665.039	674.48505
665.483	635.44424
665.927	739.51365
666.371	556.15865
666.814	710.48727
667.258	625.31507
667.701	706.32964
668.145	713.56352
668.588	707.52758
669.031	667.38386
669.474	673.43544
669.917	641.26117
670.36	654.44636
670.803	731.54715
671.245	640.1945
671.688	724.55334
672.13	651.2923
672.573	686.5512
673.015	660.41103
673.457	650.25399
673.899	707.5126
674.341	674.44534
674.783	669.42443
675.225	699.52122
675.666	645.38279
676.108	686.31153
676.549	728.51562
676.991	726.39752
677.432	702.21551
677.873	676.38789
678.314	706.4893
678.755	698.50458
679.196	725.45483
679.637	746.60264
680.078	704.45715
680.518	744.52082
680.959	693.47239
681.399	693.52791
681.839	718.54442
682.28	738.60242
682.72	706.42349
683.16	752.64529
683.6	740.47916
684.039	784.40248
684.479	742.60155
684.919	721.45744
685.358	788.75089
685.798	797.82966
686.237	780.64771
686.676	774.5665
687.115	778.59183
687.554	806.65736
687.993	788.50617
688.432	788.55996
688.871	826.60634
689.309	823.69652
689.748	856.51272
690.186	862.76547
690.625	834.67961
691.063	874.79007
691.501	864.83642
691.939	882.88363
692.377	873.82301
692.815	897.8211
693.253	909.85637
693.69	922.69316
694.128	919.88358
694.565	964.92484
695.003	902.95869
695.44	962.88805
695.877	961.87149
696.314	954.69862
696.751	1038.93813
697.188	978.86277
697.625	1057.98096
698.061	958.92696
698.498	1025.05324
698.934	1050.07784
699.371	1044.01125
699.807	1025.99912
700.243	1045.06648
700.679	1076.97169
701.115	1140.15481
701.551	1088.08023
701.987	1113.00417
702.422	1068.06839
702.858	1106.132
703.294	1110.01654
703.729	1177.30536
704.164	1157.23107
704.599	1160.03769
705.035	1146.0287
705.47	1160.26082
705.904	1168.15864
706.339	1183.18157
706.774	1221.24293
707.209	1187.15638
707.643	1208.29587
708.078	1228.36099
708.512	1212.4124
708.946	1260.36151
709.38	1212.26463
709.814	1323.30184
710.248	1260.40881
710.682	1262.33755
711.116	1228.29686
711.549	1235.54597
711.983	1147.11077
712.416	1264.32739
712.85	1277.49929
713.283	1221.27199
713.716	1329.59761
714.149	1336.44212
714.582	1208.11575
715.015	1246.47219
715.448	1220.45296
715.881	1291.14732
716.313	1234.26069
716.746	1149.15975
717.178	1217.30912
717.61	1262.53174
718.043	1259.47437
718.475	1192.29927
718.907	1285.56206
719.339	1170.08846
719.77	1208.25492
720.202	1163.37607
720.634	1141.23366
721.065	1200.24764
721.497	1126.23474
721.928	1195.33631
722.359	1147.21596
722.79	1139.18792
723.221	1129.31274
723.652	1192.48292
724.083	1151.05284
724.514	1153.1039
724.945	1131.13101
725.375	1104.05822
725.806	1099.24515
726.236	1131.36561
726.666	1120.1354
727.096	1124.23489
727.526	1039.19111
727.956	1027.9067
728.386	1136.26192
728.816	998.11326
729.246	1024.05547
729.675	1064.14862
730.105	1011.06976
730.534	1056.01502
730.964	1065.2245
731.393	1073.19295
731.822	1056.23524
732.251	989.10734
732.68	1010.96843
733.109	950.97384
733.537	951.92907
733.966	971.02434
734.395	962.84908
734.823	1027.89349
735.251	970.9538
735.68	1037.15547
736.108	960.05121
736.536	967.90367
736.964	859.70031
737.392	938.98946
737.82	937.89461
738.247	918.85996
738.675	923.86457
739.102	880.88421
739.53	848.86789
739.957	876.94163
740.384	864.83404
740.811	880.91819
741.238	812.71911
741.665	882.73329
742.092	867.77132
742.519	799.72136
742.945	815.69279
743.372	806.73608
743.798	814.82659
744.225	809.66391
744.651	804.75913
745.077	800.73934
745.503	772.64858
745.929	750.57876
746.355	802.74074
746.781	717.57559
747.207	713.4735
747.632	719.54823
748.058	692.54001
748.483	670.37185
748.908	706.55886
749.334	708.5431
749.759	699.45872
750.184	658.40008
750.609	660.45418
751.033	688.44558
751.458	663.32228
751.883	654.45598
752.307	630.33171
752.732	602.36332
753.156	615.37387
753.58	657.39583
754.005	633.45244
754.429	591.25762
754.853	586.32059
755.277	609.30103
755.7	556.26311
756.124	534.21796
756.548	540.17159
756.971	561.25207
757.394	531.26182
757.818	502.19762
758.241	529.2368
758.664	514.1991
759.087	467.96675
759.51	516.18536
759.933	454.01814
760.356	524.24015
760.778	422.97661
761.201	475.07426
761.623	453.0265
762.046	486.06902
762.468	461.03238
762.89	437.011
763.312	377.87441
763.734	380.86758
764.156	390.91224
764.578	380.82869
765	391.90328
765.421	332.80723
765.843	371.9264
766.264	392.89677
766.686	354.84877
767.107	337.78104
767.528	299.72688
767.949	324.79073
768.37	345.80875
768.791	336.77795
769.212	265.64496
769.632	262.5917
770.053	287.73042
770.473	291.68299
770.894	350.83695
771.314	329.75313
771.734	249.56429
772.154	244.61012
772.575	308.6862
772.994	241.53283
773.414	305.70493
773.834	227.55414
774.254	256.60847
774.673	262.61913
775.093	227.54815
775.512	218.52493
775.931	209.51893
776.351	250.60311
776.77	214.51159
777.189	202.47125
777.607	206.5153
778.026	180.4413
778.445	159.39278
778.864	227.56834
779.282	211.49679
779.701	171.4249
780.119	182.45214
780.537	160.39416
780.955	175.43863
781.373	177.43097
781.791	209.45919
782.209	202.45639
782.627	176.45624
783.045	135.30831
783.462	177.44492
783.88	162.41328
784.297	171.42366
784.715	120.30603
785.132	120.28896
785.549	124.30806
785.966	172.4259
786.383	115.28148
786.8	177.40456
787.217	139.32651
787.633	95.23658
788.05	195.45447
788.466	182.42209
788.883	119.30139
789.299	103.24742
789.715	146.35104
790.131	135.33264
790.547	136.33652
790.963	129.31762
791.379	116.29144
791.795	98.2235
792.21	135.31291
792.626	133.31291
793.041	103.25332
793.457	119.29224
793.872	124.28952
794.287	112.26581
794.702	136.33195
795.117	88.21831
795.532	135.33484
795.947	159.37757
796.362	129.30574
796.776	130.30233
797.191	126.30594
797.605	73.17168
798.02	120.28995
798.434	132.29154
798.848	123.3005
799.262	77.19106
799.676	161.38717
800.09	78.19202
800.504	135.3244
800.918	84.19466
801.331	111.28929
801.745	137.31149
802.158	94.2343
802.572	122.29378
802.985	104.25044
803.398	98.23303
803.811	126.32122
804.224	96.23824
804.637	56.13403
805.05	103.23789
805.462	115.28075
805.875	62.16095
806.288	77.18574
806.7	71.17861
807.112	100.2311
807.525	128.31301
807.937	82.20246
808.349	108.269
808.761	106.2594
809.173	47.11457
809.584	126.30869
809.996	76.18606
810.408	18.04687
810.819	65.15328
811.231	-17.04458
811.642	31.07452
812.053	53.12659
812.464	100.23669
812.875	138.34858
813.286	137.34858
813.697	123.28532
814.108	109.26471
814.519	94.209
814.929	70.17865
815.34	106.25564
815.75	52.13257
816.16	97.24077
816.571	62.16128
816.981	93.21897
817.391	113.27092
817.801	55.13702
818.211	91.21635
818.62	56.13526
819.03	88.21511
819.44	116.30061
819.849	78.19632
820.259	140.35401
820.668	36.08911
821.077	25.0626
821.486	143.33997
821.895	128.31312
822.304	101.26611
822.713	79.18659
823.122	111.27501
823.531	40.09545
823.939	73.17782
824.348	94.22764
824.756	99.24672
825.164	77.19356
825.573	75.18799
825.981	74.18344
826.389	83.20805
826.797	72.18025
827.205	61.14032
827.612	74.1825
828.02	53.12489
828.428	64.1631
828.835	81.21262
829.243	92.21843
829.65	53.13213
830.057	88.21287
830.464	91.22083
830.871	112.26612
831.278	94.22618
831.685	69.15415
832.092	82.2003
832.499	91.19834
832.905	87.21948
833.312	82.18671
833.718	87.21602
834.124	97.22055
834.531	83.20864
834.937	94.24006
835.343	84.20212
835.749	109.25275
836.155	90.2346
836.561	69.16964
836.966	45.11051
837.372	75.19056
837.777	92.22806
838.183	101.22321
838.588	79.19566
838.993	111.26805
839.399	67.16375
839.804	25.06137
840.209	51.13009
840.613	95.21022
841.018	62.15706
841.423	63.1616
841.828	53.13428
842.232	117.28712
842.637	75.17666
843.041	70.17915
843.445	58.14562
843.849	45.11178
844.253	116.27307
844.657	64.16109
845.061	107.24082
845.465	53.12828
845.869	74.17169
846.272	78.18939
846.676	93.22374
847.079	82.20772
847.483	133.32759
847.886	123.29602
848.289	53.14157
848.692	57.14447
849.095	76.18211
849.498	115.28877
849.901	95.21661
850.304	91.21635
850.707	106.26813
851.109	116.29071
851.512	99.2416
851.914	14.03557
852.316	90.22644
852.718	68.17525
853.121	97.2361
853.523	91.21151
853.925	43.11245
854.326	66.16481
854.728	57.14662
855.13	56.14447
855.531	55.13156
855.933	95.22664
856.334	79.19623
856.736	57.12782
857.137	40.09339
857.538	94.23481
857.939	95.23313
858.34	81.19664
858.741	94.24419
859.142	75.17968
859.542	67.17647
859.943	67.16624
860.343	37.09197
860.744	95.23028
861.144	111.26815
861.544	28.06768
861.945	41.1048
862.345	104.25224
862.745	57.14169
863.145	152.35698
863.544	101.25325
863.944	80.18825
864.344	128.31394
864.743	104.25593
865.143	92.23487
865.542	71.16431
865.941	66.16313
866.34	64.15318
866.74	67.17949
867.139	45.10801
867.537	47.11997
867.936	78.18704
868.335	71.18021
868.734	66.16838
869.132	68.15771
869.531	62.14986
869.929	61.13898
870.327	29.0699
870.726	134.3295
871.124	114.26355
871.522	46.1174
871.92	73.17954
872.318	66.1611
872.715	118.28887
873.113	63.15334
873.511	92.22773
873.908	24.06093
874.306	50.12449
874.703	102.25313
875.1	121.30602
875.497	101.24012
875.894	49.1202
876.291	38.09358
876.688	63.16228
877.085	86.20521
877.482	88.21903
877.878	40.09658
878.275	84.21233
878.671	112.24664
879.068	100.23943
879.464	80.1925
879.86	43.10196
880.256	115.28075
880.652	80.20258
881.048	92.22648
881.444	95.22447
881.84	51.12972
882.236	90.2249
882.631	74.18103
883.027	64.15476
883.422	92.23371
883.817	25.06316
884.213	102.25958
884.608	25.06165
885.003	79.18962
885.398	38.0954
885.793	93.23185
886.188	22.05502
886.582	108.27446
886.977	86.20293
887.371	58.14661
887.766	63.15643
888.16	95.23537
888.554	101.24767
888.949	90.22457
889.343	91.22083
889.737	19.05092
890.131	52.13051
890.525	66.16844
890.918	60.15086
891.312	80.19052
891.706	54.14168
892.099	99.24994
892.492	84.18017
892.886	72.17561
893.279	52.13252
893.672	70.1777
894.065	82.20432
894.458	101.25188
894.851	117.28339
895.244	77.19585
895.637	66.15863
896.029	100.24244
896.422	69.16814
896.814	41.10218
897.206	80.18957
897.599	123.30039
897.991	51.12339
898.383	94.22042
898.775	47.10626
899.167	50.1167
899.559	115.28794
899.951	137.31779
900.342	76.19252
900.734	16.03997
901.125	85.22183
901.517	72.17613
901.908	148.34854
902.299	89.21614
902.69	78.18319
903.082	98.23536
903.473	19.0458
903.863	72.1831
904.254	73.1688
904.645	101.24905
905.036	45.10912
905.426	101.22909
905.817	64.15674
906.207	62.14749
906.597	69.16088
906.987	75.19366
907.378	85.21375
907.768	69.18192
908.158	79.19171
908.547	47.12153
908.937	84.21437
909.327	110.26428
909.717	65.16469
910.106	91.21701
910.495	125.308
910.885	70.17676
911.274	94.23319
911.663	80.20208
912.052	68.16734
912.441	76.19245
912.83	66.15113
913.219	113.29269
913.608	59.14436
913.997	48.12042
914.385	71.16906
914.774	99.23898
915.162	59.14043
915.55	90.21623
915.939	65.16369
916.327	86.21335
916.715	69.17532
917.103	120.2917
917.491	112.27408
917.878	89.21736
918.266	103.26476
918.654	70.17827
919.041	27.07078
919.429	72.1693
919.816	104.2612
920.203	67.16204
920.591	76.18764
920.978	116.28071
921.365	74.19342
921.752	86.20371
922.139	71.15357
922.525	71.1699
922.912	95.22985
923.299	45.11198
923.685	53.13823
924.072	95.21723
924.458	48.11899
924.844	38.09427
925.231	73.1692
925.617	27.06897
926.003	101.2559
926.389	67.16855
926.774	47.11921
927.16	68.16839
927.546	70.17808
927.931	75.18636
928.317	90.20575
928.702	82.19289
929.088	77.18123
929.473	67.17
929.858	38.0921
930.243	11.0266
930.628	66.16013
931.013	50.12395
931.398	102.23225
931.783	81.21219
932.167	75.18255
932.552	83.20677
932.937	55.13642
933.321	40.10057
933.705	57.14354
934.09	114.28487
934.474	99.23301
934.858	71.18352
935.242	40.09292
935.626	66.1685
936.009	46.12244
936.393	95.23984
936.777	70.17865
937.16	29.07574
937.544	65.15275
937.927	31.07893
938.311	58.14141
938.694	83.21831
939.077	27.06493
939.46	52.12768
939.843	94.1943
940.226	52.13336
940.609	57.1307
940.991	13.03331
941.374	50.12222
941.757	81.19878
942.139	52.11677
942.522	110.25703
942.904	86.20536
943.286	55.13965
943.668	66.17051
944.05	67.16454
944.432	35.08662
944.814	71.17424
945.196	42.10252
945.578	31.07396
945.959	95.22072
946.341	115.27897
946.722	110.25522
947.104	89.21119
947.485	89.20555
947.866	63.15837
948.247	96.24024
948.628	30.07347
949.009	67.17108
949.39	86.21272
949.771	98.22584
950.152	66.16152
950.532	29.07161
950.913	52.12541
951.293	55.14846
951.674	88.21135
952.054	74.18257
952.434	95.23391
952.814	122.2863
953.194	80.20832
953.574	91.22249
953.954	113.26513
954.334	82.2032
954.714	29.07096
955.093	103.2508
955.473	40.10021
955.853	64.16528
956.232	89.24242
956.611	91.2166
956.99	32.08069
957.37	50.12742
957.749	62.1476
958.128	65.16334
958.506	49.12714
958.885	59.14869
959.264	13.03208
959.643	111.24952
960.021	66.16307
960.4	43.09761
960.778	124.30131
961.156	67.16746
961.535	99.22856
961.913	66.15398
962.291	63.16126
962.669	46.11661
963.047	68.17299
963.424	58.14781
963.802	43.10588
964.18	124.30963
964.557	128.29027
964.935	115.26909
965.312	70.18166
965.69	95.23597
966.067	44.10728
966.444	134.32512
966.821	67.17222
967.198	88.21199
967.575	97.23645
967.952	74.17359
968.329	66.16013
968.705	106.2246
969.082	92.23421
969.458	35.0842
969.835	97.23407
970.211	15.03873
970.587	92.22731
970.963	82.2092
971.339	41.10722
971.715	61.15202
972.091	93.22721
972.467	118.2907
972.843	55.13637
973.219	130.30746
973.594	72.18762
973.97	132.30929
974.345	66.15749
974.721	120.28677
975.096	103.24676
975.471	63.14909
975.846	113.26824
976.221	35.08912
976.596	34.08175
976.971	102.24943
977.346	66.15319
977.72	67.17018
978.095	82.21074
978.469	106.25031
978.844	101.25161
979.218	74.17657
979.593	91.21635
979.967	109.26262
980.341	104.2369
980.715	48.12099
981.089	84.20899
981.463	41.09432
981.837	56.13669
982.21	146.33337
982.584	33.07996
982.957	81.20113
983.331	132.30711
983.704	80.19549
984.078	43.10611
984.451	128.31521
984.824	54.13141
985.197	116.27827
985.57	99.24609
985.943	83.20376
986.316	97.23628
986.688	102.24357
987.061	94.21844
987.434	64.16637
987.806	68.16437
988.179	44.10394
988.551	113.28344
988.923	90.22
989.295	111.27431
989.667	31.07432
990.039	60.14798
990.411	79.18079
990.783	99.22573
991.155	30.07235
991.527	139.33668
991.898	104.25659
992.27	73.17981
992.641	91.22662
993.012	99.23074
993.384	63.14989
993.755	62.15773
994.126	64.15353
994.497	40.09836
994.868	90.20509
995.239	96.23065
995.61	66.16558
995.98	52.12626
996.351	50.12381
996.722	57.13201
997.092	38.09019
997.462	42.09826
997.833	71.16763
998.203	101.24252
998.573	67.1663
998.943	52.12189
999.313	54.1293
999.683	52.12474
1000.053	113.25672
1000.423	88.21231
1000.792	55.14241
1001.162	81.19819
1001.531	90.22025
1001.901	93.23
1002.27	136.29862
1002.639	90.22831
1003.009	71.16815
1003.378	81.20595
1003.747	64.15078
1004.116	52.12436
1004.485	97.22972
1004.853	105.26338
1005.222	100.24989
1005.591	77.18187
1005.959	78.17472
1006.328	61.13695
1006.696	55.13252
1007.064	86.2149
1007.433	83.20617
1007.801	86.20968
1008.169	99.24779
1008.537	82.18035
1008.905	103.23741
1009.273	99.24232
1009.64	51.12162
1010.008	85.20123
1010.375	108.25938
1010.743	186.41784
1011.11	94.22051
1011.478	92.22589
1011.845	89.20768
1012.212	38.08621
1012.579	80.19527
1012.946	101.23799
1013.313	87.20556
1013.68	110.24417
1014.047	66.15676
1014.414	67.15769
1014.78	81.2001
1015.147	115.27467
1015.513	72.17272
1015.88	102.25838
1016.246	107.26131
1016.612	108.24432
1016.978	90.21886
1017.344	95.23279
1017.71	102.24627
1018.076	134.31077
1018.442	85.21727
1018.808	73.18166
1019.174	54.13533
1019.539	133.30105
1019.905	111.25861
1020.27	80.19629
1020.636	126.29765
1021.001	88.20909
1021.366	67.16033
1021.731	69.17681
1022.096	29.0734
1022.461	78.18355
1022.826	83.19596
1023.191	75.19587
1023.556	63.14724
1023.92	108.26263
1024.285	86.20842
1024.649	57.13947
1025.014	92.22606
1025.378	58.14557
1025.742	73.18047
1026.107	106.23696
1026.471	113.26046
1026.835	97.2383
1027.199	60.1441
1027.562	95.2188
1027.926	108.26115
1028.29	107.26791
1028.654	69.15809
1029.017	104.25299
1029.381	86.20395
1029.744	68.17281
1030.107	85.19967
1030.471	74.1763
1030.834	97.21849
1031.197	84.20097
1031.56	84.19682
1031.923	57.14713
1032.286	111.25748
1032.648	84.19951
1033.011	72.16447
1033.374	91.21209
1033.736	46.12097
1034.099	68.16511
1034.461	48.12125
1034.823	43.10716
1035.185	105.26157
1035.548	100.24099
1035.91	64.15283
1036.272	51.11601
1036.634	133.32021
1036.995	51.1198
1037.357	84.20297
1037.719	78.18861
1038.08	54.12806
1038.442	101.23725
1038.803	98.23303
1039.165	78.19576
1039.526	81.1945
1039.887	105.24848
1040.248	14.03471
1040.609	114.27825
1040.97	58.14146
1041.331	84.21127
1041.692	45.10509
1042.053	65.14749
1042.413	90.20799
1042.774	56.13597
1043.134	122.2863
1043.495	87.21713
1043.855	91.21892
1044.215	74.18277
1044.576	43.1029
1044.936	121.27333
1045.296	95.23503
1045.656	84.20472
1046.016	81.19428
1046.375	89.21419
1046.735	28.06373
1047.095	69.16082
1047.454	96.20128
1047.814	108.25661
1048.173	116.2735
1048.533	82.18656
1048.892	-20.04862
1049.251	101.25106
1049.61	70.17162
1049.969	98.22872
1050.328	84.18071
1050.687	58.14083
1051.046	93.2245
1051.405	95.23425
1051.763	87.19845
1052.122	76.18854
1052.48	41.10065
1052.839	38.08956
1053.197	72.16864
1053.555	138.30887
1053.914	123.29658
1054.272	90.21582
1054.63	84.20396
1054.988	32.07624
1055.345	103.21915
1055.703	92.21952
1056.061	75.19198
1056.419	87.22363
1056.776	59.14275
1057.134	65.14994
1057.491	73.18192
1057.848	77.19064
1058.206	39.09186
1058.563	36.07955
1058.92	123.27921
1059.277	44.1086
1059.634	107.2488
1059.991	144.33859
1060.348	59.13301
1060.704	27.06459
1061.061	84.19374
1061.418	50.12118
1061.774	72.17692
1062.131	45.119
1062.487	111.25626
1062.843	62.15415
1063.199	83.20504
1063.555	34.07898
1063.911	60.15118
1064.267	105.2162
1064.623	36.08761
1064.979	124.2894
1065.335	101.23892
1065.691	86.20458
1066.046	77.16825
1066.402	74.1672
1066.757	93.23277
1067.112	100.24299
1067.468	49.11564
1067.823	96.22863
1068.178	85.2041
1068.533	78.18797
1068.888	115.27119
1069.243	34.0841
1069.598	62.1502
1069.952	25.05654
1070.307	74.18224
1070.662	80.18869
1071.016	69.1539
1071.371	91.20515
1071.725	137.32207
1072.079	74.17705
1072.434	47.11419
1072.788	69.1636
1073.142	103.2507
1073.496	43.10207
1073.85	41.09518
1074.203	70.16907
1074.557	90.23756
1074.911	121.28468
1075.265	67.15511
1075.618	120.28896
1075.971	55.13061
1076.325	60.1521
1076.678	0
1077.031	54.12201
1077.385	94.20501
1077.738	72.16168
1078.091	53.12036
1078.444	85.19585
1078.796	62.15167
1079.149	74.18311
1079.502	50.11803
1079.855	79.18304
1080.207	97.23672
1080.56	36.0932
1080.912	73.17682
1081.264	75.17961
1081.617	79.19135
1081.969	55.13851
1082.321	34.08321
1082.673	21.04817
1083.025	21.05006
1083.377	110.23287
1083.728	72.16712
1084.08	52.12966
1084.432	49.11811
1084.783	108.24998
1085.135	54.13514
1085.486	72.16387
1085.838	58.14252
1086.189	75.18105
1086.54	95.22473
1086.891	33.08364
1087.242	59.14329
1087.593	97.23389
1087.944	73.1643
1088.295	150.33379
1088.646	47.11389
1088.996	42.10125
1089.347	96.23336
1089.698	48.11339
1090.048	100.25727
1090.398	86.19787
1090.749	92.21818
1091.099	-5.01269
1091.449	56.13923
1091.799	103.25519
1092.149	21.05144
1092.499	47.11461
1092.849	40.10176
1093.199	114.28219
1093.548	62.14851
1093.898	79.19645
1094.248	94.23947
1094.597	9.02312
1094.947	43.11474
1095.296	78.19145
1095.645	69.17872
1095.994	78.18619
1096.343	73.18278
1096.692	28.07376
1097.041	56.15133
1097.39	91.22637
1097.739	80.20668
1098.088	102.27069
1098.437	5.01322
1098.785	81.21707
1099.134	66.17463
1099.482	52.14284
1099.83	54.14168
1100.179	50.13029
1100.527	92.24252
1100.875	79.20765
1101.223	46.12212
1101.571	43.11885
1101.919	-6.01581
1102.267	71.19907
1102.615	-9.02898
1102.962	15.04827
1103.31	-10.03219
1103.658	12.03865
