Data from N2 R11 sample 2_Subt2__2__16-06-00-033.txt Node

Date: Mon Sep 01 16:06:00 PDT 2025
User: uwsun
Spectrometer: HDX01956
Trigger mode: 0
Integration Time (sec): 5.000000E-1
Scans to average: 1
Nonlinearity correction enabled: true
Boxcar width: 0
Storing dark spectrum: false
XAxis mode: Wavelengths
Number of Pixels in Spectrum: 2068
>>>>>Begin Spectral Data<<<<<
194.03	-14.03938
194.578	-26.08248
195.127	-26.08129
195.676	-29.09098
196.225	75.19647
196.773	25.06827
197.321	-7.01881
197.87	79.19265
198.418	27.06562
198.966	32.07817
199.513	-82.19506
200.061	-43.10321
200.609	1.00252
201.156	-16.03291
201.704	-12.02847
202.251	-26.06516
202.798	-51.12599
203.345	14.03269
203.892	-9.02139
204.438	0
204.985	-6.0133
205.532	-37.09221
206.078	0
206.624	-19.04397
207.17	8.0175
207.716	-19.04346
208.262	44.08115
208.808	-50.11605
209.354	8.01824
209.899	41.09751
210.445	-6.01398
210.99	3.00677
211.535	24.05303
212.08	27.05895
212.625	15.03535
213.17	21.05006
213.715	-85.17967
214.259	48.1046
214.804	42.09741
215.348	19.04092
215.892	3.00679
216.436	77.16647
216.98	46.09559
217.524	-26.05827
218.068	24.05692
218.612	40.09468
219.155	3.00667
219.698	38.08498
220.242	43.10105
220.785	23.05073
221.328	18.04239
221.871	25.06005
222.414	-3.00711
222.956	-31.07088
223.499	4.00853
224.041	42.09249
224.583	44.09001
225.126	6.01254
225.668	23.05268
226.21	1.00238
226.751	-28.05816
227.293	44.09474
227.835	6.01384
228.376	64.13893
228.918	50.1189
229.459	2.0047
230	-1.00225
230.541	37.08034
231.082	-12.02759
231.622	16.0349
232.163	-12.02752
232.704	7.01636
233.244	-34.08023
233.784	48.11079
234.324	-25.0518
234.864	46.09764
235.404	10.02252
235.944	36.08034
236.484	60.14031
237.023	31.06866
237.563	-18.03936
238.102	11.0245
238.641	-17.04074
239.18	-22.04853
239.719	9.0213
240.258	21.04445
240.797	46.10258
241.335	12.0277
241.874	-26.0474
242.412	5.01129
242.95	-19.04271
243.488	6.0129
244.026	-2.00433
244.564	23.04439
245.102	11.02315
245.64	34.07691
246.177	-3.00634
246.715	61.1365
247.252	24.05174
247.789	137.23655
248.326	-46.10415
248.863	18.03684
249.4	37.07849
249.936	15.02887
250.473	-32.07035
251.009	-1.00214
251.546	2.00413
252.082	89.1793
252.618	3.00624
253.154	20.04471
253.69	48.10019
254.226	6.01338
254.761	16.03352
255.297	-1.00205
255.832	21.04622
256.367	25.05479
256.903	18.03675
257.438	23.05038
257.972	55.1131
258.507	-56.12058
259.042	47.09429
259.576	-61.12334
260.111	31.06662
260.645	65.12962
261.179	1.00217
261.713	15.03094
262.247	22.04713
262.781	-9.01755
263.315	-53.12182
263.849	20.04629
264.382	44.09352
264.915	-2.00434
265.449	-58.13158
265.982	24.05063
266.515	17.03834
267.048	5.00979
267.58	-2.00408
268.113	-74.15042
268.646	-4.00915
269.178	-10.02067
269.71	30.06042
270.243	-15.03193
270.775	-4.00943
271.307	46.10211
271.838	70.15286
272.37	-14.03197
272.902	-5.01056
273.433	-68.13955
273.965	13.02919
274.496	21.04827
275.027	15.03426
275.558	18.04012
276.089	-101.23187
276.62	18.04232
277.15	21.04781
277.681	24.04798
278.211	1.00227
278.741	-25.05074
279.272	22.04586
279.802	-10.02308
280.332	7.01511
280.861	-16.03555
281.391	24.04959
281.921	-43.09638
282.45	47.10725
282.98	-6.01441
283.509	3.00618
284.038	-25.05245
284.567	60.12736
285.096	-8.01775
285.625	-16.03328
286.153	-41.08838
286.682	34.07031
287.21	-12.02638
287.739	2.0043
288.267	-31.06866
288.795	23.05519
289.323	-31.06599
289.851	-7.01495
290.378	-45.09266
290.906	-44.09702
291.433	-29.06607
291.961	11.02243
292.488	-7.01583
293.015	5.01059
293.542	-10.02287
294.069	8.01769
294.596	11.02464
295.122	42.08954
295.649	-16.03196
296.175	30.06537
296.702	33.07183
297.228	19.04159
297.754	17.03411
298.28	-19.03874
298.806	-48.10433
299.332	-22.04349
299.857	22.04404
300.383	55.12399
300.908	-69.15052
301.433	-11.02381
301.958	3.00621
302.483	-23.05117
303.008	10.02206
303.533	-35.08222
304.058	-31.0657
304.582	-63.13305
305.107	-35.08132
305.631	47.09434
306.155	-32.06597
306.679	-66.13728
307.203	-5.0102
307.727	-16.03353
308.251	-68.15025
308.775	-38.07907
309.298	-80.16951
309.822	-29.06465
310.345	19.03914
310.868	-12.02504
311.391	-5.01079
311.914	-27.0591
312.437	2.00398
312.96	-42.08627
313.482	-54.11177
314.005	-72.15876
314.527	-28.06386
315.049	-9.01977
315.571	-87.16712
316.093	-25.05335
316.615	-36.07454
317.137	15.02753
317.659	39.08052
318.18	37.07567
318.702	-31.06133
319.223	-34.05888
319.744	-32.06047
320.265	-50.10233
320.786	-45.09354
321.307	-15.03128
321.828	-21.03958
322.348	-53.10441
322.869	-67.13149
323.389	50.06395
323.909	-52.09919
324.43	2.004
324.95	-35.06545
325.47	-75.15186
325.989	-62.11924
326.509	-97.17294
327.029	-42.07552
327.548	-88.15889
328.067	-103.20062
328.587	-79.15988
329.106	-52.09365
329.625	-11.02345
330.144	-47.08506
330.662	-112.20533
331.181	-71.13046
331.7	-90.16558
332.218	-64.10636
332.736	-28.05025
333.255	-92.16526
333.773	-90.16417
334.291	-101.19747
334.808	-60.09993
335.326	-98.16709
335.844	-126.2189
336.361	-116.22083
336.879	-141.2445
337.396	-126.22541
337.913	-113.1896
338.43	-152.24981
338.947	-120.20792
339.464	-109.16388
339.981	-160.27369
340.497	-106.18884
341.014	-125.21733
341.53	-166.26295
342.046	-119.20514
342.562	-109.19243
343.078	-157.2581
343.594	-126.20835
344.11	-71.11425
344.626	-164.28779
345.141	-116.17604
345.657	-96.14525
346.172	-179.29411
346.687	-179.27385
347.202	-173.25432
347.717	-153.24131
348.232	-156.26011
348.747	-127.18635
349.261	-207.28145
349.776	-104.15377
350.29	-211.33434
350.805	-126.20039
351.319	-163.23859
351.833	-213.29723
352.347	-200.29339
352.861	-183.26094
353.374	-115.16036
353.888	-169.25196
354.401	-171.23524
354.915	-204.2653
355.428	-153.22727
355.941	-173.23351
356.454	-173.22751
356.967	-219.30855
357.48	-181.24125
357.993	-191.2782
358.505	-236.33855
359.018	-152.21216
359.53	-204.27764
360.042	-168.2028
360.554	-159.21575
361.066	-258.35738
361.578	-207.2397
362.09	-227.30016
362.602	-196.22365
363.113	-221.2727
363.625	-225.26192
364.136	-159.1745
364.647	-317.37516
365.158	-207.24402
365.669	-214.26322
366.18	-197.23291
366.691	-215.22825
367.201	-267.32271
367.712	-248.26871
368.222	-305.33667
368.733	-278.26805
369.243	-347.34852
369.753	-267.28076
370.263	-225.24118
370.773	-298.34115
371.282	-244.24611
371.792	-358.3224
372.301	-359.35938
372.811	-283.31286
373.32	-407.29421
373.829	-472.41332
374.338	-362.25404
374.847	-369.25854
375.356	-426.30749
375.865	-456.21822
376.373	-483.25912
376.882	-393.26895
377.39	-446.25264
377.898	-659.35364
378.407	-582.18546
378.915	-455.08512
379.423	-542.13452
379.93	-501.06122
380.438	-727.10599
380.946	-634.00126
381.453	-809.98542
381.96	-835.88945
382.468	-1040.75394
382.975	-875.76082
383.482	-845.67655
383.989	-1060.69627
384.495	-969.57243
385.002	-1218.37263
385.509	-1235.36533
386.015	-1250.31657
386.521	-1271.30523
387.028	-1381.27343
387.534	-1425.30709
388.04	-1398.30064
388.546	-1749.30651
389.051	-1949.49262
389.557	-2038.75137
390.063	-1650.03065
390.568	-1897.3371
391.073	-2147.04015
391.578	-2108.3093
392.084	-2339.43585
392.589	-2881.35741
393.093	-3225.91123
393.598	-3208.8514
394.103	-3376.56665
394.607	-3600.40997
395.112	-3675.47244
395.616	-4191.95866
396.12	-4870.19774
396.624	-5442.1348
397.128	-5670.15893
397.632	-5932.90785
398.136	-6715.62341
398.639	-8533.27275
399.143	-10340.10426
399.646	-11015.74585
400.15	-12474.77787
400.653	-14514.21234
401.156	-17278.54278
401.659	-20624.71703
402.162	-16376.08382
402.664	-2500.35171
403.167	-539.61322
403.67	0
404.172	0
404.674	0
405.176	0
405.678	0
406.18	0
406.682	0
407.184	0
407.686	0
408.187	0
408.688	0
409.19	0
409.691	0
410.192	0
410.693	-3417.18981
411.194	-8341.05327
411.694	-7061.18837
412.195	-6156.17953
412.696	-6774.8517
413.196	-9096.23183
413.696	-9828.82723
414.196	-8108.1672
414.696	-5230.72053
415.196	-2514.74153
415.696	1477.05122
416.196	1431.43305
416.695	-1551.48715
417.195	-3103.273
417.694	-3125.51808
418.194	-2550.68496
418.693	-2909.07918
419.192	-2871.80677
419.691	-2817.46661
420.19	-2414.52606
420.688	-2167.03852
421.187	-1837.81732
421.685	-1306.3831
422.184	-836.99427
422.682	-916.57697
423.18	-1413.07068
423.678	-1499.86259
424.176	-1418.07736
424.674	-1284.53879
425.172	-955.0457
425.669	-816.78958
426.167	-609.76173
426.664	-666.66989
427.161	-749.58452
427.659	-687.6212
428.156	-652.63582
428.652	-739.67759
429.149	-757.68696
429.646	-579.75064
430.143	-509.84681
430.639	-604.86627
431.135	-604.95189
431.632	-455.94745
432.128	-549.03041
432.624	-708.16786
433.12	-720.06028
433.616	-635.05412
434.111	-719.16056
434.607	-629.19035
435.103	-516.1155
435.598	-463.11048
436.093	-451.22058
436.588	-352.16897
437.083	-449.26739
437.578	-350.22574
438.073	-580.49648
438.568	-449.4092
439.062	-366.24572
439.557	-405.37302
440.051	-411.35421
440.546	-452.40802
441.04	-459.47289
441.534	-427.49773
442.028	-389.42418
442.522	-455.50997
443.015	-413.40036
443.509	-432.52181
444.002	-410.49305
444.496	-402.41048
444.989	-405.5021
445.482	-418.53609
445.975	-462.51524
446.468	-447.46961
446.961	-408.42596
447.454	-385.44303
447.947	-442.54939
448.439	-438.587
448.931	-479.57345
449.424	-376.53241
449.916	-368.49278
450.408	-430.52315
450.9	-456.62701
451.392	-439.64362
451.884	-394.51259
452.375	-455.66013
452.867	-309.39468
453.358	-435.56503
453.849	-431.52154
454.341	-373.4831
454.832	-450.56568
455.323	-433.64147
455.814	-421.58806
456.304	-413.58132
456.795	-332.45371
457.285	-372.51274
457.776	-318.45109
458.266	-425.63922
458.756	-361.55338
459.247	-412.62469
459.737	-404.61549
460.226	-388.5529
460.716	-428.67465
461.206	-379.60134
461.695	-365.61756
462.185	-413.65909
462.674	-335.51381
463.163	-318.46512
463.653	-360.50166
464.142	-377.62403
464.63	-342.58162
465.119	-404.6497
465.608	-395.63612
466.096	-291.43469
466.585	-335.54957
467.073	-307.52476
467.561	-356.62214
468.05	-315.52715
468.538	-328.59136
469.026	-313.54713
469.513	-355.54257
470.001	-341.56692
470.489	-297.51395
470.976	-288.49056
471.463	-324.61322
471.951	-295.56311
472.438	-319.56703
472.925	-310.54717
473.412	-285.5427
473.899	-293.51919
474.385	-277.52927
474.872	-352.6444
475.359	-280.53383
475.845	-284.45432
476.331	-241.40971
476.817	-267.51882
477.303	-247.45319
477.789	-278.53801
478.275	-302.60658
478.761	-247.48019
479.247	-253.45882
479.732	-252.50708
480.218	-250.53365
480.703	-269.5509
481.188	-251.43827
481.673	-244.45796
482.158	-330.57822
482.643	-215.45645
483.128	-278.52641
483.612	-262.51287
484.097	-180.36721
484.581	-208.40523
485.066	-309.64198
485.55	-226.4133
486.034	-221.39976
486.518	-259.51456
487.002	-316.66545
487.486	-255.53239
487.969	-260.5444
488.453	-239.52156
488.936	-259.50328
489.42	-219.41682
489.903	-219.47954
490.386	-685.10738
490.869	-220.41699
491.352	-223.48025
491.835	-215.38751
492.318	-271.53815
492.8	-225.40679
493.283	-237.52902
493.765	-281.61424
494.247	-200.41339
494.73	-235.45947
495.212	-199.42728
495.694	-258.53495
496.175	-317.67269
496.657	-191.40108
497.139	-183.28363
497.62	-279.59051
498.102	-220.48488
498.583	-221.49616
499.064	-257.51274
499.545	-205.41698
500.026	-242.48674
500.507	-219.45601
500.988	-200.44523
501.469	-246.55443
501.949	-181.40118
502.43	-240.51186
502.91	-226.41978
503.39	-254.58112
503.87	-195.40966
504.35	-181.38544
504.83	-227.4493
505.31	-263.58073
505.79	-229.49529
506.269	-195.41255
506.749	-280.58575
507.228	-250.53411
507.707	-246.49775
508.187	-227.49684
508.666	-263.59044
509.145	-245.52218
509.623	-239.51294
510.102	-240.53316
510.581	-236.52515
511.059	-214.48705
511.538	-210.49742
512.016	-214.4679
512.494	-189.41874
512.972	-200.43562
513.45	-277.58936
513.928	-223.49468
514.406	-268.59115
514.884	-223.52545
515.361	-198.4331
515.839	-189.39232
516.316	-207.45613
516.793	-217.50674
517.27	-172.38211
517.747	-204.47947
518.224	-203.43286
518.701	-191.39063
519.178	-246.56214
519.654	-211.46533
520.131	-229.52382
520.607	-184.42047
521.083	-220.46493
521.56	-216.47187
522.036	-182.36842
522.512	-170.38644
522.987	-253.55725
523.463	-194.42507
523.939	-195.44264
524.414	-153.32497
524.89	-200.43951
525.365	-201.42152
525.84	-247.54427
526.315	-207.46148
526.79	-168.34912
527.265	-161.33778
527.74	-225.51032
528.215	-203.44432
528.689	-236.4889
529.164	-193.39042
529.638	-195.46572
530.112	-199.43427
530.587	-227.45162
531.061	-235.52845
531.534	-179.40303
532.008	-198.44151
532.482	-166.35343
532.956	-223.52851
533.429	-180.40486
533.903	-155.31801
534.376	-212.43898
534.849	-200.43322
535.322	-142.30916
535.795	-163.36926
536.268	-171.38091
536.741	-144.31991
537.213	-153.32794
537.686	-175.39467
538.158	-204.42563
538.631	-99.22117
539.103	-171.35496
539.575	-123.23707
540.047	-103.20779
540.519	-114.25115
540.991	-61.13622
541.463	-122.27227
541.934	-158.33566
542.406	-129.28283
542.877	-111.23021
543.348	-101.22424
543.82	-60.13424
544.291	-76.16251
544.762	-117.25436
545.233	-62.14088
545.703	-121.24545
546.174	-79.16736
546.645	-85.18345
547.115	-72.15716
547.585	-11.02265
548.056	-64.13834
548.526	-28.05858
548.996	38.08069
549.466	121.25711
549.935	-13.02717
550.405	36.0688
550.875	23.04776
551.344	64.13389
551.814	61.12204
552.283	154.28533
552.752	106.21064
553.221	100.18472
553.69	166.31017
554.159	146.30313
554.628	174.32432
555.096	230.48606
555.565	278.50763
556.033	332.6419
556.502	351.698
556.97	351.63592
557.438	390.75658
557.906	471.90348
558.374	499.91611
558.842	519.99316
559.31	538.95621
559.777	615.16222
560.245	747.33787
560.712	793.37967
561.18	782.28286
561.647	844.38567
562.114	929.52275
562.581	1078.88548
563.048	1155.82262
563.514	1158.96353
563.981	1239.8923
564.448	1367.95373
564.914	1469.15124
565.381	1581.17188
565.847	1710.35135
566.313	1782.3743
566.779	1886.31393
567.245	1972.48858
567.711	2098.63275
568.176	2236.39642
568.642	2320.90794
569.108	2461.85095
569.573	2727.68885
570.038	2813.13842
570.504	2841.39481
570.969	3069.97953
571.434	3283.16857
571.899	3392.58772
572.363	3531.29239
572.828	3697.26942
573.293	3873.17903
573.757	3944.14889
574.222	4022.91669
574.686	4229.82217
575.15	4302.14325
575.614	4385.8872
576.078	4585.90543
576.542	4653.70617
577.006	4611.66144
577.469	4747.20748
577.933	4767.51337
578.396	4850.86414
578.86	4826.82037
579.323	4780.89273
579.786	4789.33462
580.249	4787.61731
580.712	4723.1252
581.175	4684.19234
581.637	4619.83489
582.1	4569.58877
582.563	4544.49241
583.025	4322.28281
583.487	4347.25617
583.95	4194.63955
584.412	4249.53331
584.874	4057.44376
585.336	3977.33537
585.797	3899.86212
586.259	3856.39904
586.721	3788.3675
587.182	3676.45059
587.643	3600.29136
588.105	3480.5654
588.566	3479.95823
589.027	3298.69548
589.488	3278.43233
589.949	3191.7907
590.41	3064.73952
590.87	3061.5156
591.331	3074.23637
591.791	2989.55054
592.252	2911.5043
592.712	2851.79555
593.172	2750.47049
593.632	2802.36539
594.092	2726.43593
594.552	2682.28141
595.011	2614.55016
595.471	2661.45476
595.931	2587.43571
596.39	2578.75681
596.849	2536.63011
597.308	2597.33474
597.768	2575.06336
598.227	2585.80615
598.685	2726.59746
599.144	2682.65888
599.603	2755.7278
600.062	2752.14909
600.52	2801.41107
600.978	2930.71784
601.437	2973.53959
601.895	2994.15209
602.353	3076.36166
602.811	3248.30077
603.269	3259.70093
603.727	3339.67642
604.184	3454.28329
604.642	3580.73014
605.099	3720.35404
605.557	3813.61544
606.014	3915.82874
606.471	4004.63127
606.928	4330.54786
607.385	4283.29294
607.842	4564.80455
608.299	4858.76983
608.755	4728.03306
609.212	5003.38665
609.668	5163.25767
610.125	5398.70621
610.581	5519.60436
611.037	5679.31073
611.493	5723.48277
611.949	5821.51145
612.405	6013.56416
612.861	6162.33649
613.316	6222.36126
613.772	6418.14027
614.227	6429.26831
614.683	6455.85038
615.138	6447.22973
615.593	6574.19497
616.048	6615.14931
616.503	6619.52336
616.958	6518.62234
617.412	6520.31207
617.867	6328.97981
618.321	6434.73589
618.776	6446.01831
619.23	6227.34069
619.684	6270.15742
620.138	6196.33319
620.592	5992.63694
621.046	5948.47273
621.5	5728.75806
621.954	5569.40549
622.407	5437.40066
622.861	5420.93018
623.314	5336.59165
623.768	5089.85223
624.221	5012.99612
624.674	4854.93063
625.127	4649.15599
625.58	4608.05691
626.033	4466.95392
626.485	4325.49324
626.938	4234.53569
627.39	4145.44012
627.843	4056.46334
628.295	3964.51109
628.747	3842.74598
629.199	3806.49601
629.651	3558.59568
630.103	3600.63673
630.555	3594.21874
631.006	3525.83017
631.458	3493.87701
631.909	3428.77851
632.361	3225.90675
632.812	3210.84802
633.263	3291.47187
633.714	3281.45314
634.165	3182.17674
634.616	3128.06967
635.067	3130.70668
635.518	3082.11445
635.968	3095.226
636.419	3069.61923
636.869	3059.11669
637.319	2976.95585
637.769	3041.77048
638.219	3103.16143
638.669	2966.14443
639.119	2917.29523
639.569	3041.22053
640.019	2994.99705
640.468	3091.79323
640.918	3125.23355
641.367	3008.83662
641.816	3007.82494
642.265	3171.98889
642.714	3206.98762
643.163	3248.94681
643.612	3157.19754
644.061	3200.49348
644.51	3175.90677
644.958	3240.69597
645.406	3240.19076
645.855	3290.35241
646.303	3353.05054
646.751	3340.8722
647.199	3414.86206
647.647	3361.94314
648.095	3408.91002
648.543	3471.289
648.99	3452.15922
649.438	3477.07338
649.885	3452.41227
650.333	3494.00477
650.78	3537.22187
651.227	3450.295
651.674	3476.8771
652.121	3403.31604
652.568	3425.29538
653.015	3473.58384
653.461	3470.1519
653.908	3450.03881
654.354	3457.20029
654.801	3298.10876
655.247	3366.72361
655.693	3363.82824
656.139	3350.25332
656.585	3349.26134
657.031	3259.08334
657.477	3283.65021
657.922	3348.00294
658.368	3295.47157
658.813	3338.09773
659.259	3331.27522
659.704	3308.09647
660.149	3321.09885
660.594	3374.20917
661.039	3365.95748
661.484	3312.28128
661.929	3282.14769
662.373	3338.62437
662.818	3344.5173
663.262	3339.31548
663.707	3344.67166
664.151	3391.41918
664.595	3333.33747
665.039	3433.54529
665.483	3437.70191
665.927	3434.1822
666.371	3483.03217
666.814	3557.24597
667.258	3524.16913
667.701	3613.61355
668.145	3674.51056
668.588	3564.43482
669.031	3600.11688
669.474	3597.29713
669.917	3803.69231
670.36	3679.48386
670.803	3874.23405
671.245	3726.43429
671.688	3831.32967
672.13	3744.78141
672.573	3850.63071
673.015	3901.18938
673.457	3895.55167
673.899	4006.21796
674.341	3958.20629
674.783	3877.18467
675.225	4011.32031
675.666	4022.13613
676.108	4027.4859
676.549	4080.03546
676.991	4000.59196
677.432	4066.96543
677.873	4063.88007
678.314	4037.10943
678.755	4082.22294
679.196	4011.83088
679.637	4043.2865
680.078	4087.96004
680.518	4055.95198
680.959	4047.13384
681.399	4058.38276
681.839	4057.24842
682.28	4089.32836
682.72	4010.83414
683.16	3985.44469
683.6	4160.75676
684.039	4075.23226
684.479	4063.30429
684.919	4046.85405
685.358	4093.56421
685.798	4111.81383
686.237	4102.19655
686.676	4160.88233
687.115	4136.96861
687.554	4196.01281
687.993	4198.53757
688.432	4111.78926
688.871	4156.71343
689.309	4225.03966
689.748	4374.1035
690.186	4288.02336
690.625	4283.87612
691.063	4340.01495
691.501	4280.28003
691.939	4310.32591
692.377	4369.12833
692.815	4392.96409
693.253	4471.97933
693.69	4476.34597
694.128	4391.06032
694.565	4419.94114
695.003	4424.41989
695.44	4505.78295
695.877	4503.73401
696.314	4481.21717
696.751	4618.52739
697.188	4499.62522
697.625	4549.61521
698.061	4480.94768
698.498	4631.94441
698.934	4617.9098
699.371	4573.75475
699.807	4602.78332
700.243	4576.92011
700.679	4593.48631
701.115	4647.73762
701.551	4713.69485
701.987	4658.40655
702.422	4673.76789
702.858	4648.80867
703.294	4652.45612
703.729	4755.9581
704.164	4684.86688
704.599	4666.3303
705.035	4696.33623
705.47	4705.92793
705.904	4593.67291
706.339	4822.55322
706.774	4683.66415
707.209	4778.49568
707.643	4819.77624
708.078	4761.91201
708.512	4807.09001
708.946	4855.74684
709.38	4887.63843
709.814	4882.38691
710.248	4768.9203
710.682	4870.66907
711.116	4783.72725
711.549	4793.37727
711.983	4802.49969
712.416	4872.63496
712.85	4864.04573
713.283	4830.65876
713.716	4866.11629
714.149	4738.77355
714.582	4701.36211
715.015	4765.14436
715.448	4809.16993
715.881	4719.19224
716.313	4679.66934
716.746	4636.72294
717.178	4674.86035
717.61	4597.33464
718.043	4619.18047
718.475	4553.99274
718.907	4629.3115
719.339	4445.55651
719.77	4328.93211
720.202	4488.36313
720.634	4421.08083
721.065	4346.93172
721.497	4427.14395
721.928	4329.19924
722.359	4276.07945
722.79	4167.08494
723.221	4252.44389
723.652	4189.6815
724.083	4085.71175
724.514	4098.83517
724.945	4005.0319
725.375	3871.98997
725.806	3925.51718
726.236	3893.73058
726.666	3776.17786
727.096	3774.4346
727.526	3813.67741
727.956	3715.91965
728.386	3631.50293
728.816	3592.70541
729.246	3494.43266
729.675	3459.52952
730.105	3480.53615
730.534	3444.19822
730.964	3460.7365
731.393	3416.62115
731.822	3308.82491
732.251	3256.78037
732.68	3278.28446
733.109	3161.5796
733.537	3183.44256
733.966	3125.63183
734.395	3169.16598
734.823	3094.04461
735.251	3020.43467
735.68	2996.69363
736.108	2906.74547
736.536	2896.30883
736.964	2821.2065
737.392	2846.66391
737.82	2777.39927
738.247	2757.38488
738.675	2747.37419
739.102	2593.58684
739.53	2646.71853
739.957	2531.74069
740.384	2599.52645
740.811	2508.64808
741.238	2515.42974
741.665	2484.14319
742.092	2432.28856
742.519	2325.42244
742.945	2376.29013
743.372	2316.42404
743.798	2267.60201
744.225	2154.13585
744.651	2185.42125
745.077	2169.37852
745.503	2169.27144
745.929	2146.17475
746.355	2123.34322
746.781	2046.26642
747.207	1971.95947
747.632	1954.1158
748.058	1921.20239
748.483	1962.88077
748.908	1903.16695
749.334	1837.06095
749.759	1830.88374
750.184	1780.88206
750.609	1741.97881
751.033	1825.89613
751.458	1792.66525
751.883	1718.99114
752.307	1676.7467
752.732	1541.82748
753.156	1622.87734
753.58	1613.72478
754.005	1574.93338
754.429	1584.65469
754.853	1490.74102
755.277	1508.60292
755.7	1508.76876
756.124	1403.64125
756.548	1366.44732
756.971	1406.59364
757.394	1361.7163
757.818	1373.72772
758.241	1327.61677
758.664	1266.51658
759.087	1256.14299
759.51	1251.45174
759.933	1240.33414
760.356	1203.47223
760.778	1185.32215
761.201	1139.22869
761.623	1159.25089
762.046	1168.20359
762.468	1158.22291
762.89	1124.24624
763.312	1038.08744
763.734	1011.01027
764.156	1014.07638
764.578	978.86098
765	985.00196
765.421	901.9528
765.843	977.16414
766.264	919.87681
766.686	866.87015
767.107	838.7464
767.528	792.74378
767.949	881.92239
768.37	839.7736
768.791	793.66679
769.212	730.6186
769.632	731.4905
770.053	721.69005
770.473	758.61378
770.894	780.70874
771.314	760.58651
771.734	633.32024
772.154	694.59028
772.575	642.32926
772.994	653.31739
773.414	669.43183
773.834	610.37977
774.254	616.35997
774.673	549.22273
775.093	570.28449
775.512	521.17991
775.931	567.31279
776.351	519.18584
776.77	517.16182
777.189	526.1465
777.607	505.19213
778.026	469.0856
778.445	410.96576
778.864	500.18738
779.282	422.95257
779.701	437.03057
780.119	394.94069
780.537	398.93714
780.955	445.05839
781.373	383.8964
781.791	410.86262
782.209	464.9921
782.627	374.93608
783.045	389.84274
783.462	346.84314
783.88	360.88607
784.297	340.81614
784.715	321.78938
785.132	312.72382
785.549	330.78883
785.966	310.74811
786.383	287.6799
786.8	340.75152
787.217	326.73771
787.633	263.63482
788.05	383.85944
788.466	328.73861
788.883	285.70036
789.299	281.65205
789.715	306.71327
790.131	260.62581
790.547	270.6516
790.963	224.54182
791.379	251.61523
791.795	230.51053
792.21	274.61753
792.626	225.51984
793.041	234.56153
793.457	212.51164
793.872	223.51051
794.287	201.46883
794.702	244.58352
795.117	195.47426
795.532	187.45939
795.947	219.51402
796.362	266.6137
796.776	248.56328
797.191	226.53841
797.605	145.33622
798.02	178.42537
798.434	198.43127
798.848	179.43274
799.262	154.37672
799.676	235.55716
800.09	171.41371
800.504	193.45865
800.918	144.32973
801.331	195.50087
801.745	188.42303
802.158	151.37247
802.572	203.4813
802.985	179.4249
803.398	159.37364
803.811	181.45694
804.224	189.46104
804.637	109.25824
805.05	171.38958
805.462	123.29983
805.875	112.28824
806.288	80.19286
806.7	145.3599
807.112	177.40276
807.525	134.32731
807.937	111.2726
808.349	181.44482
808.761	124.30244
809.173	128.30729
809.584	136.33257
809.996	112.27235
810.408	104.26681
810.819	118.2754
811.231	41.10645
811.642	67.15996
812.053	126.29673
812.464	171.39917
812.875	133.33625
813.286	115.29374
813.697	167.384
814.108	164.39416
814.519	145.31898
814.929	116.29364
815.34	111.26744
815.75	96.24284
816.16	126.31109
816.571	100.25843
816.981	110.25814
817.391	94.22618
817.801	88.21791
818.211	104.24663
818.62	89.21363
819.03	124.30108
819.44	131.3386
819.849	84.2112
820.259	109.27714
820.668	99.24223
821.077	75.18609
821.486	109.26083
821.895	117.2868
822.304	104.27387
822.713	99.23292
823.122	109.27016
823.531	91.21501
823.939	29.07122
824.348	108.26086
824.756	90.22466
825.164	113.28222
825.573	72.18057
825.981	113.27812
826.389	119.29634
826.797	85.21229
827.205	73.16753
827.612	91.22373
828.02	64.15049
828.428	58.14797
828.835	65.17108
829.243	67.15984
829.65	88.21799
830.057	116.27912
830.464	42.10286
830.871	116.27541
831.278	54.13092
831.685	107.23717
832.092	65.15928
832.499	79.17262
832.905	106.26651
833.312	69.15752
833.718	126.31063
834.124	112.25388
834.531	111.27762
834.937	94.24006
835.343	89.21395
835.749	89.20719
836.155	70.18309
836.561	112.27317
836.966	107.25976
837.372	51.13013
837.777	91.22563
838.183	126.27701
838.588	49.12203
838.993	74.17995
839.399	98.23813
839.804	29.07114
840.209	66.1679
840.613	101.22321
841.018	85.21444
841.423	101.25735
841.828	100.25124
842.232	123.30151
842.637	121.28246
843.041	32.08244
843.445	79.19759
843.849	63.15598
844.253	79.18731
844.657	74.18592
845.061	101.2276
845.465	95.22811
845.869	73.16941
846.272	40.09782
846.676	98.23554
847.079	97.24506
847.483	123.30352
847.886	99.23934
848.289	46.12301
848.692	90.22677
849.095	72.17266
849.498	134.33533
849.901	120.27223
850.304	109.25824
850.707	83.21081
851.109	108.27105
851.512	97.2368
851.914	53.13371
852.316	86.21654
852.718	43.1113
853.121	90.21935
853.523	110.25471
853.925	47.12283
854.326	65.16234
854.728	52.13387
855.13	26.06743
855.531	91.21618
855.933	100.23834
856.334	58.14462
856.736	21.04744
857.137	85.19671
857.538	66.1657
857.939	75.18473
858.34	90.21812
858.741	36.09445
859.142	58.1394
859.542	65.17126
859.943	95.23451
860.343	14.03495
860.744	74.18008
861.144	90.21828
861.544	30.07249
861.945	68.17299
862.345	116.28071
862.745	73.18093
863.145	131.30892
863.544	70.1765
863.944	92.21599
864.344	81.20039
864.743	89.21962
865.143	74.18952
865.542	55.12768
865.941	62.15336
866.34	93.22136
866.74	82.21913
867.139	48.11515
867.537	86.21801
867.936	67.161
868.335	82.20772
868.734	76.19355
869.132	84.1942
869.531	78.18797
869.929	92.20829
870.327	62.14851
870.726	138.33909
871.124	94.21818
871.522	81.20544
871.92	82.20134
872.318	103.24967
872.715	136.33183
873.113	45.1099
873.511	88.21799
873.908	2.0051
874.306	70.17366
874.703	99.24582
875.1	103.26133
875.497	90.21442
875.894	33.08119
876.291	56.13745
876.688	88.22569
877.085	65.15572
877.482	88.21903
877.878	84.20113
878.275	62.15734
878.671	116.25524
879.068	104.24882
879.464	72.17351
879.86	62.14647
880.256	118.28791
880.652	89.22501
881.048	98.24098
881.444	64.15213
881.84	62.15739
882.236	66.16564
882.631	49.12043
883.027	110.26368
883.422	62.15834
883.817	26.06568
884.213	56.14367
884.608	30.07391
885.003	74.17779
885.398	27.06792
885.793	69.17277
886.188	61.15147
886.582	86.2194
886.977	97.22839
887.371	64.16161
887.766	25.06251
888.16	89.22075
888.554	109.26689
888.949	115.28565
889.343	96.23275
889.737	55.14652
890.131	70.17511
890.525	67.17096
890.918	49.12344
891.312	87.20692
891.706	74.19349
892.099	97.24497
892.492	83.17806
892.886	85.20681
893.279	59.15018
893.672	64.16264
894.065	101.25079
894.458	106.26411
894.851	67.16381
895.244	84.21339
895.637	117.27848
896.029	106.2567
896.422	68.16573
896.814	89.21986
897.206	55.13096
897.599	144.3503
897.991	73.17589
898.383	101.23651
898.775	56.12637
899.167	37.08658
899.559	126.31486
899.951	100.23367
900.342	104.26214
900.734	-1.00251
901.125	90.23468
901.517	60.14711
901.908	98.23303
902.299	70.1706
902.69	66.15537
903.082	80.19279
903.473	74.17651
903.863	65.16551
904.254	47.10924
904.645	95.23451
905.036	58.1403
905.426	97.22019
905.817	85.20736
906.207	38.09081
906.597	60.14015
906.987	68.1758
907.378	51.12903
907.768	63.16627
908.158	95.22985
908.547	60.15479
908.937	63.16138
909.327	69.16707
909.717	72.18219
910.106	47.11303
910.495	77.1914
910.885	49.12419
911.274	65.1621
911.663	97.24427
912.052	122.29722
912.441	60.15237
912.83	89.20285
913.219	109.28252
913.608	94.2285
913.997	22.05545
914.385	82.19484
914.774	85.20573
915.162	70.16626
915.55	113.2703
915.939	3.00764
916.327	84.20846
916.715	53.13505
917.103	103.25117
917.491	106.25969
917.878	87.21255
918.266	67.1733
918.654	82.20838
919.041	20.05249
919.429	85.19936
919.816	79.1993
920.203	76.1835
920.591	89.21922
920.978	70.17086
921.365	70.18309
921.752	52.12398
922.139	87.18753
922.525	44.10583
922.912	83.20127
923.299	95.23425
923.685	55.14339
924.072	65.14953
924.458	91.22381
924.844	73.17994
925.231	52.12103
925.617	69.17495
926.003	97.24594
926.389	69.17351
926.774	66.16683
927.16	73.1806
927.546	51.13018
927.931	98.24249
928.317	100.22815
928.702	62.14641
929.088	43.10188
929.473	85.21498
929.858	30.07282
930.243	42.10099
930.628	46.11203
931.013	55.13622
931.398	125.28329
931.783	77.20185
932.167	32.07851
932.552	107.26539
932.937	96.23633
933.321	61.15279
933.705	89.22284
934.09	128.31904
934.474	109.25605
934.858	85.21918
935.242	38.08831
935.626	79.20122
936.009	73.19344
936.393	86.21747
936.777	65.16603
937.16	85.21986
937.544	99.2311
937.927	39.09916
938.311	84.20381
938.694	129.33666
939.077	99.23482
939.46	117.28382
939.843	113.23257
940.226	71.18148
940.609	74.16911
940.991	87.22003
941.374	63.15363
941.757	105.25653
942.139	47.10565
942.522	117.27301
942.904	79.1889
943.286	101.25435
943.668	102.26187
944.05	79.19358
944.432	58.14294
944.814	114.27753
945.196	64.15557
945.578	25.05971
945.959	81.18871
946.341	94.22893
946.722	107.2484
947.104	56.13373
947.485	64.14855
947.866	74.18565
948.247	56.14115
948.628	106.25593
949.009	42.10772
949.39	74.18344
949.771	54.12554
950.152	73.17841
950.532	-20.04983
950.913	74.17772
951.293	39.10555
951.674	72.17345
952.054	62.1533
952.434	85.20967
952.814	99.23337
953.194	96.2493
953.574	105.25605
953.954	65.15394
954.334	61.15174
954.714	77.18672
955.093	72.17633
955.473	47.1176
955.853	68.17549
956.232	79.21553
956.611	136.3209
956.99	48.12068
957.37	73.18528
957.749	103.24327
958.128	50.12598
958.506	33.08586
958.885	51.12871
959.264	65.15886
959.643	74.16761
960.021	83.20444
960.4	63.14243
960.778	121.29418
961.156	100.24844
961.535	73.16941
961.913	79.18384
962.291	26.06698
962.669	38.09647
963.047	71.18053
963.424	52.13266
963.802	38.09365
964.18	117.29253
964.557	100.22806
964.935	79.18615
965.312	48.12504
965.69	87.21642
966.067	81.19612
966.444	97.23698
966.821	98.25054
967.198	85.20488
967.575	109.26511
967.952	110.25623
968.329	64.15534
968.705	104.22046
969.082	72.18394
969.458	55.13182
969.835	55.13377
970.211	56.14357
970.587	91.22488
970.963	126.31895
971.339	69.17958
971.715	80.19868
972.091	99.2416
972.467	71.17643
972.843	67.16576
973.219	93.22153
973.594	77.20047
973.97	132.30929
974.345	56.13388
974.721	69.1665
975.096	73.17589
975.471	88.20724
975.846	85.20286
976.221	51.12949
976.596	83.19771
976.971	108.26381
977.346	67.15548
977.72	91.23015
978.095	88.22592
978.469	70.16645
978.844	117.29062
979.218	59.14119
979.593	85.20232
979.967	63.15311
980.341	77.17635
980.715	84.21036
981.089	70.17461
981.463	105.23845
981.837	22.05404
982.21	145.33115
982.584	52.12555
982.957	47.11743
983.331	31.07356
983.704	79.19308
984.078	78.19124
984.451	110.27179
984.824	37.09033
985.197	114.27358
985.57	81.20201
985.943	80.1965
986.316	100.24345
986.688	82.19656
987.061	110.25481
987.434	121.31146
987.806	133.31753
988.179	51.12032
988.551	122.30552
988.923	61.14992
989.295	66.16445
989.667	83.19702
990.039	111.27118
990.411	90.2055
990.783	108.24581
991.155	58.13914
991.527	149.36022
991.898	74.18358
992.27	67.16521
992.641	70.17499
993.012	117.27172
993.384	86.20371
993.755	43.10976
994.126	62.14879
994.497	53.13002
994.868	57.13076
995.239	34.08265
995.61	63.15814
995.98	58.14067
996.351	54.13362
996.722	55.12743
997.092	29.06895
997.462	34.07967
997.833	78.18391
998.203	99.23781
998.573	84.20785
998.943	85.19795
999.313	59.14113
999.683	57.13661
1000.053	107.24338
1000.423	40.09738
1000.792	97.24933
1001.162	93.22704
1001.531	81.19856
1001.901	97.23971
1002.27	77.17117
1002.639	94.23829
1003.009	87.2054
1003.378	37.09481
1003.747	126.29326
1004.116	20.04812
1004.485	28.0672
1004.853	107.2683
1005.222	91.22777
1005.591	79.18652
1005.959	49.11042
1006.328	51.11474
1006.696	86.20599
1007.064	85.21244
1007.433	76.18902
1007.801	115.27886
1008.169	85.21329
1008.537	82.18035
1008.905	61.14178
1009.273	51.12594
1009.64	40.09559
1010.008	97.2291
1010.375	127.30391
1010.743	172.3875
1011.11	56.13234
1011.478	82.20171
1011.845	93.21684
1012.212	76.17109
1012.579	75.18323
1012.946	71.16828
1013.313	96.22643
1013.68	118.26149
1014.047	46.10968
1014.414	67.15769
1014.78	87.21468
1015.147	131.31192
1015.513	70.16799
1015.88	134.33751
1016.246	107.26131
1016.612	109.24653
1016.978	70.17086
1017.344	71.17475
1017.71	104.251
1018.076	83.19444
1018.442	94.23989
1018.808	110.27189
1019.174	87.21673
1019.539	191.42722
1019.905	70.1644
1020.27	47.11602
1020.636	98.23276
1021.001	118.27875
1021.366	102.24245
1021.731	86.21971
1022.096	13.033
1022.461	101.23661
1022.826	83.19596
1023.191	85.22161
1023.556	108.25018
1023.92	101.24593
1024.285	102.24646
1024.649	69.16845
1025.014	93.22848
1025.378	68.17036
1025.742	73.18047
1026.107	114.25442
1026.471	77.17876
1026.835	58.14352
1027.199	52.12508
1027.562	109.25034
1027.926	108.26115
1028.29	70.17644
1028.654	87.19861
1029.017	65.15928
1029.381	50.1194
1029.744	93.23529
1030.107	85.19967
1030.471	80.19038
1030.834	111.24931
1031.197	97.2315
1031.56	80.18759
1031.923	72.18536
1032.286	94.21878
1032.648	119.28074
1033.011	38.0874
1033.374	141.32539
1033.736	36.09484
1034.099	61.14831
1034.461	54.13626
1034.823	35.08735
1035.185	89.22236
1035.548	45.10957
1035.91	66.15755
1036.272	53.12051
1036.634	120.28962
1036.995	70.16382
1037.357	71.17198
1037.719	68.16474
1038.08	115.26951
1038.442	66.1561
1038.803	77.18384
1039.165	79.19823
1039.526	62.14941
1039.887	82.19491
1040.248	45.11092
1040.609	105.25672
1040.97	86.20866
1041.331	105.26309
1041.692	45.10509
1042.053	96.21646
1042.413	94.21706
1042.774	85.20527
1043.134	141.32966
1043.495	115.28555
1043.855	101.24252
1044.215	60.14858
1044.576	65.15489
1044.936	76.17326
1045.296	82.20335
1045.656	70.17105
1046.016	84.20136
1046.375	66.15953
1046.735	41.09307
1047.095	77.17918
1047.454	111.23196
1047.814	115.27288
1048.173	131.30796
1048.533	44.10087
1048.892	5.0121
1049.251	98.24374
1049.61	59.14495
1049.969	18.04267
1050.328	108.23114
1050.687	66.16001
1051.046	99.23871
1051.405	92.22698
1051.763	36.08296
1052.122	40.09988
1052.48	49.12011
1052.839	97.22599
1053.197	86.20088
1053.555	140.31322
1053.914	107.25878
1054.272	96.22994
1054.63	54.13186
1054.988	28.06676
1055.345	115.24405
1055.703	84.20074
1056.061	58.14891
1056.419	65.16772
1056.776	94.22593
1057.134	88.20207
1057.491	79.19666
1057.848	79.19552
1058.206	67.15696
1058.563	86.18804
1058.92	79.18093
1059.277	61.15008
1059.634	105.24424
1059.991	102.2418
1060.348	85.1906
1060.704	45.10727
1061.061	126.28817
1061.418	51.12358
1061.774	95.23244
1062.131	18.04782
1062.487	24.05637
1062.843	67.16643
1063.199	62.15375
1063.555	54.12494
1063.911	59.14869
1064.267	117.24026
1064.623	64.15493
1064.979	125.29168
1065.335	133.31266
1065.691	68.16232
1066.046	57.12508
1066.402	53.12026
1066.757	36.09103
1067.112	102.24776
1067.468	26.06164
1067.823	111.26359
1068.178	45.10888
1068.533	93.22348
1068.888	70.16652
1069.243	69.16958
1069.598	66.15977
1069.952	45.10136
1070.307	43.1065
1070.662	32.07618
1071.016	26.05851
1071.371	82.1852
1071.725	107.25301
1072.079	61.14631
1072.434	95.22872
1072.788	62.1472
1073.142	84.20518
1073.496	42.09972
1073.85	83.19109
1074.203	100.24016
1074.557	70.18539
1074.911	75.17803
1075.265	90.20741
1075.618	97.2346
1075.971	64.15172
1076.325	22.05615
1076.678	17.03911
1077.031	78.17537
1077.385	64.14047
1077.738	50.11279
1078.091	47.10686
1078.444	83.19131
1078.796	54.1323
1079.149	57.14148
1079.502	53.12503
1079.855	27.0632
1080.207	69.16927
1080.56	82.21059
1080.912	53.12886
1081.264	53.12746
1081.617	83.20089
1081.969	67.16836
1082.321	67.16296
1082.673	53.1208
1083.025	92.21632
1083.377	-113.25088
1083.728	137.31389
1084.08	47.1173
1084.432	53.12765
1084.783	104.24091
1085.135	88.21887
1085.486	41.0939
1085.838	85.20782
1086.189	68.16437
1086.54	98.23169
1086.891	47.11883
1087.242	114.27399
1087.593	90.2173
1087.944	64.14431
1088.295	80.18061
1088.646	60.14503
1088.996	59.14178
1089.347	64.15651
1089.698	31.07347
1090.048	70.18103
1090.398	79.18202
1090.749	64.1526
1091.099	42.10567
1091.449	110.27079
1091.799	58.14488
1092.149	3.00737
1092.499	49.11945
1092.849	67.16963
1093.199	104.25791
1093.548	84.20036
1093.898	72.17927
1094.248	69.17656
1094.597	52.13257
1094.947	56.14911
1095.296	77.18903
1095.645	75.19406
1095.994	100.2377
1096.343	101.25161
1096.692	50.13123
1097.041	42.11376
1097.39	108.26782
1097.739	104.26756
1098.088	76.20256
1098.437	33.08686
1098.785	84.225
1099.134	87.22938
1099.482	66.1809
1099.83	126.32652
1100.179	56.14578
1100.527	61.16164
1100.875	22.05838
1101.223	77.20335
1101.571	60.16539
1101.919	20.05247
1102.267	36.10148
1102.615	5.01607
1102.962	13.04184
1103.31	0
1103.658	21.06756
