Data from N2 R11 sample 4_Subt2__2__16-06-31-522.txt Node

Date: Mon Sep 01 16:06:31 PDT 2025
User: uwsun
Spectrometer: HDX01956
Trigger mode: 0
Integration Time (sec): 5.000000E-1
Scans to average: 1
Nonlinearity correction enabled: true
Boxcar width: 0
Storing dark spectrum: false
XAxis mode: Wavelengths
Number of Pixels in Spectrum: 2068
>>>>>Begin Spectral Data<<<<<
194.03	19.05317
194.578	22.06938
195.127	22.06837
195.676	2.00625
196.225	81.21197
196.773	69.1871
197.321	56.14891
197.87	109.26431
198.418	94.22558
198.966	29.07088
199.513	10.02337
200.061	34.08041
200.609	134.32914
201.156	63.12727
201.704	78.18183
202.251	47.11624
202.798	58.14041
203.345	117.26764
203.892	75.17535
204.438	135.29661
204.985	23.05066
205.532	51.12506
206.078	129.29081
206.624	46.10508
207.17	120.25627
207.716	85.19037
208.262	111.20129
208.808	18.04122
209.354	66.1487
209.899	103.24205
210.445	71.16294
210.99	44.09848
211.535	151.32478
212.08	98.21074
212.625	126.29048
213.17	98.23016
213.715	28.05772
214.259	110.23654
214.804	111.25391
215.348	95.20125
215.892	139.30591
216.436	195.41092
216.98	158.32013
217.524	65.14293
218.068	159.36722
218.612	122.28418
219.155	70.15338
219.698	73.16208
220.242	131.30255
220.785	94.20422
221.328	131.30171
221.871	127.29914
222.414	136.31366
222.956	46.10355
223.499	109.22717
224.041	128.27679
224.583	134.26852
225.126	87.17858
225.668	83.1878
226.21	112.26078
226.751	62.1262
227.293	106.22519
227.835	64.1459
228.376	168.35659
228.918	109.25625
229.459	41.09556
230	68.15113
230.541	62.1339
231.082	81.18275
231.622	100.21421
232.163	100.22419
232.704	74.17067
233.244	56.12983
233.784	136.30841
234.324	75.15193
234.864	83.17475
235.404	159.34713
235.944	79.17474
236.484	113.2615
237.023	52.11466
237.563	53.11414
238.102	61.13448
238.641	82.19281
239.18	43.09356
239.719	87.20277
240.258	82.17124
240.797	125.27418
241.335	85.19334
241.874	73.12975
242.412	92.20413
242.95	95.20855
243.488	119.24956
244.026	30.06454
244.564	147.27528
245.102	77.15969
245.64	112.24933
246.177	99.20449
246.715	115.25447
247.252	100.21207
247.789	206.34916
248.326	93.20459
248.863	84.16934
249.4	73.15363
249.936	100.18852
250.473	99.21165
251.009	78.16426
251.546	96.19398
252.082	126.25167
252.618	99.20165
253.154	100.21985
253.69	83.17191
254.226	129.28032
254.761	128.26149
255.297	89.17831
255.832	101.21854
256.367	94.20301
256.903	87.17486
257.438	106.22814
257.972	132.26672
258.507	39.08226
259.042	54.10816
259.576	44.08682
260.111	83.17637
260.645	88.17455
261.179	111.23515
261.713	95.19244
262.247	82.17337
262.781	95.18063
263.315	70.15693
263.849	83.18971
264.382	118.24675
264.915	127.2681
265.449	19.04243
265.982	146.29975
266.515	131.28855
267.048	48.09307
267.58	106.21113
268.113	125.24254
268.646	97.21733
269.178	54.11001
269.71	137.26913
270.243	108.22373
270.775	109.25134
271.307	130.28352
271.838	174.37159
272.37	112.24923
272.902	108.22243
273.433	52.10382
273.965	107.23558
274.496	122.27475
275.027	95.21346
275.558	92.20192
276.089	37.08259
276.62	106.24496
277.15	128.28507
277.681	124.24216
278.211	96.21363
278.741	56.11154
279.272	55.11381
279.802	76.17242
280.332	90.19087
280.861	126.27165
281.391	88.1792
281.921	71.1554
282.45	78.17688
282.98	75.17735
283.509	104.20927
284.038	90.18402
284.567	99.20835
285.096	131.28225
285.625	68.13879
286.153	80.16795
286.682	127.25715
287.21	51.11064
287.739	89.18796
288.267	70.15176
288.795	100.23642
289.323	57.11901
289.851	140.28938
290.378	74.14829
290.906	72.15489
291.433	98.21753
291.961	104.20754
292.488	93.20605
293.015	82.17071
293.542	83.18627
294.069	127.27386
294.596	123.26911
295.122	90.18987
295.649	118.22836
296.175	89.19151
296.702	112.2397
297.228	121.25913
297.754	129.2521
298.28	57.1142
298.806	66.13997
299.332	126.24045
299.857	68.13469
300.383	126.27992
300.908	51.10842
301.433	94.19891
301.958	128.25745
302.483	55.12038
303.008	120.2586
303.533	96.21973
304.058	98.20184
304.582	88.17969
305.107	32.07336
305.631	147.28823
306.155	38.0771
306.679	59.1193
307.203	67.13442
307.727	84.17215
308.251	103.21944
308.775	63.12815
309.298	35.0723
309.822	66.14425
310.345	99.20027
310.868	67.13734
311.391	131.27436
311.914	76.16273
312.437	101.19616
312.96	85.16958
313.482	64.12896
314.005	67.14342
314.527	76.16968
315.049	82.17671
315.571	57.10569
316.093	93.19339
316.615	99.1988
317.137	114.20404
317.659	125.2531
318.18	146.29121
318.702	103.19737
319.223	135.2233
319.744	92.16858
320.265	39.07821
320.786	72.14575
321.307	107.21705
321.828	131.23768
322.348	111.21023
322.869	102.19219
323.389	101.12692
323.909	126.22995
324.43	145.28054
324.95	108.1948
325.47	107.20762
325.989	70.13034
326.509	24.04145
327.029	59.10334
327.548	65.11277
328.067	98.18175
328.587	109.21109
329.106	62.1084
329.625	145.29857
330.144	104.18096
330.662	63.11041
331.181	80.14142
331.7	88.15466
332.218	79.12611
332.736	119.20547
333.255	65.11205
333.773	132.22725
334.291	113.20973
334.808	58.09346
335.326	151.24023
335.844	56.0926
336.361	73.13258
336.879	85.13857
337.396	85.14379
337.913	114.17943
338.43	89.13648
338.947	52.08598
339.464	70.09959
339.981	0
340.497	137.22874
341.014	71.11704
341.53	50.07429
342.046	77.12581
342.562	68.1145
343.078	110.16743
343.594	56.08794
344.11	90.13822
344.626	78.12819
345.141	108.15297
345.657	153.21431
346.172	100.15157
346.687	42.06005
347.202	43.05903
347.717	111.16177
348.232	74.1156
348.747	78.10726
349.261	86.10576
349.776	40.05655
350.29	26.0384
350.805	112.16601
351.319	105.14106
351.833	72.09133
352.347	41.0557
352.861	111.1437
353.374	138.17689
353.888	105.14359
354.401	70.0888
354.915	78.09177
355.428	115.15696
355.941	97.11933
356.454	177.20557
356.967	142.17726
357.48	115.13826
357.993	139.18193
358.505	109.13957
359.018	103.13207
359.53	83.1024
360.042	71.07834
360.554	93.1158
361.066	35.04392
361.578	58.06055
362.09	113.1325
362.602	40.04159
363.113	105.11469
363.625	99.10146
364.136	116.11375
364.647	-10.01051
365.158	115.11962
365.669	105.11459
366.18	108.11348
366.691	114.10522
367.201	82.08672
367.712	128.11836
368.222	53.05044
368.733	94.07621
369.243	65.05415
369.753	122.10837
370.263	87.08178
370.773	21.02117
371.282	54.04774
371.792	-55.04271
372.301	27.02269
372.811	38.03681
373.32	-35.02023
373.829	-54.03814
374.338	25.01381
374.847	2.00111
375.356	24.01314
375.865	0
376.373	50.01718
376.882	43.02225
377.39	2.0008
377.898	-152.05341
378.407	-81.01235
378.915	58.00175
379.423	18.00127
379.93	-25.99952
380.438	-38.99775
380.946	-66.98993
381.453	-103.97896
381.96	-172.95021
382.468	-276.89168
382.975	-16.99268
383.482	-32.98357
383.989	-137.93778
384.495	-151.91877
385.002	-291.83445
385.509	-188.89276
386.015	-226.88482
386.521	-224.88562
387.028	-240.89393
387.534	-177.93985
388.04	-123.95531
388.546	-419.92463
389.051	-485.02929
389.557	-556.1471
390.063	-175.0833
390.568	-321.22983
391.073	-537.59849
391.578	-543.68748
392.084	-629.15668
392.589	-1123.69722
393.093	-1502.64599
393.598	-1116.87101
394.103	-1198.52286
394.607	-1287.97136
395.112	-1087.87088
395.616	-1379.79403
396.12	-1894.05753
396.624	-2102.86911
397.128	-2054.14651
397.632	-2147.96025
398.136	-2459.43032
398.639	-4227.83738
399.143	-5322.53108
399.646	-5567.86326
400.15	-6381.89511
400.653	-7888.22209
401.156	-9346.18215
401.659	-12174.05766
402.162	-6111.57555
402.664	-1352.72377
403.167	0
403.67	0
404.172	0
404.674	0
405.176	0
405.678	0
406.18	0
406.682	0
407.184	0
407.686	0
408.187	0
408.688	0
409.19	0
409.691	0
410.192	0
410.693	0
411.194	435.30976
411.694	3827.76378
412.195	6215.18342
412.696	4250.42736
413.196	1723.58887
413.696	995.55631
414.196	2494.35721
414.696	5205.59606
415.196	7125.45755
415.696	10584.8182
416.196	8908.59921
416.695	4297.78988
417.195	1602.1694
417.694	1564.73227
418.194	1881.94182
418.693	1098.21639
419.192	1022.73428
419.691	994.15461
420.19	1272.26873
420.688	1522.51157
421.187	1799.13025
421.685	2046.65194
422.184	2120.94027
422.682	1663.379
423.18	819.87216
423.678	504.14666
424.176	394.62627
424.674	382.41869
425.172	521.28399
425.669	739.11266
426.167	673.9158
426.664	547.82457
427.161	483.77691
427.659	351.8037
428.156	341.81131
428.652	254.8621
429.149	185.9021
429.646	317.83161
430.143	362.83821
430.639	151.94334
431.135	210.94232
431.632	191.94889
432.128	102.98721
432.624	39.00021
433.12	-151.98787
433.616	-31.99722
434.111	-191.01073
434.607	-165.02457
435.103	-34.00245
435.598	68.00486
436.093	60.01845
436.588	21.00728
437.083	87.0346
437.578	39.01941
438.073	-126.08477
438.568	18.01298
439.062	-60.03322
439.557	29.02157
440.051	-86.06278
440.546	-152.11848
441.04	-124.11025
441.534	-123.12721
442.028	-1.00093
442.522	-78.07485
443.015	-100.08391
443.509	-31.03206
444.002	-121.1303
444.496	-82.0727
444.989	-82.09009
445.482	-155.18082
445.975	-119.11524
446.468	-105.09513
446.961	-146.13622
447.454	-135.14077
447.947	-192.21759
448.439	-83.09819
448.931	-157.16599
449.424	-75.0961
449.916	-144.17849
450.408	-159.17463
450.9	-187.23468
451.392	-215.29348
451.884	-114.13422
452.375	-180.23887
452.867	-105.12468
453.358	-195.23259
453.849	-133.14368
454.341	-179.21647
454.832	-234.2719
455.323	-218.30176
455.814	-157.20076
456.304	-166.21528
456.795	-196.25594
457.285	-129.16381
457.776	-111.14715
458.266	-177.24635
458.756	-163.23521
459.247	-178.25101
459.737	-231.33377
460.226	-215.28964
460.716	-197.28979
461.206	-218.32987
461.695	-171.27408
462.185	-192.28704
462.674	-194.28511
463.163	-125.17195
463.653	-157.20451
464.142	-190.2982
464.63	-196.32016
465.119	-179.26946
465.608	-200.30426
466.096	-177.25525
466.585	-161.25129
467.073	-142.23195
467.561	-195.32631
468.05	-142.22636
468.538	-156.26886
469.026	-129.21456
469.513	-150.2153
470.001	-132.20681
470.489	-200.33715
470.976	-115.18674
471.463	-130.23437
471.951	-172.31852
472.438	-214.37001
472.925	-199.34105
473.412	-117.21369
473.899	-161.27548
474.385	-151.2797
474.872	-153.26602
475.359	-220.41332
475.845	-185.28757
476.331	-122.20073
476.817	-157.29707
477.303	-179.32279
477.789	-142.26585
478.275	-213.41902
478.761	-153.29077
479.247	-136.23928
479.732	-195.38723
480.218	-221.46878
480.703	-152.30304
481.188	-136.23026
481.673	-146.2674
482.158	-211.35812
482.643	-138.28806
483.128	-191.35397
483.612	-141.2681
484.097	-126.25389
484.581	-144.27627
485.066	-171.34433
485.55	-243.4463
486.034	-176.3147
486.518	-201.39393
487.002	-242.50133
487.486	-197.406
487.969	-177.3638
488.453	-138.29471
488.936	-195.37313
489.42	-152.28458
489.903	-183.39767
490.386	-640.02131
490.869	-110.20289
491.352	-128.27003
491.835	-112.19654
492.318	-151.29145
492.8	-122.21476
493.283	-176.38791
493.765	-186.39842
494.247	-142.28969
494.73	-139.26558
495.212	-106.22303
495.694	-210.43075
496.175	-255.53381
496.657	-135.27998
497.139	-131.19993
497.62	-223.4662
498.102	-212.46646
498.583	-188.41921
499.064	-174.34045
499.545	-175.35352
500.026	-228.4571
500.507	-143.29273
500.988	-182.40365
501.469	-190.42332
501.949	-170.37594
502.43	-206.43611
502.91	-116.20955
503.39	-155.34756
503.87	-153.31845
504.35	-137.28895
504.83	-149.28953
505.31	-138.29675
505.79	-189.40528
506.269	-180.37956
506.749	-243.50419
507.228	-170.3569
507.707	-148.29273
508.187	-120.25671
508.666	-231.5152
509.145	-143.29803
509.623	-186.39463
510.102	-175.38352
510.581	-112.24281
511.059	-183.41389
511.538	-173.40685
512.016	-139.2991
512.494	-112.24416
512.972	-113.24158
513.45	-211.44249
513.928	-127.2761
514.406	-177.38299
514.884	-118.27237
515.361	-97.20764
515.839	-124.25366
516.316	-102.21981
516.793	-98.2235
517.27	-75.16326
517.747	-122.28216
518.224	-96.19994
518.701	-56.11102
519.178	-118.26269
519.654	-64.1368
520.131	-124.27765
520.607	-125.28225
521.083	-135.27998
521.56	-119.25463
522.036	-97.19253
522.512	-67.14913
522.987	-163.35225
523.463	-123.26546
523.939	-114.25452
524.414	-93.19495
524.89	-105.22613
525.365	-117.24081
525.84	-178.38655
526.315	-185.41056
526.79	-134.27635
527.265	-142.29667
527.74	-145.32353
528.215	-149.32241
528.689	-132.26709
529.164	-114.22643
529.638	-158.37469
530.112	-136.29283
530.587	-133.25881
531.061	-189.42101
531.534	-128.28519
532.008	-150.33116
532.482	-92.19272
532.956	-195.45966
533.429	-97.21446
533.903	-112.22755
534.376	-137.27892
534.849	-127.27081
535.322	-129.28009
535.795	-119.26717
536.268	-126.27806
536.741	-97.21339
537.213	-105.22273
537.686	-94.20848
538.158	-113.231
538.631	-73.16221
539.103	-119.24415
539.575	-86.16428
540.047	-70.14014
540.519	-75.16388
540.991	-47.10465
541.463	-95.21083
541.934	-75.15645
542.406	-92.20013
542.877	-49.10021
543.348	-21.04585
543.82	-41.09137
544.291	13.02726
544.762	-56.12016
545.233	-69.15701
545.703	-28.05559
546.174	-11.02296
546.645	-16.03402
547.115	26.05557
547.585	74.14946
548.056	25.05301
548.526	40.08242
548.996	58.12263
549.466	151.31876
549.935	113.22953
550.405	128.23917
550.875	172.34531
551.344	197.39998
551.814	219.4221
552.283	283.50747
552.752	229.44201
553.221	281.49559
553.69	336.60144
554.159	320.63857
554.628	376.66577
555.096	410.83223
555.565	438.76751
556.033	553.01116
556.502	534.01502
556.97	583.99414
557.438	678.2237
557.906	690.2524
558.374	722.25022
558.842	756.36271
559.31	938.49534
559.777	928.62158
560.245	1043.72839
560.712	1133.79797
561.18	1191.73731
561.647	1361.92331
562.114	1405.00654
562.581	1617.43978
563.048	1726.29521
563.514	1839.56842
563.981	1944.38385
564.448	2058.34663
564.914	2290.57344
565.381	2448.50474
565.847	2532.64219
566.313	2767.61509
566.779	2968.429
567.245	3056.60067
567.711	3287.67129
568.176	3414.25704
568.642	3664.81523
569.108	3904.59074
569.573	4143.23696
570.038	4375.45446
570.504	4552.6635
570.969	4878.21002
571.434	4999.28678
571.899	5294.62361
572.363	5509.2659
572.828	5811.19416
573.293	5905.15597
573.757	6217.08412
574.222	6370.90412
574.686	6562.91686
575.15	6625.2009
575.614	6800.05442
576.078	6949.17678
576.542	7079.10434
577.006	7199.10952
577.469	7376.58037
577.933	7332.14316
578.396	7438.43275
578.86	7461.412
579.323	7363.38736
579.786	7475.15038
580.249	7361.22508
580.712	7270.47542
581.175	7162.4712
581.637	7051.16792
582.1	7004.9712
582.563	6986.89386
583.025	6873.33268
583.487	6714.58374
583.95	6524.76108
584.412	6538.70619
584.874	6310.37666
585.336	6150.27873
585.797	5953.86642
586.259	5800.39313
586.721	5634.39812
587.182	5549.46893
587.643	5356.36414
588.105	5178.69209
588.566	4985.15417
589.027	4813.97318
589.488	4675.7522
589.949	4597.17424
590.41	4394.06941
590.87	4333.97486
591.331	4238.7141
591.791	4035.16005
592.252	3776.22043
592.712	3754.55853
593.172	3629.22611
593.632	3503.1657
594.092	3408.27389
594.552	3211.16514
595.011	3153.47979
595.471	3051.3999
595.931	3005.38739
596.39	2922.75323
596.849	2775.63221
597.308	2691.3287
597.768	2548.05831
598.227	2614.80871
598.685	2546.59567
599.144	2419.63891
599.603	2397.69902
600.062	2314.16957
600.52	2227.39088
600.978	2226.65906
601.437	2187.50825
601.895	2126.18844
602.353	2147.37408
602.811	2059.34002
603.269	2081.64197
603.727	1951.58016
604.184	1998.35849
604.642	1915.6482
605.099	1946.4582
605.557	1944.65098
606.014	1890.15803
606.471	1908.69432
606.928	1829.1009
607.385	1808.51718
607.842	1934.38614
608.299	1974.48608
608.755	1876.55135
609.212	1921.27201
609.668	1927.24495
610.125	1941.61045
610.581	1978.6022
611.037	1880.40994
611.493	1873.52676
611.949	1791.51904
612.405	1800.92815
612.861	1842.50898
613.316	1779.49561
613.772	1822.39384
614.227	1773.45434
614.683	1816.17753
615.138	1758.42009
615.593	1832.44553
616.048	1774.3789
616.503	1731.60631
616.958	1689.62812
617.412	1658.41032
617.867	1593.13966
618.321	1688.02891
618.776	1587.16629
619.23	1494.26891
619.684	1571.23
620.138	1511.27541
620.592	1397.29441
621.046	1421.23031
621.5	1427.33242
621.954	1358.06659
622.407	1361.03889
622.861	1242.14273
623.314	1227.97129
623.768	1213.00807
624.221	1186.60919
624.674	1190.9628
625.127	1103.90163
625.58	1195.96295
626.033	1168.86173
626.485	1085.935
626.938	1111.96625
627.39	1043.82933
627.843	1060.84324
628.295	1023.79696
628.747	1007.83712
629.199	1067.82084
629.651	910.61674
630.103	963.70717
630.555	957.55488
631.006	952.74837
631.458	974.79154
631.909	1000.78532
632.361	952.74662
632.812	975.75623
633.263	935.57696
633.714	1030.68473
634.165	988.89185
634.616	964.81566
635.067	1060.80547
635.518	972.84149
635.968	999.53918
636.419	1051.75414
636.869	991.86889
637.319	989.80239
637.769	1008.759
638.219	1054.97678
638.669	1033.93684
639.119	1077.05866
639.569	1045.98532
640.019	1120.99299
640.468	1044.81724
640.918	1156.14486
641.367	1175.98979
641.816	1212.02567
642.265	1217.11771
642.714	1245.15304
643.163	1273.17041
643.612	1244.24381
644.061	1262.94186
644.51	1266.13712
644.958	1315.09587
645.406	1359.38334
645.855	1336.43724
646.303	1369.33748
646.751	1385.2658
647.199	1423.30913
647.647	1415.33442
648.095	1343.24895
648.543	1480.07365
648.99	1424.46231
649.438	1461.46239
649.885	1456.62253
650.333	1486.93136
650.78	1454.53692
651.227	1464.57308
651.674	1467.36916
652.121	1478.59378
652.568	1491.59979
653.015	1484.74211
653.461	1425.4621
653.908	1476.45645
654.354	1523.58826
654.801	1451.44806
655.247	1469.27465
655.693	1425.7804
656.139	1489.56791
656.585	1429.50671
657.031	1443.42271
657.477	1492.24317
657.922	1513.46042
658.368	1479.66481
658.813	1522.51843
659.259	1444.52857
659.704	1449.44073
660.149	1487.48228
660.594	1459.51588
661.039	1513.4386
661.484	1572.66427
661.929	1546.56262
662.373	1455.71686
662.818	1491.70553
663.262	1515.62675
663.707	1613.9235
664.151	1524.6957
664.595	1569.69394
665.039	1636.886
665.483	1651.9882
665.927	1678.72286
666.371	1620.59441
666.814	1696.7935
667.258	1705.75255
667.701	1766.49181
668.145	1767.02589
668.588	1754.9546
669.031	1735.76105
669.474	1789.91042
669.917	1893.66691
670.36	1878.10893
670.803	1913.02656
671.245	1894.48573
671.688	1945.09866
672.13	1889.70432
672.573	1940.28045
673.015	2027.08557
673.457	1964.64468
673.899	2022.12704
674.341	2012.10063
674.783	1917.00055
675.225	2041.20485
675.666	1993.06117
676.108	2054.68714
676.549	2045.04849
676.991	2090.76447
677.432	2084.36694
677.873	2038.94256
678.314	2135.13658
678.755	2197.25859
679.196	2136.94737
679.637	2166.27159
680.078	2190.08242
680.518	2160.0523
680.959	2127.15073
681.399	2151.32909
681.839	2132.2305
682.28	2085.26026
682.72	2099.93068
683.16	2141.34361
683.6	2179.96575
684.039	2142.56937
684.479	2183.29874
684.919	2136.97339
685.358	2274.53212
685.798	2249.68636
686.237	2266.28305
686.676	2250.08133
687.115	2291.15007
687.554	2242.17707
687.993	2350.89119
688.432	2331.03234
688.871	2267.97184
689.309	2275.22015
689.748	2352.64865
690.186	2377.27412
690.625	2377.16977
691.063	2408.29849
691.501	2359.44086
691.939	2398.50031
692.377	2488.41832
692.815	2487.30919
693.253	2482.34798
693.69	2486.89288
694.128	2497.38074
694.565	2511.3102
695.003	2607.68978
695.44	2574.24494
695.877	2553.20319
696.314	2641.81711
696.751	2624.11069
697.188	2647.13844
697.625	2707.15988
698.061	2682.38116
698.498	2778.45747
698.934	2773.42421
699.371	2673.27156
699.807	2871.3289
700.243	2751.41161
700.679	2839.08684
701.115	2861.31177
701.551	2901.30902
701.987	2844.05226
702.422	2855.34671
702.858	2892.37048
703.294	2828.0889
703.729	3003.54292
704.164	2951.43582
704.599	2984.98837
705.035	2982.00762
705.47	3019.49636
705.904	3049.23473
706.339	3113.23719
706.774	3154.26053
707.209	3104.16873
707.643	3224.41288
708.078	3180.50418
708.512	3119.67525
708.946	3214.40628
709.38	3124.33858
709.814	3201.11366
710.248	3229.51039
710.682	3262.34106
711.116	3246.35101
711.549	3205.9057
711.983	3213.16969
712.416	3334.30073
712.85	3261.65883
713.283	3278.31026
713.716	3296.71661
714.149	3350.35277
714.582	3341.9737
715.015	3343.68782
715.448	3267.73742
715.881	3313.83879
716.313	3216.25539
716.746	3340.26049
717.178	3255.41175
717.61	3264.77991
718.043	3210.66231
718.475	3284.46519
718.907	3208.77714
719.339	3209.04717
719.77	3171.32424
720.202	3144.75987
720.634	3128.49453
721.065	3136.3351
721.497	3080.55135
721.928	3023.55588
722.359	2942.43303
722.79	2985.3953
723.221	3035.72866
723.652	2967.89454
724.083	2915.05141
724.514	2865.15941
724.945	2866.28614
725.375	2819.20175
725.806	2781.64503
726.236	2798.81183
726.666	2760.32085
727.096	2730.52536
727.526	2712.72667
727.956	2650.07718
728.386	2760.55209
728.816	2626.67588
729.246	2599.4289
729.675	2599.50202
730.105	2538.49167
730.534	2472.19457
730.964	2478.62468
731.393	2583.56585
731.822	2444.66505
732.251	2459.63351
732.68	2385.20744
733.109	2371.42788
733.537	2287.28136
733.966	2302.43506
734.395	2325.07808
734.823	2300.96435
735.251	2202.22661
735.68	2277.4738
736.108	2228.49471
736.536	2173.11379
736.964	2195.0448
737.392	2131.37489
737.82	2161.18888
738.247	2138.16642
738.675	2088.12946
739.102	1945.22542
739.53	1995.35566
739.957	1988.40163
740.384	2032.24194
740.811	1959.31027
741.238	1913.09651
741.665	1880.85317
742.092	1889.98884
742.519	1818.07389
742.945	1862.98632
743.372	1824.08413
743.798	1812.24
744.225	1778.8772
744.651	1761.08383
745.077	1745.04143
745.503	1716.9272
745.929	1699.84361
746.355	1737.02896
746.781	1628.89985
747.207	1518.5804
747.632	1540.73813
748.058	1562.85409
748.483	1586.58798
748.908	1539.8112
749.334	1537.76699
749.759	1527.61031
750.184	1445.55463
750.609	1448.66744
751.033	1482.57662
751.458	1476.39912
751.883	1441.68801
752.307	1442.51325
752.732	1298.52442
753.156	1332.53706
753.58	1380.47502
754.005	1364.67176
754.429	1265.30091
754.853	1229.40629
755.277	1267.32425
755.7	1224.4049
756.124	1185.34824
756.548	1164.19176
756.971	1202.32852
757.394	1159.41997
757.818	1125.36233
758.241	1119.31277
758.664	1059.20514
759.087	1022.85282
759.51	1100.23154
759.933	1001.99464
760.356	1073.26879
760.778	1001.04558
761.201	1010.03568
761.623	1003.01924
762.046	939.87097
762.468	979.96068
762.89	969.00502
763.312	928.91443
763.734	907.8481
764.156	898.88806
764.578	884.72011
765	855.79012
765.421	835.83503
765.843	829.89403
766.264	826.72213
766.686	815.77908
767.107	782.64978
767.528	748.66197
767.949	726.63571
768.37	688.502
768.791	729.55366
769.212	659.48255
769.632	681.40415
770.053	653.55082
770.473	661.43662
770.894	664.48985
771.314	674.43354
771.734	579.22189
772.154	647.49643
772.575	609.27012
772.994	553.1409
773.414	590.28404
773.834	568.29561
774.254	562.25457
774.673	570.26407
775.093	513.16929
775.512	477.08973
775.931	503.17914
776.351	469.08217
776.77	435.9957
777.189	471.03836
777.607	425.01847
778.026	458.0624
778.445	438.02393
778.864	465.11154
779.282	452.01198
779.701	405.96306
780.119	366.87853
780.537	355.8429
780.955	397.95491
781.373	384.89856
781.791	363.77164
782.209	390.84725
782.627	380.95007
783.045	369.80283
783.462	364.88401
783.88	321.79578
784.297	306.73929
784.715	310.76389
785.132	328.75853
785.549	279.67344
785.966	322.7753
786.383	289.68438
786.8	267.59917
787.217	295.67178
787.633	248.60032
788.05	338.76549
788.466	306.69218
788.883	258.63718
789.299	283.65643
789.715	301.70231
790.131	273.65547
790.547	220.53595
790.963	215.52094
791.379	229.5636
791.795	286.62742
792.21	241.54683
792.626	192.44651
793.041	196.47375
793.457	229.55089
793.872	235.53668
794.287	190.44413
794.702	203.48928
795.117	194.47192
795.532	169.41656
795.947	254.59208
796.362	213.49662
796.776	216.49379
797.191	179.43029
797.605	135.31365
798.02	192.45759
798.434	215.4666
798.848	179.43274
799.262	167.40753
799.676	237.56169
800.09	161.39025
800.504	127.30564
800.918	137.31414
801.331	159.41097
801.745	178.40135
802.158	155.38205
802.572	164.39177
802.985	163.38811
803.398	162.38047
803.811	167.42265
804.224	167.40905
804.637	117.27677
805.05	116.26722
805.462	171.41309
805.875	139.35604
806.288	70.16907
806.7	114.28456
807.112	127.29191
807.525	99.2434
807.937	102.25091
808.349	131.32492
808.761	126.3072
809.173	142.33999
809.584	124.3039
809.996	113.27473
810.408	116.29697
810.819	100.23422
811.231	114.29226
811.642	46.11027
812.053	114.2691
812.464	171.39917
812.875	136.34365
813.286	133.33864
813.697	188.43047
814.108	123.29792
814.519	151.33176
814.929	103.26133
815.34	102.24618
815.75	117.29485
816.16	136.33516
816.571	106.27365
816.981	115.26961
817.391	118.28264
817.801	83.20572
818.211	113.26751
818.62	67.16149
819.03	127.30819
819.44	158.40648
819.849	162.40158
820.259	126.3194
820.668	86.21093
821.077	77.19099
821.486	116.27721
821.895	102.25073
822.304	82.21674
822.713	75.17728
823.122	109.27016
823.531	95.22429
823.939	82.1994
824.348	119.28683
824.756	145.35833
825.164	143.3552
825.573	88.22006
825.981	124.30458
826.389	135.33521
826.797	110.27348
827.205	92.21032
827.612	123.30061
828.02	64.15049
828.428	97.24576
828.835	70.18409
829.243	93.22076
829.65	46.11482
830.057	66.16032
830.464	97.23513
830.871	92.21944
831.278	86.20725
831.685	85.18927
832.092	111.26967
832.499	126.27258
832.905	111.27883
833.312	83.18895
833.718	115.28409
834.124	81.18477
834.531	133.33132
834.937	101.25762
835.343	118.2821
835.749	152.34945
836.155	119.30865
836.561	111.27078
836.966	119.28824
837.372	103.26041
837.777	41.10258
838.183	111.2448
838.588	91.22488
838.993	148.3549
839.399	41.10069
839.804	69.16801
840.209	97.24541
840.613	42.09397
841.018	75.18955
841.423	122.3097
841.828	66.16683
842.232	80.19767
842.637	110.25734
843.041	49.12587
843.445	89.2222
843.849	69.17064
844.253	126.29604
844.657	68.17103
845.061	79.17882
845.465	83.19975
845.869	102.23534
846.272	69.16782
846.676	85.2048
847.079	61.1551
847.483	98.24294
847.886	115.27719
848.289	66.17591
848.692	87.21933
849.095	85.20333
849.498	163.40576
849.901	57.13097
850.304	112.2652
850.707	76.19327
851.109	84.21173
851.512	94.22961
851.914	47.1187
852.316	90.22644
852.718	45.11644
853.121	65.15916
853.523	77.17947
853.925	71.18479
854.326	63.1574
854.728	86.2201
855.13	38.09834
855.531	88.20917
855.933	105.25001
856.334	74.18398
856.736	98.2179
857.137	61.14184
857.538	68.17066
857.939	66.16283
858.34	101.24427
858.741	87.22628
859.142	57.13703
859.542	53.13992
859.943	98.24178
860.343	21.05235
860.744	78.18968
861.144	74.18002
861.544	49.11797
861.945	88.22308
862.345	80.1949
862.745	91.2248
863.145	129.30433
863.544	86.21622
863.944	99.2321
864.344	93.22957
864.743	118.28963
865.143	111.28243
865.542	45.10468
865.941	77.18994
866.34	84.20028
866.74	81.2165
867.139	85.20247
867.537	81.20552
867.936	86.20591
868.335	64.16264
868.734	64.16333
869.132	71.16457
869.531	101.24234
869.929	28.06422
870.327	53.12717
870.726	99.24501
871.124	115.26581
871.522	78.19794
871.92	101.24712
872.318	81.19716
872.715	41.10181
873.113	42.10263
873.511	79.19602
873.908	55.13885
874.306	80.1981
874.703	63.15746
875.1	95.24138
875.497	62.14851
875.894	56.1372
876.291	83.2027
876.688	54.13931
877.085	81.19346
877.482	51.12779
877.878	51.12288
878.275	62.15734
878.671	107.23588
879.068	103.24648
879.464	61.14731
879.86	88.20684
880.256	89.21833
880.652	65.16504
881.048	82.20223
881.444	74.17556
881.84	60.15237
882.236	97.24208
882.631	84.20511
883.027	73.17622
883.422	68.17348
883.817	49.12327
884.213	76.1943
884.608	23.05674
885.003	83.19907
885.398	68.1698
885.793	76.19005
886.188	44.10959
886.582	98.24949
886.977	70.16568
887.371	74.18652
887.766	6.01505
888.16	101.24996
888.554	88.21631
888.949	109.27105
889.343	80.19454
889.737	47.12537
890.131	68.17017
890.525	67.17096
890.918	64.1608
891.312	88.20926
891.706	74.19349
892.099	109.27469
892.492	116.24708
892.886	97.23548
893.279	64.16276
893.672	69.17519
894.065	76.18957
894.458	94.23472
894.851	114.27628
895.244	64.16316
895.637	75.17995
896.029	71.17307
896.422	74.18015
896.814	76.1882
897.206	67.15917
897.599	102.25008
897.991	79.19013
898.383	45.10653
898.775	82.18406
899.167	38.0889
899.559	80.20157
899.951	109.25425
900.342	80.20251
900.734	14.03498
901.125	87.22698
901.517	59.14468
901.908	130.30722
902.299	23.05655
902.69	75.17625
903.082	90.21648
903.473	35.08411
903.863	88.22316
904.254	29.06764
904.645	111.2732
905.036	10.02441
905.426	116.26231
905.817	73.17848
906.207	63.14984
906.597	56.13091
906.987	84.21656
907.378	55.13905
907.768	61.16104
908.158	75.18214
908.547	38.09841
908.937	63.16138
909.327	92.22179
909.717	105.26414
910.106	84.20059
910.495	106.2621
910.885	122.30519
911.274	59.1473
911.663	108.27144
912.052	86.21093
912.441	100.25214
912.83	86.19613
913.219	122.3155
913.608	69.16851
913.997	63.15763
914.385	104.24606
914.774	128.30729
915.162	58.13808
915.55	100.2398
915.939	43.10871
916.327	101.24987
916.715	26.06656
917.103	111.27027
917.491	121.29561
917.878	95.23175
918.266	71.18352
918.654	84.21339
919.041	20.05249
919.429	63.1484
919.816	73.18436
920.203	33.08032
920.591	115.2819
920.978	71.17327
921.365	87.2269
921.752	90.21302
922.139	88.18964
922.525	43.10345
922.912	79.19171
923.299	80.19781
923.685	95.24598
924.072	90.206
924.458	84.20686
924.844	73.17994
925.231	89.20564
925.617	26.06642
926.003	123.31041
926.389	98.24516
926.774	100.25124
927.16	140.34209
927.546	45.11499
927.931	141.34614
928.317	85.19452
928.702	91.21368
929.088	26.0618
929.473	64.16247
929.858	36.08728
930.243	87.20739
930.628	69.16732
931.013	80.19723
931.398	125.28329
931.783	90.2354
932.167	73.17775
932.552	113.27997
932.937	138.33708
933.321	47.11802
933.705	87.21791
934.09	128.31904
934.474	89.20988
934.858	78.20137
935.242	49.11362
935.626	68.17354
936.009	89.2352
936.393	101.25471
936.777	56.14327
937.16	69.17897
937.544	90.21047
937.927	22.05611
938.311	117.28211
938.694	102.26743
939.077	69.16461
939.46	121.2933
939.843	120.24659
940.226	97.24681
940.609	96.21841
940.991	39.09948
941.374	59.14398
941.757	122.29711
942.139	69.15441
942.522	109.25475
942.904	89.21241
943.286	68.17226
943.668	56.14492
944.05	55.13537
944.432	58.14294
944.814	116.28229
945.196	14.03435
945.578	47.11178
945.959	75.17494
946.341	75.1833
946.722	93.2165
947.104	73.17375
947.485	68.15771
947.866	43.10848
948.247	82.20572
948.628	73.17735
949.009	88.22387
949.39	115.28294
949.771	79.18275
950.152	64.15668
950.532	27.0667
950.913	117.27869
951.293	36.09747
951.674	86.20662
952.054	57.14107
952.434	65.16093
952.814	114.26795
953.194	117.30273
953.574	122.29656
953.954	54.12816
954.334	55.13697
954.714	25.06121
955.093	101.24602
955.473	70.17442
955.853	59.1525
956.232	82.2236
956.611	82.19551
956.99	59.14805
957.37	71.18027
957.749	48.11458
958.128	53.13347
958.506	61.15795
958.885	84.21074
959.264	82.19978
959.643	73.16538
960.021	46.11408
960.4	107.23973
960.778	117.28467
961.156	61.15263
961.535	69.16025
961.913	84.19528
962.291	41.10535
962.669	43.10906
963.047	78.19808
963.424	74.18806
963.802	48.11808
964.18	157.38969
964.557	81.18544
964.935	110.25764
965.312	64.16626
965.69	103.25547
966.067	70.16984
966.444	111.27048
966.821	86.22033
967.198	88.21199
967.575	78.19081
967.952	111.2585
968.329	67.16253
968.705	88.1872
969.082	40.10277
969.458	15.03622
969.835	89.21509
970.211	57.14611
970.587	67.1663
970.963	92.23429
971.339	74.19243
971.715	94.23285
972.091	80.19592
972.467	92.22773
972.843	63.15598
973.219	115.27277
973.594	32.08396
973.97	113.26575
974.345	65.15513
974.721	79.19027
975.096	64.15447
975.471	106.24876
975.846	77.18405
976.221	35.08912
976.596	69.1648
976.971	64.15761
977.346	73.1692
977.72	75.19023
978.095	71.18282
978.469	90.21319
978.844	152.37514
979.218	50.11986
979.593	107.2536
979.967	48.11699
980.341	53.12197
980.715	68.17078
981.089	75.18691
981.463	74.16911
981.837	57.1391
982.21	110.25299
982.584	75.1803
982.957	44.10999
983.331	74.17414
983.704	62.15201
984.078	81.19848
984.451	94.23294
984.824	26.0636
985.197	59.14307
985.57	88.21919
985.943	124.3021
986.316	98.23867
986.688	74.17766
987.061	83.1933
987.434	60.15608
987.806	78.18818
988.179	41.09691
988.551	70.17694
988.923	83.20316
989.295	91.22571
989.667	7.01686
990.039	40.09901
990.411	65.14917
990.783	97.22126
991.155	27.06515
991.527	144.34846
991.898	73.18113
992.27	28.06954
992.641	100.24862
993.012	95.22159
993.384	83.19672
993.755	83.21037
994.126	111.26389
994.497	20.04936
994.868	89.20285
995.239	71.17139
995.61	93.23219
995.98	76.1837
996.351	51.12627
996.722	45.10447
997.092	76.17905
997.462	49.11448
997.833	87.20477
998.203	65.15715
998.573	51.12696
998.943	77.17961
999.313	60.1435
999.683	49.11761
1000.053	68.1559
1000.423	80.1933
1000.792	83.21387
1001.162	79.19337
1001.531	103.25145
1001.901	90.2227
1002.27	91.2017
1002.639	82.20831
1003.009	72.17048
1003.378	93.23596
1003.747	85.19944
1004.116	61.14564
1004.485	77.18306
1004.853	69.1742
1005.222	35.08849
1005.591	93.21897
1005.959	48.10819
1006.328	61.13695
1006.696	22.05334
1007.064	73.18285
1007.433	92.22815
1007.801	113.27412
1008.169	90.22563
1008.537	111.24265
1008.905	83.19208
1009.273	94.23029
1009.64	34.08135
1010.008	69.16385
1010.375	125.29923
1010.743	116.26434
1011.11	73.17195
1011.478	86.2114
1011.845	102.2374
1012.212	91.20422
1012.579	68.16635
1012.946	115.27025
1013.313	129.30232
1013.68	108.23983
1014.047	40.09548
1014.414	102.23843
1014.78	81.2001
1015.147	85.20418
1015.513	49.11806
1015.88	112.28321
1016.246	77.1891
1016.612	102.23102
1016.978	89.21647
1017.344	102.24961
1017.71	85.20588
1018.076	119.27681
1018.442	98.24993
1018.808	70.17429
1019.174	70.17492
1019.539	150.33836
1019.905	59.13887
1020.27	44.10868
1020.636	79.18832
1021.001	103.24403
1021.366	63.15087
1021.731	101.25735
1022.096	-6.01528
1022.461	98.22971
1022.826	106.24914
1023.191	86.22417
1023.556	96.22291
1023.92	101.24593
1024.285	129.3101
1024.649	86.20929
1025.014	109.26699
1025.378	84.20983
1025.742	91.22422
1026.107	66.14876
1026.471	123.28295
1026.835	63.15575
1027.199	82.19611
1027.562	112.25708
1027.926	73.17768
1028.29	55.139
1028.654	87.19861
1029.017	80.19549
1029.381	52.12413
1029.744	58.14766
1030.107	81.19042
1030.471	67.15984
1030.834	68.15408
1031.197	116.27583
1031.56	70.16447
1031.923	58.14969
1032.286	97.22563
1032.648	75.17845
1033.011	24.05535
1033.374	105.24405
1033.736	77.20144
1034.099	47.11457
1034.461	50.12625
1034.823	71.17604
1035.185	61.15318
1035.548	69.16726
1035.91	69.16461
1036.272	98.22079
1036.634	101.24464
1036.995	110.25542
1037.357	51.124
1037.719	68.16474
1038.08	107.25115
1038.442	68.16076
1038.803	98.23303
1039.165	81.20318
1039.526	54.13033
1039.887	50.11958
1040.248	45.11092
1040.609	90.22066
1040.97	27.06623
1041.331	78.19639
1041.692	52.12127
1042.053	95.21425
1042.413	69.16012
1042.774	89.21476
1043.134	118.27713
1043.495	69.17277
1043.855	60.14519
1044.215	73.18034
1044.576	40.09577
1044.936	83.18895
1045.296	105.25929
1045.656	124.29995
1046.016	96.22959
1046.375	70.16907
1046.735	62.14014
1047.095	43.10073
1047.454	133.27657
1047.814	80.19111
1048.173	144.33767
1048.533	110.24884
1048.892	-7.01697
1049.251	86.21436
1049.61	72.17646
1049.969	48.11313
1050.328	45.09762
1050.687	38.09261
1051.046	72.1745
1051.405	70.1734
1051.763	34.07839
1052.122	49.12216
1052.48	96.23327
1052.839	54.12687
1053.197	44.10362
1053.555	152.33922
1053.914	92.22313
1054.272	110.26277
1054.63	39.09549
1054.988	35.08334
1055.345	117.24818
1055.703	64.15353
1056.061	51.13109
1056.419	41.10623
1056.776	121.28933
1057.134	80.18399
1057.491	81.20157
1057.848	78.19308
1058.206	62.14539
1058.563	39.08612
1058.92	115.26147
1059.277	66.16224
1059.634	135.31216
1059.991	112.26499
1060.348	51.11516
1060.704	14.03357
1061.061	127.2904
1061.418	60.14514
1061.774	81.1987
1062.131	67.17653
1062.487	56.1307
1062.843	71.17623
1063.199	78.19287
1063.555	43.09971
1063.911	63.15865
1064.267	132.27015
1064.623	63.15254
1064.979	94.22068
1065.335	103.24356
1065.691	107.2535
1066.046	96.20892
1066.402	78.17609
1066.757	67.16849
1067.112	91.2215
1067.468	46.10863
1067.823	116.2752
1068.178	95.22768
1068.533	87.2093
1068.888	80.18994
1069.243	47.11598
1069.598	80.19315
1069.952	35.079
1070.307	63.15546
1070.662	84.19798
1071.016	40.08975
1071.371	97.2184
1071.725	108.25533
1072.079	82.19589
1072.434	36.08764
1072.788	82.19394
1073.142	102.24831
1073.496	34.08085
1073.85	78.17975
1074.203	80.19286
1074.557	69.18278
1074.911	93.22
1075.265	99.22774
1075.618	91.22033
1075.971	84.19836
1076.325	60.1521
1076.678	19.04369
1077.031	49.11083
1077.385	59.12963
1077.738	60.13507
1078.091	40.09108
1078.444	100.22972
1078.796	69.16858
1079.149	87.21476
1079.502	68.15995
1079.855	95.21941
1080.207	78.19102
1080.56	44.11375
1080.912	65.15768
1081.264	102.24301
1081.617	46.11211
1081.969	82.2055
1082.321	78.18932
1082.673	26.05958
1083.025	25.05955
1083.377	95.20178
1083.728	79.18311
1084.08	75.18623
1084.432	53.12765
1084.783	95.22046
1085.135	55.13761
1085.486	24.05515
1085.838	106.25815
1086.189	64.15482
1086.54	52.12403
1086.891	65.16381
1087.242	60.14569
1087.593	98.23626
1087.944	79.17758
1088.295	86.19391
1088.646	56.13546
1088.996	77.1844
1089.347	70.17099
1089.698	54.12742
1090.048	91.23448
1090.398	93.21368
1090.749	109.25764
1091.099	0
1091.449	56.13923
1091.799	78.19414
1092.149	9.02209
1092.499	82.19866
1092.849	57.14457
1093.199	82.20417
1093.548	77.18391
1093.898	57.14231
1094.248	116.29437
1094.597	49.12499
1094.947	72.1912
1095.296	34.08413
1095.645	103.26522
1095.994	82.19559
1096.343	81.20252
1096.692	39.10255
1097.041	30.08141
1097.39	116.28724
1097.739	47.12212
1098.088	83.22096
1098.437	52.13643
1098.785	73.19589
1099.134	89.23457
1099.482	66.1809
1099.83	50.13127
1100.179	38.09922
1100.527	97.25548
1100.875	49.12945
1101.223	86.22678
1101.571	51.14079
1101.919	47.12275
1102.267	77.21569
1102.615	11.03534
1102.962	14.04506
1103.31	2.00643
1103.658	14.04508
