Data from N3 R8 sample 3_Subt2__4__13-55-49-142.txt Node

Date: Mon Sep 22 13:55:49 PDT 2025
User: uwsun
Spectrometer: HDX01956
Trigger mode: 0
Integration Time (sec): 5.000000E-1
Scans to average: 1
Nonlinearity correction enabled: true
Boxcar width: 0
Storing dark spectrum: false
XAxis mode: Wavelengths
Number of Pixels in Spectrum: 2068
>>>>>Begin Spectral Data<<<<<
194.03	-1.00291
194.578	-5.01627
195.127	9.02889
195.676	4.01285
196.225	4.01065
196.773	-17.04715
197.321	50.13926
197.87	85.21765
198.418	54.13994
198.966	97.25643
199.513	78.19794
200.061	54.13917
200.609	79.20927
201.156	82.18217
201.704	66.16891
202.251	79.21115
202.798	103.26927
203.345	105.25824
203.892	70.17808
204.438	-1.00238
204.985	97.23203
205.532	66.17591
206.078	30.07442
206.624	58.14546
207.17	53.12382
207.716	99.24385
208.262	88.17463
208.808	101.25398
209.354	109.26887
209.899	159.40255
210.445	125.31501
210.99	113.27597
211.535	76.17794
212.08	147.3445
212.625	117.29263
213.17	48.12077
213.715	62.14031
214.259	112.26109
214.804	84.20801
215.348	116.26828
215.892	77.18482
216.436	130.29672
216.98	109.24079
217.524	64.15353
218.068	45.11215
218.612	49.12278
219.155	74.17536
219.698	25.05946
220.242	25.06224
220.785	117.2743
221.328	92.22856
221.871	40.09945
222.414	67.16485
222.956	-2.00487
223.499	102.23065
224.041	83.19162
224.583	82.17504
225.126	39.08587
225.668	42.10217
226.21	58.14625
226.751	20.04428
227.293	79.1789
227.835	99.23988
228.376	47.10743
228.918	83.20827
229.459	89.22147
230	36.0857
230.541	41.09458
231.082	47.11333
231.622	18.0414
232.163	64.15552
232.704	58.14347
233.244	81.19966
233.784	74.17934
234.324	10.02201
234.864	38.08568
235.404	76.1803
235.944	102.24254
236.484	18.04431
237.023	83.19497
237.563	24.05568
238.102	44.1031
238.641	33.08352
239.18	76.17884
239.719	41.10169
240.258	49.10915
240.797	50.12008
241.335	63.15334
241.874	31.05937
242.412	16.0385
242.95	72.1739
243.488	66.14888
244.026	99.22974
244.564	103.20979
245.102	80.1795
245.64	68.16151
246.177	70.15719
246.715	61.14469
247.252	46.10525
247.789	124.22424
248.326	55.13307
248.863	77.16818
249.4	38.08533
249.936	95.19359
250.473	90.20807
251.009	113.2562
251.546	36.07935
252.082	136.2956
252.618	110.24326
253.154	72.17253
253.69	55.12338
254.226	96.22749
254.761	85.18872
255.297	26.05704
255.832	96.22784
256.367	71.16665
256.903	88.19094
257.438	125.29317
257.972	61.13431
258.507	64.14937
259.042	127.2761
259.576	54.11647
260.111	51.11685
260.645	48.10295
261.179	81.18894
261.713	112.24913
262.247	114.26303
262.781	145.3026
263.315	92.22539
263.849	29.07248
264.382	96.21797
264.915	58.13617
265.449	100.24526
265.982	86.19439
266.515	96.23152
267.048	78.16159
267.58	55.1185
268.113	17.03666
268.646	71.17578
269.178	132.29885
269.71	50.10882
270.243	56.12575
270.775	70.17631
271.307	68.1622
271.838	102.2375
272.37	80.19825
272.902	94.21126
273.433	57.12445
273.965	84.20205
274.496	101.25005
275.027	93.23092
275.558	59.14275
276.089	116.29029
276.62	126.3194
277.15	132.3199
277.681	59.12734
278.211	86.20968
278.741	101.22284
279.272	99.22637
279.802	112.27937
280.332	80.18818
280.861	90.21434
281.391	119.26651
281.921	99.23591
282.45	112.27815
282.98	75.19473
283.509	107.24121
284.038	32.07257
284.567	76.17549
285.096	142.33934
285.625	45.10199
286.153	96.22467
286.682	67.15462
287.21	61.14642
287.739	88.20603
288.267	95.23028
288.795	126.32934
289.323	80.1862
289.851	85.19624
290.378	153.33997
290.906	101.24758
291.433	116.28545
291.961	108.24282
292.488	120.29584
293.015	59.13827
293.542	80.20071
294.069	135.33018
294.596	117.28616
295.122	112.2616
295.649	60.13219
296.175	135.32255
296.702	78.18541
297.228	129.3121
297.754	45.09933
298.28	127.28817
298.806	67.161
299.332	178.39692
299.857	171.38391
300.383	115.28409
300.908	120.29071
301.433	191.45722
301.958	167.38001
302.483	124.30761
303.008	104.25621
303.533	98.2523
304.058	119.2744
304.582	132.3082
305.107	123.31793
305.631	102.22764
306.155	129.29912
306.679	200.46604
307.203	112.25687
307.727	136.31666
308.251	83.203
308.775	176.41205
309.298	126.298
309.822	145.36135
310.345	171.40231
310.868	158.37584
311.391	95.23045
311.914	156.38756
312.437	105.23642
312.96	132.30674
313.482	149.34891
314.005	159.39451
314.527	175.45279
315.049	174.42975
315.571	159.35139
316.093	142.34401
316.615	146.3505
317.137	183.39377
317.659	182.43443
318.18	184.43449
318.702	141.32331
319.223	183.36833
319.744	199.43832
320.265	193.46394
320.786	209.50754
321.307	153.37448
321.828	185.40954
322.348	146.33686
322.869	219.50477
323.389	397.69766
323.909	123.27819
324.43	163.3811
324.95	240.5418
325.47	227.54753
325.989	187.43394
326.509	179.39129
327.029	209.4617
327.548	264.58574
328.067	197.46618
328.587	235.56661
329.106	185.4121
329.625	138.35106
330.144	200.45058
330.662	245.56312
331.181	195.44103
331.7	213.48271
332.218	294.61041
332.736	229.5196
333.255	249.56016
333.773	221.51446
334.291	252.60816
334.808	203.44563
335.326	242.53135
335.844	266.60612
336.361	307.75329
336.879	282.62776
337.396	287.67334
337.913	322.71917
338.43	256.55451
338.947	257.58644
339.464	283.59452
339.981	313.71565
340.497	319.75774
341.014	247.58674
341.53	299.64474
342.046	337.79339
342.562	308.73119
343.078	299.67401
343.594	333.7583
344.11	347.79145
344.626	303.72859
345.141	318.69173
345.657	340.72984
346.172	362.82782
346.687	347.76106
347.202	330.69737
347.717	394.90025
348.232	285.67934
348.747	388.84326
349.261	365.75595
349.776	347.77643
350.29	389.92076
350.805	394.91401
351.319	389.85711
351.833	310.66946
352.347	422.93818
352.861	348.76599
353.374	370.7932
353.888	394.89881
354.401	380.82272
354.915	351.74386
355.428	423.98804
355.941	405.88675
356.454	430.89514
356.967	394.86831
357.48	432.93368
357.993	373.8576
358.505	443.01842
359.018	410.92851
359.53	425.97009
360.042	437.9091
360.554	444.99076
361.066	405.93003
361.578	455.92589
362.09	473.03319
362.602	470.96055
363.113	412.89655
363.625	441.91661
364.136	468.94172
364.647	443.98015
365.158	530.13814
365.669	477.04766
366.18	537.16334
366.691	555.11785
367.201	463.01259
367.712	515.07426
368.222	513.06155
368.733	511.02009
369.243	510.04049
369.753	525.10776
370.263	538.16427
370.773	549.22122
371.282	518.10946
371.792	646.32503
372.301	580.27186
372.811	589.39765
373.32	654.24602
373.829	576.22698
374.338	637.26623
374.847	653.34272
375.356	673.42799
375.865	820.51077
376.373	797.57817
376.882	746.62804
377.39	759.59107
377.898	800.70842
378.407	837.5888
378.915	933.67783
379.423	969.89958
379.93	951.77757
380.438	976.95062
380.946	1052.98365
381.453	1100.11131
381.96	1158.18362
382.468	1185.15164
382.975	1265.33329
383.482	1301.1499
383.989	1339.60861
384.495	1389.30255
385.002	1423.0933
385.509	1567.58144
386.015	1693.10718
386.521	1712.48997
387.028	1902.69069
387.534	1931.50455
388.04	1990.84392
388.546	2003.68891
389.051	2155.6304
389.557	2316.98572
390.063	2433.78229
390.568	2585.07591
391.073	2646.74204
391.578	2784.25219
392.084	2829.86692
392.589	2897.51536
393.093	3136.97492
393.598	3499.63757
394.103	3838.8433
394.607	4165.58801
395.112	4446.61932
395.616	4741.27352
396.12	5106.68189
396.624	5664.54431
397.128	6091.50075
397.632	6824.32981
398.136	7446.33066
398.639	7878.76364
399.143	8574.70846
399.646	9976.95533
400.15	10819.262
400.653	12096.28207
401.156	13763.08673
401.659	15881.62241
402.162	19499.88727
402.664	25854.39708
403.167	37267.91719
403.67	57259.80922
404.172	52566.9044
404.674	31176.06428
405.176	3757.7064
405.678	27.69154
406.18	0
406.682	0
407.184	45159.96023
407.686	58897.86778
408.187	61455.21265
408.688	61926.17704
409.19	43620.54593
409.691	35474.86376
410.192	29931.16051
410.693	25615.71818
411.194	23314.55861
411.694	22131.73549
412.195	20645.19112
412.696	18772.83387
413.196	17404.39542
413.696	17049.80183
414.196	17295.45246
414.696	16844.67971
415.196	16072.71428
415.696	14298.40699
416.196	11401.14794
416.695	8895.15974
417.195	7742.70075
417.694	7394.96031
418.194	6925.79986
418.693	6567.09173
419.192	6291.28926
419.691	6217.29463
420.19	6084.55159
420.688	5969.693
421.187	5657.88352
421.685	5216.70454
422.184	4743.03565
422.682	4107.9851
423.18	3432.73134
423.678	3185.80421
424.176	2890.76541
424.674	2722.64536
425.172	2654.98339
425.669	2523.29871
426.167	2301.8216
426.664	2079.71809
427.161	1915.68173
427.659	1815.78782
428.156	1653.21008
428.652	1535.73129
429.149	1592.65958
429.646	1467.20848
430.143	1390.40952
430.639	1238.17643
431.135	1194.27467
431.632	1104.93413
432.128	1073.99523
432.624	1055.1561
433.12	946.71212
433.616	926.57654
434.111	919.75234
434.607	903.75922
435.103	827.39959
435.598	799.29154
436.093	793.52488
436.588	761.39451
437.083	685.27328
437.578	630.23629
438.073	639.37992
438.568	538.14145
439.062	627.1306
439.557	597.20976
440.051	528.04946
440.546	525.07479
441.04	504.07245
441.534	526.17603
442.028	449.94196
442.522	463.98461
443.015	428.83268
443.509	494.06207
444.002	435.9476
444.496	458.89699
444.989	413.90617
445.482	449.00463
445.975	364.75641
446.468	401.77364
446.961	381.72941
447.454	398.81341
447.947	359.76281
448.439	352.77414
448.931	386.7803
449.424	308.70181
449.916	333.72174
450.408	318.64638
450.9	277.62314
451.392	282.64906
451.884	330.66985
452.375	232.52993
452.867	305.61642
453.358	295.6118
453.849	322.6157
454.341	306.62653
454.832	261.50789
455.323	275.61586
455.814	270.56834
456.304	243.51139
456.795	259.53954
457.285	274.54957
457.776	229.47153
458.266	242.52643
458.756	314.69145
459.247	214.47027
459.737	236.51578
460.226	265.55204
460.716	220.47939
461.206	243.53366
461.695	227.52092
462.185	212.46176
462.674	239.50275
463.163	225.46288
463.653	176.34077
464.142	200.44283
464.63	183.41169
465.119	267.57401
465.608	193.41189
466.096	204.41428
466.585	146.30949
467.073	179.39741
467.561	174.39089
468.05	224.48665
468.538	187.42173
469.026	136.30753
469.513	244.48555
470.001	195.41905
470.489	203.44638
470.976	143.30942
471.463	126.29083
471.951	105.24655
472.438	118.26247
472.925	166.36771
473.412	138.31942
473.899	106.22833
474.385	99.22801
474.872	145.32394
475.359	104.24044
475.845	107.2093
476.331	181.36816
476.817	126.28967
477.303	197.43246
477.789	144.32801
478.275	108.25632
478.761	89.20326
479.247	127.2661
479.732	96.22863
480.218	86.21436
480.703	99.23591
481.188	70.14287
481.673	51.11177
482.158	83.17175
482.643	76.18364
483.128	43.09388
483.612	96.21469
484.097	62.14413
484.581	76.16645
485.066	56.12859
485.55	47.098
486.034	69.14285
486.518	78.17573
487.002	136.3199
487.486	32.07551
487.969	64.15142
488.453	63.15357
488.936	63.13784
489.42	34.0717
489.903	40.09767
490.386	43.09456
490.869	77.15991
491.352	74.17447
491.835	46.09073
492.318	60.13086
492.8	82.16082
493.283	29.07119
493.765	12.02879
494.247	15.03343
494.73	30.06382
495.212	-8.01846
495.694	34.07707
496.175	-16.0375
496.657	39.08799
497.139	-45.07538
497.62	-9.02088
498.102	22.05302
498.583	-14.03406
499.064	20.04338
499.545	33.07315
500.026	21.04569
500.507	16.03574
500.988	-20.04785
501.469	18.04415
501.949	26.06202
502.43	5.01169
502.91	18.03592
503.39	16.0384
503.87	31.07108
504.35	-3.00669
504.83	4.00858
505.31	-15.03526
505.79	-32.07492
506.269	2.00449
506.749	-9.02026
507.228	8.01816
507.707	3.00645
508.187	-3.00685
508.666	-30.07224
509.145	-66.14979
509.623	-29.06604
510.102	-94.22103
510.581	12.02761
511.059	-63.1542
511.538	-42.10408
512.016	-83.19147
512.494	-29.0685
512.972	-36.08277
513.45	-31.07126
513.928	-31.07288
514.406	-33.07779
514.884	-69.1727
515.361	-79.1834
515.839	20.04438
516.316	-30.07013
516.793	-20.04902
517.27	-56.13147
517.747	-25.0628
518.224	-31.069
518.701	-28.06016
519.178	-67.16216
519.654	-53.12109
520.131	-79.19092
520.607	-73.17609
521.083	-88.19672
521.56	-68.15752
522.036	-84.18017
522.512	-38.09026
522.987	-37.0861
523.463	-48.11044
523.939	-54.12801
524.414	-125.28052
524.89	-41.09518
525.365	-91.19985
525.84	-77.18045
526.315	-23.05348
526.79	-85.18542
527.265	-89.19735
527.74	-22.05217
528.215	-103.23694
528.689	-84.17915
529.164	-52.10801
529.638	-53.13266
530.112	-84.19474
530.587	-79.16545
531.061	-108.25335
531.534	-94.22111
532.008	-77.18052
532.482	-46.10143
532.956	-91.22645
533.429	-24.05577
533.903	-40.0845
534.376	-122.26269
534.849	-87.19476
535.322	-109.24894
535.795	-115.27014
536.268	-70.16427
536.741	-97.2259
537.213	-104.23172
537.686	-72.16996
538.158	-55.12059
538.631	-99.23256
539.103	-106.23324
539.575	-89.17657
540.047	-126.26675
540.519	-115.26327
540.991	-125.29763
541.463	-53.12513
541.934	-82.18088
542.406	-125.2895
542.877	-49.10938
543.348	-113.26327
543.82	-95.22638
544.291	-36.08111
544.762	-71.16169
545.233	-81.19708
545.703	-116.25073
546.174	-52.1172
546.645	-60.14136
547.115	-41.09624
547.585	-95.21381
548.056	-87.20652
548.526	-54.12415
548.996	-97.22652
549.466	-54.12851
549.935	-69.16063
550.405	-65.13896
550.875	-81.18656
551.344	-40.09281
551.814	-68.15132
552.283	-61.12855
552.752	-47.10656
553.221	-38.0815
553.69	-24.0521
554.159	-75.18112
554.628	-72.15803
555.096	-65.1611
555.565	-116.25159
556.033	-65.14791
556.502	-123.29073
556.97	-55.11702
557.438	-122.28104
557.906	-130.29648
558.374	-95.21513
558.842	-111.25861
559.31	-148.32127
559.777	-52.12375
560.245	-157.35711
560.712	-93.20897
561.18	-123.26512
561.647	-74.16262
562.114	-93.20871
562.581	-70.16748
563.048	-131.29242
563.514	-103.24553
563.981	-106.23519
564.448	-63.1404
564.914	-150.34167
565.381	-102.22509
565.847	-117.26581
566.313	-97.21787
566.779	-123.27161
567.245	-75.1708
567.711	-100.23687
568.176	-159.34919
568.642	-124.30536
569.108	-94.22515
569.573	-152.34693
570.038	-85.17171
570.504	-77.16797
570.969	-90.22008
571.434	-74.1579
571.899	-144.33304
572.363	-46.10177
572.828	-104.22912
573.293	-124.27777
573.757	-167.37508
574.222	-69.14866
574.686	-70.15428
575.15	-102.236
575.614	-99.22044
576.078	-53.12114
576.542	-124.27422
577.006	-62.13585
577.469	-100.23715
577.933	-123.2666
578.396	-98.22638
578.86	-136.30891
579.323	-100.23229
579.786	-95.19826
580.249	-131.29
580.712	-98.23438
581.175	-91.21651
581.637	-123.27047
582.1	-131.27509
582.563	-114.23193
583.025	-124.29338
583.487	-135.26696
583.95	-97.20387
584.412	-39.07871
584.874	-163.3796
585.336	-101.23345
585.797	-74.15419
586.259	-87.19428
586.721	-122.27722
587.182	-161.35596
587.643	-178.39067
588.105	-108.2469
588.566	-112.22506
589.027	-95.22203
589.488	-150.32908
589.949	-72.16665
590.41	-72.13627
590.87	-101.22097
591.331	-109.22404
591.791	-137.30568
592.252	-134.2972
592.712	-61.14016
593.172	-99.21183
593.632	-78.16159
594.092	-68.14528
594.552	-106.21684
595.011	-166.36755
595.471	-112.23566
595.931	-60.12747
596.39	-117.26936
596.849	-126.28085
597.308	-67.13752
597.768	-128.31463
598.227	-60.1386
598.685	-49.10662
599.144	-55.12389
599.603	-95.21074
600.062	-27.05407
600.52	-47.09991
600.978	-69.15485
601.437	-74.15783
601.895	17.03382
602.353	-45.09258
602.811	-17.0348
603.269	-18.04009
603.727	6.01347
604.184	84.17666
604.642	-21.04759
605.099	60.12813
605.557	68.15176
606.014	116.2275
606.471	64.14837
606.928	131.25941
607.385	144.3292
607.842	165.33807
608.299	171.35512
608.755	200.43581
609.212	258.50863
609.668	195.38814
610.125	224.48354
610.581	304.62581
611.037	306.59957
611.493	310.63788
611.949	380.80127
612.405	276.48206
612.861	378.75712
613.316	371.76115
613.772	393.77205
614.227	452.90827
614.683	480.84954
615.138	433.86829
615.593	524.03907
616.048	501.95593
616.503	513.06392
616.958	515.10564
617.412	589.17012
617.867	503.92718
618.321	504.84523
618.776	520.94292
619.23	525.03305
619.684	534.97225
620.138	514.97194
620.592	496.01508
621.046	500.9811
621.5	489.01451
621.954	449.83177
622.407	488.89659
622.861	501.04315
623.314	421.78768
623.768	476.93445
624.221	479.79998
624.674	418.81477
625.127	394.79099
625.58	346.67025
626.033	421.77483
626.485	365.76778
626.938	431.88424
627.39	421.83174
627.843	352.69917
628.295	367.73696
628.747	379.7723
629.199	339.66816
629.651	328.66032
630.103	385.76739
630.555	291.53796
631.006	318.6567
631.458	310.65253
631.909	221.43907
632.361	235.4878
632.812	284.58886
633.263	300.56252
633.714	230.43594
634.165	271.58186
634.616	289.61248
635.067	316.61272
635.518	203.43267
635.968	234.41215
636.419	246.47015
636.869	210.45021
637.319	228.4738
637.769	245.49198
638.219	281.58902
638.669	201.44031
639.119	258.56743
639.569	242.53515
640.019	267.54482
640.468	235.47647
640.918	286.61816
641.367	219.43713
641.816	223.44676
642.265	298.61623
642.714	275.5642
643.163	276.56945
643.612	305.67431
644.061	352.66916
644.51	296.61182
644.958	269.53044
645.406	311.66342
645.855	259.56975
646.303	298.6165
646.751	266.54241
647.199	347.69744
647.647	322.66585
648.095	333.68412
648.543	319.56497
648.99	365.78096
649.438	315.65298
649.885	381.8416
650.333	341.56692
650.78	368.79368
651.227	335.72484
651.674	352.71222
652.121	370.80209
652.568	355.77106
653.015	376.83177
653.461	340.7333
653.908	350.71888
654.354	326.6847
654.801	335.71585
655.247	384.73675
655.693	386.91031
656.139	350.76198
656.585	274.58868
657.031	280.59561
657.477	324.62703
657.922	336.69418
658.368	290.64262
658.813	328.68039
659.259	327.70662
659.704	293.62475
660.149	310.65253
660.594	308.65431
661.039	317.65272
661.484	255.54633
661.929	361.7597
662.373	290.67519
662.818	213.48173
663.262	322.70995
663.707	316.73774
664.151	274.60565
664.595	263.58753
665.039	232.52481
665.483	275.64393
665.927	286.6142
666.371	320.68484
666.814	213.46679
667.258	332.71911
667.701	262.50437
668.145	226.51665
668.588	282.63556
669.031	286.62425
669.474	306.67157
669.917	273.54795
670.36	280.63905
670.803	266.58232
671.245	249.46538
671.688	362.80081
672.13	287.59042
672.573	238.5561
673.015	289.6328
673.457	321.63566
673.899	258.5691
674.341	254.56801
674.783	304.67336
675.225	269.60664
675.666	297.65525
676.108	295.59074
676.549	329.71155
676.991	314.62864
677.432	353.63432
677.873	287.60744
678.314	299.65524
678.755	352.77576
679.196	329.68993
679.637	271.60915
680.078	319.66305
680.518	336.70321
680.959	278.61013
681.399	323.7388
681.839	320.71116
682.28	324.74154
682.72	314.65484
683.16	323.74058
683.6	359.73121
684.039	321.59313
684.479	317.71428
684.919	333.71127
685.358	320.73062
685.798	377.91369
686.237	334.72592
686.676	318.64549
687.115	410.8668
687.554	448.94629
687.993	338.67105
688.432	342.70087
688.871	352.72201
689.309	408.87767
689.748	398.71392
690.186	393.83613
690.625	420.88599
691.063	391.83224
691.501	382.84081
691.939	358.81341
692.377	418.91887
692.815	436.94232
693.253	408.86483
693.69	389.75229
694.128	387.83984
694.565	437.93782
695.003	465.05417
695.44	527.08424
695.877	480.98766
696.314	478.87645
696.751	591.15499
697.188	518.04056
697.625	450.88716
698.061	522.1007
698.498	500.06115
698.934	519.08454
699.371	535.09431
699.807	540.09482
700.243	547.14618
700.679	584.11458
701.115	638.24258
701.551	635.2599
701.987	584.08924
702.422	628.28863
702.858	606.22775
703.294	649.23199
703.729	637.32742
704.164	713.43927
704.599	644.1901
705.035	636.20638
705.47	730.49014
705.904	718.39137
706.339	752.41575
706.774	709.37881
707.209	776.46817
707.643	828.63238
708.078	801.63635
708.512	778.65567
708.946	774.52864
709.38	798.53635
709.814	803.4539
710.248	909.79187
710.682	922.73472
711.116	889.75977
711.549	869.83386
711.983	852.5722
712.416	908.68912
712.85	884.75434
713.283	947.75702
713.716	966.9057
714.149	964.77134
714.582	948.61585
715.015	1046.05356
715.448	981.93126
715.881	1039.66318
716.313	1018.8166
716.746	1113.97387
717.178	1060.95008
717.61	1094.1279
718.043	1091.08448
718.475	1159.12868
718.907	1200.25974
719.339	1149.94663
719.77	1225.13057
720.202	1261.39745
720.634	1265.2801
721.065	1202.08108
721.497	1250.21814
721.928	1333.39221
722.359	1349.35221
722.79	1428.4239
723.221	1433.58419
723.652	1415.59804
724.083	1393.17974
724.514	1506.34937
724.945	1524.45579
725.375	1547.46882
725.806	1592.66964
726.236	1608.84508
726.666	1610.51615
727.096	1647.66248
727.526	1662.85695
727.956	1644.35766
728.386	1794.80391
728.816	1727.95156
729.246	1725.71409
729.675	1780.83107
730.105	1867.84392
730.534	1837.57202
730.964	1921.01373
731.393	1981.98875
731.822	1921.04109
732.251	2013.14592
732.68	2000.73262
733.109	2052.01126
733.537	2081.96312
733.966	2128.07852
734.395	2164.6925
734.823	2150.55746
735.251	2135.9636
735.68	2171.06729
736.108	2181.24774
736.536	2202.79038
736.964	2279.82064
737.392	2293.23039
737.82	2321.01092
738.247	2288.88383
738.675	2284.83192
739.102	2281.17541
739.53	2235.28881
739.957	2295.31113
740.384	2367.07282
740.811	2322.2191
741.238	2342.05419
741.665	2312.86017
742.092	2278.82807
742.519	2302.17461
742.945	2363.01902
743.372	2322.13089
743.798	2384.40268
744.225	2364.02337
744.651	2250.13397
745.077	2358.23592
745.503	2339.01713
745.929	2287.94797
746.355	2355.05666
746.781	2319.1437
747.207	2216.87901
747.632	2223.05002
748.058	2278.08736
748.483	2315.69495
748.908	2362.2477
749.334	2231.04779
749.759	2269.82515
750.184	2245.94977
750.609	2303.08956
751.033	2243.79729
751.458	2264.56172
751.883	2296.18199
752.307	2231.85228
752.732	2206.24999
753.156	2223.1214
753.58	2152.7618
754.005	2222.18284
754.429	2205.79714
754.853	2093.02218
755.277	2185.84401
755.7	2120.01847
756.124	2154.12642
756.548	2111.84693
756.971	2115.91674
757.394	2155.34681
757.818	2130.37045
758.241	2057.12477
758.664	2117.21388
759.087	2027.57136
759.51	2036.96106
759.933	2073.92248
760.356	2087.26528
760.778	2032.97657
761.201	2076.93134
761.623	2096.96389
762.046	2049.73804
762.468	2013.72891
762.89	2053.01005
763.312	1937.78627
763.734	2007.86783
764.156	2026.00803
764.578	1993.64575
765	1984.85259
765.421	1947.13313
765.843	1922.19461
766.264	1897.7427
766.686	1869.96848
767.107	1835.7375
767.528	1858.00395
767.949	1850.01735
768.37	1870.86102
768.791	1901.80392
769.212	1756.89482
769.632	1778.58117
770.053	1778.12103
770.473	1782.71506
770.894	1755.86715
771.314	1658.45593
771.734	1629.43344
772.154	1636.84008
772.575	1602.37764
772.994	1655.42131
773.414	1688.6077
773.834	1650.72303
774.254	1591.54826
774.673	1632.62847
775.093	1575.70288
775.512	1473.47741
775.931	1498.61139
776.351	1548.61492
776.77	1548.62052
777.189	1603.52449
777.607	1454.61891
778.026	1462.5629
778.445	1392.51186
778.864	1432.59869
779.282	1364.3258
779.701	1348.45552
780.119	1266.33804
780.537	1317.41629
780.955	1295.40065
781.373	1278.2832
781.791	1273.00321
782.209	1242.9826
782.627	1204.41853
783.045	1202.00559
783.462	1144.21487
783.88	1191.34595
784.297	1219.29282
784.715	1115.22976
785.132	1126.05498
785.549	1066.0694
785.966	1067.06694
786.383	1033.97863
786.8	1045.808
787.217	978.78005
787.633	1022.0148
788.05	952.67148
788.466	1053.85463
788.883	988.02941
789.299	903.73426
789.715	878.70195
790.131	858.70743
790.547	869.73776
790.963	881.77234
791.379	830.73583
791.795	792.41828
792.21	781.46648
792.626	721.40019
793.041	784.60195
793.457	733.49526
793.872	767.48047
794.287	709.42791
794.702	704.43636
795.117	684.44158
795.532	653.39635
795.947	606.18855
796.362	663.29595
796.776	561.08381
797.191	649.33269
797.605	604.21309
798.02	554.15243
798.434	522.96101
798.848	562.20126
799.262	559.20953
799.676	512.04883
800.09	460.98823
800.504	453.95748
800.918	474.94765
801.331	489.12123
801.745	444.87985
802.158	437.96487
802.572	405.86016
802.985	441.91701
803.398	436.91045
803.811	413.94233
804.224	345.76177
804.637	421.89492
805.05	315.64539
805.462	385.84297
805.875	345.82043
806.288	338.73242
806.7	274.62813
807.112	320.6632
807.525	251.55656
807.937	343.78107
808.349	283.64498
808.761	308.68989
809.173	253.55865
809.584	254.56825
809.996	295.66608
810.408	250.60197
810.819	234.5047
811.231	251.61705
811.642	264.60132
812.053	278.61937
812.464	281.62463
812.875	201.47325
813.286	222.53233
813.697	205.42648
814.108	259.57764
814.519	174.35126
814.929	203.48483
815.34	170.38253
815.75	184.43971
816.16	194.44457
816.571	177.43048
816.981	165.35977
817.391	207.46377
817.801	147.34436
818.211	125.27568
818.62	103.23106
819.03	196.44446
819.44	161.39128
819.849	198.46718
820.259	106.25506
820.668	104.23843
821.077	128.30038
821.486	149.33163
821.895	119.27604
822.304	104.2612
822.713	131.2883
823.122	121.28434
823.531	57.12682
823.939	53.12202
824.348	147.3368
824.756	90.21187
825.164	123.28961
825.573	96.22854
825.981	117.27452
826.389	82.19228
826.797	67.15898
827.205	106.22981
827.612	126.2906
828.02	117.25998
828.428	21.05142
828.835	61.15367
829.243	38.0854
829.65	53.12644
830.057	41.09503
830.464	119.27582
830.871	21.04701
831.278	59.13486
831.685	76.15794
832.092	92.21379
832.499	21.04289
832.905	51.12153
833.312	65.13704
833.718	40.09563
834.124	47.10231
834.531	63.15024
834.937	37.08992
835.343	-15.0342
835.749	32.06958
836.155	43.10736
836.561	79.18536
836.966	42.09617
837.372	41.09953
837.777	59.14124
838.183	29.06012
838.588	105.24963
838.993	50.11537
839.399	11.02575
839.804	27.0635
840.209	-20.04874
840.613	-74.15707
841.018	-1.00242
841.423	5.01222
841.828	33.08056
842.232	35.08241
842.637	45.10111
843.041	37.09124
843.445	55.13332
843.849	48.11396
844.253	28.06334
844.657	8.01957
845.061	-2.00429
845.465	11.02523
845.869	-19.04232
846.272	38.08914
846.676	23.05297
847.079	2.00492
847.483	36.08405
847.886	-19.04345
848.289	-20.05203
848.692	47.11414
849.095	27.06214
849.498	5.0119
849.901	54.11707
850.304	-29.06615
850.707	-10.02444
851.109	33.07906
851.512	11.02573
851.914	14.03455
852.316	16.03863
852.718	-30.076
853.121	36.08382
853.523	-26.05783
853.925	27.06906
854.326	-10.02417
854.728	58.14352
855.13	32.08037
855.531	8.01847
855.933	16.03668
856.334	-10.02394
856.736	11.02364
857.137	63.13923
857.538	33.08029
857.939	24.05678
858.34	13.03018
858.741	27.0676
859.142	27.06164
859.542	12.03071
859.943	28.06676
860.343	-26.06216
860.744	53.12338
861.144	46.10783
861.544	33.07728
861.945	-38.09437
862.345	29.06748
862.745	-1.0024
863.145	3.00666
863.544	-3.00728
863.944	-3.00675
864.344	59.13957
864.743	21.04935
865.143	-13.03213
865.542	-43.09587
865.941	-40.09512
866.34	7.01583
866.74	-26.06722
867.139	20.04662
867.537	0
867.936	-32.0736
868.335	43.10478
868.734	-29.07204
869.132	-2.00437
869.531	37.08484
869.929	12.0262
870.327	7.01616
870.726	-35.08279
871.124	-1.00219
871.522	29.07111
871.92	-27.06293
872.318	15.03484
872.715	31.07265
873.113	18.04178
873.511	-13.03136
873.908	-6.01481
874.306	-10.024
874.703	4.00952
875.1	-4.00977
875.497	21.04784
875.894	-26.06166
876.291	-10.0234
876.688	-6.01511
877.085	-20.04537
877.482	-17.04074
877.878	29.06687
878.275	-5.01221
878.671	3.00625
879.068	0
879.464	-25.05769
879.86	34.07785
880.256	-11.02567
880.652	37.0905
881.048	-44.10503
881.444	-2.0045
881.84	32.07805
882.236	-22.05326
882.631	-16.03727
883.027	3.00684
883.422	68.16684
883.817	-3.0073
884.213	6.01476
884.608	30.07065
885.003	-27.06233
885.398	-27.06533
885.793	-3.00728
886.188	-33.07993
886.582	19.04606
886.977	12.02686
887.371	11.02665
887.766	-28.06783
888.16	9.0214
888.554	-15.03506
888.949	-22.05252
889.343	-34.07907
889.737	16.04171
890.131	23.05512
890.525	27.06587
890.918	28.06743
891.312	31.07026
891.706	-1.00254
892.099	-33.08026
892.492	0
892.886	23.05405
893.279	-1.00245
893.672	-23.05619
894.065	-7.01652
894.458	6.0145
894.851	-48.11088
895.244	-16.03945
895.637	-6.01384
896.029	11.02592
896.422	-13.03019
896.814	13.03116
897.206	-19.04343
897.599	-2.00466
897.991	-19.04383
898.383	27.06027
898.775	32.0684
899.167	67.14906
899.559	40.09629
899.951	28.06218
900.342	49.11842
900.734	-24.05777
901.125	-22.05512
901.517	-27.06362
901.908	9.02035
902.299	11.02583
902.69	5.01121
903.082	18.04092
903.473	29.06658
903.863	39.09471
904.254	17.0374
904.645	-33.07749
905.036	0
905.426	43.09153
905.817	17.03951
906.207	21.04837
906.597	-14.03135
906.987	44.10904
907.378	-44.10704
907.768	-6.01525
908.158	-4.00926
908.547	-67.16594
908.937	23.05638
909.327	-33.07597
909.717	-49.11761
910.106	-60.13684
910.495	14.0332
910.885	-12.02912
911.274	-12.0287
911.663	10.02421
912.052	-37.0861
912.441	-8.01948
912.83	39.08587
913.219	-17.04261
913.608	-23.0535
913.997	16.03865
914.385	2.0045
914.774	13.03037
915.162	-3.00685
915.55	-22.04977
915.939	4.00978
916.327	-9.02164
916.715	40.09945
917.103	-3.0069
917.491	-19.04432
917.878	0
918.266	-16.03974
918.654	16.0393
919.041	-1.00253
919.429	-22.04979
919.816	-4.00976
920.203	-11.02538
920.591	67.15953
920.978	27.06288
921.365	-27.06778
921.752	-17.03828
922.139	12.0243
922.525	5.01164
922.912	48.11124
923.299	-8.01916
923.685	7.0176
924.072	-10.02151
924.458	12.02835
924.844	-30.07142
925.231	43.09456
925.617	-13.03222
926.003	-13.03181
926.389	-16.03872
926.774	-18.04376
927.16	-12.02846
927.546	21.05211
927.931	-34.08038
928.317	-25.054
928.702	-29.06492
929.088	-7.01575
929.473	20.04889
929.858	17.03983
930.243	2.00459
930.628	-7.01632
931.013	26.06244
931.398	-27.0585
931.783	14.03526
932.167	-21.04854
932.552	29.06918
932.937	-11.02572
933.321	-24.05792
933.705	30.07279
934.09	4.00955
934.474	0
934.858	12.03017
935.242	54.11982
935.626	-31.07655
936.009	-6.01557
936.393	21.05108
936.777	-3.00746
937.16	17.04238
937.544	-1.0022
937.927	4.00973
938.311	-49.11218
938.694	13.03296
939.077	-27.06196
939.46	40.09196
939.843	33.06308
940.226	4.00985
940.609	-43.09364
940.991	15.03676
941.374	37.08661
941.757	-13.03031
942.139	57.12038
942.522	8.01781
942.904	66.15204
943.286	-6.01439
943.668	43.10646
944.05	27.0635
944.432	6.01415
944.814	46.10808
945.196	24.05674
945.578	-9.02058
945.959	12.02695
946.341	-16.03687
946.722	-16.03555
947.104	20.04556
947.485	-11.02456
947.866	-12.02894
948.247	-28.06796
948.628	14.03238
949.009	1.00248
949.39	16.0379
949.771	4.00866
950.152	17.03976
950.532	8.01925
950.913	13.02987
951.293	-4.01049
951.674	-44.10148
952.054	7.01673
952.434	6.01416
952.814	30.06734
953.194	-31.07731
953.574	-17.03933
953.954	-8.01816
954.334	-51.12172
954.714	0
955.093	34.07885
955.473	-38.09196
955.853	40.09959
956.232	44.11642
956.611	-35.08003
956.99	9.02195
957.37	27.06611
957.749	-8.01798
958.128	26.06342
958.506	-31.07759
958.885	25.06099
959.264	7.01648
959.643	-4.00841
960.021	-31.07398
960.4	19.04129
960.778	-16.03723
961.156	4.00961
961.535	79.1743
961.913	14.03088
962.291	-26.06492
962.669	21.05083
963.047	10.02451
963.424	-22.05414
963.802	44.10269
964.18	8.01908
964.557	-9.01902
964.935	-13.02915
965.312	-1.00251
965.69	51.12013
966.067	-39.09058
966.444	26.06083
966.821	65.15898
967.198	21.04788
967.575	7.01629
967.952	14.03108
968.329	45.10468
968.705	28.05611
969.082	-11.02751
969.458	9.0208
969.835	35.08039
970.211	48.11925
970.587	-12.02877
970.963	5.01233
971.339	-29.07342
971.715	-9.02141
972.091	24.05656
972.467	32.07542
972.843	-5.01197
973.219	-70.15777
973.594	-24.06073
973.97	15.03328
974.345	-17.03904
974.721	-11.02491
975.096	13.02981
975.471	-23.052
975.846	-4.00917
976.221	-42.10297
976.596	0
976.971	-1.00235
977.346	-9.01988
977.72	50.12218
978.095	16.03985
978.469	47.10613
978.844	-30.07128
979.218	-11.02546
979.593	2.00455
979.967	19.04381
980.341	34.07403
980.715	4.00957
981.089	-39.0939
981.463	-14.0309
981.837	13.03048
982.21	21.04499
982.584	-10.02321
982.957	14.03356
983.331	20.04423
983.704	15.03558
984.078	35.08267
984.451	6.01405
984.824	-12.02804
985.197	-4.00919
985.57	30.072
985.943	48.11256
986.316	32.07375
986.688	43.09832
987.061	44.09653
987.434	18.04516
987.806	-12.02759
988.179	-5.01132
988.551	22.05302
988.923	6.01428
989.295	38.08998
989.667	31.07114
990.039	-9.02154
990.411	45.09795
990.783	-1.00217
991.155	36.08323
991.527	2.00457
991.898	31.07362
992.27	32.07562
992.641	7.01666
993.012	70.15299
993.384	14.03168
993.755	-3.00734
994.126	2.00461
994.497	-30.07112
994.868	-20.04345
995.239	-71.16431
995.61	-25.06037
995.98	3.00706
996.351	52.12398
996.722	-39.08666
997.092	-12.02744
997.462	27.06171
997.833	-1.00224
998.203	-9.02063
998.573	5.01206
998.943	15.03344
999.313	22.05011
999.683	18.04178
1000.053	-29.06358
1000.423	19.04418
1000.792	-35.08729
1001.162	46.10863
1001.531	-13.03036
1001.901	36.08541
1002.27	26.05406
1002.639	-12.02942
1003.009	47.10634
1003.378	-15.03689
1003.747	87.19484
1004.116	-15.0344
1004.485	29.06618
1004.853	2.00483
1005.222	1.0024
1005.591	32.07083
1005.959	69.15045
1006.328	56.12104
1006.696	75.17405
1007.064	4.0096
1007.433	29.06823
1007.801	57.13217
1008.169	43.10415
1008.537	-45.09337
1008.905	23.05132
1009.273	17.0397
1009.64	12.02726
1010.008	29.0661
1010.375	-71.15934
1010.743	27.05717
1011.11	32.07263
1011.478	-2.00472
1011.845	2.00446
1012.212	-4.00855
1012.579	13.03041
1012.946	1.00224
1013.313	18.0404
1013.68	-13.02697
1014.047	-9.02056
1014.414	68.15301
1014.78	0
1015.147	25.05707
1015.513	51.11699
1015.88	19.04604
1016.246	4.0094
1016.612	-13.02803
1016.978	-11.02564
1017.344	-49.11578
1017.71	-62.141
1018.076	-21.04678
1018.442	16.0394
1018.808	16.03866
1019.174	-26.06311
1019.539	65.13734
1019.905	65.14833
1020.27	-3.00718
1020.636	26.05807
1021.001	35.08022
1021.366	-41.09428
1021.731	-53.13131
1022.096	8.01957
1022.461	21.04713
1022.826	33.07461
1023.191	19.04778
1023.556	27.06
1023.92	12.02795
1024.285	34.0791
1024.649	-42.09833
1025.014	-18.04241
1025.378	28.06732
1025.742	62.14703
1026.107	3.00633
1026.471	6.01302
1026.835	72.17272
1027.199	-28.06496
1027.562	32.071
1027.926	-9.02088
1028.29	-8.0193
1028.654	32.06887
1029.017	3.007
1029.381	43.09888
1029.744	-5.01229
1030.107	0
1030.471	52.1183
1030.834	47.10057
1031.197	-11.02468
1031.56	-34.0767
1031.923	18.04465
1032.286	3.00655
1032.648	41.09262
1033.011	35.0769
1033.374	-38.08319
1033.736	-13.03309
1034.099	2.00463
1034.461	49.11967
1034.823	-70.16901
1035.185	17.04093
1035.548	32.07383
1035.91	3.0068
1036.272	5.01072
1036.634	-28.06476
1036.995	-3.00667
1037.357	-27.06271
1037.719	8.01849
1038.08	-22.04938
1038.442	52.11835
1038.803	-13.02985
1039.165	-12.02912
1039.526	-37.08512
1039.887	32.07327
1040.248	-12.02862
1040.609	33.07716
1040.97	27.0635
1041.331	14.03401
1041.692	-5.01119
1042.053	25.0534
1042.413	41.09023
1042.774	-11.02541
1043.134	24.05325
1043.495	-6.01435
1043.855	46.10423
1044.215	37.0878
1044.576	35.07997
1044.936	29.06192
1045.296	-16.03786
1045.656	-40.09317
1046.016	7.01597
1046.375	66.15137
1046.735	-1.00219
1047.095	-2.00446
1047.454	-37.07234
1047.814	58.13334
1048.173	-20.04476
1048.533	11.02396
1048.892	33.07688
1049.251	40.09515
1049.61	-18.04214
1049.969	21.04678
1050.328	-39.07962
1050.687	3.00698
1051.046	23.05354
1051.405	-12.02845
1051.763	-32.07059
1052.122	10.02395
1052.48	28.06592
1052.839	-28.06272
1053.197	-7.01565
1053.555	4.00849
1053.914	3.00696
1054.272	33.0757
1054.63	43.10042
1054.988	-12.02753
1055.345	26.05229
1055.703	36.08204
1056.061	8.01974
1056.419	7.01753
1056.776	9.02082
1057.134	-12.02654
1057.491	20.048
1057.848	-31.07296
1058.206	-68.15101
1058.563	19.03925
1058.92	39.08378
1059.277	3.00702
1059.634	-10.02237
1059.991	-57.12692
1060.348	79.16875
1060.704	-14.03243
1061.061	3.00654
1061.418	25.05852
1061.774	19.04465
1062.131	15.03868
1062.487	34.07582
1062.843	49.11645
1063.199	-50.11935
1063.555	22.04851
1063.911	24.05812
1064.267	45.08577
1064.623	-86.20229
1064.979	-26.05694
1065.335	-24.05347
1065.691	-61.13768
1066.046	35.07217
1066.402	46.09973
1066.757	21.05043
1067.112	13.03017
1067.468	22.04981
1067.823	66.15003
1068.178	15.0342
1068.533	18.04148
1068.888	10.02247
1069.243	-40.09449
1069.598	15.03475
1069.952	-39.08468
1070.307	7.01676
1070.662	-56.12715
1071.016	15.03226
1071.371	42.08934
1071.725	-17.03792
1072.079	60.13794
1072.434	4.00926
1072.788	-7.01584
1073.142	-28.06455
1073.496	25.05583
1073.85	-17.03734
1074.203	12.02739
1074.557	-11.02824
1074.911	-18.04035
1075.265	37.08146
1075.618	16.03706
1075.971	15.0343
1076.325	-10.02437
1076.678	-14.03062
1077.031	-6.01292
1077.385	-26.05379
1077.738	24.05157
1078.091	-3.00655
1078.444	28.0613
1078.796	43.10085
1079.149	20.04778
1079.502	-12.02711
1079.855	-17.0377
1080.207	31.072
1080.56	2.00499
1080.912	-2.00461
1081.264	13.02958
1081.617	-28.0654
1081.969	24.05819
1082.321	36.08399
1082.673	-37.08064
1083.025	-34.07623
1083.377	-30.05934
1083.728	29.06412
1084.08	-14.03327
1084.432	6.01385
1084.783	34.07428
1085.135	5.01207
1085.486	28.06109
1085.838	-3.00707
1086.189	8.01856
1086.54	8.01797
1086.891	20.04833
1087.242	17.03906
1087.593	-13.02967
1087.944	62.13241
1088.295	1.00213
1088.646	-40.09181
1088.996	-45.10525
1089.347	5.01163
1089.698	-10.02268
1090.048	-5.01254
1090.398	7.01524
1090.749	86.19328
1091.099	43.10502
1091.449	35.0834
1091.799	11.02616
1092.149	14.03305
1092.499	18.04193
1092.849	-17.04172
1093.199	-8.01902
1093.548	27.06169
1093.898	12.0289
1094.248	-11.02704
1094.597	27.06758
1094.947	-7.01812
1095.296	25.05946
1095.645	15.037
1095.994	-4.009
1096.343	-35.08324
1096.692	-41.10451
1097.041	20.05341
1097.39	45.1074
1097.739	-6.01498
1098.088	-13.03314
1098.437	30.07678
1098.785	57.14906
1099.134	-30.07613
1099.482	-3.00791
1099.83	30.07632
1100.179	31.07843
1100.527	12.03103
1100.875	1.00257
1101.223	8.02047
1101.571	25.06733
1101.919	23.05867
1102.267	5.01383
1102.615	0
1102.962	-2.00641
1103.31	13.04169
1103.658	-1.00321
