Data from N3 R8 sample 1_Subt2__4__13-55-00-143.txt Node

Date: Mon Sep 22 13:55:00 PDT 2025
User: uwsun
Spectrometer: HDX01956
Trigger mode: 0
Integration Time (sec): 5.000000E-1
Scans to average: 1
Nonlinearity correction enabled: true
Boxcar width: 0
Storing dark spectrum: false
XAxis mode: Wavelengths
Number of Pixels in Spectrum: 2068
>>>>>Begin Spectral Data<<<<<
194.03	42.12147
194.578	40.12945
195.127	46.14699
195.676	34.10883
196.225	55.14525
196.773	9.02486
197.321	47.13097
197.87	76.19491
198.418	133.33996
198.966	126.33147
199.513	84.21294
200.061	132.33556
200.609	117.30795
201.156	102.22566
201.704	110.27934
202.251	94.25062
202.798	150.38898
203.345	100.24617
203.892	112.28281
204.438	78.18312
204.985	122.29044
205.532	134.35311
206.078	87.21358
206.624	121.30001
207.17	101.23373
207.716	141.3446
208.262	97.19208
208.808	103.25892
209.354	117.28818
209.899	163.41238
210.445	139.34941
210.99	143.34728
211.535	96.22388
212.08	164.38306
212.625	153.38017
213.17	77.19273
213.715	142.31612
214.259	138.32005
214.804	158.38593
215.348	172.39337
215.892	114.2717
216.436	143.32553
216.98	114.25158
217.524	129.30562
218.068	98.24187
218.612	141.34742
219.155	137.32069
219.698	116.27105
220.242	78.1923
220.785	123.28803
221.328	107.2651
221.871	49.12163
222.414	61.15025
222.956	88.21054
223.499	138.30976
224.041	136.31066
224.583	99.21055
225.126	76.16603
225.668	52.12626
226.21	83.20834
226.751	108.23474
227.293	101.22769
227.835	101.24464
228.376	71.1615
228.918	104.25998
229.459	127.31385
230	95.2236
230.541	107.24358
231.082	57.13718
231.622	55.12556
232.163	94.22713
232.704	131.31969
233.244	120.29366
233.784	130.31174
234.324	58.12639
234.864	52.11692
235.404	128.30062
235.944	117.27741
236.484	81.19708
237.023	126.29349
237.563	70.16093
238.102	90.20898
238.641	93.23286
239.18	102.23881
239.719	77.18973
240.258	62.13774
240.797	108.25652
241.335	112.27011
241.874	90.16992
242.412	75.17845
242.95	116.27785
243.488	77.1733
244.026	174.39778
244.564	122.24742
245.102	157.34668
245.64	70.1662
246.177	74.16604
246.715	76.17975
247.252	124.27925
247.789	164.29354
248.326	107.25634
248.863	101.21948
249.4	86.19122
249.936	129.26084
250.473	116.26679
251.009	118.26726
251.546	121.26193
252.082	147.31876
252.618	119.26266
253.154	127.30112
253.69	77.17195
254.226	113.26689
254.761	129.28378
255.297	95.20539
255.832	173.40447
256.367	156.36007
256.903	138.29624
257.438	138.32284
257.972	112.24395
258.507	125.28824
259.042	149.32241
259.576	79.16948
260.111	69.15752
260.645	70.14943
261.179	137.31603
261.713	142.31389
262.247	189.42955
262.781	153.31873
263.315	143.34702
263.849	84.20785
264.382	109.24683
264.915	120.27831
265.449	119.29084
265.982	85.19217
266.515	124.29746
267.048	53.11041
267.58	132.27969
268.113	99.20972
268.646	109.26798
269.178	162.36453
269.71	123.26353
270.243	99.22035
270.775	98.2456
271.307	156.3658
271.838	115.26708
272.37	128.3144
272.902	124.27696
273.433	79.17167
273.965	112.26796
274.496	154.37756
275.027	156.38289
275.558	113.27061
276.089	185.45717
276.62	147.37124
277.15	145.35055
277.681	97.20764
278.211	140.33789
278.741	117.25728
279.272	170.38315
279.802	164.4052
280.332	152.35252
280.861	126.298
281.391	90.20277
281.921	144.34017
282.45	186.45567
282.98	122.31419
283.509	161.35894
284.038	103.2302
284.567	115.26349
285.096	154.36718
285.625	130.28953
286.153	151.34958
286.682	172.38861
287.21	150.35393
287.739	146.33793
288.267	167.39931
288.795	151.39299
289.323	150.3443
289.851	122.27958
290.378	161.35715
290.906	133.32408
291.433	149.36442
291.961	142.31704
292.488	145.35583
293.015	109.25295
293.542	106.26469
294.069	177.42952
294.596	141.34332
295.122	116.27073
295.649	150.32422
296.175	211.49679
296.702	91.21576
297.228	194.4636
297.754	58.12767
298.28	198.44279
298.806	176.41415
299.332	206.45669
299.857	181.40553
300.383	145.35622
300.908	177.42419
301.433	217.51687
301.958	207.46721
302.483	161.39669
303.008	191.46297
303.533	130.33281
304.058	99.22919
304.582	159.36926
305.107	171.43831
305.631	148.32715
306.155	148.34188
306.679	204.47498
307.203	147.33477
307.727	163.3775
308.251	204.48768
308.775	161.37804
309.298	142.3348
309.822	170.42172
310.345	215.50148
310.868	205.48323
311.391	142.34142
311.914	244.59641
312.437	157.34973
312.96	198.4541
313.482	155.36253
314.005	196.48301
314.527	210.54005
315.049	186.45837
315.571	204.4466
316.093	173.41666
316.615	241.56808
317.137	220.46961
317.659	245.57773
318.18	225.52707
318.702	210.47485
319.223	216.43144
319.744	251.54682
320.265	249.59217
320.786	245.59094
321.307	219.52943
321.828	241.52726
322.348	193.44112
322.869	237.5443
323.389	425.7414
323.909	209.4644
324.43	225.51964
324.95	292.65217
325.47	342.80688
325.989	249.57071
326.509	246.53012
327.029	219.48277
327.548	314.68942
328.067	277.64531
328.587	276.66028
329.106	265.5805
329.625	262.6518
330.144	278.61629
330.662	308.69897
331.181	300.66395
331.7	282.6301
332.218	324.66819
332.736	272.61177
333.255	278.62168
333.773	346.78551
334.291	314.74888
334.808	322.68912
335.326	356.76286
335.844	352.78811
336.361	377.913
336.879	342.75183
337.396	340.78939
337.913	382.84257
338.43	349.74092
338.947	332.74609
339.464	401.82047
339.981	369.83415
340.497	382.89633
341.014	395.91143
341.53	356.75825
342.046	425.98336
342.562	393.91763
343.078	371.82396
343.594	386.86955
344.11	451.00497
344.626	383.90691
345.141	447.94563
345.657	429.90319
346.172	431.97188
346.687	421.90894
347.202	434.89623
347.717	494.10392
348.232	422.97932
348.747	451.96702
349.261	482.97213
349.776	488.05815
350.29	496.14752
350.805	467.06557
351.319	491.05674
351.833	421.88752
352.347	516.12277
352.861	465.99832
353.374	448.94422
353.888	514.14207
354.401	469.99607
354.915	488.00138
355.428	555.26058
355.941	453.98178
356.454	483.9936
356.967	485.04649
357.48	546.14938
357.993	552.22156
358.505	496.12844
359.018	512.13338
359.53	577.27457
360.042	542.09938
360.554	537.17324
361.066	532.18849
361.578	607.1908
362.09	523.13056
362.602	543.08962
363.113	600.2516
363.625	603.20634
364.136	579.13363
364.647	657.38674
365.158	612.29135
365.669	615.31216
366.18	636.3491
366.691	660.2977
367.201	610.29332
367.712	668.34677
368.222	634.27695
368.733	641.24163
369.243	658.29801
369.753	698.41765
370.263	660.39155
370.773	668.44969
371.282	689.42193
371.792	748.49931
372.301	767.61634
372.811	756.73656
373.32	767.42177
373.829	805.63043
374.338	798.52752
374.847	842.65847
375.356	903.8208
375.865	934.67235
376.373	1005.89441
376.882	938.96444
377.39	965.93172
377.898	954.96986
378.407	1024.85645
378.915	1113.9108
379.423	1194.21668
379.93	1201.10727
380.438	1136.18579
380.946	1278.27737
381.453	1328.41168
381.96	1451.54418
382.468	1488.49944
382.975	1567.67771
383.482	1651.47406
383.989	1659.99221
384.495	1711.59408
385.002	1842.38077
385.509	1942.88173
386.015	2016.24437
386.521	2118.71862
387.028	2318.87971
387.534	2339.64788
388.04	2354.00807
388.546	2453.84529
389.051	2596.72015
389.557	2852.07777
390.063	2952.80097
390.568	3052.09301
391.073	3110.70355
391.578	3324.22202
392.084	3432.75939
392.589	3472.3603
393.093	3724.8082
393.598	4169.3372
394.103	4537.49442
394.607	4953.15328
395.112	5299.14255
395.616	5600.81087
396.12	6003.28922
396.624	6642.30384
397.128	7325.51881
397.632	8072.9951
398.136	8597.60973
398.639	9206.81271
399.143	10492.49245
399.646	11697.45594
400.15	12877.20391
400.653	14288.24289
401.156	16072.30024
401.659	18604.43798
402.162	22725.4271
402.664	30090.81582
403.167	43221.04676
403.67	57839.0053
404.172	52566.9044
404.674	31176.06428
405.176	3757.7064
405.678	27.69154
406.18	0
406.682	0
407.184	45159.96023
407.686	58897.86778
408.187	61455.21265
408.688	62150.63916
409.19	51621.43489
409.691	41790.28664
410.192	35502.28553
410.693	30958.44413
411.194	28329.90279
411.694	26910.48134
412.195	25055.41144
412.696	22357.07511
413.196	21122.17356
413.696	20910.44366
414.196	21002.81145
414.696	21072.26418
415.196	19964.53851
415.696	17847.82693
416.196	14141.62901
416.695	10863.25703
417.195	9383.21784
417.694	9077.62061
418.194	8564.50094
418.693	7957.75496
419.192	7677.60589
419.691	7617.55782
420.19	7494.62986
420.688	7156.57856
421.187	7056.88062
421.685	6498.2637
422.184	5859.47628
422.682	4915.53304
423.18	4224.38511
423.678	3752.62033
424.176	3369.66999
424.674	3246.5627
425.172	3042.98033
425.669	2950.36321
426.167	2752.89207
426.664	2483.84262
427.161	2272.84547
427.659	2045.93942
428.156	1968.37382
428.652	1879.05594
429.149	1787.83194
429.646	1703.39022
430.143	1637.65794
430.639	1544.50359
431.135	1461.60698
431.632	1372.23757
432.128	1284.26351
432.624	1238.42679
433.12	1164.99178
433.616	1103.79013
434.111	1064.95844
434.607	1073.00568
435.103	993.60637
435.598	961.48384
436.093	1003.83256
436.588	863.54137
437.083	822.47666
437.578	809.52139
438.073	796.66173
438.568	726.47795
439.062	732.28505
439.557	653.30653
440.051	671.28993
440.546	680.34399
441.04	622.29009
441.534	631.38064
442.028	575.17095
442.522	603.24144
443.015	572.07315
443.509	615.28833
444.002	522.11419
444.496	550.0521
444.989	527.12658
445.482	534.1743
445.975	471.9554
446.468	539.0039
446.961	475.88873
447.454	504.00353
447.947	453.9428
448.439	505.07295
448.931	454.90346
449.424	423.94138
449.916	407.86818
450.408	407.81049
450.9	422.92104
451.392	383.86367
451.884	365.73497
452.375	354.78866
452.867	353.70557
453.358	384.78053
453.849	396.74364
454.341	425.84673
454.832	313.60154
455.323	388.84864
455.814	392.80296
456.304	318.65817
456.795	355.72372
457.285	370.72566
457.776	290.58893
458.266	339.7222
458.756	335.73444
459.247	312.67147
459.737	306.65884
460.226	356.72659
460.716	331.70424
461.206	271.59164
461.695	299.67621
462.185	316.67306
462.674	271.56605
463.163	284.57648
463.653	286.53918
464.142	237.5207
464.63	239.53149
465.119	255.54963
465.608	276.57841
466.096	241.48529
466.585	222.46278
467.073	237.51982
467.561	214.47679
468.05	290.62117
468.538	207.46492
469.026	216.48045
469.513	276.54514
470.001	214.458
470.489	227.49663
470.976	222.47224
471.463	180.411
471.951	171.39635
472.438	199.43519
472.925	206.4525
473.412	262.59146
473.899	145.30972
474.385	138.31536
474.872	226.49643
475.359	166.37903
475.845	210.40076
476.331	240.4816
476.817	131.30087
477.303	210.45973
477.789	156.35448
478.275	137.32332
478.761	130.29444
479.247	125.26202
479.732	147.34665
480.218	118.29241
480.703	158.37223
481.188	88.17887
481.673	113.24441
482.158	143.29193
482.643	102.24525
483.128	104.22412
483.612	124.27571
484.097	167.38016
484.581	86.18796
485.066	59.1354
485.55	37.07732
486.034	128.26149
486.518	89.20006
487.002	82.19491
487.486	113.26244
487.969	144.33542
488.453	89.2159
488.936	91.19792
489.42	58.12166
489.903	130.31209
490.386	86.1874
490.869	90.18636
491.352	119.27812
491.835	86.16803
492.318	52.1136
492.8	23.04574
493.283	50.12227
493.765	63.14966
494.247	72.15856
494.73	66.1393
495.212	30.06869
495.694	32.07257
496.175	83.19078
496.657	51.11478
497.139	-22.03662
497.62	7.01619
498.102	87.20708
498.583	50.12017
499.064	40.08639
499.545	95.20785
500.026	22.04786
500.507	-3.00673
500.988	66.15531
501.469	47.11466
501.949	54.12811
502.43	48.11132
502.91	-1.002
503.39	7.01683
503.87	32.07336
504.35	-31.06954
504.83	25.0534
505.31	17.03972
505.79	22.05096
506.269	4.00897
506.749	58.12875
507.228	-14.03193
507.707	15.03218
508.187	9.02049
508.666	22.05246
509.145	-36.08121
509.623	-19.04318
510.102	-10.02313
510.581	-4.00923
511.059	-30.07298
511.538	-61.15169
512.016	-10.02273
512.494	-5.01175
512.972	-24.05504
513.45	34.07713
513.928	-19.04456
514.406	-6.01407
514.884	-24.05958
515.361	32.07266
515.839	43.09495
516.316	31.0716
516.793	36.08731
517.27	36.083
517.747	33.08203
518.224	-25.05557
518.701	29.06154
519.178	-30.07211
519.654	-13.02946
520.131	17.04034
520.607	35.0827
521.083	-9.01979
521.56	2.00457
522.036	-12.02534
522.512	-13.03073
522.987	55.12566
523.463	-18.04117
523.939	-16.03765
524.414	-17.0373
524.89	14.03215
525.365	-14.03025
525.84	-31.072
526.315	-36.08392
526.79	-73.15884
527.265	-45.09887
527.74	-22.05217
528.215	-40.09086
528.689	-77.16398
529.164	-42.08705
529.638	-23.05726
530.112	-42.09656
530.587	-7.01443
531.061	-77.17954
531.534	-6.01387
532.008	-69.16152
532.482	-56.12374
532.956	-81.2012
533.429	-53.12387
533.903	-47.09944
534.376	-66.1404
534.849	-50.11108
535.322	-110.25127
535.795	-119.27975
536.268	-48.11216
536.741	-92.21405
537.213	-71.15711
537.686	-50.11752
538.158	-34.07421
538.631	-96.22538
539.103	-85.1862
539.575	-69.13625
540.047	-61.1273
540.519	-69.1565
540.991	-75.17687
541.463	-36.08472
541.934	-131.29193
542.406	-110.254
542.877	-27.06
543.348	-125.29191
543.82	-60.14202
544.291	-23.05168
544.762	-116.26658
545.233	-76.18474
545.703	-85.18251
546.174	-60.13546
546.645	-71.16763
547.115	-60.14136
547.585	-79.17722
548.056	-38.08935
548.526	-20.04567
548.996	-82.19093
549.466	-40.09493
549.935	-63.14649
550.405	-63.13463
550.875	-50.11445
551.344	-26.06016
551.814	-29.06401
552.283	-13.02711
552.752	-29.06551
553.221	-19.04058
553.69	20.04301
554.159	-49.11775
554.628	-65.14245
555.096	-39.0962
555.565	-84.18094
556.033	-28.06324
556.502	-65.15191
556.97	-61.12996
557.438	-35.07923
557.906	-102.23131
558.374	-23.05132
558.842	-79.18289
559.31	-66.14076
559.777	-80.1914
560.245	-92.20651
560.712	-51.11361
561.18	-85.18172
561.647	-42.09168
562.114	-83.18589
562.581	-80.19177
563.048	-110.24448
563.514	-104.24797
563.981	-38.08312
564.448	14.0307
564.914	-91.20481
565.381	-40.08713
565.847	-73.16437
566.313	-104.23392
566.779	-72.15729
567.245	-72.16387
567.711	-16.03728
568.176	-103.22354
568.642	-75.18303
569.108	-68.16207
569.573	-48.10726
570.038	-37.07392
570.504	-78.17018
570.969	-49.11891
571.434	-66.14058
571.899	-87.19893
572.363	-18.03959
572.828	-27.05852
573.293	-53.11699
573.757	-41.0897
574.222	-73.15742
574.686	-15.03268
575.15	-51.1168
575.614	-47.10353
576.078	-36.082
576.542	-16.03458
577.006	-48.10486
577.469	-99.23473
577.933	-71.15218
578.396	-55.12597
578.86	-81.18193
579.323	-34.07795
579.786	-54.11167
580.249	-107.23568
580.712	-24.05659
581.175	-58.13712
581.637	-84.1832
582.1	-80.1661
582.563	-55.11039
583.025	-62.14493
583.487	-8.01535
583.95	-66.13777
584.412	-20.04019
584.874	-117.27001
585.336	-17.03864
585.797	-25.05152
586.259	-64.14224
586.721	-64.14372
587.182	-50.10798
587.643	-53.11326
588.105	-24.05394
588.566	-47.09303
589.027	-14.0322
589.488	-27.0577
589.949	-22.05042
590.41	2.00372
590.87	-13.02791
591.331	13.02598
591.791	-5.01085
592.252	-13.02811
592.712	66.14778
593.172	-12.02519
593.632	32.06466
594.092	108.22193
594.552	87.17018
595.011	22.0468
595.471	54.10946
595.931	110.22502
596.39	107.23529
596.849	91.1937
597.308	156.30407
597.768	137.32018
598.227	220.47979
598.685	207.42585
599.144	260.54777
599.603	162.34011
600.062	290.53813
600.52	279.55094
600.978	272.5675
601.437	317.61863
601.895	403.72977
602.353	317.59895
602.811	393.72983
603.269	422.85385
603.727	459.93403
604.184	549.03472
604.642	496.00362
605.099	593.11837
605.557	646.26714
606.014	647.10907
606.471	678.37761
606.928	702.20392
607.385	797.57964
607.842	757.3426
608.299	822.45854
608.755	915.68996
609.212	896.50239
609.668	912.51349
610.125	989.78423
610.581	965.69127
611.037	939.56573
611.493	990.72569
611.949	1084.93272
612.405	1066.48198
612.861	1029.75202
613.316	1009.7723
613.772	1067.7654
614.227	1050.82003
614.683	1102.63972
615.138	1050.8066
615.593	1114.90998
616.048	1056.74569
616.503	1041.90789
616.958	1116.08782
617.412	1154.99566
617.867	1026.64554
618.321	1058.51037
618.776	974.56357
619.23	1011.76564
619.684	991.59682
620.138	957.61419
620.592	1003.82059
621.046	928.63689
621.5	890.68343
621.954	824.38357
622.407	782.33003
622.861	878.67687
623.314	716.24112
623.768	735.35354
624.221	776.1905
624.674	716.29573
625.127	738.36281
625.58	708.25192
626.033	694.18889
626.485	639.26136
626.938	694.33774
627.39	622.16944
627.843	537.019
628.295	617.166
628.747	496.98382
629.199	534.0027
629.651	544.0391
630.103	502.97341
630.555	463.81923
631.006	498.98687
631.458	491.99232
631.909	440.82954
632.361	418.8322
632.812	443.88588
633.263	423.76913
633.714	382.69721
634.165	387.81011
634.616	341.71446
635.067	376.71862
635.518	357.73541
635.968	341.58384
636.419	333.62301
636.869	325.67943
637.319	291.59622
637.769	298.59108
638.219	276.57917
638.669	276.59502
639.119	290.63351
639.569	321.69811
640.019	227.46741
640.468	265.53361
640.918	235.51348
641.367	195.39139
641.816	237.47327
642.265	215.45287
642.714	210.43718
643.163	202.42371
643.612	209.47134
644.061	235.45947
644.51	225.47247
644.958	180.36237
645.406	145.32045
645.855	145.32661
646.303	203.42891
646.751	145.30381
647.199	188.39173
647.647	233.49143
648.095	143.30638
648.543	204.37212
648.99	220.48549
649.438	206.43744
649.885	165.38092
650.333	208.35849
650.78	214.47679
651.227	129.2914
651.674	196.41076
652.121	164.37114
652.568	142.3224
653.015	115.26824
653.461	141.31708
653.908	146.31368
654.354	113.24848
654.801	130.29013
655.247	142.28837
655.693	145.35793
656.139	155.35142
656.585	80.17906
657.031	144.31538
657.477	179.35845
657.922	174.37255
658.368	93.21454
658.813	151.32562
659.259	151.33859
659.704	184.40163
660.149	151.32897
660.594	136.29975
661.039	168.35753
661.484	130.28604
661.929	171.37491
662.373	131.31455
662.818	50.11683
663.262	152.34707
663.707	167.40129
664.151	138.3137
664.595	140.3207
665.039	94.21861
665.483	133.32008
665.927	157.34654
666.371	124.27662
666.814	146.32448
667.258	190.42402
667.701	180.35335
668.145	117.27334
668.588	94.21999
669.031	139.31284
669.474	134.30474
669.917	138.28563
670.36	154.36041
670.803	115.25978
671.245	143.27429
671.688	164.37779
672.13	169.35692
672.573	151.35885
673.015	118.2677
673.457	180.36821
673.899	154.34709
674.341	190.43051
674.783	218.49153
675.225	165.38001
675.666	139.31681
676.108	211.43075
676.549	223.49324
676.991	183.37749
677.432	195.36463
677.873	213.45812
678.314	209.46671
678.755	219.49611
679.196	176.38156
679.637	227.51486
680.078	177.37955
680.518	211.45382
680.959	202.45043
681.399	274.63291
681.839	257.57863
682.28	262.60712
682.72	260.54873
683.16	275.63661
683.6	269.55913
684.039	261.48951
684.479	253.57755
684.919	247.53742
685.358	277.63793
685.798	333.81375
686.237	276.60727
686.676	305.62094
687.115	358.76549
687.554	321.69692
687.993	346.68565
688.432	345.70654
688.871	349.71634
689.309	367.79644
689.748	333.6073
690.186	373.79704
690.625	387.8223
691.063	368.78721
691.501	370.81645
691.939	438.97899
692.377	430.94286
692.815	501.06582
693.253	429.90517
693.69	490.92473
694.128	437.93822
694.565	547.14416
695.003	573.27099
695.44	543.11321
695.877	488.00048
696.314	588.04687
696.751	617.19848
697.188	662.28635
697.625	548.05384
698.061	609.26
698.498	660.35256
698.934	640.30206
699.371	678.34254
699.807	633.25651
700.243	695.40931
700.679	729.34314
701.115	688.32425
701.551	763.46921
701.987	717.29392
702.422	804.585
702.858	788.53088
703.294	830.50709
703.729	863.70903
704.164	908.75182
704.599	837.4733
705.035	890.58521
705.47	930.81318
705.904	994.80103
706.339	995.76314
706.774	1019.83755
707.209	1011.80454
707.643	1028.93265
708.078	1151.16563
708.512	1150.24973
708.946	1155.07902
709.38	1089.95213
709.814	1143.89377
710.248	1224.23559
710.682	1230.14099
711.116	1288.31407
711.549	1268.44273
711.983	1316.1516
712.416	1307.19425
712.85	1325.36208
713.283	1429.33959
713.716	1407.49226
714.149	1417.3134
714.582	1424.12465
715.015	1506.64318
715.448	1464.55978
715.881	1557.13841
716.313	1580.42212
716.746	1635.51833
717.178	1615.56821
717.61	1731.87113
718.043	1699.78245
718.475	1704.71501
718.907	1857.9525
719.339	1793.52979
719.77	1781.6605
720.202	1864.04044
720.634	1958.9301
721.065	1867.68705
721.497	1932.84788
721.928	1980.98809
722.359	2016.92609
722.79	2060.92986
723.221	2146.19737
723.652	2106.22381
724.083	2157.6752
724.514	2186.77877
724.945	2255.93042
725.375	2251.91732
725.806	2209.11467
726.236	2301.3762
726.666	2263.91014
727.096	2325.08607
727.526	2307.32086
727.956	2393.69428
728.386	2372.12726
728.816	2383.39811
729.246	2400.0917
729.675	2424.19423
730.105	2491.14505
730.534	2438.81374
730.964	2559.33036
731.393	2534.23939
731.822	2489.34391
732.251	2560.4135
732.68	2597.92275
733.109	2599.22866
733.537	2590.14833
733.966	2623.2622
734.395	2580.78659
734.823	2602.63814
735.251	2658.12679
735.68	2559.20892
736.108	2594.41871
736.536	2547.87782
736.964	2590.88764
737.392	2561.32654
737.82	2612.08477
738.247	2543.94698
738.675	2529.88986
739.102	2515.25998
739.53	2586.42974
739.957	2466.3828
740.384	2533.11921
740.811	2447.26654
741.238	2460.09064
741.665	2493.90459
742.092	2440.87129
742.519	2380.2056
742.945	2390.02742
743.372	2356.14383
743.798	2382.40181
744.225	2317.00752
744.651	2242.1303
745.077	2277.20129
745.503	2264.99016
745.929	2203.9156
746.355	2137.96645
746.781	2130.05538
747.207	2097.82754
747.632	2022.94563
748.058	2031.96347
748.483	2049.60539
748.908	2039.08074
749.334	1992.92213
749.759	1905.6591
750.184	1900.7714
750.609	1908.87771
751.033	1917.64935
751.458	1860.40942
751.883	1853.91795
752.307	1750.59103
752.732	1815.98082
753.156	1754.81596
753.58	1754.54423
754.005	1658.77967
754.429	1656.48386
754.853	1614.66604
755.277	1635.50957
755.7	1544.58439
756.124	1567.67488
756.548	1564.47582
756.971	1535.50063
757.394	1565.83754
757.818	1506.79937
758.241	1454.59509
758.664	1442.61823
759.087	1438.18433
759.51	1368.38986
759.933	1353.33214
760.356	1392.60713
760.778	1338.36767
761.201	1296.27176
761.623	1304.29536
762.046	1243.09527
762.468	1266.12677
762.89	1245.26895
763.312	1173.08151
763.734	1195.13381
764.156	1183.19782
764.578	1126.92035
765	1124.04206
765.421	1125.225
765.843	1053.16265
766.264	1045.90564
766.686	1082.09954
767.107	1008.87552
767.528	1010.01803
767.949	1018.04153
768.37	982.893
768.791	955.81143
769.212	954.91891
769.632	944.72063
770.053	917.96979
770.473	895.71969
770.894	943.88677
771.314	802.49527
771.734	819.52062
772.154	837.75781
772.575	827.51418
772.994	843.53888
773.414	815.57928
773.834	816.65536
774.254	710.42042
774.673	775.54886
775.093	737.54627
775.512	682.39267
775.931	725.51973
776.351	726.49805
776.77	731.50939
777.189	719.41953
777.607	691.48597
778.026	683.44042
778.445	636.36787
778.864	649.41051
779.282	620.26761
779.701	668.42507
780.119	585.26317
780.537	551.20438
780.955	601.30552
781.373	556.17713
781.791	555.05374
782.209	500.96767
782.627	564.29887
783.045	568.11179
783.462	515.14595
783.88	514.17228
784.297	530.16451
784.715	492.12474
785.132	524.10105
785.549	479.05911
785.966	464.02738
786.383	475.031
786.8	444.89137
787.217	453.93483
787.633	470.04588
788.05	444.88397
788.466	442.90333
788.883	478.09399
789.299	435.93031
789.715	406.87637
790.131	368.81645
790.547	386.85887
790.963	407.90878
791.379	349.8082
791.795	357.71158
792.21	357.74103
792.626	338.7171
793.041	381.85039
793.457	299.6707
793.872	335.7143
794.287	339.74164
794.702	334.73949
795.117	344.78002
795.532	295.68046
795.947	232.49587
796.362	268.57356
796.776	295.60715
797.191	244.54745
797.605	264.57257
798.02	239.53282
798.434	197.3923
798.848	230.52769
799.262	235.54445
799.676	160.35442
800.09	204.46241
800.504	250.55191
800.918	182.3885
801.331	181.44137
801.745	228.47465
802.158	200.46346
802.572	190.42245
802.985	162.3578
803.398	203.44582
803.811	222.52604
804.224	168.38468
804.637	177.39624
805.05	134.28579
805.462	177.40456
805.875	190.4653
806.288	116.26327
806.7	80.19052
807.112	161.34554
807.525	132.29994
807.937	133.31571
808.349	130.30543
808.761	143.33119
809.173	113.25682
809.584	75.17398
809.996	132.30795
810.408	131.32254
810.819	134.29522
811.231	127.31936
811.642	165.38335
812.053	127.2918
812.464	206.46505
812.875	75.18091
813.286	126.30766
813.697	71.15212
814.108	137.31326
814.519	43.08942
814.929	108.26263
815.34	24.05562
815.75	152.36546
816.16	109.25405
816.571	97.23945
816.981	85.18848
817.391	105.24019
817.801	83.19687
818.211	59.13192
818.62	50.11339
819.03	76.17654
819.44	93.2289
819.849	108.25928
820.259	71.17198
820.668	12.02802
821.077	62.14737
821.486	82.18505
821.895	100.23284
822.304	78.19681
822.713	8.01806
823.122	71.16847
823.531	70.15532
823.939	12.02785
824.348	71.16516
824.756	65.15376
825.164	82.19461
825.573	57.13671
825.981	128.29968
826.389	27.06399
826.797	34.08119
827.205	53.1162
827.612	47.1101
828.02	14.03177
828.428	36.0879
828.835	5.01272
829.243	9.02035
829.65	38.09092
830.057	70.16132
830.464	19.04491
830.871	-9.02027
831.278	2.00462
831.685	64.13336
832.092	28.06589
832.499	9.01843
832.905	25.05987
833.312	-8.01714
833.718	46.10985
834.124	49.10662
834.531	50.11954
834.937	18.0439
835.343	18.04077
835.749	20.0436
836.155	2.00503
836.561	-6.01431
836.966	-10.02314
837.372	2.00489
837.777	25.06024
838.183	29.06012
838.588	58.13914
838.993	51.11765
839.399	-7.01644
839.804	28.06584
840.209	-26.06344
840.613	6.01251
841.018	-9.0218
841.423	6.01467
841.828	10.02452
842.232	51.11971
842.637	39.08774
843.041	-41.10255
843.445	46.11169
843.849	18.04298
844.253	39.08803
844.657	-3.00735
845.061	8.01711
845.465	-42.09737
845.869	-4.00888
846.272	13.03065
846.676	61.13943
847.079	17.04167
847.483	1.00235
847.886	11.025
848.289	28.07224
848.692	11.02689
849.095	39.08954
849.498	-4.00953
849.901	16.03497
850.304	21.04742
850.707	-34.08345
851.109	44.10519
851.512	6.01405
851.914	-6.01486
852.316	-41.10006
852.718	-29.07345
853.121	29.06762
853.523	-33.07351
853.925	26.06652
854.326	-19.046
854.728	31.07709
855.13	61.15241
855.531	14.03228
855.933	14.03211
856.334	-14.03355
856.736	20.0429
857.137	0
857.538	57.13806
857.939	23.05443
858.34	23.05329
858.741	8.0201
859.142	2.00459
859.542	15.03837
859.943	41.09751
860.343	-25.05976
860.744	72.16699
861.144	87.20229
861.544	27.0633
861.945	22.05404
862.345	29.06748
862.745	19.04541
863.145	-49.10997
863.544	22.05314
863.944	20.04478
864.344	68.16058
864.743	51.11915
865.143	-11.02717
865.542	-9.01992
865.941	-37.08793
866.34	-58.13286
866.74	-18.04647
867.139	61.14105
867.537	-14.03421
867.936	-1.00229
868.335	23.05625
868.734	18.04433
869.132	-40.08805
869.531	55.12566
869.929	16.03491
870.327	32.07351
870.726	-13.03062
871.124	-17.03727
871.522	36.08817
871.92	-12.02789
872.318	37.08556
872.715	24.05632
873.113	-2.00466
873.511	39.09315
873.908	-19.04701
874.306	24.05722
874.703	-22.05262
875.1	15.0365
875.497	-47.10855
875.894	4.00943
876.291	-3.00701
876.688	22.05512
877.085	14.03154
877.482	23.0547
877.878	17.03929
878.275	-13.03178
878.671	33.06826
879.068	19.0436
879.464	-18.04148
879.86	38.08694
880.256	-19.04441
880.652	28.0686
881.048	39.09161
881.444	35.07819
881.84	26.06349
882.236	21.05043
882.631	-39.09126
883.027	-8.01828
883.422	29.07167
883.817	-17.04147
884.213	1.00246
884.608	5.01183
885.003	-37.08559
885.398	-22.05318
885.793	6.01454
886.188	9.02163
886.582	-3.0073
886.977	-26.05865
887.371	2.00485
887.766	9.02165
888.16	8.01902
888.554	-17.03975
888.949	4.0095
889.343	12.02765
889.737	31.0806
890.131	3.00722
890.525	-37.09134
890.918	-21.05104
891.312	68.15295
891.706	33.08316
892.099	5.01207
892.492	-21.04248
892.886	33.0774
893.279	33.08035
893.672	13.03155
894.065	-6.01416
894.458	14.03379
894.851	-30.06905
895.244	-11.02709
895.637	33.07552
896.029	17.04001
896.422	-18.04185
896.814	53.12605
897.206	-10.02282
897.599	-6.01399
897.991	-18.04151
898.383	-36.08141
898.775	38.08112
899.167	38.08505
899.559	35.08433
899.951	-42.09463
900.342	24.05827
900.734	-27.06503
901.125	-51.12843
901.517	-2.00469
901.908	-9.02042
902.299	17.03987
902.69	5.01121
903.082	-5.01142
903.473	8.01844
903.863	18.04389
904.254	1.00221
904.645	-55.1297
905.036	5.01173
905.426	26.05555
905.817	-2.00467
906.207	43.0986
906.597	5.01115
906.987	13.0324
907.378	4.00964
907.768	-22.05609
908.158	-44.10265
908.547	-55.13592
908.937	-6.01479
909.327	-16.03671
909.717	-6.01428
910.106	-24.05434
910.495	-16.03816
910.885	-15.03641
911.274	10.02382
911.663	15.03628
912.052	-50.11665
912.441	-17.04146
912.83	63.13801
913.219	-3.0075
913.608	5.01157
913.997	-16.03888
914.385	9.02023
914.774	61.14117
915.162	-5.01141
915.55	-46.10457
915.939	9.02198
916.327	28.06684
916.715	52.129
917.103	-43.09963
917.491	11.02551
917.878	24.05606
918.266	-6.01487
918.654	14.0344
919.041	-18.04565
919.429	40.08938
919.816	21.05098
920.203	-22.05086
920.591	26.0624
920.978	19.04432
921.365	-16.04008
921.752	-54.12251
922.139	-20.0408
922.525	34.07867
922.912	43.09975
923.299	-4.00957
923.685	25.06264
924.072	-7.01505
924.458	-9.02135
924.844	-28.06663
925.231	-28.06249
925.617	-43.10716
926.003	-10.02445
926.389	2.00482
926.774	10.02418
927.16	23.05418
927.546	15.03726
927.931	-62.14737
928.317	16.03426
928.702	-30.06717
929.088	-51.11582
929.473	32.07805
929.858	8.01877
930.243	24.0548
930.628	-11.02567
931.013	58.13845
931.398	14.03007
931.783	-29.07361
932.167	-32.07413
932.552	-15.03609
932.937	-12.02806
933.321	-15.03614
933.705	8.01949
934.09	13.03099
934.474	1.00223
934.858	20.05021
935.242	15.03355
935.626	-24.05919
936.009	5.01295
936.393	5.0122
936.777	-14.0349
937.16	-6.01502
937.544	-7.01543
937.927	-23.05621
938.311	-16.03639
938.694	-9.02291
939.077	10.02278
939.46	11.02544
939.843	8.01539
940.226	0
940.609	-27.0586
940.991	45.10965
941.374	26.06099
941.757	-12.02797
942.139	19.04046
942.522	25.05546
942.904	45.1041
943.286	-35.08439
943.668	-10.025
944.05	9.02124
944.432	10.02356
944.814	60.14059
945.196	11.02607
945.578	-24.05504
945.959	18.04037
946.341	47.10695
946.722	-5.01108
947.104	13.02965
947.485	63.13853
947.866	-30.0726
948.247	4.00965
948.628	-9.02091
949.009	-16.03982
949.39	-14.03335
949.771	2.00433
950.152	23.05373
950.532	-8.01931
950.913	-8.01846
951.293	-39.10289
951.674	5.01142
952.054	-32.07706
952.434	11.02594
952.814	32.0718
953.194	-18.04478
953.574	-47.10937
953.954	24.05414
954.334	-61.14586
954.714	10.02337
955.093	23.05346
955.473	21.05025
955.853	2.00501
956.232	48.12692
956.611	-42.09617
956.99	24.05836
957.37	2.00492
957.749	-42.09505
958.128	31.07554
958.506	-18.04495
958.885	28.06827
959.264	-29.06873
959.643	-44.09327
960.021	12.0284
960.4	61.13137
960.778	-4.00928
961.156	-11.0265
961.535	52.11538
961.913	4.00884
962.291	-10.0249
962.669	4.00971
963.047	36.08781
963.424	-4.00981
963.802	-28.06627
964.18	9.02146
964.557	-30.06371
964.935	37.08211
965.312	-20.05038
965.69	13.03085
966.067	-20.04627
966.444	7.01644
966.821	26.06405
967.198	-7.01605
967.575	34.0787
967.952	27.05977
968.329	43.10006
968.705	57.11346
969.082	32.07941
969.458	-24.05584
969.835	4.00924
970.211	30.07478
970.587	-9.02156
970.963	-5.01236
971.339	-32.08106
971.715	-22.05246
972.091	49.11492
972.467	29.06839
972.843	-9.02156
973.219	-32.07156
973.594	-36.09129
973.97	3.00667
974.345	9.02056
974.721	-21.04765
975.096	29.06628
975.471	-8.01803
975.846	18.0411
976.221	9.02186
976.596	-19.04336
976.971	38.08865
977.346	28.06138
977.72	43.10521
978.095	-18.04511
978.469	18.04089
978.844	-50.11926
979.218	-16.03706
979.593	25.05666
979.967	34.07817
980.341	1.00219
980.715	-9.02158
981.089	10.02385
981.463	21.046
981.837	-5.01176
982.21	-28.06063
982.584	17.03925
982.957	3.00721
983.331	23.05083
983.704	5.01188
984.078	6.01425
984.451	-29.06836
984.824	-3.007
985.197	-16.03684
985.57	44.10531
985.943	54.12648
986.316	9.02084
986.688	28.06422
987.061	8.01768
987.434	-21.05306
987.806	-11.02528
988.179	5.01129
988.551	-2.00484
988.923	30.07106
989.295	42.09937
989.667	-20.04637
990.039	26.0618
990.411	-10.02202
990.783	24.0517
991.155	8.0186
991.527	-40.09218
991.898	-6.01435
992.27	17.04029
992.641	-9.02148
993.012	3.00665
993.384	-10.02274
993.755	-32.07872
994.126	32.07336
994.497	12.02822
994.868	23.04951
995.239	-23.05272
995.61	-33.07981
995.98	24.05628
996.351	34.08135
996.722	-20.04427
997.092	0
997.462	66.14967
997.833	-1.00224
998.203	7.01599
998.573	-3.00725
998.943	-12.0269
999.313	0
999.683	72.16533
1000.053	40.08642
1000.423	17.03954
1000.792	-5.0124
1001.162	32.07577
1001.531	-5.01166
1001.901	13.03098
1002.27	24.04992
1002.639	-11.02696
1003.009	18.04097
1003.378	-43.1063
1003.747	40.09045
1004.116	34.0772
1004.485	31.07071
1004.853	-36.08748
1005.222	2.0048
1005.591	-35.07855
1005.959	60.13108
1006.328	73.15722
1006.696	30.07024
1007.064	18.04308
1007.433	-6.01421
1007.801	23.05369
1008.169	39.09454
1008.537	-20.04127
1008.905	21.04688
1009.273	-58.13744
1009.64	4.0091
1010.008	43.09773
1010.375	-50.11173
1010.743	-2.00426
1011.11	15.03416
1011.478	10.02354
1011.845	-1.00223
1012.212	10.02131
1012.579	36.08382
1012.946	-51.11544
1013.313	0
1013.68	-51.10672
1014.047	-30.06883
1014.414	-10.02286
1014.78	-18.04297
1015.147	24.0548
1015.513	-9.02089
1015.88	0
1016.246	17.03984
1016.612	3.00645
1016.978	-5.01164
1017.344	-59.13968
1017.71	-57.1295
1018.076	11.02434
1018.442	26.06391
1018.808	67.16033
1019.174	35.08398
1019.539	52.11018
1019.905	47.10764
1020.27	22.05237
1020.636	-11.02476
1021.001	65.14809
1021.366	-50.11518
1021.731	-4.00982
1022.096	2.0049
1022.461	-6.01354
1022.826	12.02725
1023.191	-27.06846
1023.556	-6.01342
1023.92	-3.00701
1024.285	29.06754
1024.649	-37.08654
1025.014	-28.06609
1025.378	3.00725
1025.742	34.08107
1026.107	-24.05096
1026.471	-27.05902
1026.835	82.19634
1027.199	0
1027.562	-20.04486
1027.926	21.04842
1028.29	-39.09464
1028.654	-27.05885
1029.017	19.0442
1029.381	58.13297
1029.744	24.05869
1030.107	-16.03552
1030.471	19.04352
1030.834	23.04947
1031.197	-34.07663
1031.56	-19.04273
1031.923	5.01243
1032.286	-20.0439
1032.648	35.07916
1033.011	49.10734
1033.374	-19.04143
1033.736	11.02788
1034.099	-23.05352
1034.461	32.0784
1034.823	-26.06225
1035.185	-30.07287
1035.548	-6.01395
1035.91	-3.00681
1036.272	5.01072
1036.634	0
1036.995	-49.11006
1037.357	-39.09079
1037.719	-14.0325
1038.08	16.03563
1038.442	16.03668
1038.803	34.07732
1039.165	14.0338
1039.526	-24.05507
1039.887	49.11182
1040.248	-1.00238
1040.609	26.06087
1040.97	6.01417
1041.331	1.00243
1041.692	-1.00224
1042.053	5.01073
1042.413	27.0596
1042.774	1.0023
1043.134	-12.02683
1043.495	10.02384
1043.855	-57.13186
1044.215	35.08308
1044.576	-34.07876
1044.936	11.02358
1045.296	-18.0426
1045.656	-44.10257
1046.016	1.00228
1046.375	23.05321
1046.735	10.02188
1047.095	-20.04473
1047.454	3.00581
1047.814	49.11286
1048.173	-9.0201
1048.533	-13.02847
1048.892	25.05834
1049.251	23.05489
1049.61	-7.01635
1049.969	-4.00896
1050.328	-7.01419
1050.687	13.03018
1051.046	29.06743
1051.405	11.02596
1051.763	-17.03738
1052.122	-41.09916
1052.48	22.05185
1052.839	-20.04473
1053.197	-8.01789
1053.555	21.04441
1053.914	17.03933
1054.272	14.03224
1054.63	4.00941
1054.988	22.05013
1055.345	18.03627
1055.703	49.11137
1056.061	-15.03718
1056.419	17.04249
1056.776	1.00232
1057.134	-4.00883
1057.491	52.12403
1057.848	-32.07533
1058.206	-67.14875
1058.563	-2.00415
1058.92	53.1135
1059.277	14.0327
1059.634	25.05553
1059.991	-60.13368
1060.348	12.026
1060.704	15.03455
1061.061	11.02393
1061.418	44.10261
1061.774	-12.02837
1062.131	44.11288
1062.487	-1.00225
1062.843	81.19131
1063.199	-26.06178
1063.555	33.0726
1063.911	58.13956
1064.267	50.09519
1064.623	-12.02782
1064.979	-46.10117
1065.335	23.05075
1065.691	-26.05827
1066.046	-12.025
1066.402	56.12115
1066.757	7.01685
1067.112	6.01394
1067.468	-28.06404
1067.823	27.06186
1068.178	-13.02981
1068.533	21.04837
1068.888	12.02695
1069.243	-13.03055
1069.598	45.10364
1069.952	-33.07156
1070.307	22.05252
1070.662	-17.03829
1071.016	24.05152
1071.371	30.06398
1071.725	0
1072.079	61.14021
1072.434	-15.03485
1072.788	25.0562
1073.142	-25.0576
1073.496	-19.04282
1073.85	18.03924
1074.203	-24.05518
1074.557	-9.02309
1074.911	-20.04486
1075.265	47.10326
1075.618	-5.01163
1075.971	29.06612
1076.325	-9.02193
1076.678	17.03694
1077.031	31.06625
1077.385	2.00411
1077.738	63.13422
1078.091	-17.03724
1078.444	67.14547
1078.796	0
1079.149	36.08574
1079.502	21.04713
1079.855	-33.07342
1080.207	34.07892
1080.56	-41.1031
1080.912	3.00691
1081.264	14.03185
1081.617	0
1081.969	-1.00244
1082.321	10.02345
1082.673	-2.00433
1083.025	-40.08979
1083.377	10.01959
1083.728	16.03547
1084.08	-46.10997
1084.432	53.12124
1084.783	-62.1382
1085.135	26.06251
1085.486	13.02845
1085.838	2.00471
1086.189	20.04629
1086.54	-23.052
1086.891	-5.01214
1087.242	14.03219
1087.593	8.01818
1087.944	46.09858
1088.295	24.05096
1088.646	-14.03197
1088.996	11.02545
1089.347	-27.06318
1089.698	-21.04773
1090.048	39.09702
1090.398	0
1090.749	9.02055
1091.099	30.07344
1091.449	24.05731
1091.799	38.08991
1092.149	-9.02134
1092.499	40.09277
1092.849	-4.00979
1093.199	-4.0095
1093.548	18.0412
1093.898	44.10531
1094.248	25.06106
1094.597	3.00754
1094.947	26.06691
1095.296	34.08072
1095.645	-10.02478
1095.994	-48.10898
1096.343	-22.05219
1096.692	-19.04824
1097.041	36.09589
1097.39	31.07418
1097.739	1.00249
1098.088	-26.06642
1098.437	18.04616
1098.785	49.12832
1099.134	-17.04304
1099.482	-25.06616
1099.83	82.20669
1100.179	47.11857
1100.527	31.07991
1100.875	1.00257
1101.223	-9.0231
1101.571	11.02969
1101.919	2.00512
1102.267	26.07167
1102.615	7.02249
1102.962	-6.01925
1103.31	12.03849
1103.658	1.00321
