Data from N3 R8 sample 11_Subt2__5__13-41-03-162.txt Node

Date: Mon Sep 22 13:41:03 PDT 2025
User: uwsun
Spectrometer: HDX01956
Trigger mode: 0
Integration Time (sec): 5.000000E-1
Scans to average: 1
Nonlinearity correction enabled: true
Boxcar width: 0
Storing dark spectrum: false
XAxis mode: Wavelengths
Number of Pixels in Spectrum: 2068
>>>>>Begin Spectral Data<<<<<
194.03	57.16449
194.578	65.20975
195.127	64.20407
195.676	55.1756
196.225	85.22335
196.773	18.04965
197.321	138.37907
197.87	134.34016
198.418	167.4243
198.966	149.39044
199.513	144.36113
200.061	182.45856
200.609	140.36705
201.156	200.4334
201.704	193.48287
202.251	159.41933
202.798	184.47435
203.345	167.40601
203.892	117.29517
204.438	98.22917
204.985	166.39184
205.532	193.50349
206.078	143.34741
206.624	181.44383
207.17	204.46241
207.716	158.38492
208.262	209.40302
208.808	175.4342
209.354	156.38147
209.899	256.63688
210.445	185.46119
210.99	173.41776
211.535	148.34161
212.08	209.48384
212.625	146.36324
213.17	116.28829
213.715	151.33553
214.259	188.43168
214.804	189.45898
215.348	238.53706
215.892	142.33662
216.436	194.43707
216.98	236.50748
217.524	162.38136
218.068	84.20785
218.612	126.31132
219.155	193.4468
219.698	99.2321
220.242	167.40495
220.785	149.34713
221.328	183.44707
221.871	89.2193
222.414	131.31849
222.956	117.27837
223.499	221.48759
224.041	171.38785
224.583	167.34991
225.126	116.25127
225.668	125.29935
226.21	168.41524
226.751	141.30431
227.293	141.31526
227.835	135.3249
228.376	124.27902
228.918	201.4936
229.459	156.38346
230	157.36505
230.541	141.31877
231.082	113.26906
231.622	110.24833
232.163	148.35395
232.704	172.41652
233.244	125.30561
233.784	137.32808
234.324	107.23074
234.864	148.3262
235.404	201.46532
235.944	191.44638
236.484	105.25433
237.023	155.35898
237.563	157.35465
238.102	146.33525
238.641	122.30387
239.18	163.37705
239.719	80.19701
240.258	132.28898
240.797	156.36709
241.335	138.33117
241.874	123.23034
242.412	143.33578
242.95	152.36157
243.488	113.25245
244.026	187.42638
244.564	171.3429
245.102	152.33599
245.64	132.30965
246.177	169.37178
246.715	148.34514
247.252	159.3555
247.789	217.3831
248.326	185.4366
248.863	196.4173
249.4	162.35451
249.936	187.37308
250.473	146.33377
251.009	182.40684
251.546	183.39089
252.082	222.47368
252.618	204.44226
253.154	118.28027
253.69	156.34267
254.226	165.38577
254.761	197.42718
255.297	121.26014
255.832	221.51182
256.367	160.36901
256.903	124.26699
257.438	233.5349
257.972	163.35119
258.507	178.4061
259.042	240.50919
259.576	112.23856
260.111	160.35855
260.645	210.43465
261.179	164.37628
261.713	154.33956
262.247	190.43173
262.781	194.40045
263.315	196.47089
263.849	160.39038
264.382	164.36721
264.915	178.40807
265.449	153.37156
265.982	158.35188
266.515	216.50906
267.048	82.16972
267.58	205.42743
268.113	151.31624
268.646	206.49735
269.178	197.4401
269.71	152.32362
270.243	144.31751
270.775	173.42767
271.307	195.45376
271.838	204.46542
272.37	220.53115
272.902	158.35042
273.433	176.37455
273.965	162.38388
274.496	185.45095
275.027	241.58217
275.558	196.46193
276.089	179.44283
276.62	197.49306
277.15	181.4346
277.681	206.43057
278.211	177.42419
278.741	217.46713
279.272	202.45229
279.802	190.46719
280.332	212.48581
280.861	202.4707
281.391	152.3381
281.921	204.47629
282.45	214.52153
282.98	246.61978
283.509	205.45286
284.038	122.2716
284.567	176.3983
285.096	220.51788
285.625	171.3776
286.153	142.32933
286.682	232.51775
287.21	169.39729
287.739	196.44915
288.267	234.55233
288.795	193.49867
289.323	228.51513
289.851	177.40113
290.378	218.47785
290.906	232.55482
291.433	195.47284
291.961	213.46856
292.488	240.57855
293.015	161.36976
293.542	208.50975
294.069	257.61425
294.596	240.57351
295.122	180.41481
295.649	246.52078
296.175	229.53728
296.702	195.45304
297.228	247.58425
297.754	161.34673
298.28	241.53416
298.806	192.45039
299.332	284.61936
299.857	215.47832
300.383	185.45112
300.908	230.54563
301.433	253.59844
301.958	242.5423
302.483	245.59429
303.008	214.51647
303.533	219.55187
304.058	250.56137
304.582	215.49378
305.107	229.58098
305.631	195.42681
306.155	280.62976
306.679	280.64214
307.203	219.49147
307.727	231.52776
308.251	252.59689
308.775	258.5943
309.298	195.45501
309.822	272.66212
310.345	243.56366
310.868	315.72659
311.391	254.59767
311.914	289.70047
312.437	244.53371
312.96	277.62519
313.482	261.59773
314.005	277.6724
314.527	254.64816
315.049	245.59718
315.571	266.57469
316.093	256.60683
316.615	283.66162
317.137	312.65269
317.659	281.65797
318.18	263.61149
318.702	305.67628
319.223	265.52329
319.744	323.6929
320.265	308.72415
320.786	303.72279
321.307	258.61911
321.828	376.7991
322.348	296.66247
322.869	337.75841
323.389	621.02631
323.909	264.57989
324.43	281.64172
324.95	377.8272
325.47	384.89856
325.989	392.87258
326.509	361.7587
327.029	361.77207
327.548	390.84256
328.067	327.75426
328.587	360.84736
329.106	353.75888
329.625	412.99679
330.144	359.7824
330.662	456.00166
331.181	411.88849
331.7	372.81571
332.218	410.8292
332.736	399.87398
333.255	387.84592
333.773	424.94731
334.291	420.98123
334.808	425.88926
335.326	441.92763
335.844	439.96523
336.361	429.02651
336.879	431.92973
337.396	489.09969
337.913	501.07553
338.43	427.89107
338.947	411.90861
339.464	503.00363
339.981	473.04452
340.497	484.11085
341.014	470.06617
341.53	459.95571
342.046	512.16208
342.562	501.14282
343.078	511.09986
343.594	538.17221
344.11	566.23174
344.626	531.21914
345.141	507.05661
345.657	565.15212
346.172	549.20607
346.687	608.25821
347.202	500.01542
347.717	613.3367
348.232	526.19342
348.747	589.22345
349.261	561.10921
349.776	564.20346
350.29	596.3519
350.805	604.34067
351.319	644.34114
351.833	588.19231
352.347	593.26954
352.861	583.21797
353.374	655.31599
353.888	622.35148
354.401	614.261
354.915	610.21783
355.428	727.59424
355.941	661.36713
356.454	652.28857
356.967	663.37678
357.48	664.362
357.993	625.36232
358.505	731.58486
359.018	725.53444
359.53	738.57592
360.042	687.34802
360.554	724.51997
361.066	728.56125
361.578	759.4363
362.09	670.40339
362.602	759.4482
363.113	777.55788
363.625	755.45797
364.136	704.33821
364.647	765.57685
365.158	827.66359
365.669	771.58994
366.18	855.72786
366.691	863.61677
367.201	772.57954
367.712	821.59774
368.222	817.57713
368.733	815.51393
369.243	911.69177
369.753	891.73088
370.263	882.76988
370.773	848.77038
371.282	850.69149
371.792	928.78363
372.301	929.88869
372.811	993.17142
373.32	974.71378
373.829	1005.94342
374.338	1104.95938
374.847	1093.02613
375.356	1138.17086
375.865	1198.00106
376.373	1234.1964
376.882	1221.39732
377.39	1223.30261
377.898	1272.43996
378.407	1341.23829
378.915	1430.25163
379.423	1475.55166
379.93	1517.44784
380.438	1506.64592
380.946	1681.69382
381.453	1700.80474
381.96	1854.92037
382.468	1891.84246
382.975	2056.07335
383.482	2001.70007
383.989	2075.36042
384.495	2200.88025
385.002	2330.55286
385.509	2493.12869
386.015	2644.31572
386.521	2706.8465
387.028	2814.95355
387.534	2914.67159
388.04	2963.08731
388.546	3148.84089
389.051	3295.63701
389.557	3656.92522
390.063	3751.57568
390.568	3903.85414
391.073	4031.36202
391.578	4223.89462
392.084	4318.36534
392.589	4444.87789
393.093	4880.2146
393.598	5285.72018
394.103	5802.8219
394.607	6255.5674
395.112	6790.64777
395.616	7242.57378
396.12	7817.67749
396.624	8541.58067
397.128	9149.69152
397.632	10390.24812
398.136	11058.24212
398.639	11817.90311
399.143	13386.6821
399.646	14895.07002
400.15	16309.63437
400.653	18227.18741
401.156	20708.66744
401.659	24210.49831
402.162	29588.85261
402.664	39670.97356
403.167	58550.75251
403.67	59475.65711
404.172	52566.9044
404.674	31176.06428
405.176	3757.7064
405.678	27.69154
406.18	0
406.682	0
407.184	45159.96023
407.686	58897.86778
408.187	61455.21265
408.688	62150.63916
409.19	62552.06205
409.691	51942.5562
410.192	43971.72794
410.693	38195.99548
411.194	35355.20454
411.694	33336.87036
412.195	30405.99296
412.696	27618.6115
413.196	25842.74899
413.696	25736.03352
414.196	26275.83231
414.696	25678.7027
415.196	24523.09321
415.696	21840.97791
416.196	16988.98526
416.695	13146.7269
417.195	11585.53057
417.694	11211.76133
418.194	10364.66542
418.693	9888.6814
419.192	9641.89542
419.691	9338.11699
420.19	9251.91293
420.688	9021.45123
421.187	8597.56368
421.685	8052.93951
422.184	7062.35837
422.682	5977.06855
423.18	5114.88842
423.678	4626.17182
424.176	4219.29984
424.674	4061.22616
425.172	3884.7331
425.669	3713.2333
426.167	3396.7983
426.664	3089.84158
427.161	2840.93047
427.659	2611.14787
428.156	2544.49679
428.652	2368.35659
429.149	2229.11068
429.646	2093.59673
430.143	2024.94682
430.639	1935.80888
431.135	1828.96389
431.632	1653.49181
432.128	1640.63117
432.624	1539.807
433.12	1555.38965
433.616	1433.11583
434.111	1407.37082
434.607	1385.39389
435.103	1250.87946
435.598	1236.75881
436.093	1182.06247
436.588	1180.93873
437.083	1036.76067
437.578	1004.79892
438.073	992.98171
438.568	966.86033
439.062	950.57417
439.557	918.72549
440.051	851.56605
440.546	894.67948
441.04	859.68843
441.534	810.70591
442.028	734.4414
442.522	777.5378
443.015	717.29788
443.509	742.51124
444.002	737.50071
444.496	750.36637
444.989	685.41493
445.482	726.53287
445.975	677.30711
446.468	639.16111
446.961	643.15182
447.454	659.2656
447.947	552.12174
448.439	663.36086
448.931	567.097
449.424	555.19933
449.916	545.12588
450.408	536.03369
450.9	584.22896
451.392	483.06486
451.884	487.95311
452.375	491.06082
452.867	489.94661
453.358	499.98769
453.849	492.90212
454.341	517.00629
454.832	412.77293
455.323	478.02364
455.814	467.94036
456.304	466.93252
456.795	437.87428
457.285	493.93884
457.776	476.92563
458.266	400.84084
458.756	528.1085
459.247	404.85224
459.737	382.80902
460.226	486.96263
460.716	383.80564
461.206	370.7908
461.695	376.83697
462.185	371.78075
462.674	365.74648
463.163	386.76527
463.653	386.70986
464.142	317.68472
464.63	321.70167
465.119	376.78935
465.608	361.74231
466.096	314.62165
466.585	295.60496
467.073	310.66946
467.561	334.72561
468.05	361.76138
468.538	303.66709
469.026	305.66585
469.513	349.67752
470.001	337.70202
470.489	301.64822
470.976	277.58217
471.463	223.50476
471.951	257.5855
472.438	264.5694
472.925	257.55846
473.412	280.62976
473.899	231.48421
474.385	223.50085
474.872	269.58553
475.359	215.48606
475.845	228.43321
476.331	262.52308
476.817	227.5113
477.303	246.53444
477.789	290.64102
478.275	185.43253
478.761	266.58576
479.247	213.43779
479.732	188.4398
480.218	187.45752
480.703	207.48301
481.188	135.27146
481.673	150.32186
482.158	195.39338
482.643	182.43093
483.128	146.31179
483.612	202.44185
484.097	160.36474
484.581	133.28779
485.066	131.29628
485.55	143.2918
486.034	137.2793
486.518	147.3265
487.002	177.41301
487.486	129.29865
487.969	126.29453
488.453	176.41995
488.936	190.40452
489.42	103.2139
489.903	123.29568
490.386	143.30783
490.869	158.32219
491.352	174.40226
491.835	90.17567
492.318	183.38869
492.8	98.19147
493.283	112.27072
493.765	114.26816
494.247	56.12374
494.73	76.16005
495.212	61.13881
495.694	91.20389
496.175	76.17494
496.657	80.17898
497.139	54.088
497.62	86.19574
498.102	78.18598
498.583	55.13207
499.064	70.1502
499.545	110.2399
500.026	81.17399
500.507	21.04686
500.988	68.15995
501.469	57.13879
501.949	66.15622
502.43	71.16392
502.91	107.20911
503.39	20.04796
503.87	71.1615
504.35	-4.00892
504.83	68.1439
505.31	42.09764
505.79	57.13112
506.269	53.11767
506.749	35.07806
507.228	5.01136
507.707	47.10013
508.187	19.04317
508.666	-2.00479
509.145	14.03126
509.623	38.08537
510.102	5.01153
510.581	32.07333
511.059	-35.08522
511.538	-33.08164
512.016	-21.04784
512.494	35.08164
512.972	-9.02058
513.45	22.05003
513.928	4.00934
514.406	-23.05411
514.884	25.06151
515.361	-46.10609
515.839	62.13636
516.316	-12.02795
516.793	-2.00489
517.27	-10.02327
517.747	38.09437
518.224	1.00221
518.701	-20.0429
519.178	-11.02634
519.654	-34.07738
520.131	-27.06461
520.607	3.00713
521.083	-30.06626
521.56	-36.08286
522.036	2.00421
522.512	15.03526
522.987	12.02765
523.463	2.00456
523.939	2.00469
524.414	-65.14407
524.89	12.02757
525.365	-53.11547
525.84	-54.12598
526.315	-7.01623
526.79	5.0107
527.265	-22.0481
527.74	-23.05456
528.215	-12.0271
528.689	-90.1922
529.164	-62.12907
529.638	-17.04227
530.112	9.02048
530.587	-11.02269
531.061	-37.08559
531.534	-31.07202
532.008	18.04142
532.482	-50.11034
532.956	-54.13347
533.429	-24.05577
533.903	-57.12086
534.376	-57.12101
534.849	-49.10884
535.322	-79.17933
535.795	-75.1748
536.268	-14.0325
536.741	-37.08515
537.213	-34.07465
537.686	-40.09383
538.158	-37.08081
538.631	-46.10694
539.103	-69.15064
539.575	-86.1705
540.047	-57.11885
540.519	-82.18648
540.991	-62.14584
541.463	-30.07051
541.934	-62.13619
542.406	-57.13023
542.877	43.09416
543.348	-72.16639
543.82	-18.04226
544.291	-35.07884
544.762	-39.08824
545.233	-69.16751
545.703	-37.07862
546.174	-31.06957
546.645	-33.07734
547.115	-6.01399
547.585	-34.07557
548.056	-57.13452
548.526	-17.03879
548.996	-28.0645
549.466	-20.04728
549.935	-49.11362
550.405	-50.10655
550.875	-35.07987
551.344	-11.02538
551.814	-12.02639
552.283	2.00416
552.752	19.0425
553.221	12.02546
553.69	56.11949
554.159	45.1062
554.628	24.05161
555.096	18.04394
555.565	9.019
556.033	-18.04057
556.502	-37.086
556.97	-38.08055
557.438	-43.09749
557.906	-72.16228
558.374	0
558.842	-37.08494
559.31	-11.02318
559.777	7.01647
560.245	-33.07318
560.712	-32.071
561.18	-20.04216
561.647	13.02805
562.114	-50.11122
562.581	-36.08557
563.048	-54.11862
563.514	-31.07288
563.981	-16.03484
564.448	52.11312
564.914	-36.08011
565.381	-18.03902
565.847	-24.0535
566.313	-32.07091
566.779	-2.0043
567.245	12.02685
567.711	23.05318
568.176	-42.08997
568.642	-48.11655
569.108	-10.02357
569.573	-49.10951
570.038	-15.02981
570.504	-20.0431
570.969	27.06459
571.434	7.01467
571.899	-15.0338
572.363	12.02623
572.828	4.00861
573.293	27.0586
573.757	7.01516
574.222	19.04016
574.686	29.06259
575.15	43.09662
575.614	30.06501
576.078	60.13402
576.542	4.00861
577.006	44.09425
577.469	23.05325
577.933	38.07953
578.396	28.06306
578.86	19.0418
579.323	41.09258
579.786	35.07093
580.249	-20.04325
580.712	50.11619
581.175	8.01867
581.637	-6.01287
582.1	21.04262
582.563	1.00198
583.025	10.02305
583.487	-26.0501
583.95	57.11573
584.412	33.0655
584.874	-44.10006
585.336	62.13866
585.797	35.07116
586.259	-31.06843
586.721	-10.02221
587.182	-16.0343
587.643	-50.10678
588.105	-33.0743
588.566	-38.07505
589.027	25.05705
589.488	0
589.949	10.02277
590.41	43.07909
590.87	-4.00857
591.331	13.02598
591.791	1.00217
592.252	-13.02811
592.712	38.08558
593.172	19.03962
593.632	39.07868
594.092	81.16746
594.552	37.07323
595.011	-37.07972
595.471	28.0571
595.931	48.09957
596.39	48.10686
596.849	98.20829
597.308	52.10386
597.768	97.22848
598.227	139.30835
598.685	168.34865
599.144	197.42079
599.603	98.20865
600.062	222.41893
600.52	181.36564
600.978	179.38119
601.437	224.44679
601.895	252.47391
602.353	213.4127
602.811	210.40777
603.269	298.62009
603.727	380.78719
604.184	371.73089
604.642	342.71766
605.099	445.87091
605.557	383.7989
606.014	484.86689
606.471	460.98227
606.928	534.95796
607.385	566.18162
607.842	578.07216
608.299	613.14599
608.755	626.23884
609.212	709.24881
609.668	749.29812
610.125	820.54249
610.581	754.39381
611.037	745.30758
611.493	787.44442
611.949	803.53451
612.405	886.30166
612.861	840.50212
613.316	898.62258
613.772	866.51137
614.227	896.61567
614.683	976.50667
615.138	904.61518
615.593	978.73697
616.048	935.59661
616.503	911.72364
616.958	958.86255
617.412	891.64718
617.867	900.49433
618.321	922.37139
618.776	888.45977
619.23	903.62127
619.684	848.42089
620.138	881.51623
620.592	873.63634
621.046	897.59483
621.5	873.65805
621.954	797.34795
622.407	780.32733
622.861	786.53424
623.314	720.24675
623.768	740.36106
624.221	811.23157
624.674	613.13807
625.127	688.28616
625.58	632.13935
626.033	655.13364
626.485	659.29481
626.938	643.25442
627.39	580.10157
627.843	587.10053
628.295	562.07614
628.747	576.1195
629.199	507.95987
629.651	560.06558
630.103	564.07581
630.555	538.93342
631.006	505.9991
631.458	522.04571
631.909	465.87131
632.361	487.95401
632.812	495.97794
633.263	445.80462
633.714	493.87461
634.165	475.97495
634.616	481.97657
635.067	448.84131
635.518	448.90397
635.968	528.85891
636.419	483.87023
636.869	454.92197
637.319	446.88175
637.769	547.02034
638.219	431.87346
638.669	492.00961
639.119	535.10617
639.569	581.19178
640.019	519.99845
640.468	587.09295
640.918	615.2338
641.367	579.05774
641.816	541.00264
642.265	648.23337
642.714	588.11951
643.163	657.23811
643.612	678.38011
644.061	723.24964
644.51	709.32844
644.958	668.19271
645.406	681.33434
645.855	743.4663
646.303	788.45025
646.751	768.38651
647.199	825.47486
647.647	835.52732
648.095	779.43832
648.543	835.28174
648.99	892.68968
649.438	830.5216
649.885	842.67866
650.333	880.24864
650.78	896.71213
651.227	811.57451
651.674	894.58415
652.121	849.65074
652.568	828.61558
653.015	809.62585
653.461	904.71245
653.908	916.64088
654.354	828.54536
654.801	836.59113
655.247	859.4594
655.693	832.78905
656.139	837.63201
656.585	728.40944
657.031	809.52139
657.477	786.35268
657.922	776.44385
658.368	732.47058
658.813	745.40014
659.259	735.44778
659.704	767.46561
660.149	717.37256
660.594	719.389
661.039	687.29538
661.484	650.272
661.929	691.34694
662.373	646.39595
662.818	608.26214
663.262	617.27429
663.707	667.44721
664.151	643.30966
664.595	598.24135
665.039	542.14645
665.483	574.26291
665.927	613.22185
666.371	551.11843
666.814	547.11232
667.258	574.17714
667.701	577.02538
668.145	589.24575
668.588	532.13557
669.031	577.17983
669.474	519.08598
669.917	590.0961
670.36	563.20937
670.803	542.11541
671.245	504.88275
671.688	555.17629
672.13	536.03914
672.573	506.11775
673.015	595.2167
673.457	580.07748
673.899	554.14424
674.341	495.04984
674.783	578.20511
675.225	522.11419
675.666	554.15448
676.108	627.15775
676.549	577.17983
676.991	533.0114
677.432	523.89897
677.873	538.07435
678.314	551.14135
678.755	543.14681
679.196	528.05678
679.637	538.14095
680.078	516.02366
680.518	532.06333
680.959	524.08847
681.399	504.10869
681.839	501.06952
682.28	530.16061
682.72	463.93359
683.16	541.18398
683.6	556.08004
684.039	478.84865
684.479	496.07461
684.919	531.08366
685.358	464.02653
685.798	572.33301
686.237	502.05011
686.676	511.99157
687.115	606.22439
687.554	572.17356
687.993	563.05753
688.432	555.08092
688.871	546.06916
689.309	588.21404
689.748	532.92154
690.186	562.14989
690.625	574.16812
691.063	596.21021
691.501	559.18272
691.939	608.30926
692.377	651.35904
692.815	608.26382
693.253	580.18142
693.69	617.12674
694.128	622.28033
694.565	689.39649
695.003	667.4509
695.44	679.34985
695.877	662.30469
696.314	670.16796
696.751	700.33318
697.188	700.34804
697.625	689.28073
698.061	739.485
698.498	796.5817
698.934	718.43513
699.371	752.46361
699.807	734.42311
700.243	748.49862
700.679	805.45531
701.115	774.45938
701.551	858.61489
701.987	842.4717
702.422	876.69807
702.858	861.64395
703.294	954.6785
703.729	907.77789
704.164	915.7624
704.599	906.56643
705.035	898.5962
705.47	919.79636
705.904	953.74452
706.339	995.76314
706.774	1044.87078
707.209	1055.86203
707.643	1059.97596
708.078	1130.13689
708.512	1119.20489
708.946	1128.04418
709.38	1104.97151
709.814	1080.81995
710.248	1193.1957
710.682	1188.09033
711.116	1329.36318
711.549	1208.36011
711.983	1229.05702
712.416	1264.14637
712.85	1363.40652
713.283	1340.24694
713.716	1353.42948
714.149	1371.26632
714.582	1407.10973
715.015	1486.6214
715.448	1425.51651
715.881	1431.04283
716.313	1528.37717
716.746	1567.46022
717.178	1581.53778
717.61	1616.76274
718.043	1657.74438
718.475	1683.69706
718.907	1728.84514
719.339	1791.52849
719.77	1829.69441
720.202	1884.05659
720.634	1868.86787
721.065	1899.70721
721.497	1881.81387
721.928	1978.98677
722.359	2009.92191
722.79	2048.92318
723.221	2088.16259
723.652	2126.23623
724.083	2109.65694
724.514	2153.7659
724.945	2249.92815
725.375	2348.95043
725.806	2259.13804
726.236	2346.39791
726.666	2323.93063
727.096	2393.10991
727.526	2413.36697
727.956	2446.70349
728.386	2546.17787
728.816	2560.46382
729.246	2583.13829
729.675	2594.24072
730.105	2582.16629
730.534	2616.83888
730.964	2634.34874
731.393	2718.27638
731.822	2761.40854
732.251	2773.46135
732.68	2814.93535
733.109	2817.25961
733.537	2846.17751
733.966	2828.29072
734.395	2972.78005
734.823	2912.624
735.251	2908.14332
735.68	2931.25249
736.108	2921.47296
736.536	2947.88776
736.964	2880.89694
737.392	3020.38301
737.82	3048.09823
738.247	2938.96575
738.675	2931.90539
739.102	2939.32204
739.53	2937.48847
739.957	2843.47078
740.384	2938.15952
740.811	2918.35263
741.238	2935.1477
741.665	2891.93106
742.092	2838.90766
742.519	2813.30346
742.945	2770.09551
743.372	2779.24021
743.798	2802.52425
744.225	2774.1003
744.651	2692.26795
745.077	2742.33905
745.503	2676.09371
745.929	2739.04153
746.355	2596.11903
746.781	2662.24064
747.207	2575.97549
747.632	2479.14184
748.058	2538.17169
748.483	2526.73275
748.908	2530.30501
749.334	2490.13846
749.759	2354.85051
750.184	2421.00773
750.609	2359.11052
751.033	2365.83349
751.458	2349.57968
751.883	2264.16777
752.307	2202.84132
752.732	2189.2407
753.156	2180.10028
753.58	2113.74563
754.005	2033.0751
754.429	2033.72315
754.853	2077.01315
755.277	2044.77998
755.7	1914.89369
756.124	1979.02004
756.548	1897.72934
756.971	1910.79972
757.394	1964.21253
757.818	1904.2002
758.241	1737.88117
758.664	1803.98357
759.087	1777.43972
759.51	1732.74614
759.933	1773.72721
760.356	1709.9576
760.778	1645.68584
761.201	1660.64122
761.623	1641.64237
762.046	1544.39677
762.468	1545.40457
762.89	1508.57012
763.312	1468.4112
763.734	1428.4006
764.156	1462.53236
764.578	1494.30235
765	1346.31084
765.421	1364.54954
765.843	1288.50729
766.264	1363.28883
766.686	1290.38132
767.107	1248.18498
767.528	1229.33308
767.949	1251.37609
768.37	1203.19655
768.791	1220.16581
769.212	1165.22944
769.632	1122.95448
770.053	1138.32754
770.473	1094.00141
770.894	1119.14736
771.314	968.7316
771.734	977.7437
772.154	982.99698
772.575	969.71162
772.994	961.70274
773.414	986.8336
773.834	920.82248
774.254	844.63673
774.673	904.75326
775.093	889.8032
775.512	827.63384
775.931	810.66634
776.351	801.62527
776.77	806.63654
777.189	832.59961
777.607	815.70631
778.026	741.54305
778.445	723.5262
778.864	759.61136
779.282	766.51494
779.701	663.41592
780.119	688.4532
780.537	636.36552
780.955	702.49251
781.373	654.35535
781.791	613.14768
782.209	583.10432
782.627	583.33761
783.045	579.13042
783.462	577.26766
783.88	576.2975
784.297	570.24203
784.715	556.25494
785.132	548.1455
785.549	478.05712
785.966	546.18866
786.383	504.08733
786.8	494.98031
787.217	493.00642
787.633	507.11973
788.05	483.95289
788.466	453.9235
788.883	471.07946
789.299	429.91867
789.715	448.95831
790.131	429.93968
790.547	390.86705
790.963	417.92918
791.379	402.92112
791.795	385.7624
792.21	375.77527
792.626	375.78916
793.041	384.85655
793.457	340.75623
793.872	329.70242
794.287	365.79413
794.702	303.6752
795.117	364.82201
795.532	327.74945
795.947	266.56435
796.362	275.58765
796.776	278.57435
797.191	297.65909
797.605	312.66974
798.02	246.54763
798.434	266.52119
798.848	277.62952
799.262	252.58187
799.676	240.52274
800.09	218.49274
800.504	182.40751
800.918	239.50386
801.331	209.50697
801.745	206.43095
802.158	198.45901
802.572	143.32105
802.985	203.4445
803.398	227.496
803.811	236.5577
804.224	139.32013
804.637	214.47541
805.05	140.2982
805.462	219.49631
805.875	180.44163
806.288	155.34899
806.7	162.37972
807.112	116.25138
807.525	130.29552
807.937	169.39838
808.349	133.3123
808.761	168.38715
809.173	129.29224
809.584	161.3671
809.996	103.24167
810.408	131.32254
810.819	140.30805
811.231	129.32427
811.642	148.34501
812.053	167.38062
812.464	212.47801
812.875	103.24713
813.286	105.25738
813.697	115.24405
814.108	117.26861
814.519	72.14876
814.929	158.38061
815.34	96.21929
815.75	130.31387
816.16	56.13188
816.571	94.23217
816.981	91.20153
817.391	112.25584
817.801	57.13588
818.211	57.1275
818.62	70.1581
819.03	78.18112
819.44	71.17546
819.849	104.24987
820.259	72.17436
820.668	14.03268
821.077	88.20813
821.486	86.19391
821.895	99.23056
822.304	44.1117
822.713	45.10082
823.122	87.2058
823.531	42.09373
823.939	26.06018
824.348	126.28991
824.756	61.14441
825.164	64.15242
825.573	75.17927
825.981	96.22617
826.389	36.08518
826.797	12.02878
827.205	91.19792
827.612	41.09616
828.02	32.07236
828.428	91.21992
828.835	20.05075
829.243	87.19356
829.65	57.13588
830.057	31.072
830.464	69.16152
830.871	35.07813
831.278	23.05295
831.685	49.10244
832.092	104.2411
832.499	35.07126
832.905	18.04316
833.312	65.13704
833.718	87.20612
834.124	76.16441
834.531	29.06961
834.937	41.09957
835.343	-14.03192
835.749	1.00219
836.155	1.00252
836.561	54.12732
836.966	34.07798
837.372	16.03902
837.777	27.06503
838.183	2.00417
838.588	86.20521
838.993	36.08329
839.399	41.09541
839.804	12.0283
840.209	1.00243
840.613	11.02292
841.018	-17.04124
841.423	7.01711
841.828	46.11203
842.232	56.13132
842.637	35.07881
843.041	29.07161
843.445	50.12131
843.849	3.00718
844.253	72.16142
844.657	13.03177
845.061	-12.02577
845.465	-7.01612
845.869	40.08801
846.272	1.00236
846.676	-15.03481
847.079	26.06363
847.483	-23.05432
847.886	18.04085
848.289	25.06453
848.692	20.04882
849.095	52.11907
849.498	16.03799
849.901	45.09775
850.304	41.0922
850.707	21.05102
851.109	30.07191
851.512	-10.02349
851.914	67.16375
852.316	12.029
852.718	9.02264
853.121	0
853.523	8.01767
853.925	33.08432
854.326	13.03129
854.728	34.0845
855.13	21.05285
855.531	30.06894
855.933	26.05949
856.334	-28.06727
856.736	15.03221
857.137	37.08222
857.538	19.04635
857.939	21.04972
858.34	14.0325
858.741	0
859.142	34.07751
859.542	27.06892
859.943	23.05489
860.343	7.01663
860.744	49.11416
861.144	50.11711
861.544	40.09354
861.945	11.02707
862.345	26.06054
862.745	14.0335
863.145	57.12513
863.544	12.02904
863.944	34.07591
864.344	35.08318
864.743	23.05403
865.143	9.02215
865.542	27.05932
865.941	27.06338
866.34	2.00453
866.74	-36.09323
867.139	43.09979
867.537	41.09916
867.936	39.08842
868.335	44.1072
868.734	28.06883
869.132	-9.01968
869.531	2.00462
869.929	4.00875
870.327	17.03917
870.726	-22.05191
871.124	9.01962
871.522	20.04913
871.92	-27.06293
872.318	6.01396
872.715	11.02588
873.113	19.04409
873.511	27.06464
873.908	20.04913
874.306	-3.00719
874.703	8.01902
875.1	-4.00977
875.497	44.09978
875.894	13.0306
876.291	0
876.688	34.08499
877.085	-24.05449
877.482	14.03335
877.878	10.02315
878.275	-6.01465
878.671	60.12335
879.068	13.02987
879.464	-12.02762
879.86	29.06647
880.256	-23.0538
880.652	36.08807
881.048	25.05889
881.444	7.01573
881.84	15.0367
882.236	28.06714
882.631	-41.09597
883.027	0
883.422	21.05197
883.817	18.04362
884.213	-19.04695
884.608	35.08235
885.003	0
885.398	8.01923
885.793	36.08676
886.188	22.05274
886.582	10.02428
886.977	17.03801
887.371	16.03873
887.766	59.14059
888.16	22.05217
888.554	-7.01633
888.949	-8.01905
889.343	39.08939
889.737	17.04431
890.131	-20.04833
890.525	-10.02456
890.918	-1.00242
891.312	4.00912
891.706	30.07564
892.099	17.04096
892.492	20.04008
892.886	19.04468
893.279	9.02201
893.672	18.04364
894.065	-24.05683
894.458	30.07219
894.851	-12.02752
895.244	-22.0543
895.637	0
896.029	28.06576
896.422	-14.03252
896.814	52.1237
897.206	-27.06181
897.599	-2.00466
897.991	-36.08333
898.383	-26.05867
898.775	13.0279
899.167	30.06726
899.559	25.06035
899.951	62.13671
900.342	23.05586
900.734	-10.02401
901.125	-26.06518
901.517	20.0467
901.908	17.03837
902.299	38.08876
902.69	-58.13174
903.082	-8.01828
903.473	13.02994
903.863	-20.04911
904.254	29.06364
904.645	-35.08222
905.036	32.07469
905.426	16.03426
905.817	-12.02805
906.207	32.07354
906.597	-17.03809
906.987	71.17507
907.378	-14.03387
907.768	-32.08172
908.158	-41.0956
908.547	-51.12594
908.937	-30.07426
909.327	-39.0899
909.717	-40.09585
910.106	-21.04752
910.495	17.04029
910.885	11.02657
911.274	-39.09375
911.663	39.0939
912.052	-8.01851
912.441	3.00729
912.83	51.11201
913.219	-14.03507
913.608	-12.02785
913.997	-5.01212
914.385	-7.01579
914.774	16.03736
915.162	-43.09892
915.55	-35.07939
915.939	38.0923
916.327	43.10235
916.715	82.20231
917.103	5.01147
917.491	-25.05838
917.878	-33.07794
918.266	22.05426
918.654	72.17502
919.041	0
919.429	42.09381
919.816	23.05582
920.203	2.0046
920.591	63.15013
920.978	15.03502
921.365	-46.11586
921.752	-39.08821
922.139	-1.00203
922.525	25.05795
922.912	24.05588
923.299	1.00239
923.685	-36.0912
924.072	1.00215
924.458	-8.01897
924.844	44.10326
925.231	0
925.617	0
926.003	15.03651
926.389	-11.02659
926.774	6.01452
927.16	17.04009
927.546	33.0817
927.931	-44.10423
928.317	-25.054
928.702	13.02885
929.088	-13.02929
929.473	38.09258
929.858	27.06313
930.243	-29.06693
930.628	-37.08678
931.013	22.05288
931.398	-3.00647
931.783	4.01009
932.167	-29.06714
932.552	-18.04333
932.937	-8.01869
933.321	-32.07735
933.705	29.07038
934.09	-10.02394
934.474	-5.01118
934.858	16.0402
935.242	38.0846
935.626	-29.07159
936.009	19.04909
936.393	26.06318
936.777	19.04708
937.16	26.06471
937.544	-15.03311
937.927	-12.02927
938.311	-22.05009
938.694	6.01523
939.077	-48.11062
939.46	25.05765
939.843	38.07255
940.226	42.10267
940.609	-40.08705
940.991	-23.05676
941.374	18.04229
941.757	-8.01863
942.139	21.0447
942.522	50.11034
942.904	59.1361
943.286	-31.07469
943.668	16.03981
944.05	8.01888
944.432	-12.02839
944.814	33.07773
945.196	26.06145
945.578	-28.06427
945.959	22.0493
946.341	-8.01841
946.722	-22.04894
947.104	-2.00458
947.485	16.03553
947.866	-25.06044
948.247	-32.07773
948.628	-4.00928
949.009	45.11076
949.39	52.12232
949.771	-27.05882
950.152	-18.04239
950.532	38.09092
950.913	21.04817
951.293	-1.00262
951.674	13.02964
952.054	36.08557
952.434	-29.06892
952.814	-17.03853
953.194	-10.02484
953.574	-28.06491
953.954	31.06983
954.334	-16.03793
954.714	-7.01641
955.093	-9.02105
955.473	6.0144
955.853	62.15375
956.232	36.09538
956.611	25.05647
956.99	49.1186
957.37	46.11224
957.749	-26.05865
958.128	39.09489
958.506	-23.05749
958.885	45.10937
959.264	15.03525
959.643	-51.10828
960.021	16.03784
960.4	20.04345
960.778	-7.01626
961.156	-10.02409
961.535	32.0713
961.913	18.03967
962.291	-3.00746
962.669	14.03393
963.047	34.08296
963.424	-17.0418
963.802	15.03521
964.18	-1.00239
964.557	-63.13475
964.935	-39.08792
965.312	24.05997
965.69	0
966.067	6.01381
966.444	-27.06382
966.821	-28.06967
967.198	-19.04367
967.575	17.03948
967.952	18.03992
968.329	25.05838
968.705	-3.00605
969.082	39.09666
969.458	-7.01623
969.835	-38.08855
970.211	29.0723
970.587	6.01433
970.963	65.15857
971.339	-8.02018
971.715	-23.05485
972.091	27.0636
972.467	19.04489
972.843	-11.02636
973.219	-30.06706
973.594	-37.09385
973.97	-36.08071
974.345	1.00229
974.721	-45.10261
975.096	-17.03922
975.471	6.01348
975.846	-39.09007
976.221	-13.0317
976.596	16.03625
976.971	1.00235
977.346	43.09396
977.72	44.10764
978.095	-10.02503
978.469	27.06122
978.844	4.00944
979.218	-33.0767
979.593	34.07691
979.967	-10.02319
980.341	15.03279
980.715	5.01196
981.089	-2.00478
981.463	-3.00661
981.837	-22.05193
982.21	-18.03889
982.584	18.04155
982.957	-34.08225
983.331	-3.00667
983.704	60.14108
984.078	-12.0286
984.451	7.01639
984.824	0
985.197	-19.04378
985.57	30.072
985.943	29.06826
986.316	3.00695
986.688	33.07561
987.061	51.11172
987.434	15.03765
987.806	-35.08084
988.179	2.00452
988.551	25.06021
988.923	30.07106
989.295	30.07115
989.667	-8.0185
990.039	50.1183
990.411	-5.011
990.783	-22.04786
991.155	9.02092
991.527	-49.11313
991.898	6.01432
992.27	24.05681
992.641	-22.05264
993.012	10.02213
993.384	2.00454
993.755	-26.06389
994.126	32.07336
994.497	-17.0402
994.868	-29.06313
995.239	-36.08273
995.61	-17.04099
995.98	29.06794
996.351	-1.00241
996.722	-17.0376
997.092	-9.02057
997.462	33.07534
997.833	6.0134
998.203	-13.02982
998.573	7.01688
998.943	-29.06524
999.313	12.02739
999.683	12.02789
1000.053	-11.02403
1000.423	28.06499
1000.792	-33.08227
1001.162	8.01903
1001.531	-17.03973
1001.901	1.00239
1002.27	1.00209
1002.639	23.05602
1003.009	31.07037
1003.378	-23.05665
1003.747	45.10165
1004.116	-7.01603
1004.485	3.00688
1004.853	13.0313
1005.222	-2.00481
1005.591	9.02002
1005.959	84.18258
1006.328	50.10821
1006.696	24.05626
1007.064	11.02636
1007.433	0
1007.801	13.03041
1008.169	15.03652
1008.537	-19.03919
1008.905	60.13285
1009.273	5.0117
1009.64	-23.05261
1010.008	35.07968
1010.375	-50.11173
1010.743	9.01913
1011.11	24.05456
1011.478	21.04933
1011.845	54.11917
1012.212	-24.05152
1012.579	-11.02585
1012.946	4.00895
1013.313	8.01799
1013.68	29.05961
1014.047	-35.08039
1014.414	39.08828
1014.78	22.05211
1015.147	21.04798
1015.513	69.15771
1015.88	-20.04882
1016.246	15.03517
1016.612	-6.01292
1016.978	2.00465
1017.344	-27.06352
1017.71	-30.06778
1018.076	21.04637
1018.442	45.11023
1018.808	10.02419
1019.174	6.01448
1019.539	48.1018
1019.905	47.10764
1020.27	13.031
1020.636	24.05363
1021.001	34.07795
1021.366	-33.07576
1021.731	-17.04184
1022.096	22.05368
1022.461	18.04042
1022.826	7.01591
1023.191	32.08028
1023.556	46.10181
1023.92	-10.02339
1024.285	64.14802
1024.649	5.0116
1025.014	43.1001
1025.378	41.09834
1025.742	55.13061
1026.107	6.01266
1026.471	-15.03271
1026.835	104.24797
1027.199	4.00922
1027.562	55.12145
1027.926	7.01619
1028.29	28.06709
1028.654	-6.01302
1029.017	-19.04453
1029.381	40.09203
1029.744	51.12409
1030.107	12.02648
1030.471	52.1183
1030.834	53.11326
1031.197	-33.07436
1031.56	5.01119
1031.923	49.12087
1032.286	-11.0241
1032.648	8.01819
1033.011	26.05723
1033.374	-31.06777
1033.736	7.01775
1034.099	-29.06756
1034.461	59.14382
1034.823	-11.02626
1035.185	20.04812
1035.548	4.00928
1035.91	-25.057
1036.272	-1.00215
1036.634	2.0046
1036.995	21.04649
1037.357	11.02536
1037.719	4.00925
1038.08	7.01562
1038.442	65.14755
1038.803	36.08184
1039.165	7.01692
1039.526	1.00228
1039.887	44.10051
1040.248	7.01664
1040.609	35.0818
1040.97	26.06116
1041.331	27.06542
1041.692	28.06226
1042.053	29.06189
1042.413	36.07931
1042.774	34.07782
1043.134	10.02225
1043.495	30.07126
1043.855	-44.10152
1044.215	35.08308
1044.576	29.06634
1044.936	28.0598
1045.296	-7.01653
1045.656	-38.08848
1046.016	10.02281
1046.375	23.05321
1046.735	34.07403
1047.095	14.03109
1047.454	-17.03308
1047.814	58.13334
1048.173	-7.01563
1048.533	-6.01312
1048.892	37.08614
1049.251	45.10694
1049.61	-1.00233
1049.969	-9.02017
1050.328	11.0222
1050.687	28.06481
1051.046	11.02567
1051.405	26.06118
1051.763	30.06532
1052.122	25.05971
1052.48	80.18642
1052.839	1.00223
1053.197	45.09954
1053.555	11.02331
1053.914	2.00464
1054.272	29.06658
1054.63	53.12353
1054.988	27.06146
1055.345	31.06228
1055.703	38.08656
1056.061	0
1056.419	26.06488
1056.776	23.05306
1057.134	48.10482
1057.491	13.03124
1057.848	0
1058.206	-6.01315
1058.563	17.03513
1058.92	27.05815
1059.277	-18.04231
1059.634	19.04225
1059.991	-30.06643
1060.348	15.03249
1060.704	59.13469
1061.061	35.07577
1061.418	60.13949
1061.774	-8.0189
1062.131	-4.01035
1062.487	53.11772
1062.843	33.07867
1063.199	-10.02369
1063.555	32.07041
1063.911	10.02428
1064.267	32.06119
1064.623	25.05753
1064.979	-8.01745
1065.335	15.03315
1065.691	-35.07858
1066.046	18.03726
1066.402	75.16159
1066.757	-9.02173
1067.112	-22.05141
1067.468	32.0723
1067.823	46.10499
1068.178	28.06368
1068.533	5.01155
1068.888	-18.04067
1069.243	-31.07311
1069.598	41.09451
1069.952	-17.03674
1070.307	-2.0048
1070.662	-7.01574
1071.016	98.20702
1071.371	-21.04528
1071.725	-21.04688
1072.079	67.15382
1072.434	-6.01392
1072.788	13.02929
1073.142	-6.01377
1073.496	-12.027
1073.85	27.05875
1074.203	17.03876
1074.557	20.05106
1074.911	-16.03586
1075.265	66.14443
1075.618	55.12642
1075.971	90.20268
1076.325	46.11094
1076.678	15.03261
1077.031	27.05775
1077.385	-7.01442
1077.738	88.18646
1078.091	-16.03504
1078.444	26.05694
1078.796	29.0682
1079.149	37.0881
1079.502	-18.04072
1079.855	-10.02214
1080.207	-5.01169
1080.56	-18.04508
1080.912	28.06419
1081.264	-42.09664
1081.617	-21.04898
1081.969	24.05819
1082.321	41.09556
1082.673	-40.08724
1083.025	-27.06044
1083.377	-273.57073
1083.728	50.11006
1084.08	-34.0811
1084.432	-28.06509
1084.783	20.04382
1085.135	13.03133
1085.486	3.00658
1085.838	0
1086.189	8.01856
1086.54	11.0247
1086.891	-16.03892
1087.242	3.00691
1087.593	22.04985
1087.944	23.04953
1088.295	40.08464
1088.646	-19.04343
1088.996	-32.07466
1089.347	-44.1033
1089.698	-18.04089
1090.048	35.08713
1090.398	-3.00654
1090.749	24.05462
1091.099	-18.04446
1091.449	-2.0048
1091.799	-27.06468
1092.149	-6.01422
1092.499	-12.02812
1092.849	25.06087
1093.199	-7.01664
1093.548	6.01377
1093.898	3.00724
1094.248	-2.00491
1094.597	24.0601
1094.947	20.05153
1095.296	27.06419
1095.645	11.02715
1095.994	-13.02931
1096.343	-59.14097
1096.692	-22.05589
1097.041	52.13814
1097.39	35.08369
1097.739	-19.04756
1098.088	-42.1076
1098.437	45.11486
1098.785	73.19039
1099.134	-27.06848
1099.482	-17.04493
1099.83	71.17931
1100.179	10.0254
1100.527	20.05165
1100.875	39.09972
1101.223	-28.07211
1101.571	9.0243
1101.919	-22.05656
1102.267	19.05243
1102.615	8.0257
1102.962	1.0032
1103.31	5.01605
1103.658	-2.00642
