Data from N3 R8 sample 7_Subt2__0__13-38-15-165.txt Node

Date: Mon Sep 22 13:38:15 PDT 2025
User: uwsun
Spectrometer: HDX01956
Trigger mode: 0
Integration Time (sec): 5.000000E-1
Scans to average: 1
Nonlinearity correction enabled: true
Boxcar width: 0
Storing dark spectrum: false
XAxis mode: Wavelengths
Number of Pixels in Spectrum: 2068
>>>>>Begin Spectral Data<<<<<
194.03	-2.00582
194.578	7.02274
195.127	17.05451
195.676	2.00643
196.225	17.04518
196.773	4.01106
197.321	14.03921
197.87	12.03112
198.418	36.09358
198.966	103.27202
199.513	52.13257
200.061	65.1672
200.609	37.0987
201.156	80.1778
201.704	44.11304
202.251	74.19795
202.798	57.15018
203.345	62.1537
203.892	41.10484
204.438	-4.00954
204.985	62.1493
205.532	43.11505
206.078	36.08921
206.624	62.15538
207.17	62.14459
207.716	71.17578
208.262	25.05034
208.808	56.14196
209.354	38.09496
209.899	94.24074
210.445	113.28538
210.99	35.08672
211.535	30.07087
212.08	126.2965
212.625	59.14911
213.17	19.04805
213.715	37.08416
214.259	58.13664
214.804	47.11717
215.348	104.2411
215.892	23.05577
216.436	34.0791
216.98	67.14931
217.524	40.0964
218.068	-13.03274
218.612	35.08792
219.155	87.20564
219.698	4.00955
220.242	4.01
220.785	105.24675
221.328	86.21389
221.871	7.01751
222.414	55.13562
222.956	33.07978
223.499	89.20179
224.041	87.20069
224.583	69.14771
225.126	48.10548
225.668	16.03911
226.21	60.15123
226.751	28.06189
227.293	88.19891
227.835	39.09557
228.376	38.08701
228.918	89.22308
229.459	44.11039
230	52.12341
230.541	53.12197
231.082	65.1562
231.622	12.02763
232.163	64.15552
232.704	61.1508
233.244	59.14602
233.784	73.17695
234.324	15.03298
234.864	31.07
235.404	68.16157
235.944	99.23555
236.484	29.07125
237.023	20.04756
237.563	47.10855
238.102	34.07982
238.641	58.14614
239.18	79.18579
239.719	22.05476
240.258	39.08706
240.797	71.16984
241.335	44.10748
241.874	38.07266
242.412	38.09106
242.95	80.19294
243.488	32.07269
244.026	80.18635
244.564	69.14163
245.102	60.13518
245.64	12.02881
246.177	81.18148
246.715	69.16341
247.252	47.10751
247.789	16.02973
248.326	51.12349
248.863	64.14017
249.4	43.09646
249.936	37.07639
250.473	47.10959
251.009	63.14429
251.546	53.1164
252.082	73.16079
252.618	26.05851
253.154	54.12984
253.69	87.19388
254.226	90.21352
254.761	82.18217
255.297	27.05922
255.832	89.21151
256.367	74.17359
256.903	85.18455
257.438	119.27943
257.972	61.13431
258.507	80.18613
259.042	50.11048
259.576	51.11007
260.111	17.03922
260.645	78.16621
261.179	82.19123
261.713	106.23608
262.247	80.18583
262.781	36.07695
263.315	72.17705
263.849	22.05506
264.382	29.06674
264.915	69.16164
265.449	38.09427
265.982	117.26279
266.515	37.09023
267.048	60.1248
267.58	56.12063
268.113	35.07518
268.646	55.13657
269.178	113.25682
269.71	78.16874
270.243	30.06773
270.775	34.08619
271.307	49.1173
271.838	64.15013
272.37	77.19092
272.902	50.11339
273.433	76.16526
273.965	55.13302
274.496	46.11503
275.027	70.17454
275.558	88.21175
276.089	84.21142
276.62	64.16402
277.15	25.0618
277.681	23.05002
278.211	64.15668
278.741	56.12472
279.272	61.14055
279.802	85.21306
280.332	61.14402
280.861	35.08423
281.391	45.10232
281.921	81.19368
282.45	87.21705
282.98	59.15361
283.509	80.18134
284.038	44.09954
284.567	75.17322
285.096	29.0708
285.625	54.12216
286.153	42.09933
286.682	67.15462
287.21	32.07723
287.739	38.08984
288.267	71.17288
288.795	89.23409
289.323	39.09151
289.851	28.06538
290.378	37.0842
290.906	105.25719
291.433	60.14917
291.961	88.19867
292.488	95.23529
293.015	56.13132
293.542	66.166
294.069	71.17572
294.596	73.18001
295.122	80.18803
295.649	88.19274
296.175	50.12141
296.702	5.01205
297.228	119.28845
297.754	-28.06275
298.28	95.21696
298.806	56.13485
299.332	118.26639
299.857	113.25672
300.383	48.12003
300.908	78.19046
301.433	87.21239
301.958	107.24644
302.483	100.24916
303.008	84.2077
303.533	74.19131
304.058	67.1561
304.582	62.14675
305.107	53.13865
305.631	72.16168
306.155	90.2103
306.679	127.30019
307.203	103.23666
307.727	54.12776
308.251	103.25098
308.775	86.20489
309.298	46.11048
309.822	86.21661
310.345	134.31753
310.868	108.25938
311.391	59.14409
311.914	104.26082
312.437	85.19217
312.96	123.28634
313.482	77.18285
314.005	89.22365
314.527	105.27496
315.049	92.23065
315.571	68.15314
316.093	82.20089
316.615	133.32008
317.137	116.2532
317.659	123.29692
318.18	115.27519
318.702	117.26957
319.223	121.24702
319.744	92.20719
320.265	115.28054
320.786	95.23563
321.307	81.20091
321.828	110.24732
322.348	129.29865
322.869	130.30496
323.389	165.30762
323.909	79.18028
324.43	142.33337
324.95	180.41133
325.47	129.31692
325.989	122.28675
326.509	109.2418
327.029	91.20598
327.548	138.31421
328.067	149.35587
328.587	148.36272
329.106	113.25547
329.625	122.31124
330.144	142.32371
330.662	203.47051
331.181	109.25084
331.7	111.25677
332.218	159.34007
332.736	139.32116
333.255	117.27033
333.773	166.39062
334.291	194.47333
334.808	156.34584
335.326	164.366
335.844	177.41058
336.361	186.46662
336.879	178.40479
337.396	199.47491
337.913	181.41603
338.43	194.42578
338.947	124.29054
339.464	214.45641
339.981	175.41124
340.497	232.56033
341.014	197.47248
341.53	214.46987
342.046	237.56883
342.562	212.51261
343.078	242.55188
343.594	205.47891
344.11	279.6451
344.626	181.44531
345.141	189.4224
345.657	199.44016
346.172	240.56231
346.687	240.53826
347.202	212.4596
347.717	313.72686
348.232	201.48684
348.747	264.58891
349.261	238.50693
349.776	259.59005
350.29	228.55648
350.805	254.60557
351.319	267.60336
351.833	220.48427
352.347	263.604
352.861	235.52954
353.374	223.49324
353.888	236.55554
354.401	272.60249
354.915	253.54766
355.428	292.69962
355.941	265.59737
356.454	236.5125
356.967	254.57621
357.48	282.62906
357.993	237.55974
358.505	266.63442
359.018	279.64869
359.53	300.70204
360.042	294.6311
360.554	276.63728
361.066	286.67243
361.578	350.72926
362.09	236.54233
362.602	353.74058
363.113	306.6809
363.625	278.59882
364.136	273.57402
364.647	369.82905
365.158	380.84377
365.669	315.71674
366.18	327.74133
366.691	396.82803
367.201	317.71604
367.712	318.6935
368.222	307.66568
368.733	334.69531
369.243	369.77825
369.753	380.82869
370.263	345.77863
370.773	344.79899
371.282	328.73257
371.792	375.81726
372.301	358.82295
372.811	414.01478
373.32	440.88293
373.829	383.85132
374.338	436.90844
374.847	474.01331
375.356	483.06664
375.865	564.10499
376.373	528.11045
376.882	470.08469
377.39	534.1743
377.898	538.21328
378.407	553.12148
378.915	631.22164
379.423	677.41776
379.93	577.17717
380.438	656.40731
380.946	668.377
381.453	743.54859
381.96	749.55351
382.468	770.54489
382.975	839.71174
383.482	854.58455
383.989	872.88632
384.495	951.76533
385.002	932.57486
385.509	1006.91249
386.015	1059.60727
386.521	1191.005
387.028	1203.07021
387.534	1285.02338
388.04	1332.28668
388.546	1392.23522
389.051	1415.16999
389.557	1612.55977
390.063	1576.36245
390.568	1701.65005
391.073	1761.45134
391.578	1806.83901
392.084	1884.61682
392.589	1886.3674
393.093	2100.8326
393.598	2272.71632
394.103	2553.04004
394.607	2682.97721
395.112	2886.12925
395.616	3080.966
396.12	3333.56908
396.624	3657.58315
397.128	4015.54091
397.632	4489.19324
398.136	4769.72574
398.639	5152.72493
399.143	5841.74005
399.646	6426.11295
400.15	7088.09036
400.653	7958.64054
401.156	9013.43175
401.659	10379.62047
402.162	12679.17208
402.664	16978.05015
403.167	25175.46312
403.67	51851.34549
404.172	51311.96428
404.674	31176.06428
405.176	3757.7064
405.678	27.69154
406.18	0
406.682	0
407.184	45159.96023
407.686	58897.86778
408.187	61455.21265
408.688	37326.99312
409.19	26844.08252
409.691	21890.44337
410.192	18694.05686
410.693	16418.88558
411.194	15046.03285
411.694	14457.86634
412.195	13351.37931
412.696	12126.9736
413.196	11246.70264
413.696	11414.56482
414.196	11532.13744
414.696	11141.26165
415.196	10816.73232
415.696	9316.24669
416.196	7313.14417
416.695	5803.3362
417.195	5142.8289
417.694	4806.05129
418.194	4608.34247
418.693	4160.0835
419.192	4103.31722
419.691	4153.28033
420.19	3975.61208
420.688	3927.74134
421.187	3688.89124
421.685	3389.6262
422.184	3179.74454
422.682	2601.47289
423.18	2265.76801
423.678	1989.66102
424.176	1848.5254
424.674	1678.32872
425.172	1703.58028
425.669	1676.79499
426.167	1508.35388
426.664	1400.23806
427.161	1325.19581
427.659	1095.03286
428.156	1066.69838
428.652	1011.03909
429.149	975.90148
429.646	919.60875
430.143	919.79043
430.639	859.65913
431.135	789.65038
431.632	724.39366
432.128	673.37458
432.624	719.58131
433.12	632.23438
433.616	643.17728
434.111	586.20666
434.607	549.15849
435.103	516.94757
435.598	503.8817
436.093	497.02287
436.588	464.91476
437.083	428.84735
437.578	452.92544
438.073	453.01652
438.568	377.82928
439.062	379.72769
439.557	404.85598
440.051	362.74856
440.546	405.85304
441.04	326.72178
441.534	330.7689
442.028	243.53298
442.522	275.60875
443.015	258.52227
443.509	314.70246
444.002	230.52283
444.496	307.62274
444.989	251.56952
445.482	288.6671
445.975	299.63035
446.468	242.48472
446.961	276.54181
447.454	287.60133
447.947	201.4418
448.439	254.57012
448.931	228.47761
449.424	184.42977
449.916	155.34871
450.408	154.32474
450.9	233.52889
451.392	120.28513
451.884	158.33332
452.375	158.36629
452.867	187.38817
453.358	148.31702
453.849	216.42362
454.341	220.45922
454.832	164.32651
455.323	182.4154
455.814	162.34911
456.304	159.3408
456.795	126.27025
457.285	165.33929
457.776	126.26546
458.266	175.38611
458.756	162.36811
459.247	134.29942
459.737	106.23803
460.226	198.41862
460.716	111.24747
461.206	137.30758
461.695	138.32233
462.185	111.24695
462.674	140.30092
463.163	138.28946
463.653	90.17785
464.142	70.15919
464.63	109.24894
465.119	112.24882
465.608	86.1878
466.096	107.22211
466.585	105.22458
467.073	88.19907
467.561	69.15835
468.05	126.27945
468.538	64.14796
469.026	100.22778
469.513	162.32854
470.001	131.2854
470.489	90.2026
470.976	109.23757
471.463	33.07758
471.951	93.21889
472.438	69.15504
472.925	61.13808
473.412	115.2674
473.899	85.18392
474.385	33.077
474.872	74.16774
475.359	77.17897
475.845	30.05975
476.331	78.16238
476.817	50.1167
477.303	97.21742
477.789	82.18912
478.275	24.05788
478.761	42.09683
479.247	66.14015
479.732	40.09629
480.218	33.08305
480.703	32.07723
481.188	-2.00415
481.673	22.04851
482.158	81.16769
482.643	23.05613
483.128	9.01979
483.612	-18.0412
484.097	70.16248
484.581	36.07951
485.066	5.0116
485.55	47.098
486.034	16.03352
486.518	55.1245
487.002	44.10535
487.486	20.0473
487.969	35.08328
488.453	49.11976
488.936	68.14862
489.42	32.06751
489.903	43.10494
490.386	21.04639
490.869	53.11066
491.352	57.13484
491.835	13.02584
492.318	6.01324
492.8	-20.04017
493.283	18.04428
493.765	12.02879
494.247	-16.03589
494.73	-3.00643
495.212	-15.03466
495.694	-21.04813
496.175	11.02565
496.657	-8.01822
497.139	-55.09238
497.62	-14.03251
498.102	1.00242
498.583	-9.02187
499.064	-40.08787
499.545	42.09292
500.026	7.01528
500.507	-22.04953
500.988	-19.04545
501.469	10.02456
501.949	15.03585
502.43	-3.00703
502.91	-31.06257
503.39	-29.07019
503.87	-11.02544
504.35	-61.13768
504.83	2.00429
505.31	-44.10402
505.79	-15.035
506.269	-65.14785
506.749	15.03359
507.228	-24.05485
507.707	-26.05627
508.187	-48.11053
508.666	-32.07709
509.145	-59.13371
509.623	-54.1236
510.102	-56.1307
510.581	-13.03006
511.059	-21.051
511.538	-100.25043
512.016	-82.18912
512.494	-11.02589
512.972	-44.10132
513.45	-49.11304
513.928	-61.14424
514.406	-65.15418
514.884	-44.10963
515.361	-92.21413
515.839	-31.06951
516.316	-40.09369
516.793	-43.10584
517.27	-63.14811
517.747	-75.19009
518.224	-83.18673
518.701	-81.17602
519.178	-71.17198
519.654	-98.22593
520.131	-95.23028
520.607	-69.16631
521.083	-70.1559
521.56	-82.19048
522.036	-73.1562
522.512	-43.10223
522.987	-33.07673
523.463	-60.13838
523.939	-98.23429
524.414	-67.14857
524.89	-55.12804
525.365	-113.24932
525.84	-73.17095
526.315	-105.24809
526.79	-110.24122
527.265	-97.21545
527.74	-64.15301
528.215	-95.21819
528.689	-122.26235
529.164	-117.24656
529.638	-56.14024
530.112	-70.16183
530.587	-64.13359
531.061	-116.27254
531.534	-85.19959
532.008	-121.28612
532.482	-73.16187
532.956	-116.28997
533.429	-124.29384
533.903	-84.17915
534.376	-120.25827
534.849	-135.30521
535.322	-107.24427
535.795	-160.37914
536.268	-60.14053
536.741	-78.18097
537.213	-112.24996
537.686	-95.22525
538.158	-67.14727
538.631	-120.28304
539.103	-100.21976
539.575	-119.23775
540.047	-155.33022
540.519	-155.3577
540.991	-118.28059
541.463	-108.2577
541.934	-118.26226
542.406	-142.32998
542.877	-79.17744
543.348	-119.27757
543.82	-88.20942
544.291	-79.17955
544.762	-174.4045
545.233	-42.10145
545.703	-129.27961
546.174	-122.27891
546.645	-87.20604
547.115	-98.23259
547.585	-114.25757
548.056	-72.17042
548.526	-106.24623
548.996	-123.28871
549.466	-63.15018
549.935	-68.15827
550.405	-148.32209
550.875	-124.28804
551.344	-112.26355
551.814	-97.21715
552.283	-72.15209
552.752	-73.16638
553.221	-53.11404
553.69	-12.02598
554.159	-75.18112
554.628	-128.28424
555.096	-70.17366
555.565	-101.21836
556.033	-98.22449
556.502	-111.26176
556.97	-123.26558
557.438	-115.26454
557.906	-181.41703
558.374	-90.2036
558.842	-96.223
559.31	-134.29001
559.777	-73.17442
560.245	-74.16549
560.712	-114.25726
561.18	-142.30732
561.647	-81.17827
562.114	-37.08208
562.581	-116.27997
563.048	-92.20371
563.514	-89.21159
563.981	-88.19452
564.448	1.0022
564.914	-75.16825
565.381	-41.08932
565.847	-95.21486
566.313	-97.21787
566.779	-63.13737
567.245	-76.17312
567.711	-42.09837
568.176	-113.24576
568.642	-86.2103
569.108	-95.22759
569.573	-122.27677
570.038	-80.16142
570.504	-69.15026
570.969	-65.15821
571.434	-83.17744
571.899	-82.18731
572.363	-15.03297
572.828	-47.10231
573.293	-55.12145
573.757	-78.17199
574.222	-56.12032
574.686	-69.15205
575.15	-72.1656
575.614	-100.22271
576.078	-24.05454
576.542	-67.1464
577.006	-46.10045
577.469	-50.11743
577.933	-34.07229
578.396	-49.11209
578.86	-77.1728
579.323	-94.21809
579.786	-37.07622
580.249	-80.17521
580.712	-23.05422
581.175	-88.20926
581.637	-82.17876
582.1	-109.22778
582.563	-139.28441
583.025	-51.11896
583.487	-62.1205
583.95	-81.16964
584.412	-11.02206
584.874	-117.27001
585.336	-57.1306
585.797	-68.1415
586.259	-134.30214
586.721	-120.27257
587.182	-140.30818
587.643	-90.19387
588.105	-83.18879
588.566	-71.14132
589.027	-90.21014
589.488	-95.206
589.949	-83.19253
590.41	-87.16526
590.87	-17.03653
591.331	-83.1696
591.791	-76.16744
592.252	-84.18436
592.712	-67.15413
593.172	-105.22496
593.632	-39.08009
594.092	-45.09566
594.552	-66.13379
595.011	-146.32192
595.471	-81.16927
595.931	-32.06757
596.39	-54.12276
596.849	-75.16541
597.308	-16.03246
597.768	-77.18749
598.227	5.0114
598.685	-27.05847
599.144	31.0686
599.603	-44.09657
600.062	11.02183
600.52	-11.0232
600.978	23.05064
601.437	-10.02103
601.895	101.19701
602.353	21.04256
602.811	29.05875
603.269	58.12714
603.727	90.19853
604.184	151.31288
604.642	122.26844
605.099	123.25908
605.557	168.36717
606.014	187.36059
606.471	190.42946
606.928	202.39336
607.385	255.5699
607.842	182.37146
608.299	237.48492
608.755	284.6078
609.212	317.61628
609.668	260.50968
610.125	347.72928
610.581	381.77072
611.037	303.59411
611.493	343.70053
611.949	391.82247
612.405	385.65318
612.861	388.77535
613.316	386.78924
613.772	434.84435
614.227	401.81527
614.683	448.7995
615.138	448.89525
615.593	482.96677
616.048	451.87095
616.503	425.90027
616.958	459.99902
617.412	493.00095
617.867	410.77335
618.321	399.68831
618.776	446.82394
619.23	407.82445
619.684	421.78846
620.138	389.75806
620.592	393.82449
621.046	340.69236
621.5	397.84207
621.954	330.62947
622.407	406.7613
622.861	329.71246
623.314	255.49668
623.768	278.57126
624.221	319.55615
624.674	256.51822
625.127	291.59811
625.58	263.51958
626.033	220.42535
626.485	222.48169
626.938	234.50145
627.39	226.46692
627.843	201.41332
628.295	208.43301
628.747	174.3711
629.199	155.31873
629.651	219.45195
630.103	188.3919
630.555	157.29998
631.006	169.36067
631.458	192.41465
631.909	128.25982
632.361	99.21174
632.812	160.34095
633.263	121.23691
633.714	103.20129
634.165	124.27467
634.616	108.23794
635.067	120.24358
635.518	124.26883
635.968	146.26308
636.419	70.13949
636.869	88.19363
637.319	69.14847
637.769	101.20956
638.219	99.21587
638.669	97.21715
639.119	125.2826
639.569	134.30301
640.019	97.20558
640.468	92.19264
640.918	98.22034
641.367	6.01257
641.816	63.13089
642.265	104.22441
642.714	68.14604
643.163	73.15749
643.612	80.18517
644.061	135.27021
644.51	112.24105
644.958	58.12005
645.406	79.177
645.855	52.11936
646.303	70.15221
646.751	62.13229
647.199	75.1602
647.647	100.21707
648.095	93.20141
648.543	54.10225
648.99	101.22843
649.438	64.14011
649.885	72.1693
650.333	118.20826
650.78	110.25036
651.227	10.02314
651.674	71.15291
652.121	66.15234
652.568	93.21325
653.015	70.16472
653.461	83.18887
653.908	68.14855
654.354	53.11801
654.801	92.20693
655.247	49.10162
655.693	75.18752
656.139	100.22926
656.585	32.07233
657.031	43.09618
657.477	37.07653
657.922	81.17692
658.368	42.09787
658.813	89.19447
659.259	31.07123
659.704	60.1344
660.149	93.2051
660.594	17.0384
661.039	40.0875
661.484	50.11186
661.929	82.18316
662.373	72.17482
662.818	20.04701
663.262	80.18532
663.707	50.12282
664.151	21.04887
664.595	39.09115
665.039	10.02364
665.483	50.12222
665.927	64.14401
666.371	88.19777
666.814	75.16915
667.258	74.16911
667.701	66.13305
668.145	93.21829
668.588	59.13903
669.031	95.21574
669.474	53.12251
669.917	105.21893
670.36	62.14771
670.803	78.17753
671.245	26.05128
671.688	87.20349
672.13	130.2769
672.573	87.2093
673.015	36.08303
673.457	75.15708
673.899	65.14917
674.341	75.17391
674.783	71.16489
675.225	58.13643
675.666	79.18224
676.108	90.18878
676.549	102.23131
676.991	69.14598
677.432	160.30178
677.873	125.27394
678.314	114.25957
678.755	123.28408
679.196	106.23324
679.637	127.2939
680.078	55.12104
680.518	134.29299
680.959	85.19413
681.399	142.33662
681.839	123.28453
682.28	102.24385
682.72	104.22701
683.16	165.39031
683.6	135.28899
684.039	111.21589
684.479	107.25145
684.919	111.24849
685.358	80.19148
685.798	140.35439
686.237	159.35844
686.676	82.17542
687.115	168.374
687.554	140.31567
687.993	220.44881
688.432	177.37627
688.871	146.31341
689.309	196.44085
689.748	153.29177
690.186	230.5067
690.625	203.44863
691.063	153.34251
691.501	161.3708
691.939	188.44187
692.377	224.51249
692.815	225.50825
693.253	223.4918
693.69	191.38691
694.128	182.41221
694.565	322.70817
695.003	247.58584
695.44	293.6356
695.877	220.47918
696.314	292.5605
696.751	323.67226
697.188	363.75652
697.625	351.70808
698.061	332.73047
698.498	365.79885
698.934	327.71358
699.371	312.67147
699.807	365.77082
700.243	373.81291
700.679	375.75302
701.115	367.76179
701.551	455.94191
701.987	368.72413
702.422	450.96176
702.858	415.87871
703.294	469.93048
703.729	430.9385
704.164	470.00084
704.599	484.93133
705.035	546.05806
705.47	508.08847
705.904	554.11506
706.339	593.15945
706.774	554.1166
707.209	551.09908
707.643	620.28136
708.078	648.36921
708.512	605.33538
708.946	622.27171
709.38	589.19026
709.814	646.21585
710.248	723.48685
710.682	666.33104
711.116	746.5256
711.549	697.52584
711.983	701.34188
712.416	789.51063
712.85	754.54128
713.283	767.48613
713.716	835.69741
714.149	787.5097
714.582	772.37742
715.015	895.82033
715.448	885.78121
715.881	894.48923
716.313	886.63425
716.746	944.74667
717.178	971.82574
717.61	963.93215
718.043	1013.97289
718.475	1117.0728
718.907	1088.10421
719.339	1061.83965
719.77	1026.87798
720.202	1119.19976
720.634	1133.10985
721.065	1017.847
721.497	1116.04792
721.928	1151.16035
722.359	1120.06863
722.79	1229.19588
723.221	1268.38119
723.652	1276.42312
724.083	1285.07211
724.514	1331.17929
724.945	1317.24343
725.375	1376.30019
725.806	1342.40047
726.236	1404.61301
726.666	1355.2704
727.096	1388.40352
727.526	1422.59732
727.956	1454.20496
728.386	1469.50657
728.816	1512.72935
729.246	1578.58477
729.675	1507.57864
730.105	1475.50083
730.534	1489.30858
730.964	1578.71449
731.393	1663.73943
731.822	1662.82092
732.251	1625.81719
732.68	1631.48589
733.109	1708.76127
733.537	1683.68498
733.966	1676.75273
734.395	1704.44802
734.823	1784.39102
735.251	1686.66489
735.68	1722.7656
736.108	1740.92455
736.536	1661.48332
736.964	1712.52486
737.392	1705.83377
737.82	1760.6999
738.247	1706.56742
738.675	1689.51522
739.102	1685.7775
739.53	1710.9061
739.957	1622.81415
740.384	1718.70218
740.811	1646.76088
741.238	1675.65857
741.665	1727.55879
742.092	1638.47404
742.519	1577.66781
742.945	1642.59905
743.372	1583.63657
743.798	1600.82795
744.225	1657.61486
744.651	1536.61397
745.077	1541.65813
745.503	1501.47326
745.929	1529.46461
746.355	1481.47621
746.781	1467.52842
747.207	1420.32924
747.632	1331.34249
748.058	1359.38334
748.483	1349.11885
748.908	1346.44572
749.334	1394.41016
749.759	1271.1254
750.184	1305.24424
750.609	1293.30126
751.033	1282.12587
751.458	1259.95706
751.883	1252.30637
752.307	1215.08542
752.732	1194.29328
753.156	1245.28148
753.58	1121.93993
754.005	1086.10034
754.429	1055.86493
754.853	1098.06816
755.277	1097.94742
755.7	1069.0178
756.124	1037.01822
756.548	1056.91267
756.971	1041.92796
757.394	1034.12405
757.818	987.06773
758.241	951.91593
758.664	966.96442
759.087	953.65447
759.51	889.74747
759.933	875.69895
760.356	928.9358
760.778	872.72889
761.201	836.64123
761.623	895.74279
762.046	835.56268
762.468	777.4783
762.89	811.6396
763.312	769.50704
763.734	720.44245
764.156	773.58195
764.578	794.47375
765	729.45681
765.421	742.59882
765.843	658.47154
766.264	659.31795
766.686	694.471
767.107	620.2636
767.528	623.35624
767.949	676.46271
768.37	614.28708
768.791	579.19784
769.212	588.28131
769.632	550.10141
770.053	583.34135
770.473	570.17998
770.894	651.38967
771.314	507.0135
771.734	542.07484
772.154	510.14723
772.575	493.97947
772.994	511.01017
773.414	540.11428
773.834	439.96806
774.254	431.91896
774.673	443.95438
775.093	525.1523
775.512	420.90969
775.931	415.93046
776.351	400.8867
776.77	433.95484
777.189	437.92084
777.607	390.89399
778.026	395.88672
778.445	378.85919
778.864	402.92075
779.282	358.77642
779.701	374.84975
780.119	323.73761
780.537	359.81783
780.955	330.75921
781.373	335.74464
781.791	290.58705
782.209	306.61972
782.627	306.74208
783.045	352.72527
783.462	251.59004
783.88	302.71944
784.297	306.70513
784.715	274.655
785.132	241.53883
785.549	222.51811
785.966	272.62754
786.383	266.60416
786.8	259.54218
787.217	189.41315
787.633	249.58054
788.05	215.45087
788.466	259.5513
788.883	290.69006
789.299	288.63553
789.715	265.58931
790.131	168.38823
790.547	183.42433
790.963	207.4813
791.379	260.61274
791.795	202.41715
792.21	205.43997
792.626	164.36116
793.041	199.46087
793.457	191.43796
793.872	157.3477
794.287	166.37643
794.702	170.38926
795.117	156.36723
795.532	184.43382
795.947	84.18529
796.362	176.38416
796.776	154.32702
797.191	117.26936
797.605	98.22007
798.02	132.30079
798.434	108.21953
798.848	131.30652
799.262	168.3944
799.676	110.2462
800.09	107.24732
800.504	90.20534
800.918	113.24482
801.331	113.27905
801.745	59.12745
802.158	107.25252
802.572	105.23758
802.985	107.23904
803.398	121.27032
803.811	109.26392
804.224	56.13111
804.637	101.22964
805.05	35.07625
805.462	97.22528
805.875	78.19498
806.288	63.14452
806.7	53.12688
807.112	54.11857
807.525	34.07879
807.937	92.22011
808.349	58.13818
808.761	94.21982
809.173	48.11053
809.584	87.20133
809.996	88.20708
810.408	45.11255
810.819	56.12539
811.231	84.21286
811.642	61.14463
812.053	25.05861
812.464	93.21479
812.875	29.07056
813.286	70.1727
813.697	31.06699
814.108	65.15078
814.519	19.03972
814.929	106.25786
815.34	14.03251
815.75	42.10309
816.16	40.09449
816.571	59.14666
816.981	37.08287
817.391	80.18392
817.801	64.15236
818.211	18.04059
818.62	-9.02065
819.03	49.11443
819.44	65.16081
819.849	74.1788
820.259	34.08293
820.668	-7.01641
821.077	13.03119
821.486	59.13377
821.895	90.20997
822.304	19.04845
822.713	58.1296
823.122	49.11676
823.531	34.07601
823.939	21.04866
824.348	73.16974
824.756	43.10215
825.164	65.15477
825.573	26.06273
825.981	54.12826
826.389	21.04983
826.797	38.09067
827.205	9.01992
827.612	24.05648
828.02	43.09702
828.428	42.10244
828.835	0
829.243	14.03162
829.65	15.03605
830.057	51.11798
830.464	49.11515
830.871	-15.03383
831.278	16.03689
831.685	39.08172
832.092	53.12411
832.499	13.0266
832.905	17.04077
833.312	12.02559
833.718	95.22473
834.124	104.22364
834.531	29.06961
834.937	-9.02206
835.343	3.00682
835.749	28.06094
836.155	8.0201
836.561	21.04983
836.966	-16.03706
837.372	8.01954
837.777	51.12228
838.183	0
838.588	30.07235
838.993	43.09935
839.399	34.07923
839.804	18.04241
840.209	0
840.613	-20.04195
841.018	-15.03637
841.423	-21.05159
841.828	17.04163
842.232	48.11273
842.637	55.12333
843.041	36.08879
843.445	66.15965
843.849	35.08331
844.253	31.07009
844.657	21.05125
845.061	5.0107
845.465	-32.07404
845.869	41.0902
846.272	32.07516
846.676	0
847.079	17.04167
847.483	-14.03301
847.886	-36.0826
848.289	0
848.692	31.07551
849.095	63.14394
849.498	0
849.901	23.05019
850.304	8.01811
850.707	-1.00244
851.109	26.06237
851.512	-13.03055
851.914	-14.03473
852.316	-23.05594
852.718	-20.05057
853.121	-21.04945
853.523	-29.06455
853.925	34.08686
854.326	-6.01449
854.728	8.01998
855.13	29.07287
855.531	25.05751
855.933	45.10257
856.334	-73.17689
856.736	4.00861
857.137	35.0778
857.538	54.13087
857.939	12.02846
858.34	55.12662
858.741	17.04264
859.142	19.04345
859.542	9.02305
859.943	25.05964
860.343	-1.00238
860.744	38.08872
861.144	27.06352
861.544	36.08425
861.945	26.06382
862.345	-6.01406
862.745	-16.0385
863.145	-28.06257
863.544	-21.05113
863.944	19.04255
864.344	45.10674
864.743	49.11452
865.143	-2.00493
865.542	-38.08463
865.941	-37.08793
866.34	24.05407
866.74	-39.10105
867.139	34.07904
867.537	-22.05384
867.936	-6.01373
868.335	11.02696
868.734	21.05169
869.132	-50.11029
869.531	40.09167
869.929	34.0739
870.327	44.10083
870.726	-21.04954
871.124	-5.01093
871.522	17.04178
871.92	-24.0559
872.318	-14.0327
872.715	14.03292
873.113	-16.03739
873.511	40.09552
873.908	6.01478
874.306	-28.06743
874.703	6.01427
875.1	1.00244
875.497	20.04558
875.894	-1.00236
876.291	-12.0281
876.688	58.14436
877.085	-21.04765
877.482	-12.02873
877.878	25.05769
878.275	-21.05142
878.671	32.0662
879.068	31.07097
879.464	-12.02762
879.86	37.08467
880.256	-11.02567
880.652	33.08077
881.048	58.13574
881.444	3.00675
881.84	21.05132
882.236	28.06714
882.631	7.01623
883.027	-25.05733
883.422	53.1304
883.817	-4.00973
884.213	-10.02467
884.608	22.05189
885.003	3.00688
885.398	-6.01446
885.793	-12.02918
886.188	-13.03137
886.582	-36.08817
886.977	20.04469
887.371	-27.06589
887.766	6.01444
888.16	19.04508
888.554	-29.06796
888.949	-11.0262
889.343	19.04373
889.737	-22.05772
890.131	-13.03137
890.525	20.04885
890.918	37.08895
891.312	20.04543
891.706	18.04548
892.099	8.01931
892.492	2.00402
892.886	32.07507
893.279	31.07551
893.672	-20.04884
894.065	-70.16722
894.458	13.03138
894.851	-7.01604
895.244	-29.07167
895.637	16.03674
896.029	23.05407
896.422	-23.05352
896.814	36.0859
897.206	-40.09181
897.599	26.06025
897.991	-43.09967
898.383	13.0291
898.775	25.05352
899.167	44.09836
899.559	27.06515
899.951	26.05776
900.342	28.06794
900.734	-65.15768
901.125	-18.04506
901.517	-24.05652
901.908	-15.03408
902.299	5.01175
902.69	-34.07685
903.082	-9.02057
903.473	57.13013
903.863	-10.02451
904.254	27.05927
904.645	-1.00233
905.036	6.01408
905.426	28.0598
905.817	-24.05623
906.207	29.06669
906.597	-20.04484
906.987	15.03737
907.378	-14.03387
907.768	-39.09972
908.158	38.08722
908.547	-42.10355
908.937	-23.05686
909.327	-32.07366
909.717	-42.10068
910.106	-42.09544
910.495	8.01899
910.885	6.01451
911.274	17.04043
911.663	-11.02673
912.052	-7.01619
912.441	-5.01217
912.83	52.11418
913.219	-23.05771
913.608	-35.08161
913.997	-18.04376
914.385	1.00225
914.774	32.07448
915.162	-5.01141
915.55	-36.08167
915.939	15.03659
916.327	27.06446
916.715	66.16331
917.103	-23.05308
917.491	-23.05369
917.878	18.04209
918.266	-29.07219
918.654	23.05642
919.041	6.01515
919.429	13.02921
919.816	11.02675
920.203	6.01379
920.591	34.08147
920.978	20.04664
921.365	-29.07282
921.752	-3.00674
922.139	40.08049
922.525	55.12672
922.912	51.11812
923.299	-6.01437
923.685	0
924.072	-2.0043
924.458	-2.00474
924.844	-20.04752
925.231	27.05957
925.617	31.07622
926.003	18.04379
926.389	-24.05817
926.774	9.02177
927.16	27.06355
927.546	-12.02995
927.931	-46.10901
928.317	3.00644
928.702	10.02221
929.088	-10.02252
929.473	14.03426
929.858	12.02814
930.243	-1.00229
930.628	11.02556
931.013	46.11006
931.398	32.06846
931.783	27.06785
932.167	-69.16101
932.552	60.14229
932.937	26.06035
933.321	-8.01925
933.705	23.05588
934.09	-33.07936
934.474	6.01339
934.858	37.09261
935.242	69.15262
935.626	-6.01475
936.009	23.05939
936.393	-7.01711
936.777	26.06434
937.16	32.07956
937.544	-38.08428
937.927	-2.00487
938.311	-27.06154
938.694	30.07583
939.077	-7.016
939.46	14.03235
939.843	7.01347
940.226	8.01968
940.609	-24.05205
940.991	-1.00246
941.374	-5.0118
941.757	11.02553
942.139	12.02559
942.522	29.06428
942.904	53.12241
943.286	-20.04809
943.668	33.08185
944.05	2.00473
944.432	42.09833
944.814	34.08007
945.196	31.07319
945.578	-21.04813
945.959	53.11801
946.341	-24.0554
946.722	6.01327
947.104	20.04556
947.485	45.09933
947.866	0
948.247	-2.00483
948.628	44.10116
949.009	24.0593
949.39	-10.02381
949.771	-12.02606
950.152	-11.02587
950.532	49.11699
950.913	25.0573
951.293	-27.07109
951.674	1.00229
952.054	-31.07464
952.434	-12.02843
952.814	6.01353
953.194	-9.02236
953.574	2.00461
953.954	-2.00454
954.334	-57.13619
954.714	-17.03993
955.093	49.11331
955.473	-15.03614
955.853	50.12427
956.232	36.09538
956.611	16.03621
956.99	68.164
957.37	37.09043
957.749	-4.00898
958.128	29.07069
958.506	-25.06251
958.885	42.10213
959.264	11.02587
959.643	-69.14707
960.021	-31.07398
960.4	42.09082
960.778	11.02546
961.156	-18.04343
961.535	65.14383
961.913	10.02208
962.291	8.01985
962.669	-23.05613
963.047	6.01472
963.424	-25.06156
963.802	-36.08534
964.18	-25.06001
964.557	-78.16737
964.935	33.0733
965.312	32.07985
965.69	-3.00714
966.067	5.01151
966.444	45.10488
966.821	-8.01983
967.198	-25.05753
967.575	8.01861
967.952	30.06637
968.329	55.12768
968.705	72.14281
969.082	21.05222
969.458	-19.04416
969.835	11.02539
970.211	10.02502
970.587	75.1768
970.963	16.03939
971.339	-23.05817
971.715	10.0237
972.091	29.06828
972.467	-12.02852
972.843	-19.04561
973.219	-28.06257
973.594	-48.12198
973.97	-23.05143
974.345	2.00458
974.721	-45.10261
975.096	-51.11845
975.471	-13.02933
975.846	39.08867
976.221	1.00243
976.596	-40.09167
976.971	-19.04482
977.346	11.0242
977.72	12.02953
978.095	-27.06778
978.469	36.08147
978.844	-47.11204
979.218	51.11657
979.593	39.08814
979.967	7.01618
980.341	-11.02418
980.715	-26.06254
981.089	-3.00717
981.463	46.10024
981.837	-36.08521
982.21	30.06415
982.584	78.17789
982.957	-25.06037
983.331	10.02216
983.704	25.05918
984.078	19.04502
984.451	26.06063
984.824	-35.08215
985.197	1.00229
985.57	2.00483
985.943	38.08928
986.316	45.10344
986.688	22.05052
987.061	-14.03109
987.434	14.03515
987.806	22.05023
988.179	23.05177
988.551	37.08891
988.923	23.05456
989.295	31.0735
989.667	-25.05802
990.039	9.02146
990.411	37.08068
990.783	29.0624
991.155	31.07174
991.527	10.02282
991.898	14.03335
992.27	-4.00952
992.641	26.06164
993.012	19.04197
993.384	33.07439
993.755	-11.02695
994.126	38.08701
994.497	-8.01888
994.868	23.04951
995.239	-19.04352
995.61	-18.04341
995.98	23.05394
996.351	48.11453
996.722	-42.09338
997.092	-15.03433
997.462	75.16977
997.833	-16.0359
998.203	-14.03212
998.573	32.0768
998.943	7.01563
999.313	11.02511
999.683	33.07637
1000.053	9.01957
1000.423	36.08343
1000.792	-47.11747
1001.162	17.04037
1001.531	-13.03036
1001.901	-5.01196
1002.27	36.07468
1002.639	-1.00245
1003.009	41.09288
1003.378	8.01959
1003.747	64.14401
1004.116	-21.04821
1004.485	58.13158
1004.853	-63.15386
1005.222	-3.00721
1005.591	-19.0425
1005.959	48.10513
1006.328	49.10607
1006.696	33.07722
1007.064	-13.0313
1007.433	-20.0475
1007.801	23.05369
1008.169	62.14964
1008.537	-47.09756
1008.905	44.09775
1009.273	16.03737
1009.64	-33.07564
1010.008	61.13813
1010.375	-22.04888
1010.743	7.01489
1011.11	59.13317
1011.478	-24.05687
1011.845	30.06654
1012.212	-46.09922
1012.579	7.01639
1012.946	8.01789
1013.313	54.12032
1013.68	-42.08771
1014.047	-49.11286
1014.414	24.05449
1014.78	-10.02383
1015.147	40.09104
1015.513	12.02774
1015.88	19.04604
1016.246	37.08637
1016.612	33.07046
1016.978	-23.05373
1017.344	-39.09197
1017.71	-43.09741
1018.076	4.00886
1018.442	61.14898
1018.808	19.04588
1019.174	6.01448
1019.539	55.11646
1019.905	77.17529
1020.27	37.08783
1020.636	-14.03153
1021.001	54.1233
1021.366	-20.0458
1021.731	1.00245
1022.096	35.08519
1022.461	6.01351
1022.826	42.09478
1023.191	44.11015
1023.556	27.06
1023.92	18.04188
1024.285	56.12972
1024.649	14.03242
1025.014	43.1001
1025.378	-2.00484
1025.742	33.0787
1026.107	1.00211
1026.471	-12.02615
1026.835	68.16325
1027.199	17.03909
1027.562	73.16059
1027.926	-2.00463
1028.29	14.03364
1028.654	18.03886
1029.017	40.09266
1029.381	47.10799
1029.744	34.08299
1030.107	-28.06231
1030.471	-6.01381
1030.834	42.08997
1031.197	-26.05851
1031.56	29.06457
1031.923	-12.02993
1032.286	-26.05714
1032.648	41.09262
1033.011	34.07472
1033.374	-18.03924
1033.736	2.00508
1034.099	10.02312
1034.461	58.14141
1034.823	-21.05023
1035.185	18.04333
1035.548	-11.0256
1035.91	-8.01818
1036.272	19.04062
1036.634	3.0069
1036.995	11.0244
1037.357	-33.07673
1037.719	6.01387
1038.08	-44.09921
1038.442	71.16098
1038.803	44.09986
1039.165	51.12228
1039.526	-42.09671
1039.887	31.071
1040.248	-22.05258
1040.609	25.05854
1040.97	16.03771
1041.331	33.07987
1041.692	5.01117
1042.053	31.06613
1042.413	48.10548
1042.774	17.03904
1043.134	-24.05378
1043.495	-29.06966
1043.855	-34.07829
1044.215	28.06656
1044.576	-13.02999
1044.936	43.09153
1045.296	1.00236
1045.656	-1.00231
1046.016	18.04098
1046.375	0
1046.735	41.08913
1047.095	-5.01115
1047.454	-35.0684
1047.814	70.16055
1048.173	14.03112
1048.533	34.07371
1048.892	23.05369
1049.251	37.08807
1049.61	-28.06568
1049.969	5.01117
1050.328	49.09803
1050.687	14.0325
1051.046	19.04427
1051.405	-10.0237
1051.763	13.02841
1052.122	-6.01442
1052.48	45.10558
1052.839	12.02666
1053.197	1.00223
1053.555	33.0696
1053.914	15.03471
1054.272	16.03683
1054.63	17.0399
1054.988	20.04559
1055.345	-3.00607
1055.703	-10.023
1056.061	5.01235
1056.419	-19.0478
1056.776	35.08055
1057.134	26.05704
1057.491	17.04082
1057.848	-1.00234
1058.206	-32.07053
1058.563	-17.0354
1058.92	-16.03478
1059.277	8.01871
1059.634	47.10392
1059.991	-83.18581
1060.348	31.06691
1060.704	25.05746
1061.061	37.08006
1061.418	43.1003
1061.774	-4.00944
1062.131	7.01808
1062.487	32.07139
1062.843	24.05731
1063.199	-32.07612
1063.555	32.07041
1063.911	27.06535
1064.267	40.07633
1064.623	-20.04644
1064.979	5.01088
1065.335	-22.049
1065.691	-30.06729
1066.046	47.09665
1066.402	59.12756
1066.757	13.03126
1067.112	3.00698
1067.468	3.00682
1067.823	24.05502
1068.178	3.00686
1068.533	-1.00231
1068.888	-12.02708
1069.243	20.0467
1069.598	-6.01396
1069.952	-27.05847
1070.307	21.05014
1070.662	35.078
1071.016	40.08557
1071.371	0
1071.725	-37.08287
1072.079	48.11062
1072.434	-28.06522
1072.788	-7.01584
1073.142	-46.10643
1073.496	-15.03377
1073.85	15.03272
1074.203	-44.10156
1074.557	-20.05142
1074.911	51.11271
1075.265	-1.00222
1075.618	25.05781
1075.971	66.14937
1076.325	18.04364
1076.678	12.0261
1077.031	8.01718
1077.385	13.02666
1077.738	56.11949
1078.091	13.0283
1078.444	54.11757
1078.796	23.05416
1079.149	30.07153
1079.502	-21.04754
1079.855	-29.06447
1080.207	27.06276
1080.56	-26.06521
1080.912	25.05735
1081.264	-5.01142
1081.617	-4.0093
1081.969	10.02431
1082.321	7.01642
1082.673	-11.02384
1083.025	-36.08074
1083.377	-297.6242
1083.728	64.14047
1084.08	-39.09311
1084.432	23.05293
1084.783	21.046
1085.135	21.05054
1085.486	0
1085.838	38.08879
1086.189	16.03706
1086.54	0
1086.891	-55.13477
1087.242	3.00691
1087.593	-30.06869
1087.944	85.18062
1088.295	11.02343
1088.646	-45.10339
1088.996	17.03928
1089.347	14.0325
1089.698	4.00905
1090.048	26.06483
1090.398	-18.03939
1090.749	38.08624
1091.099	18.04416
1091.449	19.04541
1091.799	20.04749
1092.149	-24.05707
1092.499	-22.05165
1092.849	12.02929
1093.199	-2.00475
1093.548	-16.03687
1093.898	12.0289
1094.248	6.01471
1094.597	65.16158
1094.947	-5.01294
1095.296	70.16504
1095.645	0
1095.994	-34.07698
1096.343	-35.08324
1096.692	-21.05334
1097.041	31.08264
1097.39	9.02163
1097.739	12.02987
1098.088	-20.05104
1098.437	-21.05422
1098.785	51.13351
1099.134	3.00757
1099.482	-36.09544
1099.83	39.09906
1100.179	23.05827
1100.527	64.16402
1100.875	-14.03613
1101.223	-18.04628
1101.571	9.0243
1101.919	-22.05656
1102.267	-29.08063
1102.615	8.0257
1102.962	-8.02567
1103.31	4.01284
1103.658	9.02885
