Data from N3 R8 sample 5_Subt2__0__13-56-36-641.txt Node

Date: Mon Sep 22 13:56:36 PDT 2025
User: uwsun
Spectrometer: HDX01956
Trigger mode: 0
Integration Time (sec): 5.000000E-1
Scans to average: 1
Nonlinearity correction enabled: true
Boxcar width: 0
Storing dark spectrum: false
XAxis mode: Wavelengths
Number of Pixels in Spectrum: 2068
>>>>>Begin Spectral Data<<<<<
194.03	-7.02039
194.578	5.01625
195.127	17.05451
195.676	1.00321
196.225	2.00533
196.773	-18.04993
197.321	32.08938
197.87	14.03629
198.418	44.11422
198.966	82.21732
199.513	32.08187
200.061	61.15702
200.609	55.14628
201.156	53.11845
201.704	51.13087
202.251	35.09423
202.798	57.15018
203.345	23.05742
203.892	51.13018
204.438	-34.08156
204.985	72.17305
205.532	52.13892
206.078	54.13338
206.624	28.0706
207.17	66.1538
207.716	33.08227
208.262	22.04433
208.808	58.14698
209.354	58.14441
209.899	85.21803
210.445	59.15044
210.99	63.15529
211.535	28.06617
212.08	85.20162
212.625	41.10395
213.17	-17.04327
213.715	-10.02296
214.259	50.11798
214.804	78.19336
215.348	89.20694
215.892	51.12302
216.436	41.09526
216.98	66.14711
217.524	49.11788
218.068	22.05506
218.612	34.08542
219.155	76.18003
219.698	22.05235
220.242	38.09437
220.785	91.21443
221.328	-10.02531
221.871	-27.06795
222.414	9.02238
222.956	9.02186
223.499	65.14809
224.041	54.12539
224.583	31.06691
225.126	44.09677
225.668	17.04155
226.21	25.06341
226.751	39.08601
227.293	5.01149
227.835	26.06386
228.376	50.11422
228.918	61.15367
229.459	54.13523
230	-9.02161
230.541	28.06476
231.082	0
231.622	15.03452
232.163	56.13628
232.704	48.11895
233.244	20.04985
233.784	62.1506
234.324	30.06576
234.864	23.05202
235.404	73.17329
235.944	56.13434
236.484	-6.01484
237.023	28.06648
237.563	23.05337
238.102	-16.03793
238.641	40.10111
239.18	62.1463
239.719	-9.02253
240.258	18.04035
240.797	34.08191
241.335	49.11958
241.874	-9.0174
242.412	38.09106
242.95	33.08029
243.488	15.03419
244.026	73.17028
244.564	47.09695
245.102	58.13073
245.64	23.0551
246.177	35.07916
246.715	69.16341
247.252	31.07114
247.789	129.23298
248.326	91.21868
248.863	17.0376
249.4	15.03384
249.936	46.09478
250.473	10.02349
251.009	-26.06061
251.546	28.06182
252.082	84.1846
252.618	57.12745
253.154	77.18433
253.69	45.10116
254.226	63.15024
254.761	27.06067
255.297	34.07447
255.832	42.10072
256.367	49.11551
256.903	32.07026
257.438	90.21253
257.972	6.01336
258.507	48.11238
259.042	105.22934
259.576	29.06288
260.111	9.02079
260.645	45.09658
261.179	54.12663
261.713	84.18793
262.247	118.27204
262.781	71.15061
263.315	103.25183
263.849	20.05007
264.382	51.11685
264.915	58.13617
265.449	28.06959
265.982	53.1206
266.515	19.04649
267.048	-12.02536
267.58	2.00436
268.113	13.02806
268.646	57.14148
269.178	93.21223
269.71	43.09372
270.243	-15.03417
270.775	4.01019
271.307	77.18335
271.838	46.10829
272.37	80.19825
272.902	46.1044
273.433	78.16954
273.965	58.1402
274.496	65.16199
275.027	106.26258
275.558	7.0171
276.089	101.25344
276.62	36.09272
277.15	38.09372
277.681	80.17188
278.211	95.23123
278.741	68.15107
279.272	105.2398
279.802	75.18833
280.332	40.09482
280.861	45.1081
281.391	16.03659
281.921	32.07723
282.45	97.24156
282.98	55.1433
283.509	100.22576
284.038	34.07707
284.567	40.09303
285.096	96.23143
285.625	52.11768
286.153	46.10871
286.682	59.13637
287.21	51.12265
287.739	22.05217
288.267	66.16086
288.795	77.20294
289.323	26.06116
289.851	4.00938
290.378	71.16045
290.906	83.20414
291.433	53.13194
291.961	84.18979
292.488	54.13475
293.015	57.13364
293.542	37.09355
294.069	76.18792
294.596	83.20429
295.122	39.0924
295.649	55.1213
296.175	39.09489
296.702	19.04568
297.228	122.29556
297.754	-18.04025
298.28	44.10152
298.806	33.07981
299.332	108.24432
299.857	84.19196
300.383	70.17435
300.908	44.10812
301.433	133.3219
301.958	67.15554
302.483	82.20498
303.008	78.19308
303.533	39.10144
304.058	53.12382
304.582	75.17707
305.107	67.17486
305.631	26.05894
306.155	85.19881
306.679	77.18377
307.203	61.14133
307.727	33.0784
308.251	64.15709
308.775	81.19317
309.298	29.06987
309.822	69.17432
310.345	95.22681
310.868	108.25938
311.391	46.11261
311.914	118.29519
312.437	90.20326
312.96	75.17625
313.482	88.20853
314.005	72.18148
314.527	105.27496
315.049	49.1238
315.571	71.1598
316.093	63.15489
316.615	95.23028
317.137	107.234
317.659	95.23054
318.18	72.17371
318.702	58.13521
319.223	48.09962
319.744	104.23364
320.265	78.19159
320.786	61.15224
321.307	77.19113
321.828	115.25829
322.348	32.07551
322.869	62.14737
323.389	325.5819
323.909	96.21832
324.43	70.16665
324.95	100.2322
325.47	92.22756
325.989	78.18491
326.509	76.16975
327.029	92.20821
327.548	95.21819
328.067	79.19121
328.587	95.23511
329.106	109.24663
329.625	63.16239
330.144	104.23891
330.662	136.31941
331.181	52.12103
331.7	62.14482
332.218	141.30275
332.736	93.21684
333.255	38.08918
333.773	132.31267
334.291	117.28956
334.808	102.22867
335.326	111.25044
335.844	151.35207
336.361	122.30959
336.879	78.18097
337.396	175.41956
337.913	153.35364
338.43	115.2566
338.947	85.20068
339.464	123.26751
339.981	62.1489
340.497	141.34639
341.014	175.42148
341.53	77.17394
342.046	125.30641
342.562	106.26142
343.078	131.30544
343.594	137.32433
344.11	169.3993
344.626	119.29613
345.141	100.2276
345.657	169.37615
346.172	143.34141
346.687	132.30262
347.202	106.235
347.717	177.42209
348.232	100.24681
348.747	176.39976
349.261	131.28552
349.776	134.31299
350.29	155.38346
350.805	172.41652
351.319	167.38508
351.833	125.28064
352.347	170.39769
352.861	121.27901
353.374	143.32158
353.888	148.35436
354.401	134.30535
354.915	153.33828
355.428	183.44757
355.941	184.42165
356.454	184.40401
356.967	137.31817
357.48	200.45372
357.993	159.3812
358.505	171.41527
359.018	153.36458
359.53	231.54789
360.042	220.47979
360.554	138.32739
361.066	133.32202
361.578	181.39131
362.09	198.45847
362.602	172.37527
363.113	169.38674
363.625	143.31696
364.136	128.27774
364.647	191.4448
365.158	278.63039
365.669	163.38229
366.18	211.48963
366.691	206.44888
367.201	192.44475
367.712	260.57399
368.222	215.47535
368.733	232.49394
369.243	233.5061
369.753	230.51753
370.263	210.48702
370.773	211.50297
371.282	211.48265
371.792	247.55293
372.301	236.55575
372.811	251.63521
373.32	291.60404
373.829	253.57755
374.338	278.59959
374.847	267.59745
375.356	263.60859
375.865	330.68331
376.373	326.71727
376.882	301.71939
377.39	308.71059
377.898	327.77045
378.407	326.69647
378.915	395.80893
379.423	349.78477
379.93	432.9117
380.438	384.87317
380.946	431.9369
381.453	420.93915
381.96	469.03264
382.468	402.87591
382.975	518.13286
383.482	517.03879
383.989	516.2
384.495	469.97567
385.002	601.10577
385.509	638.32038
386.015	588.0166
386.521	658.26763
387.028	743.43476
387.534	726.32657
388.04	722.44046
388.546	769.45171
389.051	816.47111
389.557	899.71662
390.063	893.61148
390.568	988.8555
391.073	976.69675
391.578	1077.04382
392.084	1068.86696
392.589	1025.6686
393.093	1184.06921
393.598	1346.13654
394.103	1456.40714
394.607	1525.4238
395.112	1636.61294
395.616	1696.56878
396.12	1901.48113
396.624	2085.65436
397.128	2283.80833
397.632	2544.79327
398.136	2724.55859
398.639	2943.714
399.143	3261.96664
399.646	3691.33342
400.15	4045.01863
400.653	4527.56613
401.156	5116.05811
401.659	5924.87807
402.162	7138.72736
402.664	9326.5886
403.167	13347.48797
403.67	25524.12639
404.172	48415.06322
404.674	31176.06428
405.176	3757.7064
405.678	27.69154
406.18	0
406.682	0
407.184	45159.96023
407.686	58897.86778
408.187	39421.21022
408.688	23325.7273
409.19	16200.86161
409.691	13315.25589
410.192	11255.89949
410.693	9765.30955
411.194	8978.5793
411.694	8413.22135
412.195	7926.57846
412.696	7133.82811
413.196	6671.29917
413.696	6543.72699
414.196	6593.3414
414.696	6470.6508
415.196	6246.61814
415.696	5604.68953
416.196	4470.70223
416.695	3384.53305
417.195	2942.79738
417.694	2782.00588
418.194	2668.17727
418.693	2527.56976
419.192	2451.71644
419.691	2404.70033
420.19	2288.84681
420.688	2303.92801
421.187	2225.2094
421.685	1960.56094
422.184	1848.54156
422.682	1519.10154
423.18	1343.1675
423.678	1178.99221
424.176	1085.84572
424.674	1049.74601
425.172	1008.84033
425.669	983.94788
426.167	899.6496
426.664	808.50797
427.161	743.4279
427.659	602.25411
428.156	671.18851
428.652	593.3105
429.149	618.30631
429.646	519.003
430.143	522.11178
430.639	448.95127
431.135	457.02509
431.632	436.89834
432.128	387.8427
432.624	384.90489
433.12	322.676
433.616	319.63259
434.111	311.68096
434.607	349.76996
435.103	298.57727
435.598	211.39827
436.093	264.57281
436.588	254.52548
437.083	237.4902
437.578	235.50479
438.073	229.53854
438.568	167.38354
439.062	193.3872
439.557	201.44477
440.051	189.40598
440.546	211.46338
441.04	181.41286
441.534	171.41091
442.028	146.32678
442.522	108.2474
443.015	187.3847
443.509	154.35588
444.002	159.36663
444.496	151.31722
444.989	140.32482
445.482	156.3708
445.975	140.30546
446.468	116.23912
446.961	92.18846
447.454	130.28184
447.947	73.16477
448.439	62.14465
448.931	99.2133
449.424	107.2537
449.916	66.15119
450.408	38.08217
450.9	96.22397
451.392	41.0989
451.884	30.06507
452.375	26.06185
452.867	22.04735
453.358	57.1245
453.849	55.11197
454.341	100.2143
454.832	54.11026
455.323	49.11483
455.814	31.06868
456.304	45.09883
456.795	28.06133
457.285	7.01491
457.776	7.01513
458.266	-4.00916
458.756	95.2188
459.247	53.12041
459.737	-5.01148
460.226	63.13714
460.716	11.02503
461.206	3.00692
461.695	35.0834
462.185	56.12601
462.674	14.03091
463.163	45.09633
463.653	17.03417
464.142	-3.00692
464.63	8.01864
465.119	54.12141
465.608	53.11655
466.096	25.05285
466.585	1.00219
467.073	22.05044
467.561	36.08316
468.05	89.19891
468.538	19.04432
469.026	40.09222
469.513	94.1936
470.001	50.1108
470.489	43.09773
470.976	78.17112
471.463	-71.17029
471.951	12.02869
472.438	70.15726
472.925	31.0706
473.412	11.0261
473.899	-11.02429
474.385	-21.04952
474.872	23.05268
475.359	-6.01417
475.845	12.024
476.331	16.03377
476.817	-13.03072
477.303	90.20202
477.789	-2.00469
478.275	5.0121
478.761	10.0232
479.247	21.04503
479.732	6.01454
480.218	46.11549
480.703	-23.05609
481.188	-8.01662
481.673	13.02872
482.158	-10.02112
482.643	3.00735
483.128	-47.10457
483.612	26.05898
484.097	4.00941
484.581	-43.09654
485.066	-41.09597
485.55	-6.01266
486.034	17.0356
486.518	16.0365
487.002	0
487.486	-42.10053
487.969	17.04059
488.453	23.05648
488.936	-2.00444
489.42	-14.02983
489.903	-28.06923
490.386	8.01772
490.869	-3.00634
491.352	15.03577
491.835	-7.01398
492.318	-81.18193
492.8	-44.08887
493.283	-36.08944
493.765	-35.08471
494.247	-58.13121
494.73	-5.01072
495.212	-53.12338
495.694	-46.10597
496.175	-24.05634
496.657	-11.02507
497.139	-51.08557
497.62	-12.02785
498.102	-22.05346
498.583	5.01212
499.064	-34.07459
499.545	-4.00893
500.026	-31.0682
500.507	-65.14761
500.988	-58.13977
501.469	-8.01972
501.949	-56.13567
502.43	-34.08013
502.91	-55.11162
503.39	-46.11169
503.87	33.07564
504.35	-80.18127
504.83	-36.07791
505.31	-36.08498
505.79	-38.08907
506.269	-69.15708
506.749	-2.00449
507.228	-32.07325
507.707	-81.17737
508.187	-66.15252
508.666	-82.1994
509.145	-109.24954
509.623	-61.13982
510.102	-90.21146
510.581	-31.07194
511.059	-59.14431
511.538	-76.1895
512.016	-138.32182
512.494	-61.14497
512.972	-65.1503
513.45	-58.13404
513.928	-89.21159
514.406	-112.26806
514.884	-89.22357
515.361	-150.35311
515.839	-21.04699
516.316	-43.10077
516.793	-79.19573
517.27	-92.2175
517.747	-81.20552
518.224	-66.14797
518.701	-64.13857
519.178	-83.20149
519.654	-112.25893
520.131	-106.25747
520.607	-49.11766
521.083	-90.20127
521.56	-89.20702
522.036	-58.1237
522.512	-85.20371
522.987	-66.15446
523.463	-112.26099
523.939	-87.20755
524.414	-81.18014
524.89	-40.09284
525.365	-85.18644
525.84	-107.25223
526.315	-93.21923
526.79	-83.18098
527.265	-112.24954
527.74	-54.12885
528.215	-129.29829
528.689	-120.25793
529.164	-149.3162
529.638	-100.25242
530.112	-119.27779
530.587	-77.16119
531.061	-151.35719
531.534	-100.2355
532.008	-92.21632
532.482	-82.18217
532.956	-110.27468
533.429	-99.23346
533.903	-102.21839
534.376	-117.25165
534.849	-102.22905
535.322	-117.26764
535.795	-141.33289
536.268	-103.24327
536.741	-132.30953
537.213	-90.19994
537.686	-123.29321
538.158	-89.19653
538.631	-116.27339
539.103	-157.34915
539.575	-142.28521
540.047	-120.25371
540.519	-137.31502
540.991	-94.22249
541.463	-85.20193
541.934	-111.24634
542.406	-132.30614
542.877	-48.10712
543.348	-115.26803
543.82	-91.21668
544.291	-96.21894
544.762	-124.28542
545.233	-101.24666
545.703	-116.25073
546.174	-72.16294
546.645	-92.21809
547.115	-77.18201
547.585	-86.1932
548.056	-91.21618
548.526	-81.18723
548.996	-113.26472
549.466	-98.23518
549.935	-126.29661
550.405	-119.25738
550.875	-134.31188
551.344	-127.29972
551.814	-114.2561
552.283	-98.2082
552.752	-85.1942
553.221	-69.14898
553.69	-101.22284
554.159	-117.28478
554.628	-64.14023
555.096	-86.21397
555.565	-134.29175
556.033	-112.25728
556.502	-121.2859
556.97	-133.28779
557.438	-130.29995
557.906	-160.3671
558.374	-75.16915
558.842	-150.35215
559.31	-161.35046
559.777	-91.21818
560.245	-172.39242
560.712	-146.33162
561.18	-135.29174
561.647	-108.23903
562.114	-104.23392
562.581	-119.28737
563.048	-165.3709
563.514	-164.39551
563.981	-172.38687
564.448	-54.12012
564.914	-106.2393
565.381	-123.27263
565.847	-117.26581
566.313	-126.28469
566.779	-149.33081
567.245	-132.30407
567.711	-141.33663
568.176	-219.48702
568.642	-153.37879
569.108	-138.33331
569.573	-189.43459
570.038	-168.34585
570.504	-124.27319
570.969	-164.40654
571.434	-146.31639
571.899	-182.42409
572.363	-132.29727
572.828	-147.32677
573.293	-168.37973
573.757	-190.42875
574.222	-172.37877
574.686	-130.29013
575.15	-173.4059
575.614	-163.36775
576.078	-107.24722
576.542	-176.39343
577.006	-119.26387
577.469	-127.30274
577.933	-161.3518
578.396	-140.3261
578.86	-167.3817
579.323	-133.31096
579.786	-135.28424
580.249	-177.39558
580.712	-89.21249
581.175	-156.37579
581.637	-170.37751
582.1	-189.40196
582.563	-151.3098
583.025	-167.3984
583.487	-193.38684
583.95	-128.27086
584.412	-82.16713
584.874	-177.41334
585.336	-123.28555
585.797	-116.24396
586.259	-147.33233
586.721	-162.37109
587.182	-181.40185
587.643	-141.30705
588.105	-126.28909
588.566	-148.29987
589.027	-136.3204
589.488	-134.29299
589.949	-126.29477
590.41	-84.15944
590.87	-71.15435
591.331	-100.20512
591.791	-110.24407
592.252	-125.27672
592.712	-68.15646
593.172	-115.24692
593.632	-63.13007
594.092	-21.04441
594.552	-71.14409
595.011	-109.23848
595.471	-96.20128
595.931	-25.05271
596.39	-44.09982
596.849	-53.11635
597.308	22.04425
597.768	-22.05302
598.227	91.20389
598.685	79.16721
599.144	76.16659
599.603	33.07125
600.062	135.26019
600.52	172.34818
600.978	137.29441
601.437	117.23918
601.895	203.38636
602.353	128.25305
602.811	202.39298
603.269	239.50386
603.727	264.56109
604.184	342.67835
604.642	307.6492
605.099	394.7804
605.557	376.78552
606.014	443.80182
606.471	453.9688
606.928	548.97955
607.385	582.21077
607.842	603.11168
608.299	670.23516
608.755	733.41474
609.212	755.31409
609.668	805.37478
610.125	876.62544
610.581	951.67277
611.037	949.57813
611.493	932.64909
611.949	988.80464
612.405	1081.49578
612.861	1112.8518
613.316	1084.86727
613.772	1173.88515
614.227	1189.98654
614.683	1317.83598
615.138	1291.08068
615.593	1303.12254
616.048	1321.02701
616.503	1385.32223
616.958	1353.38632
617.412	1462.32612
617.867	1377.99513
618.321	1386.78263
618.776	1360.95149
619.23	1406.20594
619.684	1396.99995
620.138	1361.04986
620.592	1377.26633
621.046	1379.1527
621.5	1427.35177
621.954	1315.9209
622.407	1315.92442
622.861	1303.23605
623.314	1265.88234
623.768	1245.00495
624.221	1291.69003
624.674	1118.82017
625.127	1202.96741
625.58	1137.79098
626.033	1177.76209
626.485	1110.95279
626.938	1146.97341
627.39	1105.83557
627.843	1066.76714
628.295	1056.78514
628.747	981.72568
629.199	980.64193
629.651	956.64701
630.103	968.66863
630.555	903.41599
631.006	937.66612
631.458	918.67314
631.909	819.40025
632.361	820.47909
632.812	836.51877
633.263	848.37603
633.714	841.35737
634.165	809.53407
634.616	807.51539
635.067	795.36494
635.518	711.34662
635.968	800.20216
636.419	756.26632
636.869	734.39398
637.319	685.27707
637.769	698.2541
638.219	790.46849
638.669	706.37981
639.119	738.45744
639.569	739.46249
640.019	670.24071
640.468	719.29555
640.918	750.45833
641.367	705.24758
641.816	724.28161
642.265	738.37437
642.714	751.37407
643.163	837.50867
643.612	812.60304
644.061	875.45229
644.51	858.54936
644.958	829.41967
645.406	857.61025
645.855	870.66637
646.303	889.59526
646.751	887.55341
647.199	903.58233
647.647	996.74895
648.095	948.67747
648.543	966.42674
648.99	988.82825
649.438	1017.77801
649.885	1030.96483
650.333	1035.39863
650.78	1033.90932
651.227	1006.86347
651.674	1069.80963
652.121	1016.8979
652.568	1037.92435
653.015	1059.00568
653.461	1066.94061
653.908	1062.83216
654.354	1053.85753
654.801	1073.92632
655.247	1042.68456
655.693	1023.10847
656.139	1066.96702
656.585	1053.8826
657.031	1049.85813
657.477	1032.66176
657.922	1120.90906
658.368	1003.89064
658.813	1157.95813
659.259	1085.96384
659.704	1071.8982
660.149	1016.80651
660.594	1008.81443
661.039	1043.79785
661.484	1024.82922
661.929	1032.85111
662.373	1056.08197
662.818	942.81144
663.262	1051.96197
663.707	1050.09231
664.151	1054.9487
664.595	1066.98464
665.039	1018.9316
665.483	1082.12737
665.927	1087.93161
666.371	1056.90008
666.814	1108.96954
667.258	1124.02148
667.701	1176.77379
668.145	1164.15442
668.588	1169.15353
669.031	1206.11883
669.474	1167.09536
669.917	1209.90832
670.36	1224.25798
670.803	1228.14197
671.245	1242.763
671.688	1315.32979
672.13	1333.10313
672.573	1330.43597
673.015	1389.33779
673.457	1463.13845
673.899	1408.36039
674.341	1457.45165
674.783	1427.42284
675.225	1478.51064
675.666	1490.47048
676.108	1649.29436
676.549	1660.58176
676.991	1659.31434
677.432	1714.05065
677.873	1674.48738
678.314	1710.64667
678.755	1728.72272
679.196	1731.52951
679.637	1806.79552
680.078	1751.50501
680.518	1902.639
680.959	1892.76787
681.399	2031.07023
681.839	1959.89789
682.28	2069.09771
682.72	2085.69919
683.16	2046.0906
683.6	2142.66784
684.039	2157.26917
684.479	2191.08673
684.919	2279.89442
685.358	2244.17802
685.798	2394.61961
686.237	2410.01696
686.676	2374.68065
687.115	2628.00649
687.554	2642.0454
687.993	2695.63075
688.432	2664.78378
688.871	2760.8008
689.309	2912.11028
689.748	2937.21444
690.186	3010.02682
690.625	3186.98876
691.063	3053.02263
691.501	3240.18059
691.939	3365.32633
692.377	3456.17406
692.815	3620.04296
693.253	3498.92506
693.69	3668.31791
694.128	3763.9503
694.565	3947.87098
695.003	4067.24701
695.44	4078.6788
695.877	4197.54367
696.314	4363.79413
696.751	4565.19509
697.188	4646.21388
697.625	4714.95759
698.061	4836.4218
698.498	4891.40225
698.934	5042.2411
699.371	5153.06445
699.807	5337.91698
700.243	5394.10633
700.679	5582.50656
701.115	5854.57464
701.551	5841.68073
701.987	5973.23943
702.422	6258.72402
702.858	6396.59122
703.294	6607.28905
703.729	6654.74629
704.164	6853.65717
704.599	6773.17255
705.035	7094.32976
705.47	7344.80789
705.904	7534.66303
706.339	7789.76154
706.774	8016.01922
707.209	8087.05767
707.643	8338.46636
708.078	8505.74226
708.512	8723.1192
708.946	8858.17798
709.38	9005.4185
709.814	9366.1846
710.248	9589.69434
710.682	9808.28647
711.116	9981.73405
711.549	10205.32615
711.983	10381.17778
712.416	10688.26565
712.85	10687.07427
713.283	11213.47811
713.716	11471.36611
714.149	11697.90073
714.582	11885.44076
715.015	12257.42949
715.448	12392.32478
715.881	12632.44439
716.313	13006.13402
716.746	13212.45356
717.178	13589.06652
717.61	13908.86437
718.043	14289.26893
718.475	14536.75295
718.907	14836.01146
719.339	15067.93327
719.77	15461.20404
720.202	15755.69199
720.634	16140.66771
721.065	16515.83836
721.497	16601.16545
721.928	17061.95918
722.359	17212.22003
722.79	17783.38749
723.221	18211.60583
723.652	18512.21784
724.083	18689.95816
724.514	19076.61866
724.945	19600.05721
725.375	19831.34957
725.806	19994.32351
726.236	20030.55774
726.666	20566.82257
727.096	21031.54623
727.526	21434.90732
727.956	21713.94074
728.386	22030.86891
728.816	22147.99457
729.246	22394.42506
729.675	22667.84052
730.105	22654.04198
730.534	22950.22892
730.964	23256.84498
731.393	23571.86927
731.822	23743.6846
732.251	24258.8076
732.68	24258.5387
733.109	24202.05351
733.537	24333.34994
733.966	24582.29882
734.395	24860.76138
734.823	24738.89922
735.251	24648.99296
735.68	24829.99909
736.108	24788.34056
736.536	24669.5558
736.964	24535.64874
737.392	24575.78364
737.82	24649.18402
738.247	24459.20194
738.675	24366.19609
739.102	24227.12581
739.53	23837.72707
739.957	23703.84743
740.384	23700.39536
740.811	23657.80743
741.238	23547.25064
741.665	23209.50484
742.092	22746.93499
742.519	22423.1232
742.945	22269.98179
743.372	22022.6149
743.798	22010.97936
744.225	21608.34275
744.651	21314.13764
745.077	21025.64463
745.503	20814.87943
745.929	20586.92961
746.355	20111.67473
746.781	19814.93293
747.207	19450.20306
747.632	18903.76252
748.058	18704.017
748.483	18755.00108
748.908	18592.86317
749.334	18205.5892
749.759	17751.06614
750.184	17454.65399
750.609	17255.6277
751.033	16875.41931
751.458	16721.8292
751.883	16344.5964
752.307	16104.30054
752.732	15869.9815
753.156	15613.88331
753.58	15186.91501
754.005	15027.82568
754.429	14697.10993
754.853	14159.31795
755.277	14261.96141
755.7	13881.06654
756.124	13653.99713
756.548	13323.20907
756.971	13067.15729
757.394	13056.09612
757.818	12805.35934
758.241	12249.3593
758.664	12140.65083
759.087	11921.51491
759.51	11686.54784
759.933	11511.75761
760.356	11320.44982
760.778	11076.65601
761.201	10768.45749
761.623	10466.31375
762.046	10443.37521
762.468	10232.63021
762.89	9980.7277
763.312	9723.05004
763.734	9493.4658
764.156	9254.95298
764.578	9084.55232
765	8890.23435
765.421	8691.08827
765.843	8550.97376
766.264	8211.26039
766.686	8043.3142
767.107	7937.03145
767.528	7786.18689
767.949	7682.15601
768.37	7384.82492
768.791	7211.67712
769.212	7019.92792
769.632	6892.4391
770.053	6898.26027
770.473	6662.62774
770.894	6560.91886
771.314	6333.41099
771.734	6178.44604
772.154	5984.25441
772.575	5987.44176
772.994	5791.51798
773.414	5764.81906
773.834	5556.19917
774.254	5445.01685
774.673	5432.10945
775.093	5191.50237
775.512	5041.32604
775.931	4908.6385
776.351	4873.55392
776.77	4803.60548
777.189	4656.38466
777.607	4431.02773
778.026	4374.91138
778.445	4259.03478
778.864	4229.14066
779.282	4122.74716
779.701	4055.12165
780.119	3872.16118
780.537	3932.17119
780.955	3700.28478
781.373	3599.09292
781.791	3495.50941
782.209	3482.53686
782.627	3441.69037
783.045	3264.75642
783.462	3241.42897
783.88	3172.58933
784.297	3133.3806
784.715	3023.57823
785.132	2936.1287
785.549	2866.35695
785.966	2790.34062
786.383	2713.23495
786.8	2704.79816
787.217	2584.92967
787.633	2483.30791
788.05	2458.73788
788.466	2449.85064
788.883	2391.42644
789.299	2365.02974
789.715	2236.99631
790.131	2161.04904
790.547	2133.06445
790.963	2171.12034
791.379	2092.18907
791.795	1983.51736
792.21	1998.6777
792.626	1927.70732
793.041	1854.89393
793.457	1863.85264
793.872	1826.66005
794.287	1721.68003
794.702	1674.68024
795.117	1632.73575
795.532	1615.74569
795.947	1444.28425
796.362	1519.38143
796.776	1527.28614
797.191	1396.39081
797.605	1392.29685
798.02	1388.35939
798.434	1309.94365
798.848	1371.42321
799.262	1300.37133
799.676	1198.07849
800.09	1197.16256
800.504	1206.12874
800.918	1146.93683
801.331	1082.18602
801.745	1063.80332
802.158	1022.97869
802.572	1004.8533
802.985	1031.86208
803.398	945.74982
803.811	966.95552
804.224	907.76535
804.637	936.76542
805.05	881.57359
805.462	805.60443
805.875	887.88574
806.288	778.52578
806.7	778.60044
807.112	792.46711
807.525	695.39647
807.937	778.61336
808.349	662.39089
808.761	661.37079
809.173	662.33466
809.584	630.29798
809.996	609.28473
810.408	580.30652
810.819	529.06685
811.231	581.33833
811.642	556.18944
812.053	565.18187
812.464	574.19622
812.875	498.10234
813.286	478.08786
813.697	499.97013
814.108	478.0157
814.519	481.90263
814.929	503.12984
815.34	419.89454
815.75	476.0715
816.16	401.88059
816.571	431.99803
816.981	402.83239
817.391	417.89375
817.801	335.75576
818.211	369.7721
818.62	343.73135
819.03	330.7279
819.44	332.78086
819.849	374.85216
820.259	298.6908
820.668	266.58994
821.077	260.59436
821.486	263.5715
821.895	305.68134
822.304	252.61596
822.713	240.51608
823.122	278.6332
823.531	267.56808
823.939	231.51285
824.348	284.63273
824.756	208.47837
825.164	246.5653
825.573	208.48448
825.981	282.64024
826.389	196.44933
826.797	185.42896
827.205	232.48943
827.612	218.49354
828.02	185.40526
828.428	205.48473
828.835	145.35977
829.243	153.33573
829.65	180.41894
830.057	137.31149
830.464	219.49752
830.871	126.27596
831.278	131.29508
831.685	154.31446
832.092	158.36237
832.499	106.21231
832.905	103.24299
833.312	135.28023
833.718	195.45233
834.124	185.39088
834.531	134.3152
834.937	101.24252
835.343	99.22053
835.749	120.25605
836.155	129.31703
836.561	152.35154
836.966	69.15714
837.372	96.23065
837.777	137.32307
838.183	132.26733
838.588	154.36267
838.993	119.27079
839.399	89.20514
839.804	88.2045
840.209	77.18426
840.613	55.11345
841.018	60.14344
841.423	51.12362
841.828	94.22687
842.232	116.26882
842.637	102.22651
843.041	75.18364
843.445	102.24506
843.849	66.15616
844.253	90.20102
844.657	50.12136
845.061	49.10385
845.465	75.16984
845.869	87.18954
846.272	94.21809
846.676	53.12134
847.079	92.22238
847.483	60.13943
847.886	50.11274
848.289	57.14631
848.692	59.14296
849.095	95.21565
849.498	54.12727
849.901	108.23144
850.304	33.07433
850.707	39.09443
851.109	59.14065
851.512	51.11835
851.914	58.14199
852.316	54.12944
852.718	39.09758
853.121	47.1092
853.523	29.06377
853.925	78.19773
854.326	-3.00724
854.728	60.14841
855.13	49.12269
855.531	66.15058
855.933	25.05721
856.334	-11.02634
856.736	34.0727
857.137	47.10422
857.538	51.12367
857.939	-10.02382
858.34	72.1652
858.741	70.17391
859.142	66.14949
859.542	55.1397
859.943	48.11401
860.343	10.02374
860.744	96.22159
861.144	45.1055
861.544	30.07029
861.945	26.06382
862.345	83.19109
862.745	86.20293
863.145	48.10557
863.544	31.07475
863.944	37.08256
864.344	84.19774
864.743	59.13762
865.143	11.02706
865.542	19.04182
865.941	20.04701
866.34	-18.0409
866.74	2.00515
867.139	85.19561
867.537	56.13506
867.936	18.04098
868.335	36.08784
868.734	54.1321
869.132	-15.03285
869.531	78.17739
869.929	-4.00876
870.327	23.05293
870.726	15.03514
871.124	-45.09924
871.522	28.06868
871.92	2.00463
872.318	5.01164
872.715	19.04463
873.113	20.0464
873.511	38.09078
873.908	9.02215
874.306	-7.01679
874.703	15.03562
875.1	9.02192
875.497	33.075
875.894	-19.045
876.291	42.09729
876.688	53.13203
877.085	-9.02037
877.482	-27.06483
877.878	44.10116
878.275	7.01705
878.671	70.14358
879.068	39.08914
879.464	31.07074
879.86	88.19932
880.256	13.03019
880.652	42.10263
881.048	9.02127
881.444	24.05374
881.84	11.02693
882.236	42.10045
882.631	6.01392
883.027	17.03865
883.422	23.0569
883.817	30.07254
884.213	13.03194
884.608	0
885.003	0
885.398	-2.00482
885.793	6.01454
886.188	29.06942
886.582	-6.01461
886.977	38.0846
887.371	16.03873
887.766	-18.04353
888.16	49.1156
888.554	19.04411
888.949	19.045
889.343	-1.00231
889.737	13.0339
890.131	5.01202
890.525	-13.03195
890.918	9.02175
891.312	29.06575
891.706	44.11067
892.099	0
892.492	20.04008
892.886	26.06106
893.279	-13.03193
893.672	16.03881
894.065	3.00707
894.458	72.17187
894.851	14.03194
895.244	-6.01477
895.637	13.02987
896.029	61.14234
896.422	12.02773
896.814	8.01919
897.206	0
897.599	2.00466
897.991	-26.06006
898.383	-1.00225
898.775	-1.00215
899.167	27.06057
899.559	13.03145
899.951	6.01339
900.342	29.07035
900.734	-20.04811
901.125	-15.03753
901.517	-3.00704
901.908	43.09654
902.299	-9.02122
902.69	-12.027
903.082	-9.02057
903.473	5.01153
903.863	-35.08618
904.254	-13.02878
904.645	-11.02572
905.036	28.0654
905.426	7.01502
905.817	-15.03508
906.207	0
906.597	7.01561
906.987	37.09181
907.378	-13.03144
907.768	-9.02289
908.158	-32.07448
908.547	-28.06885
908.937	20.04905
909.327	-7.01603
909.717	-16.03816
910.106	-30.068
910.495	45.10608
910.885	13.03139
911.274	19.04517
911.663	51.12251
912.052	-33.07673
912.441	-23.05615
912.83	46.10113
913.219	0
913.608	-29.06754
913.997	-16.03888
914.385	-15.03388
914.774	76.17535
915.162	-21.0481
915.55	-24.05431
915.939	35.08506
916.327	10.02395
916.715	50.12409
917.103	-43.09963
917.491	-31.07248
917.878	24.05606
918.266	10.02472
918.654	18.0442
919.041	-30.07624
919.429	-7.01579
919.816	18.04372
920.203	-10.02306
920.591	50.11944
920.978	9.02103
921.365	-52.13112
921.752	-29.06546
922.139	2.00406
922.525	11.02557
922.912	13.03034
923.299	32.07606
923.685	-6.01512
924.072	35.07457
924.458	0
924.844	-20.04752
925.231	28.06177
925.617	23.05663
926.003	32.07764
926.389	8.01927
926.774	-15.03644
927.16	11.02597
927.546	37.09154
927.931	-37.08753
928.317	-55.11957
928.702	-1.00223
929.088	-48.10894
929.473	36.08774
929.858	8.01877
930.243	-27.06228
930.628	-26.06085
931.013	72.17141
931.398	19.04076
931.783	42.10526
932.167	-16.03695
932.552	7.01677
932.937	-40.09405
933.321	-9.02166
933.705	47.11367
934.09	29.06892
934.474	-6.01342
934.858	23.05771
935.242	17.03801
935.626	-18.04434
936.009	8.02071
936.393	1.00244
936.777	22.05448
937.16	-24.06028
937.544	-28.06197
937.927	-27.06604
938.311	-52.11912
938.694	51.12843
939.077	-20.04583
939.46	16.03696
939.843	36.06877
940.226	-23.0569
940.609	-20.04334
940.991	16.0392
941.374	21.04931
941.757	-54.12692
942.139	2.00427
942.522	48.10597
942.904	54.12469
943.286	6.01436
943.668	40.09909
944.05	27.0635
944.432	-8.01891
944.814	27.06367
945.196	24.05674
945.578	-21.04813
945.959	-6.01352
946.341	39.08889
946.722	-12.02664
947.104	33.07497
947.485	38.084
947.866	-39.09454
948.247	-6.0145
948.628	20.0462
949.009	8.01982
949.39	-21.0501
949.771	-19.04132
950.152	3.00704
950.532	4.00963
950.913	24.05502
951.293	-37.09758
951.674	-42.09683
952.054	32.07612
952.434	6.01416
952.814	-13.02944
953.194	-1.00248
953.574	5.01152
953.954	-12.02727
954.334	-24.05698
954.714	-34.08013
955.093	0
955.473	-68.16548
955.853	34.08475
956.232	31.0822
956.611	-5.01136
956.99	25.06078
957.37	31.07585
957.749	-49.11105
958.128	41.09972
958.506	-3.00747
958.885	47.11419
959.264	-15.03546
959.643	-19.04006
960.021	6.01422
960.4	47.10153
960.778	-25.05827
961.156	10.024
961.535	51.11318
961.913	2.00442
962.291	-8.01991
962.669	-4.00973
963.047	6.01472
963.424	-17.0418
963.802	29.06788
964.18	19.04522
964.557	-64.13691
964.935	-3.00671
965.312	-6.01507
965.69	42.0991
966.067	-9.02078
966.444	9.02113
966.821	-17.04221
967.198	-27.06216
967.575	-4.00933
967.952	26.05757
968.329	-7.01645
968.705	25.05013
969.082	17.0423
969.458	-9.02088
969.835	-20.04644
970.211	53.13155
970.587	20.04765
970.963	4.00987
971.339	-2.00504
971.715	-7.01664
972.091	20.04717
972.467	7.01658
972.843	-3.00718
973.219	-32.07156
973.594	-23.05819
973.97	64.14053
974.345	-1.00229
974.721	7.01579
975.096	-23.05312
975.471	-6.01352
975.846	13.02971
976.221	-34.08324
976.596	-33.07552
976.971	-7.01648
977.346	-18.03984
977.72	12.02953
978.095	46.11395
978.469	19.04315
978.844	-25.05935
979.218	-49.11425
979.593	25.05666
979.967	43.09868
980.341	9.0197
980.715	-23.05529
981.089	14.03337
981.463	10.02196
981.837	-23.0543
982.21	-17.03672
982.584	32.07366
982.957	-2.00481
983.331	19.04203
983.704	31.0733
984.078	-12.0286
984.451	-8.01878
984.824	-24.05621
985.197	19.04345
985.57	42.10056
985.943	37.08695
986.316	11.02546
986.688	46.10512
987.061	12.0265
987.434	17.04266
987.806	-16.03681
988.179	34.07635
988.551	15.0362
988.923	42.09926
989.295	60.14147
989.667	-15.03474
990.039	-5.01196
990.411	53.11517
990.783	23.04955
991.155	18.04176
991.527	-34.07826
991.898	3.00716
992.27	18.04265
992.641	-7.0167
993.012	44.09669
993.384	-4.00909
993.755	26.06327
994.126	-2.00462
994.497	3.00707
994.868	31.06662
995.239	3.00684
995.61	-8.01926
995.98	25.05861
996.351	26.0623
996.722	27.05917
997.092	-4.00913
997.462	79.17868
997.833	36.07991
998.203	-10.02293
998.573	19.04571
998.943	30.06668
999.313	-14.03212
999.683	22.05102
1000.053	10.02174
1000.423	6.01399
1000.792	-27.06724
1001.162	43.1016
1001.531	-10.02334
1001.901	22.05233
1002.27	-72.15296
1002.639	-1.00245
1003.009	32.07263
1003.378	5.01225
1003.747	8.01821
1004.116	-51.11779
1004.485	14.03204
1004.853	5.01206
1005.222	27.06451
1005.591	-36.08081
1005.959	45.09862
1006.328	76.16357
1006.696	31.07257
1007.064	31.07401
1007.433	-11.02608
1007.801	72.16646
1008.169	63.15202
1008.537	-13.02678
1008.905	5.0112
1009.273	-4.00938
1009.64	30.06789
1010.008	28.06383
1010.375	-56.12529
1010.743	22.04664
1011.11	39.08839
1011.478	46.10753
1011.845	26.05771
1012.212	13.02768
1012.579	19.04439
1012.946	66.14583
1013.313	35.07829
1013.68	-9.01866
1014.047	-1.00228
1014.414	49.11069
1014.78	27.06389
1015.147	14.03203
1015.513	63.14417
1015.88	-7.01704
1016.246	45.10488
1016.612	32.06834
1016.978	-14.03265
1017.344	-23.05407
1017.71	-65.14791
1018.076	10.02213
1018.442	22.05412
1018.808	7.01694
1019.174	-25.06067
1019.539	38.08076
1019.905	92.2088
1020.27	68.16045
1020.636	-5.01124
1021.001	56.12782
1021.366	0
1021.731	25.06106
1022.096	31.07551
1022.461	9.02025
1022.826	48.10819
1023.191	-28.07101
1023.556	26.05779
1023.92	23.05346
1024.285	44.10217
1024.649	13.03011
1025.014	-9.02117
1025.378	9.02172
1025.742	33.0787
1026.107	8.01687
1026.471	31.06693
1026.835	96.22924
1027.199	20.04596
1027.562	72.15843
1027.926	13.03002
1028.29	0
1028.654	-8.01737
1029.017	-4.00935
1029.381	48.11026
1029.744	17.04163
1030.107	-10.02217
1030.471	55.12505
1030.834	37.07934
1031.197	-29.0653
1031.56	-9.0202
1031.923	15.03723
1032.286	24.05219
1032.648	28.06342
1033.011	33.07254
1033.374	-38.08319
1033.736	-13.03309
1034.099	-23.05352
1034.461	67.16308
1034.823	-19.04543
1035.185	24.05771
1035.548	22.05086
1035.91	33.07436
1036.272	10.02142
1036.634	7.01608
1036.995	-7.01559
1037.357	-30.06972
1037.719	23.05299
1038.08	-17.03812
1038.442	40.09126
1038.803	-7.01605
1039.165	13.03139
1039.526	-12.02747
1039.887	14.03217
1040.248	31.07333
1040.609	18.04221
1040.97	23.05413
1041.331	21.05094
1041.692	-5.01119
1042.053	2.00429
1042.413	28.06179
1042.774	0
1043.134	-8.01787
1043.495	-9.02154
1043.855	-6.01374
1044.215	16.03812
1044.576	44.10035
1044.936	12.02572
1045.296	-9.02127
1045.656	-9.02084
1046.016	32.07266
1046.375	14.03244
1046.735	23.05019
1047.095	1.00223
1047.454	-42.08222
1047.814	92.21007
1048.173	57.12555
1048.533	-13.02847
1048.892	33.07688
1049.251	48.11401
1049.61	-1.00233
1049.969	21.04678
1050.328	-8.01622
1050.687	4.0093
1051.046	33.07667
1051.405	-35.08334
1051.763	15.03276
1052.122	-8.01923
1052.48	39.09161
1052.839	-5.01115
1053.197	-5.01117
1053.555	63.132
1053.914	8.01854
1054.272	32.07342
1054.63	22.05159
1054.988	31.07051
1055.345	33.06627
1055.703	30.06845
1056.061	6.01481
1056.419	8.02003
1056.776	37.08512
1057.134	33.07229
1057.491	50.11931
1057.848	-29.06823
1058.206	-76.16905
1058.563	4.00829
1058.92	-18.03914
1059.277	41.09526
1059.634	26.05774
1059.991	-56.12467
1060.348	41.0883
1060.704	30.06889
1061.061	57.12281
1061.418	13.0305
1061.774	-26.06164
1062.131	2.00517
1062.487	19.0425
1062.843	42.09995
1063.199	-30.07134
1063.555	2.00443
1063.911	14.03397
1064.267	-36.06997
1064.623	-46.10736
1064.979	-35.0768
1065.335	-9.01999
1065.691	-68.1537
1066.046	21.04344
1066.402	11.02403
1066.757	18.04325
1067.112	7.01626
1067.468	-19.04338
1067.823	41.09368
1068.178	45.10199
1068.533	-2.00463
1068.888	-16.03614
1069.243	-8.01878
1069.598	16.03706
1069.952	-1.00215
1070.307	-16.03847
1070.662	-42.09509
1071.016	51.10884
1071.371	-18.03879
1071.725	-23.05136
1072.079	49.1129
1072.434	-13.03019
1072.788	13.02929
1073.142	-50.11578
1073.496	-7.01574
1073.85	6.01311
1074.203	4.00914
1074.557	-22.05658
1074.911	34.07541
1075.265	31.06834
1075.618	31.0716
1075.971	29.06612
1076.325	27.06535
1076.678	-12.02624
1077.031	12.02575
1077.385	33.06737
1077.738	13.028
1078.091	0
1078.444	36.07868
1078.796	31.07288
1079.149	28.06679
1079.502	-18.04072
1079.855	19.04182
1080.207	-10.02341
1080.56	-24.06017
1080.912	-27.06258
1081.264	-31.07117
1081.617	-7.01628
1081.969	16.03885
1082.321	59.13703
1082.673	-36.07845
1083.025	-4.00891
1083.377	-28.05536
1083.728	64.14047
1084.08	-21.04997
1084.432	12.02768
1084.783	-52.11567
1085.135	28.0673
1085.486	23.05024
1085.838	-10.02359
1086.189	5.01161
1086.54	0
1086.891	-4.00971
1087.242	-19.04397
1087.593	16.0363
1087.944	42.09008
1088.295	16.03404
1088.646	-58.13361
1088.996	8.01852
1089.347	-20.04673
1089.698	5.0113
1090.048	24.05987
1090.398	16.03476
1090.749	44.09974
1091.099	13.03193
1091.449	39.09286
1091.799	-3.00715
1092.149	-48.11467
1092.499	-11.02577
1092.849	15.03659
1093.199	22.05201
1093.548	30.0685
1093.898	16.0385
1094.248	-11.02704
1094.597	29.07256
1094.947	23.05922
1095.296	29.06892
1095.645	-9.0223
1095.994	-17.03836
1096.343	-24.05696
1096.692	-37.09424
1097.041	50.13287
1097.39	10.02403
1097.739	10.0249
1098.088	5.0127
1098.437	22.05638
1098.785	60.15683
1099.134	-7.01769
1099.482	-24.0635
1099.83	37.09401
1100.179	-10.02549
1100.527	43.11061
1100.875	35.08956
1101.223	23.05871
1101.571	21.05659
1101.919	14.03577
1102.267	15.04142
1102.615	3.00964
1102.962	-14.04495
1103.31	7.02247
1103.658	0
