Data from N3 R8 sample 9_Subt2__0__13-39-21-664.txt Node

Date: Mon Sep 22 13:39:21 PDT 2025
User: uwsun
Spectrometer: HDX01956
Trigger mode: 0
Integration Time (sec): 5.000000E-1
Scans to average: 1
Nonlinearity correction enabled: true
Boxcar width: 0
Storing dark spectrum: false
XAxis mode: Wavelengths
Number of Pixels in Spectrum: 2068
>>>>>Begin Spectral Data<<<<<
194.03	7.02035
194.578	9.02923
195.127	3.00964
195.676	-1.00321
196.225	27.07164
196.773	-32.08896
197.321	26.07269
197.87	13.03371
198.418	39.10133
198.966	66.17539
199.513	46.1174
200.061	33.08536
200.609	43.11459
201.156	49.1096
201.704	37.09517
202.251	67.17943
202.798	65.17103
203.345	58.14389
203.892	56.14282
204.438	-51.12274
204.985	36.08712
205.532	30.08044
206.078	63.15535
206.624	39.09814
207.17	41.09601
207.716	58.14394
208.262	59.11787
208.808	96.24163
209.354	79.19595
209.899	81.20792
210.445	46.11756
210.99	69.16989
211.535	44.10366
212.08	122.28731
212.625	46.11653
213.17	21.05309
213.715	30.06834
214.259	81.18998
214.804	60.14923
215.348	81.18864
215.892	54.13018
216.436	32.07448
216.98	56.12508
217.524	56.13454
218.068	21.05256
218.612	44.11035
219.155	76.18003
219.698	0
220.242	20.04983
220.785	80.18891
221.328	71.17707
221.871	-4.01002
222.414	27.06692
222.956	37.08939
223.499	74.16829
224.041	77.17798
224.583	36.07761
225.126	68.14881
225.668	19.04642
226.21	18.04571
226.751	52.11437
227.293	48.10938
227.835	18.04428
228.376	-3.00693
228.918	84.21074
229.459	67.1674
230	26.06202
230.541	26.06016
231.082	39.09418
231.622	25.05742
232.163	56.13628
232.704	10.02495
233.244	32.07959
233.784	48.1169
234.324	28.0614
234.864	14.03172
235.404	41.09793
235.944	121.28667
236.484	12.02957
237.023	41.0971
237.563	75.17225
238.102	3.00709
238.641	41.10362
239.18	39.09244
239.719	27.06714
240.258	44.09812
240.797	56.13434
241.335	56.13648
241.874	21.04032
242.412	0
242.95	44.10684
243.488	70.15777
244.026	70.16338
244.564	73.1497
245.102	64.14407
245.64	43.10262
246.177	42.09486
246.715	52.12356
247.252	46.10525
247.789	130.23473
248.326	39.09464
248.863	4.00887
249.4	12.02709
249.936	28.05793
250.473	48.1119
251.009	-5.01161
251.546	57.12508
252.082	61.1347
252.618	52.11639
253.154	36.08685
253.69	51.1145
254.226	60.14317
254.761	25.0562
255.297	13.0286
255.832	65.15519
256.367	43.10148
256.903	39.08551
257.438	81.19161
257.972	2.00446
258.507	106.24535
259.042	31.06877
259.576	19.04129
260.111	4.00925
260.645	48.10295
261.179	59.13822
261.713	62.13934
262.247	75.17439
262.781	71.15061
263.315	95.23261
263.849	15.03759
264.382	41.09413
264.915	76.1778
265.449	31.077
265.982	52.11835
266.515	34.08296
267.048	36.07528
267.58	7.01524
268.113	-9.01952
268.646	72.17823
269.178	109.24793
269.71	45.09804
270.243	-7.01592
270.775	34.08619
271.307	21.05054
271.838	74.17325
272.37	86.21288
272.902	46.1044
273.433	74.16098
273.965	45.10904
274.496	79.19638
275.027	80.19911
275.558	44.10676
276.089	72.18161
276.62	76.19437
277.15	47.11572
277.681	2.00437
278.211	73.17841
278.741	41.0916
279.272	119.27101
279.802	86.21553
280.332	33.07834
280.861	47.11286
281.391	58.13153
281.921	64.15353
282.45	88.2195
282.98	72.18704
283.509	78.17688
284.038	8.01823
284.567	60.13899
285.096	70.16958
285.625	1.00229
286.153	78.18319
286.682	67.15462
287.21	16.03873
287.739	82.19221
288.267	86.20882
288.795	89.23409
289.323	77.17932
289.851	44.10241
290.378	52.11797
290.906	89.21865
291.433	76.1884
291.961	50.11375
292.488	49.12238
293.015	81.18901
293.542	44.1111
294.069	52.12914
294.596	65.16052
295.122	12.02858
295.649	82.17982
296.175	65.15738
296.702	-2.00483
297.228	108.26233
297.754	0
298.28	87.19901
298.806	78.18704
299.332	98.22215
299.857	69.15816
300.383	36.09022
300.908	35.08615
301.433	89.21719
301.958	110.25319
302.483	59.1481
303.008	79.19552
303.533	72.1862
304.058	44.10298
304.582	60.14207
305.107	72.18775
305.631	62.13951
306.155	95.22177
306.679	122.28865
307.203	39.09076
307.727	73.17208
308.251	75.18371
308.775	72.172
309.298	39.09379
309.822	87.21909
310.345	131.3106
310.868	95.22872
311.391	39.0956
311.914	50.12661
312.437	93.20991
312.96	83.19474
313.482	99.2341
314.005	86.21622
314.527	82.21557
315.049	60.15129
315.571	60.13534
316.093	72.17672
316.615	93.22552
317.137	116.2532
317.659	98.23769
318.18	99.23763
318.702	73.16967
319.223	84.17293
319.744	119.26651
320.265	121.29484
320.786	123.30352
321.307	88.21799
321.828	66.14973
322.348	47.11058
322.869	97.22901
323.389	148.27709
323.909	90.20492
324.43	119.28063
324.95	166.38041
325.47	121.2977
325.989	106.24992
326.509	136.3
327.029	76.17256
327.548	149.3385
328.067	147.35123
328.587	90.22294
329.106	108.24441
329.625	83.2132
330.144	78.18011
330.662	196.45492
331.181	70.16235
331.7	112.25903
332.218	137.29441
332.736	133.30766
333.255	104.24091
333.773	132.31267
334.291	158.38808
334.808	137.30493
335.326	178.39609
335.844	142.33167
336.361	175.4399
336.879	99.22874
337.396	146.35197
337.913	217.49517
338.43	132.29349
338.947	121.28368
339.464	174.37432
339.981	155.36566
340.497	153.37504
341.014	160.38645
341.53	135.30135
342.046	191.46244
342.562	166.40487
343.078	175.40449
343.594	187.4384
344.11	228.53253
344.626	155.38318
345.141	173.38792
345.657	228.50124
346.172	158.37613
346.687	141.32267
347.202	144.31671
347.717	245.57661
348.232	144.35252
348.747	207.46721
349.261	191.41098
349.776	195.45
350.29	192.47176
350.805	154.3742
351.319	242.54966
351.833	169.37599
352.347	189.44049
352.861	173.39478
353.374	230.50798
353.888	186.44211
354.401	202.45397
354.915	173.38089
355.428	189.46173
355.941	180.41282
356.454	254.54947
356.967	209.47846
357.48	269.60168
357.993	215.50995
358.505	231.55465
359.018	210.49492
359.53	198.47262
360.042	236.51294
360.554	229.53371
361.066	270.6368
361.578	279.59051
362.09	210.48509
362.602	225.48539
363.113	237.53492
363.625	241.52325
364.136	256.54029
364.647	288.65783
365.158	279.63253
365.669	294.67181
366.18	283.64732
366.691	308.65659
367.201	254.58112
367.712	288.63207
368.222	246.54036
368.733	285.59978
369.243	289.62024
369.753	325.71702
370.263	299.68117
370.773	284.66747
371.282	285.64219
371.792	329.72402
372.301	313.726
372.811	327.81627
373.32	361.73763
373.829	323.72691
374.338	405.84966
374.847	399.86845
375.356	437.97615
375.865	481.96231
376.373	432.92929
376.882	398.9335
377.39	439.98628
377.898	450.03269
378.407	450.93552
378.915	534.05746
379.423	494.07573
379.93	527.08717
380.438	509.12603
380.946	606.26637
381.453	607.30291
381.96	608.30029
382.468	657.35217
382.975	674.42608
383.482	716.37361
383.989	739.64366
384.495	784.51514
385.002	806.40788
385.509	846.67026
386.015	892.42011
386.521	968.72804
387.028	1087.92863
387.534	1014.72038
388.04	1055.94426
388.546	1165.98978
389.051	1134.88137
389.557	1321.2683
390.063	1319.12612
390.568	1373.33811
391.073	1426.19148
391.578	1544.60533
392.084	1609.4247
392.589	1610.20739
393.093	1735.60933
393.598	1895.55875
394.103	2149.91076
394.607	2344.91332
395.112	2522.08907
395.616	2598.96805
396.12	2850.66682
396.624	3106.74978
397.128	3507.75307
397.632	3854.52219
398.136	4085.10755
398.639	4360.16854
399.143	4942.19667
399.646	5582.34336
400.15	6125.03334
400.653	6829.88962
401.156	7731.32902
401.659	8969.31406
402.162	11083.26033
402.664	15063.37456
403.167	22561.26587
403.67	49100.55891
404.172	51054.34289
404.674	31176.06428
405.176	3757.7064
405.678	27.69154
406.18	0
406.682	0
407.184	45159.96023
407.686	58897.86778
408.187	53304.25713
408.688	32482.73867
409.19	23091.1904
409.691	18838.59301
410.192	15969.16946
410.693	13928.83466
411.194	12574.58958
411.694	11916.32169
412.195	11011.40577
412.696	10010.40519
413.196	9371.64669
413.696	9302.14362
414.196	9356.53484
414.696	9017.45261
415.196	8316.06462
415.696	7338.91719
416.196	5897.01846
416.695	4587.95042
417.195	4158.37576
417.694	3940.53502
418.194	3754.81234
418.693	3494.39673
419.192	3481.59293
419.691	3326.633
420.19	3317.8579
420.688	3095.99801
421.187	3059.13891
421.685	2709.73919
422.184	2492.77592
422.682	2174.42074
423.18	1860.58445
423.678	1745.51478
424.176	1524.29452
424.674	1482.18171
425.172	1374.28064
425.669	1405.51301
426.167	1268.11403
426.664	1090.89458
427.161	1000.80458
427.659	969.85586
428.156	924.53094
428.652	812.71312
429.149	834.68038
429.646	769.39858
430.143	764.54271
430.639	761.50398
431.135	649.39915
431.632	641.25821
432.128	570.19103
432.624	562.27624
433.12	514.03156
433.616	508.96294
434.111	464.98309
434.607	484.03562
435.103	521.95555
435.598	400.72009
436.093	408.85804
436.588	336.68234
437.083	315.64013
437.578	367.76587
438.073	325.74995
438.568	296.6622
439.062	278.54677
439.557	298.64603
440.051	290.60936
440.546	306.65856
441.04	283.6322
441.534	280.65884
442.028	214.47225
442.522	211.47332
443.015	219.44728
443.509	239.54295
444.002	190.4354
444.496	229.4728
444.989	186.42761
445.482	225.52769
445.975	198.42669
446.468	193.39096
446.961	212.42247
447.454	203.43323
447.947	151.33539
448.439	151.3461
448.931	129.27614
449.424	153.35954
449.916	152.34217
450.408	90.19245
450.9	135.31254
451.392	125.29672
451.884	108.23034
452.375	78.18369
452.867	113.23844
453.358	121.2607
453.849	141.28144
454.341	122.2602
454.832	60.12235
455.323	110.25471
455.814	97.21195
456.304	72.15723
456.795	106.22833
457.285	119.24724
457.776	76.16188
458.266	96.21531
458.756	155.3527
459.247	80.18075
459.737	112.2512
460.226	153.32667
460.716	37.08375
461.206	57.13007
461.695	74.17502
462.185	94.20987
462.674	80.17418
463.163	88.18663
463.653	86.1701
464.142	34.07789
464.63	99.22655
465.119	129.28557
465.608	23.0509
466.096	74.15474
466.585	41.08891
467.073	55.12526
467.561	37.08546
468.05	98.21862
468.538	16.03734
469.026	79.18071
469.513	84.17339
470.001	112.24499
470.489	24.05476
470.976	27.05987
471.463	25.05886
471.951	35.08331
472.438	63.14173
472.925	106.23774
473.412	70.16421
473.899	31.06785
474.385	-3.00705
474.872	35.07997
475.359	44.10294
475.845	85.16714
476.331	40.08398
476.817	50.1167
477.303	81.18215
477.789	52.12065
478.275	43.10333
478.761	45.10368
479.247	-13.02808
479.732	11.02662
480.218	42.10552
480.703	49.11788
481.188	0
481.673	25.05509
482.158	15.03151
482.643	2.0049
483.128	-24.05314
483.612	23.05221
484.097	18.04221
484.581	16.03549
485.066	-45.10542
485.55	4.00842
486.034	26.05434
486.518	7.016
487.002	57.13614
487.486	-13.03094
487.969	18.04297
488.453	5.01232
488.936	26.05733
489.42	-1.00212
489.903	9.0221
490.386	29.06396
490.869	25.05252
491.352	45.1067
491.835	8.01592
492.318	36.07891
492.8	29.05759
493.283	-10.02473
493.765	24.05744
494.247	-35.07881
494.73	-10.02146
495.212	-83.19436
495.694	-21.04813
496.175	11.02565
496.657	-9.0205
497.139	-44.07369
497.62	-32.07457
498.102	-7.01696
498.583	-39.09532
499.064	-17.03716
499.545	-4.00893
500.026	-34.07484
500.507	-54.12236
500.988	-55.13247
501.469	-25.0618
501.949	1.0024
502.43	-25.05882
502.91	-21.04229
503.39	-28.06776
503.87	31.07108
504.35	-58.13083
504.83	-1.00215
505.31	-58.13749
505.79	-79.18666
506.269	-64.14555
506.749	-23.05191
507.228	-33.07555
507.707	-1.00215
508.187	-49.11286
508.666	-56.13552
509.145	-82.18671
509.623	-62.14214
510.102	-83.19474
510.581	-34.07895
511.059	-56.13689
511.538	-99.24788
512.016	-97.22439
512.494	-25.059
512.972	-111.25901
513.45	-43.09908
513.928	-53.12513
514.406	-96.22907
514.884	-95.2389
515.361	-87.20229
515.839	-38.08533
516.316	-55.1292
516.793	-27.06626
517.27	-96.22714
517.747	-57.14401
518.224	-93.20965
518.701	-83.18044
519.178	-77.18672
519.654	-75.17212
520.131	-89.21549
520.607	-62.14924
521.083	-133.30007
521.56	-69.15987
522.036	-45.0957
522.512	-84.20128
522.987	-66.15446
523.463	-102.23722
523.939	-94.22455
524.414	-77.1711
524.89	-83.19429
525.365	-111.2448
525.84	-107.25223
526.315	-63.14764
526.79	-89.19431
527.265	-106.23588
527.74	-77.18454
528.215	-99.22756
528.689	-111.23813
529.164	-78.16296
529.638	-75.18847
530.112	-101.23494
530.587	-68.14207
531.061	-94.21991
531.534	-135.32009
532.008	-85.19959
532.482	-83.18443
532.956	-98.24418
533.429	-84.19751
533.903	-112.24032
534.376	-96.20555
534.849	-127.28665
535.322	-169.39062
535.795	-128.30144
536.268	-89.20964
536.741	-153.36024
537.213	-98.21808
537.686	-124.29565
538.158	-120.2667
538.631	-110.25895
539.103	-123.27161
539.575	-138.27692
540.047	-105.22127
540.519	-161.37199
540.991	-79.18644
541.463	-90.21401
541.934	-129.28736
542.406	-132.30614
542.877	-43.09587
543.348	-141.33031
543.82	-100.23852
544.291	-56.12668
544.762	-145.33515
545.233	-87.21192
545.703	-116.25073
546.174	-128.29298
546.645	-106.25196
547.115	-54.12707
547.585	-81.18178
548.056	-122.29155
548.526	-101.23438
548.996	-129.30314
549.466	-66.15742
549.935	-80.18664
550.405	-96.20662
550.875	-127.29518
551.344	-107.25154
551.814	-102.22858
552.283	-18.03757
552.752	-117.26904
553.221	-47.101
553.69	-73.16012
554.159	-89.21549
554.628	-129.28652
555.096	-86.21397
555.565	-79.16999
556.033	-64.14561
556.502	-113.26658
556.97	-87.1864
557.438	-115.26454
557.906	-116.2638
558.374	-98.22206
558.842	-116.27052
559.31	-129.27889
559.777	-48.11414
560.245	-100.22484
560.712	-49.10911
561.18	-117.25187
561.647	-108.23903
562.114	-85.19044
562.581	-109.26272
563.048	-117.26041
563.514	-134.32133
563.981	-112.24882
564.448	-28.06195
564.914	-127.28794
565.381	-44.09592
565.847	-119.27046
566.313	-125.28237
566.779	-103.22649
567.245	-123.28283
567.711	-94.2224
568.176	-101.21911
568.642	-104.25517
569.108	-113.27164
569.573	-131.29773
570.038	-124.25274
570.504	-52.11283
570.969	-80.19527
571.434	-86.18398
571.899	-101.2316
572.363	-34.07503
572.828	-59.12876
573.293	-113.25255
573.757	-86.18995
574.222	-56.12032
574.686	-69.15205
575.15	-33.07531
575.614	-48.10575
576.078	-46.10499
576.542	-47.10226
577.006	-37.08064
577.469	-59.13881
577.933	-61.13047
578.396	-65.14917
578.86	-97.21858
579.323	-62.14294
579.786	-31.06377
580.249	-118.26051
580.712	-34.08032
581.175	-52.12279
581.637	-93.20321
582.1	-80.1661
582.563	-130.26545
583.025	-47.10954
583.487	-77.15019
583.95	-72.15049
584.412	-33.06651
584.874	-134.31028
585.336	-56.12828
585.797	-118.24828
586.259	-116.26059
586.721	-103.23315
587.182	-124.27204
587.643	-102.22028
588.105	-97.22126
588.566	-88.17585
589.027	-69.16044
589.488	-116.25266
589.949	-60.13855
590.41	-47.08841
590.87	-68.14774
591.331	-79.16128
591.791	-78.17192
592.252	-106.23373
592.712	-69.15879
593.172	-122.26235
593.632	-50.10293
594.092	-81.17354
594.552	-76.15441
595.011	-117.25641
595.471	-88.18418
595.931	-58.12316
596.39	-44.09982
596.849	-62.13636
597.308	-64.13128
597.768	-68.1653
598.227	-7.016
598.685	6.0129
599.144	-1.00223
599.603	-59.1299
600.062	-8.01595
600.52	-34.07207
600.978	6.01326
601.437	33.06875
601.895	48.09481
602.353	1.00204
602.811	23.04666
603.269	49.10761
603.727	57.1266
604.184	121.2524
604.642	73.16228
605.099	112.23649
605.557	118.26062
606.014	155.30119
606.471	110.25269
606.928	219.42474
607.385	237.53164
607.842	208.42202
608.299	239.48879
608.755	272.58363
609.212	255.50307
609.668	283.55175
610.125	339.71372
610.581	347.70741
611.037	282.55568
611.493	361.73428
611.949	396.83207
612.405	359.61334
612.861	407.80974
613.316	334.69097
613.772	344.6836
614.227	408.82818
614.683	448.7995
615.138	342.70023
615.593	439.88927
616.048	425.82586
616.503	448.94422
616.958	418.91772
617.412	429.88531
617.867	396.74951
618.321	419.71897
618.776	386.72379
619.23	372.75959
619.684	331.63368
620.138	376.73499
620.592	359.75882
621.046	371.75015
621.5	393.83432
621.954	345.65569
622.407	325.62159
622.861	324.70239
623.314	227.44509
623.768	269.55389
624.221	321.55934
624.674	249.50486
625.127	302.61918
625.58	266.52514
626.033	270.51577
626.485	229.49614
626.938	228.48922
627.39	225.46496
627.843	205.42116
628.295	234.48432
628.747	206.4363
629.199	255.51253
629.651	203.42044
630.103	169.35378
630.555	168.32014
631.006	212.44822
631.458	189.40843
631.909	137.27752
632.361	108.23054
632.812	144.30792
633.263	136.26534
633.714	116.22599
634.165	97.21608
634.616	131.28721
635.067	128.25935
635.518	120.26038
635.968	158.28382
636.419	71.14145
636.869	95.20873
637.319	125.26573
637.769	124.25596
638.219	86.18804
638.669	171.37696
639.119	164.36782
639.569	136.3074
640.019	90.19103
640.468	94.19674
640.918	93.20931
641.367	57.11806
641.816	137.27994
642.265	139.29768
642.714	83.17768
643.163	137.29149
643.612	111.25534
644.061	158.31456
644.51	118.25364
644.958	125.25484
645.406	60.13496
645.855	109.24733
646.303	122.26235
646.751	51.10908
647.199	89.18953
647.647	140.30131
648.095	155.33123
648.543	163.30042
648.99	144.32283
649.438	102.22151
649.885	117.27269
650.333	145.25411
650.78	100.22806
651.227	85.19373
651.674	134.28468
652.121	134.30511
652.568	102.23347
653.015	106.24769
653.461	144.32363
653.908	118.25506
654.354	62.1378
654.801	188.41453
655.247	149.30211
655.693	90.22441
656.139	118.26955
656.585	103.22944
657.031	96.21239
657.477	82.16789
657.922	143.30823
658.368	93.21454
658.813	132.2858
659.259	94.21325
659.704	85.18942
660.149	107.23529
660.594	93.20682
661.039	139.29768
661.484	71.15816
661.929	112.24861
662.373	60.14601
662.818	60.13993
663.262	95.21941
663.707	111.26957
664.151	95.21784
664.595	127.29168
665.039	47.11032
665.483	84.20404
665.927	116.25824
666.371	67.15123
666.814	26.05922
667.258	71.16235
667.701	131.26014
668.145	112.26191
668.588	83.19467
669.031	121.27333
669.474	83.1907
669.917	121.25139
670.36	69.16417
670.803	118.26639
671.245	71.13855
671.688	146.33753
672.13	82.17648
672.573	101.24234
673.015	119.26991
673.457	161.33077
673.899	95.2167
674.341	127.29145
674.783	129.29616
675.225	87.20349
675.666	107.24545
676.108	157.32444
676.549	116.26231
676.991	144.29965
677.432	148.27997
677.873	121.2654
678.314	156.35218
678.755	117.27054
679.196	159.34596
679.637	144.33211
680.078	97.21159
680.518	149.32475
680.959	80.18289
681.399	93.22255
681.839	179.40946
682.28	155.36679
682.72	159.34301
683.16	124.29565
683.6	149.31799
684.039	130.2517
684.479	148.34501
684.919	140.31154
685.358	89.21265
685.798	210.52493
686.237	149.33658
686.676	64.13745
687.115	222.48867
687.554	210.46672
687.993	168.34678
688.432	174.37014
688.871	159.34036
689.309	227.50732
689.748	162.30825
690.186	220.48569
690.625	246.53877
691.063	209.46247
691.501	181.4152
691.939	256.59369
692.377	232.52993
692.815	223.50394
693.253	223.4918
693.69	213.4293
694.128	206.46429
694.565	262.58348
695.003	267.63082
695.44	268.58447
695.877	278.59805
696.314	315.60129
696.751	315.65678
697.188	275.58434
697.625	264.54323
698.061	319.70378
698.498	330.72759
698.934	279.61503
699.371	309.66544
699.807	314.67054
700.243	329.72371
700.679	371.74568
701.115	372.77131
701.551	383.80564
701.987	301.60164
702.422	443.94823
702.858	355.76154
703.294	465.92341
703.729	453.98387
704.164	424.91365
704.599	438.85214
705.035	438.87202
705.47	473.02098
705.904	529.07077
706.339	531.05323
706.774	508.03452
707.209	501.01074
707.643	557.16717
708.078	613.30506
708.512	576.27898
708.946	585.20595
709.38	578.17093
709.814	542.04578
710.248	667.38879
710.682	647.29869
711.116	701.44802
711.549	610.35961
711.983	664.28227
712.416	699.36708
712.85	667.39002
713.283	726.4203
713.716	762.57453
714.149	724.4097
714.582	740.33109
715.015	814.68583
715.448	850.72441
715.881	809.37867
716.313	796.50094
716.746	802.53593
717.178	872.67905
717.61	886.80895
718.043	968.90519
718.475	903.76504
718.907	969.92814
719.339	1013.77842
719.77	928.74005
720.202	1037.07732
720.634	1021.95467
721.065	1041.87923
721.497	1089.0117
721.928	1079.06051
722.359	1088.02531
722.79	1132.07219
723.221	1230.33103
723.652	1224.35328
724.083	1216.99927
724.514	1230.06933
724.945	1223.13488
725.375	1265.17742
725.806	1326.38141
726.236	1336.52759
726.666	1360.27574
727.096	1383.39796
727.526	1394.5638
727.956	1383.14035
728.386	1476.51391
728.816	1439.64489
729.246	1467.47522
729.675	1458.52672
730.105	1548.57435
730.534	1499.31751
730.964	1607.74362
731.393	1599.6793
731.822	1568.72701
732.251	1628.82021
732.68	1664.51231
733.109	1681.73759
733.537	1673.67637
733.966	1614.69515
734.395	1620.38597
734.823	1694.33492
735.251	1599.58851
735.68	1648.70042
736.108	1727.91264
736.536	1704.51592
736.964	1719.53
737.392	1743.86771
737.82	1798.72857
738.247	1727.58332
738.675	1713.5332
739.102	1712.80163
739.53	1700.89664
739.957	1685.87622
740.384	1704.69059
740.811	1713.82253
741.238	1706.68462
741.665	1747.57336
742.092	1611.45218
742.519	1671.75723
742.945	1649.60507
743.372	1622.67352
743.798	1704.93273
744.225	1633.59418
744.651	1616.69269
745.077	1641.75762
745.503	1610.57536
745.929	1637.56098
746.355	1622.61076
746.781	1548.61212
747.207	1535.43984
747.632	1484.51014
748.058	1497.53295
748.483	1493.25069
748.908	1545.66927
749.334	1524.54654
749.759	1402.26278
750.184	1422.37113
750.609	1397.42109
751.033	1443.2898
751.458	1373.06441
751.883	1490.58519
752.307	1368.25451
752.732	1338.48246
753.156	1335.39216
753.58	1326.17166
754.005	1285.36913
754.429	1257.10643
754.853	1205.21124
755.277	1226.10383
755.7	1257.26563
756.124	1228.28337
756.548	1216.11319
756.971	1132.04835
757.394	1202.37703
757.818	1193.3871
758.241	1054.07221
758.664	1095.16053
759.087	1099.83557
759.51	1092.0438
759.933	1104.02684
760.356	1086.18514
760.778	1051.9977
761.201	1046.95309
761.623	1080.01038
762.046	1013.81369
762.468	942.72131
762.89	943.84941
763.312	975.81893
763.734	901.73041
764.156	962.8854
764.578	943.68634
765	873.68701
765.421	914.89732
765.843	880.87855
766.264	877.66647
766.686	903.82746
767.107	814.58672
767.528	840.74515
767.949	806.696
768.37	757.53729
768.791	796.56774
769.212	755.58755
769.632	731.40345
770.053	747.66283
770.473	691.39225
770.894	754.57397
771.314	646.25044
771.734	669.28793
772.154	666.45087
772.575	633.215
772.994	657.25508
773.414	678.35632
773.834	619.31157
774.254	598.22699
774.673	658.35028
775.093	635.36191
775.512	566.1858
775.931	513.12497
776.351	578.23178
776.77	590.2563
777.189	553.13374
777.607	535.18856
778.026	574.23912
778.445	462.03017
778.864	473.06582
779.282	483.01765
779.701	518.14049
780.119	470.03939
780.537	482.06864
780.955	460.02866
781.373	399.87509
781.791	429.84079
782.209	416.82128
782.627	405.9638
783.045	437.88319
783.462	379.8686
783.88	343.81065
784.297	423.9519
784.715	391.91368
785.132	393.85104
785.549	367.83199
785.966	330.75253
786.383	376.83489
786.8	319.65891
787.217	326.69194
787.633	348.79549
788.05	265.54958
788.466	340.71095
788.883	360.84505
789.299	322.70549
789.715	342.74836
790.131	312.70029
790.547	246.56327
790.963	301.68683
791.379	334.77577
791.795	282.5719
792.21	283.59714
792.626	247.53445
793.041	330.74433
793.457	252.57074
793.872	283.61024
794.287	285.63062
794.702	251.56535
795.117	271.62362
795.532	213.49935
795.947	170.36824
796.362	219.47366
796.776	231.48229
797.191	190.43103
797.605	201.4418
798.02	163.36911
798.434	187.37325
798.848	196.45276
799.262	218.50677
799.676	156.34584
800.09	166.37919
800.504	176.39457
800.918	215.45566
801.331	159.38931
801.745	172.36253
802.158	163.3805
802.572	145.32541
802.985	122.27171
803.398	145.32233
803.811	154.36971
804.224	132.30444
804.637	167.37462
805.05	63.13644
805.462	174.39794
805.875	128.31707
806.288	88.20086
806.7	139.32728
807.112	117.25349
807.525	92.21075
807.937	161.38011
808.349	104.24559
808.761	142.32894
809.173	89.20326
809.584	112.2579
809.996	101.23707
810.408	104.25734
810.819	105.23273
811.231	108.27251
811.642	116.27212
812.053	123.28283
812.464	134.30696
812.875	40.09712
813.286	72.17757
813.697	99.21083
814.108	75.17363
814.519	65.1345
814.929	131.31718
815.34	68.15621
815.75	42.10309
816.16	69.16209
816.571	110.27089
816.981	128.28129
817.391	67.15443
817.801	49.11699
818.211	12.02709
818.62	-3.00688
819.03	66.15362
819.44	55.13632
819.849	119.28509
820.259	36.08777
820.668	-15.03521
821.077	23.05508
821.486	48.10907
821.895	97.22599
822.304	33.08394
822.713	14.03157
823.122	65.15442
823.531	34.07601
823.939	27.06248
824.348	82.19033
824.756	40.09508
825.164	72.17121
825.573	29.06993
825.981	77.18208
826.389	16.038
826.797	19.0455
827.205	71.15508
827.612	11.02595
828.02	13.02951
828.428	33.08062
828.835	-1.00255
829.243	63.14086
829.65	35.08379
830.057	27.06276
830.464	57.13374
830.871	1.00225
831.278	50.11449
831.685	72.14976
832.092	72.16798
832.499	18.03679
832.905	-6.01445
833.312	-4.00856
833.718	48.11458
834.124	40.0872
834.531	27.06483
834.937	3.00734
835.343	-7.01594
835.749	19.04143
836.155	-6.01511
836.561	42.09926
836.966	26.05973
837.372	-11.02696
837.777	20.04823
838.183	-4.00835
838.588	34.08194
838.993	51.11765
839.399	-8.0188
839.804	11.02595
840.209	19.04597
840.613	-62.13126
841.018	3.00725
841.423	-28.06888
841.828	28.06842
842.232	45.10575
842.637	53.11889
843.041	11.02725
843.445	61.1477
843.849	24.05725
844.253	57.12818
844.657	2.0049
845.061	18.03841
845.465	-36.08336
845.869	51.11196
846.272	32.07516
846.676	2.00463
847.079	32.07822
847.483	-35.08286
847.886	-38.08722
848.289	-14.03638
848.692	21.05125
849.095	26.05985
849.498	7.01665
849.901	23.05019
850.304	-3.00681
850.707	-2.00488
851.109	40.0957
851.512	-24.05652
851.914	32.07872
852.316	-11.02669
852.718	-16.04043
853.121	10.0234
853.523	-11.02439
853.925	46.11727
854.326	25.06003
854.728	1.0025
855.13	40.10032
855.531	16.03687
855.933	27.06176
856.334	14.03337
856.736	29.06208
857.137	72.15882
857.538	33.08029
857.939	20.04736
858.34	-1.00233
858.741	21.05264
859.142	2.00459
859.542	-1.00257
859.943	29.06913
860.343	-38.09106
860.744	30.07016
861.144	49.11479
861.544	39.09122
861.945	14.03444
862.345	9.02103
862.745	45.10703
863.145	-12.02673
863.544	22.05314
863.944	29.06481
864.344	29.069
864.743	7.01649
865.143	10.02461
865.542	-11.02436
865.941	-2.00472
866.34	10.02259
866.74	-6.01546
867.139	39.09058
867.537	-17.04156
867.936	31.0704
868.335	32.07814
868.734	15.03696
869.132	15.03264
869.531	21.04831
869.929	20.0436
870.327	31.07123
870.726	6.01408
871.124	-9.0197
871.522	14.03443
871.92	-26.06059
872.318	17.03947
872.715	34.07963
873.113	42.09702
873.511	42.10026
873.908	-7.01728
874.306	22.05248
874.703	30.07104
875.1	-12.02934
875.497	22.05011
875.894	-5.01181
876.291	11.02564
876.688	28.07007
877.085	-31.07049
877.482	-22.05278
877.878	3.00695
878.275	17.04133
878.671	-9.01879
879.068	12.02758
879.464	-5.01149
879.86	28.06419
880.256	-38.08914
880.652	22.05396
881.048	21.0495
881.444	-5.01126
881.84	37.09016
882.236	8.01926
882.631	-24.05599
883.027	1.00228
883.422	25.06183
883.817	-16.03902
884.213	-11.02714
884.608	-4.00948
885.003	-10.02301
885.398	-3.00723
885.793	22.05316
886.188	-21.05075
886.582	-7.01705
886.977	9.02016
887.371	-16.03897
887.766	0
888.16	-24.05742
888.554	-42.09868
888.949	-14.03337
889.343	10.02305
889.737	-1.00261
890.131	-11.02653
890.525	-33.0814
890.918	12.02898
891.312	1.00228
891.706	-10.0254
892.099	32.07688
892.492	10.02009
892.886	23.05405
893.279	-10.02454
893.672	-10.02437
894.065	-46.10938
894.458	36.08653
894.851	-20.04594
895.244	0
895.637	39.08914
896.029	45.10534
896.422	2.00463
896.814	21.05025
897.206	-15.03426
897.599	2.00466
897.991	-37.08566
898.383	-3.00674
898.775	62.13166
899.167	14.03149
899.559	-3.00728
899.951	42.093
900.342	8.01948
900.734	-22.05294
901.125	-6.01499
901.517	-22.05179
901.908	42.09432
902.299	-6.01414
902.69	7.01569
903.082	-2.00456
903.473	25.05744
903.863	10.02442
904.254	-33.07336
904.645	-41.09642
905.036	-2.0047
905.426	11.02358
905.817	-18.04213
906.207	18.04148
906.597	-20.04484
906.987	14.03488
907.378	0
907.768	-9.02289
908.158	-45.10501
908.547	-61.15091
908.937	31.07588
909.327	-39.0899
909.717	-36.0862
910.106	-41.09315
910.495	28.06622
910.885	-1.00242
911.274	-28.06717
911.663	15.03628
912.052	-14.03243
912.441	-56.13755
912.83	59.12936
913.219	-19.04764
913.608	-42.09806
913.997	-32.07799
914.385	-7.01579
914.774	1.00234
915.162	37.08375
915.55	-21.0475
915.939	11.02685
916.327	48.11414
916.715	14.03497
917.103	-26.06004
917.491	6.01393
917.878	30.06999
918.266	-31.0772
918.654	13.03195
919.041	11.02775
919.429	-22.04979
919.816	19.04614
920.203	3.0069
920.591	68.16188
920.978	31.07214
921.365	-40.10064
921.752	-4.00898
922.139	16.03237
922.525	21.04871
922.912	29.06746
923.299	5.01195
923.685	-2.00504
924.072	-42.09098
924.458	-3.00711
924.844	23.0542
925.231	-4.00888
925.617	0
926.003	-24.05884
926.389	-27.06547
926.774	6.01452
927.16	3.00709
927.546	-2.00498
927.931	-33.078
928.317	29.06192
928.702	37.0817
929.088	-53.12041
929.473	42.10225
929.858	2.0047
930.243	-3.00689
930.628	24.05562
931.013	13.0313
931.398	55.11707
931.783	-22.05577
932.167	-12.02769
932.552	8.01916
932.937	-4.00934
933.321	-34.08222
933.705	-2.00488
934.09	5.01194
934.474	54.11932
934.858	0
935.242	10.02239
935.626	-13.032
936.009	7.01813
936.393	35.0849
936.777	55.13537
937.16	-20.0502
937.544	-25.0553
937.927	19.04607
938.311	-40.09141
938.694	37.09341
939.077	-24.05504
939.46	27.06224
939.843	3.00578
940.226	4.00985
940.609	-23.04987
940.991	28.06845
941.374	27.06333
941.757	-59.13881
942.139	-8.01714
942.522	-3.00669
942.904	86.19732
943.286	-41.09897
943.668	9.02242
944.05	30.07051
944.432	-15.03551
944.814	43.10109
945.196	-7.01665
945.578	-22.05044
945.959	6.01349
946.341	7.01606
946.722	16.03531
947.104	4.00914
947.485	35.07742
947.866	-17.04104
948.247	-33.08017
948.628	-5.01161
949.009	50.12295
949.39	-11.02619
949.771	2.00433
950.152	13.03043
950.532	11.02645
950.913	-7.01615
951.293	15.03921
951.674	-1.00229
952.054	23.05481
952.434	8.01888
952.814	41.09182
953.194	11.02722
953.574	-28.06491
953.954	34.07654
954.334	-17.04031
954.714	-22.05173
955.093	13.03028
955.473	-7.01684
955.853	52.12919
956.232	1.00266
956.611	16.03621
956.99	9.02195
957.37	1.00246
957.749	-44.09962
958.128	23.05613
958.506	-59.14842
958.885	49.119
959.264	14.03291
959.643	-61.12979
960.021	-4.0095
960.4	39.08439
960.778	-22.05125
961.156	10.024
961.535	58.12853
961.913	4.00884
962.291	-12.02989
962.669	-14.03411
963.047	-3.00737
963.424	-4.00981
963.802	38.08879
964.18	-14.03353
964.557	-77.16519
964.935	4.00894
965.312	4.01003
965.69	20.04739
966.067	34.07782
966.444	39.09101
966.821	32.07875
967.198	27.06149
967.575	42.09706
967.952	-1.00223
968.329	41.09545
968.705	23.04614
969.082	37.09174
969.458	-49.11457
969.835	0
970.211	67.16588
970.587	35.08315
970.963	44.10776
971.339	-2.00504
971.715	16.03787
972.091	51.11957
972.467	1.00237
972.843	-9.02156
973.219	4.00888
973.594	3.00755
973.97	-3.00668
974.345	31.07051
974.721	-26.05906
975.096	-15.03459
975.471	50.11136
975.846	-14.03217
976.221	-11.02681
976.596	1.00227
976.971	9.02112
977.346	39.08529
977.72	37.09063
978.095	26.06464
978.469	47.10613
978.844	-8.01893
979.218	-4.00924
979.593	29.06567
979.967	15.03462
980.341	17.03715
980.715	-15.036
981.089	20.04761
981.463	55.11962
981.837	-37.08759
982.21	-10.02157
982.584	20.04615
982.957	8.0192
983.331	-46.10313
983.704	38.08973
984.078	37.08736
984.451	-8.01878
984.824	-3.007
985.197	-13.02992
985.57	38.09106
985.943	40.09394
986.316	1.00232
986.688	-18.04166
987.061	61.13335
987.434	1.00252
987.806	7.01603
988.179	-14.03175
988.551	17.04101
988.923	24.05692
989.295	32.07586
989.667	12.02764
990.039	16.03811
990.411	75.16222
990.783	14.03022
991.155	67.15394
991.527	-12.0275
991.898	-1.00239
992.27	16.03793
992.641	40.09457
993.012	36.07925
993.384	34.07663
993.755	12.02928
994.126	6.01383
994.497	25.05864
994.868	27.05807
995.239	-44.10128
995.61	-25.06037
995.98	22.05161
996.351	62.14754
996.722	-31.06877
997.092	-28.06424
997.462	61.13847
997.833	-5.01119
998.203	10.02283
998.573	25.06008
998.943	-17.03815
999.313	14.03194
999.683	58.13356
1000.053	52.11206
1000.423	46.10639
1000.792	-22.05474
1001.162	37.08753
1001.531	-19.04442
1001.901	37.08776
1002.27	-11.02306
1002.639	3.00733
1003.009	64.14431
1003.378	-24.05913
1003.747	83.18604
1004.116	-1.00229
1004.485	36.08204
1004.853	15.0361
1005.222	-40.0968
1005.591	25.05541
1005.959	81.17617
1006.328	43.0932
1006.696	28.06558
1007.064	1.0024
1007.433	-10.02371
1007.801	22.05137
1008.169	68.16393
1008.537	3.00616
1008.905	11.02461
1009.273	-32.07545
1009.64	-3.00683
1010.008	59.13366
1010.375	-48.10721
1010.743	11.02337
1011.11	11.02507
1011.478	9.02119
1011.845	20.04445
1012.212	-27.058
1012.579	38.08845
1012.946	-1.00224
1013.313	23.05157
1013.68	-31.06458
1014.047	-32.07345
1014.414	29.06578
1014.78	-24.05736
1015.147	5.01146
1015.513	-15.03486
1015.88	17.04121
1016.246	19.04451
1016.612	22.04708
1016.978	12.02784
1017.344	5.01169
1017.71	-59.13409
1018.076	-6.01332
1018.442	56.13689
1018.808	45.10814
1019.174	17.04093
1019.539	36.07655
1019.905	76.17305
1020.27	20.04763
1020.636	9.02017
1021.001	37.08477
1021.366	-6.0137
1021.731	11.02693
1022.096	-24.05906
1022.461	-16.03618
1022.826	18.04082
1023.191	-21.05319
1023.556	38.08425
1023.92	21.04883
1024.285	23.05363
1024.649	-23.05365
1025.014	13.03044
1025.378	-13.0315
1025.742	42.09999
1026.107	-4.00846
1026.471	-8.01742
1026.835	91.21751
1027.199	-41.09537
1027.562	71.15626
1027.926	25.0576
1028.29	5.01203
1028.654	8.01731
1029.017	0
1029.381	31.07146
1029.744	-2.00491
1030.107	11.02428
1030.471	69.15644
1030.834	63.13434
1031.197	-44.09937
1031.56	5.01119
1031.923	19.04713
1032.286	-25.05493
1032.648	40.09038
1033.011	14.0309
1033.374	-26.05678
1033.736	-15.03819
1034.099	-43.10046
1034.461	17.04177
1034.823	-14.03344
1035.185	60.14328
1035.548	26.06006
1035.91	38.08554
1036.272	-23.04962
1036.634	22.05038
1036.995	1.00222
1037.357	-5.01156
1037.719	-12.02784
1038.08	0
1038.442	61.13858
1038.803	58.13126
1039.165	18.04343
1039.526	-43.09904
1039.887	31.071
1040.248	-5.01191
1040.609	2.0047
1040.97	47.1101
1041.331	2.00487
1041.692	19.04232
1042.053	62.13137
1042.413	36.07931
1042.774	-8.01847
1043.134	-24.05378
1043.495	-12.02873
1043.855	-4.00916
1044.215	83.1952
1044.576	-19.04388
1044.936	22.04704
1045.296	-11.026
1045.656	5.01154
1046.016	-1.00229
1046.375	-15.03496
1046.735	51.11064
1047.095	21.04657
1047.454	-25.04874
1047.814	50.11514
1048.173	-16.03578
1048.533	19.04132
1048.892	28.0653
1049.251	67.15855
1049.61	-25.05861
1049.969	31.06891
1050.328	33.06627
1050.687	30.06941
1051.046	51.11807
1051.405	4.00945
1051.763	-2.00438
1052.122	12.02873
1052.48	20.04716
1052.839	-16.03575
1053.197	1.00223
1053.555	56.11752
1053.914	14.03241
1054.272	37.08481
1054.63	-24.05678
1054.988	22.05013
1055.345	15.03025
1055.703	29.06618
1056.061	-16.03966
1056.419	-10.02512
1056.776	-4.00928
1057.134	-27.0599
1057.491	17.04082
1057.848	-17.0399
1058.206	-9.01974
1058.563	-1.00207
1058.92	4.00866
1059.277	0
1059.634	18.04004
1059.991	-37.08205
1060.348	53.11385
1060.704	42.09621
1061.061	50.10789
1061.418	95.21932
1061.774	30.07035
1062.131	-8.02071
1062.487	9.02017
1062.843	54.12821
1063.199	-9.02131
1063.555	28.06166
1063.911	23.05571
1064.267	42.08011
1064.623	-20.04644
1064.979	4.00871
1065.335	9.01992
1065.691	-63.14226
1066.046	6.01245
1066.402	72.15523
1066.757	15.03606
1067.112	23.05327
1067.468	11.02496
1067.823	34.07779
1068.178	21.04783
1068.533	54.12355
1068.888	8.01798
1069.243	3.00703
1069.598	-7.01629
1069.952	26.05567
1070.307	23.05489
1070.662	-27.06094
1071.016	48.10251
1071.371	-3.00644
1071.725	-17.03792
1072.079	52.11974
1072.434	-14.03252
1072.788	1.00226
1073.142	-28.06455
1073.496	-15.03377
1073.85	3.00656
1074.203	-9.02063
1074.557	-18.04626
1074.911	-14.03136
1075.265	17.03759
1075.618	25.05781
1075.971	16.03658
1076.325	3.00729
1076.678	-32.07026
1077.031	1.00215
1077.385	-27.05587
1077.738	22.04729
1078.091	44.09515
1078.444	49.1068
1078.796	6.01417
1079.149	23.05491
1079.502	-13.02938
1079.855	-42.09362
1080.207	-24.05634
1080.56	-9.0225
1080.912	25.05735
1081.264	13.02958
1081.617	-8.01861
1081.969	-10.0244
1082.321	69.15993
1082.673	-38.08284
1083.025	-31.06946
1083.377	-29.05735
1083.728	40.08824
1084.08	-40.09552
1084.432	9.02077
1084.783	-34.07535
1085.135	38.09116
1085.486	21.04589
1085.838	35.08183
1086.189	9.02088
1086.54	-15.03386
1086.891	-40.09774
1087.242	-21.04862
1087.593	7.01591
1087.944	40.08583
1088.295	-14.02998
1088.646	-37.08488
1088.996	23.05308
1089.347	-25.05847
1089.698	-28.06373
1090.048	49.12167
1090.398	16.03476
1090.749	27.06142
1091.099	61.14848
1091.449	23.05493
1091.799	13.03091
1092.149	-26.06185
1092.499	-9.02108
1092.849	13.03173
1093.199	29.06847
1093.548	12.0275
1093.898	7.01687
1094.248	-8.01966
1094.597	24.0601
1094.947	-1.00259
1095.296	19.04524
1095.645	7.01729
1095.994	-26.05877
1096.343	-45.10723
1096.692	4.01011
1097.041	52.13814
1097.39	16.0384
1097.739	-34.08533
1098.088	-21.0536
1098.437	10.02568
1098.785	82.21353
1099.134	15.03776
1099.482	-83.22177
1099.83	74.18679
1100.179	11.02793
1100.527	17.04393
1100.875	11.02827
1101.223	16.04089
1101.571	21.05659
1101.919	-12.0308
1102.267	9.02488
1102.615	2.00643
1102.962	-6.01925
1103.31	5.01605
1103.658	-3.00963
