Data from N3 R8 sample 2_Subt2__1__13-42-28-660.txt Node

Date: Mon Sep 22 13:42:28 PDT 2025
User: uwsun
Spectrometer: HDX01956
Trigger mode: 0
Integration Time (sec): 5.000000E-1
Scans to average: 1
Nonlinearity correction enabled: true
Boxcar width: 0
Storing dark spectrum: false
XAxis mode: Wavelengths
Number of Pixels in Spectrum: 2068
>>>>>Begin Spectral Data<<<<<
194.03	82.23576
194.578	68.21935
195.127	81.25774
195.676	61.19462
196.225	80.21039
196.773	34.09355
197.321	133.36563
197.87	176.44344
198.418	207.52219
198.966	225.58194
199.513	186.46292
200.061	167.4219
200.609	154.40279
201.156	196.4251
201.704	188.47079
202.251	192.50354
202.798	183.47185
203.345	197.47625
203.892	198.49225
204.438	144.3337
204.985	153.36206
205.532	190.49592
206.078	184.44357
206.624	215.52387
207.17	216.48842
207.716	195.47177
208.262	190.36805
208.808	205.50584
209.354	206.49904
209.899	236.58927
210.445	208.51635
210.99	196.47124
211.535	199.45465
212.08	262.60014
212.625	228.55876
213.17	127.315
213.715	194.42722
214.259	215.49101
214.804	183.44491
215.348	259.58194
215.892	178.41902
216.436	197.44355
216.98	212.45823
217.524	219.5098
218.068	145.35477
218.612	202.49211
219.155	239.54823
219.698	144.33463
220.242	149.36253
220.785	225.51633
221.328	181.44235
221.871	144.35121
222.414	144.34925
222.956	125.29695
223.499	196.4347
224.041	203.45743
224.583	167.34991
225.126	140.3017
225.668	171.40591
226.21	157.38883
226.751	159.34184
227.293	144.32177
227.835	172.41103
228.376	157.35089
228.918	171.42226
229.459	136.33553
230	147.34247
230.541	192.42955
231.082	162.3821
231.622	107.24171
232.163	187.44388
232.704	172.41652
233.244	177.42855
233.784	163.38841
234.324	151.32254
234.864	136.3005
235.404	209.48307
235.944	186.43512
236.484	87.21144
237.023	171.39477
237.563	188.42199
238.102	143.32856
238.641	195.47922
239.18	164.37929
239.719	157.38113
240.258	190.41085
240.797	194.45312
241.335	182.4331
241.874	141.26287
242.412	142.3335
242.95	180.42587
243.488	181.39867
244.026	197.44827
244.564	205.40785
245.102	237.51456
245.64	132.30965
246.177	217.47255
246.715	183.42382
247.252	172.38354
247.789	227.39971
248.326	181.42749
248.863	167.3578
249.4	119.26277
249.936	178.35587
250.473	201.45441
251.009	159.35712
251.546	126.27246
252.082	221.47165
252.618	190.41314
253.154	171.40199
253.69	180.39339
254.226	187.43532
254.761	192.41678
255.297	161.34315
255.832	190.44274
256.367	200.45758
256.903	172.36652
257.438	225.51736
257.972	189.40493
258.507	208.47167
259.042	226.48096
259.576	193.40385
260.111	177.39526
260.645	167.34898
261.179	204.46429
261.713	204.44509
262.247	254.56965
262.781	201.41425
263.315	199.47782
263.849	187.45395
264.382	197.4381
264.915	172.39479
265.449	189.45588
265.982	240.5254
266.515	188.44548
267.048	104.21419
267.58	214.44531
268.113	158.33039
268.646	208.50199
269.178	220.48914
269.71	165.3503
270.243	189.4128
270.775	167.41329
271.307	202.4694
271.838	211.48071
272.37	245.5887
272.902	167.36969
273.433	171.36431
273.965	181.42732
274.496	210.50949
275.027	241.58217
275.558	205.48229
276.089	232.56835
276.62	222.55311
277.15	195.46697
277.681	182.38243
278.211	204.48638
278.741	242.51814
279.272	235.5226
279.802	228.55669
280.332	219.50115
280.861	244.56385
281.391	191.42141
281.921	248.574
282.45	233.56582
282.98	196.49824
283.509	222.48867
284.038	188.41279
284.567	238.5318
285.096	229.53812
285.625	164.36267
286.153	219.50014
286.682	218.48792
287.21	227.52759
287.739	180.41381
288.267	249.58602
288.795	262.66881
289.323	232.52374
289.851	190.42946
290.378	214.46948
290.906	242.57763
291.433	261.625
291.961	238.52081
292.488	271.64944
293.015	190.43383
293.542	229.55902
294.069	263.62787
294.596	271.64374
295.122	207.47445
295.649	283.59426
296.175	277.64378
296.702	242.557
297.228	328.76364
297.754	233.49402
298.28	264.58233
298.806	223.51993
299.332	285.62141
299.857	303.66177
300.383	198.48164
300.908	235.55695
301.433	281.66106
301.958	311.687
302.483	233.56645
303.008	256.61291
303.533	236.59289
304.058	284.63326
304.582	242.55277
305.107	270.67999
305.631	238.51618
306.155	280.62976
306.679	328.74496
307.203	275.61002
307.727	220.50374
308.251	232.55164
308.775	258.5943
309.298	235.54402
309.822	330.79455
310.345	303.69446
310.868	320.73738
311.391	267.62667
311.914	323.77785
312.437	306.66054
312.96	281.6337
313.482	303.68805
314.005	294.71138
314.527	313.79037
315.049	308.74188
315.571	322.68733
316.093	285.67178
316.615	342.79027
317.137	344.71453
317.659	355.81916
318.18	311.71622
318.702	326.71968
319.223	341.66136
319.744	388.82065
320.265	357.83131
320.786	364.85811
321.307	329.77878
321.828	400.84566
322.348	326.72509
322.869	370.82703
323.389	646.06036
323.909	308.67027
324.43	365.81939
324.95	425.92307
325.47	357.83981
325.989	409.90721
326.509	403.83912
327.029	418.88293
327.548	421.90349
328.067	418.94662
328.587	424.98552
329.106	428.90524
329.625	393.95424
330.144	420.90348
330.662	460.00961
331.181	467.99744
331.7	436.94313
332.218	536.05102
332.736	464.00045
333.255	461.99187
333.773	507.11133
334.291	480.10605
334.808	489.00683
335.326	476.99353
335.844	512.1065
336.361	546.27784
336.879	482.02644
337.396	569.25897
337.913	568.20205
338.43	509.04103
338.947	505.09251
339.464	521.03528
339.981	568.22982
340.497	559.26403
341.014	599.32378
341.53	566.14867
342.046	583.30445
342.562	592.32597
343.078	605.27628
343.594	603.29598
344.11	635.36191
344.626	605.36873
345.141	630.27761
345.657	637.278
346.172	645.38873
346.687	648.32913
347.202	622.22861
347.717	740.57065
348.232	617.37438
348.747	688.39795
349.261	678.30435
349.776	702.45365
350.29	694.54319
350.805	723.5655
351.319	781.57744
351.833	622.2516
352.347	739.53275
352.861	702.42838
353.374	733.44654
353.888	766.61388
354.401	739.47545
354.915	724.4077
355.428	789.70779
355.941	770.55413
356.454	731.41829
356.967	786.58791
357.48	810.60731
357.993	762.61317
358.505	841.78093
359.018	828.71333
359.53	875.81348
360.042	829.57282
360.554	821.6871
361.066	844.76513
361.578	882.61956
362.09	792.61466
362.602	845.5791
363.113	881.72442
363.625	875.64171
364.136	857.56922
364.647	904.80574
365.158	984.90864
365.669	860.73837
366.18	925.83964
366.691	939.7266
367.201	907.79962
367.712	967.81732
368.222	943.76606
368.733	969.73206
369.243	1008.82738
369.753	1013.91138
370.263	989.9361
370.773	992.00389
371.282	996.91545
371.792	1086.00763
372.301	1137.20181
372.811	1093.34018
373.32	1153.93558
373.829	1164.16509
374.338	1187.06094
374.847	1215.1852
375.356	1247.3171
375.865	1348.16163
376.373	1408.39614
376.882	1344.56366
377.39	1440.56999
377.898	1430.64068
378.407	1563.45528
378.915	1639.43107
379.423	1652.72785
379.93	1709.61384
380.438	1745.88044
380.946	1849.82761
381.453	2014.04675
381.96	2071.06794
382.468	2181.0097
382.975	2259.18314
383.482	2386.84475
383.989	2417.5614
384.495	2496.96988
385.002	2583.58085
385.509	2773.1755
386.015	3001.25959
386.521	3137.81139
387.028	3330.88491
387.534	3308.58893
388.04	3430.01033
388.546	3689.67806
389.051	3781.45708
389.557	4098.73632
390.063	4259.32788
390.568	4493.55904
391.073	4635.03331
391.578	4937.5057
392.084	5029.96597
392.589	5199.46029
393.093	5636.81334
393.598	6116.37795
394.103	6700.58927
394.607	7450.65335
395.112	7726.91449
395.616	8268.30027
396.12	9037.44648
396.624	9928.71284
397.128	10654.192
397.632	11851.97448
398.136	12806.48614
398.639	13706.92448
399.143	15526.9206
399.646	17272.58888
400.15	19071.76876
400.653	21338.84813
401.156	24112.8138
401.659	28042.75071
402.162	34431.46569
402.664	45463.48438
403.167	60254.43411
403.67	60345.95177
404.172	52566.9044
404.674	31176.06428
405.176	3757.7064
405.678	27.69154
406.18	0
406.682	0
407.184	45159.96023
407.686	58897.86778
408.187	61455.21265
408.688	62150.63916
409.19	62552.06205
409.691	59129.73417
410.192	50284.18578
410.693	44156.59899
411.194	40250.60466
411.694	38402.99702
412.195	35307.5185
412.696	32045.47674
413.196	30384.44981
413.696	30287.05638
414.196	30779.96385
414.696	29857.9106
415.196	28042.7456
415.696	25148.03491
416.196	19551.79085
416.695	15348.37647
417.195	13692.59287
417.694	13030.535
418.194	12168.04327
418.693	11575.81785
419.192	11067.07996
419.691	10874.23296
420.19	10775.64434
420.688	10365.03667
421.187	9792.57128
421.685	9260.93515
422.184	8178.10436
422.682	6999.06072
423.18	6051.46714
423.678	5450.72128
424.176	4995.86542
424.674	4737.85166
425.172	4515.41215
425.669	4264.00002
426.167	3916.59876
426.664	3618.69515
427.161	3336.85806
427.659	3046.16894
428.156	2914.47237
428.652	2743.4702
429.149	2677.24984
429.646	2464.694
430.143	2396.11702
430.639	2192.94506
431.135	2137.17899
431.632	1930.68036
432.128	1875.81638
432.624	1738.01424
433.12	1731.52798
433.616	1662.29008
434.111	1568.53013
434.607	1566.58049
435.103	1484.07933
435.598	1417.90567
436.093	1402.30839
436.588	1363.12752
437.083	1224.97698
437.578	1200.04261
438.073	1146.20718
438.568	1086.03054
439.062	1056.69962
439.557	1044.90238
440.051	1012.78825
440.546	1042.88725
441.04	991.88803
441.534	949.93812
442.028	842.61188
442.522	848.65075
443.015	842.47633
443.509	869.71933
444.002	789.58779
444.496	878.54848
444.989	840.67544
445.482	823.70108
445.975	805.50718
446.468	829.43486
446.961	840.42972
447.454	755.41688
447.947	672.32878
448.439	701.42667
448.931	695.30408
449.424	651.37826
449.916	650.31163
450.408	653.22453
450.9	708.44976
451.392	628.34312
451.884	599.13967
452.375	570.21103
452.867	582.1
453.358	555.08245
453.849	619.09735
454.341	629.19221
454.832	573.03091
455.323	584.22249
455.814	566.11206
456.304	538.05694
456.795	543.058
457.285	532.00188
457.776	485.94111
458.266	521.06417
458.756	523.09919
459.247	491.01413
459.737	510.04803
460.226	555.07989
460.716	427.88949
461.206	470.98275
461.695	473.0297
462.185	469.96568
462.674	454.90977
463.163	507.97676
463.653	385.7082
464.142	392.8331
464.63	386.83213
465.119	451.93112
465.608	368.75551
466.096	406.78649
466.585	356.71999
467.073	377.80245
467.561	379.81547
468.05	430.89315
468.538	324.71017
469.026	298.65154
469.513	415.79297
470.001	412.84393
470.489	347.73988
470.976	329.68353
471.463	298.6642
471.951	331.74277
472.438	333.70757
472.925	346.73759
473.412	325.72422
473.899	284.58833
474.385	275.61104
474.872	332.71297
475.359	295.65601
475.845	327.60634
476.331	277.5511
476.817	290.64476
477.303	321.68623
477.789	306.67412
478.275	235.54402
478.761	284.62303
479.247	230.47092
479.732	232.53804
480.218	253.61138
480.703	247.5718
481.188	210.41497
481.673	182.38783
482.158	247.49233
482.643	212.49905
483.128	169.35911
483.612	167.36799
484.097	203.45874
484.581	208.44284
485.066	177.39656
485.55	151.30756
486.034	161.32644
486.518	176.38856
487.002	207.48016
487.486	170.39036
487.969	161.37376
488.453	174.41533
488.936	180.38407
489.42	123.2543
489.903	144.34478
490.386	149.32034
490.869	154.31431
491.352	158.36643
491.835	134.25883
492.318	124.26676
492.8	113.21999
493.283	127.30611
493.765	159.37072
494.247	139.3018
494.73	130.27052
495.212	83.18803
495.694	171.37681
496.175	54.12484
496.657	72.16135
497.139	61.09922
497.62	97.22028
498.102	104.24673
498.583	71.16997
499.064	109.23192
499.545	105.22924
500.026	114.24314
500.507	80.17632
500.988	63.14834
501.469	71.17243
501.949	76.17954
502.43	96.22053
502.91	105.20529
503.39	23.05512
503.87	122.27464
504.35	-30.06729
504.83	73.15431
505.31	57.13212
505.79	60.13794
506.269	67.14832
506.749	87.19195
507.228	29.06556
507.707	40.08535
508.187	41.09273
508.666	17.04057
509.145	14.03126
509.623	43.0965
510.102	24.05513
510.581	67.15246
511.059	34.08172
511.538	2.00492
512.016	34.0766
512.494	78.1804
512.972	41.09281
513.45	74.16652
513.928	44.10193
514.406	45.10447
514.884	43.10545
515.361	22.05005
515.839	101.22032
516.316	60.13778
516.793	70.16869
517.27	55.12632
517.747	99.24313
518.224	37.08119
518.701	65.13685
519.178	53.12537
519.654	29.06516
520.131	58.13654
520.607	46.10846
521.083	27.05892
521.56	78.17544
522.036	52.10825
522.512	48.11212
522.987	74.16842
523.463	45.10161
523.939	51.11845
524.414	33.07165
524.89	26.05956
525.365	55.11707
525.84	13.02993
526.315	30.06903
526.79	32.06807
527.265	23.04981
527.74	6.01415
528.215	3.00675
528.689	-32.06748
529.164	-38.07869
529.638	53.13011
530.112	-27.06189
530.587	-24.04965
531.061	-30.0693
531.534	-5.01156
532.008	10.02305
532.482	-31.06814
532.956	-64.15848
533.429	-13.03014
533.903	0
534.376	-41.08674
534.849	-21.04637
535.322	-26.05839
535.795	-59.13708
536.268	-11.02552
536.741	14.03189
537.213	-25.05479
537.686	-38.08911
538.158	-16.03479
538.631	-43.09991
539.103	-76.16617
539.575	-50.09829
540.047	-74.15488
540.519	-54.12211
540.991	-6.01396
541.463	-5.01169
541.934	-54.11842
542.406	-37.0842
542.877	-17.0377
543.348	-66.15234
543.82	0
544.291	-20.04491
544.762	-45.10194
545.233	-28.06745
545.703	-33.07006
546.174	-12.02683
546.645	1.00233
547.115	16.03714
547.585	12.02642
548.056	-3.00701
548.526	-18.04108
548.996	-1.00229
549.466	21.04925
549.935	39.08885
550.405	7.01473
550.875	9.02036
551.344	18.04128
551.814	69.14918
552.283	69.14125
552.752	65.14401
553.221	46.09687
553.69	63.13422
554.159	28.0663
554.628	0
555.096	28.06822
555.565	13.02742
556.033	34.07582
556.502	-2.00462
556.97	11.02307
557.438	-51.11582
557.906	-41.09182
558.374	-6.01334
558.842	-9.02055
559.31	-61.12996
559.777	-25.05918
560.245	-12.02649
560.712	-9.01987
561.18	-37.07828
561.647	-27.05875
562.114	-65.14503
562.581	3.00708
563.048	-61.13419
563.514	-31.07288
563.981	-43.09416
564.448	-9.01983
564.914	-76.17052
565.381	-22.04774
565.847	-8.01777
566.313	-58.12923
566.779	-61.13295
567.245	-53.12017
567.711	-40.09365
568.176	-76.16399
568.642	-100.24517
569.108	-35.08289
569.573	-24.05336
570.038	-53.10628
570.504	-76.16575
570.969	-23.05554
571.434	-50.10613
571.899	-84.19196
572.363	17.03712
572.828	4.00861
573.293	-69.15281
573.757	-80.17647
574.222	-31.06625
574.686	-10.02176
575.15	-51.1168
575.614	-19.0416
576.078	-6.01358
576.542	-49.10666
577.006	-24.05216
577.469	-20.0467
577.933	-55.11748
578.396	14.03162
578.86	-72.16142
579.323	-8.01825
579.786	-50.1033
580.249	-65.14191
580.712	-45.10653
581.175	-52.12279
581.637	-94.20544
582.1	-80.1661
582.563	-109.22151
583.025	-44.10249
583.487	-45.08711
583.95	-28.05795
584.412	-9.01804
584.874	-77.17628
585.336	-59.13524
585.797	-59.12253
586.259	-57.1265
586.721	-129.29354
587.182	-119.2608
587.643	-48.10246
588.105	-81.18417
588.566	-83.16567
589.027	-30.06922
589.488	-66.14223
589.949	4.00912
590.41	-11.02051
590.87	-24.05165
591.331	10.02
591.791	-28.06107
592.252	-36.07821
592.712	9.02039
593.172	-12.02519
593.632	6.0122
594.092	11.0231
594.552	-10.02001
595.011	-21.04509
595.471	-35.07239
595.931	33.06868
596.39	3.00674
596.849	-1.00217
597.308	56.11175
597.768	15.0359
598.227	80.17965
598.685	53.11282
599.144	53.11674
599.603	31.06696
600.062	131.25273
600.52	100.20577
600.978	65.14185
601.437	80.16491
601.895	144.27801
602.353	93.18537
602.811	108.21482
603.269	172.36795
603.727	207.44541
604.184	203.41573
604.642	174.37867
605.099	217.44763
605.557	239.51448
606.014	232.44253
606.471	270.6003
606.928	317.60041
607.385	331.72811
607.842	375.73182
608.299	372.73786
608.755	427.88553
609.212	407.77429
609.668	416.78544
610.125	462.94634
610.581	452.89948
611.037	432.82126
611.493	422.84642
611.949	474.97882
612.405	458.76174
612.861	504.98008
613.316	533.05178
613.772	535.01421
614.227	490.976
614.683	493.86961
615.138	511.00451
615.593	572.12175
616.048	539.01733
616.503	497.03435
616.958	531.13613
617.412	539.08307
617.867	449.83883
618.321	493.82926
618.776	495.90328
619.23	479.95432
619.684	469.86796
620.138	485.9236
620.592	402.8417
621.046	487.95853
621.5	483.00338
621.954	426.79368
622.407	403.75623
622.861	389.83158
623.314	346.65935
623.768	387.77569
624.221	465.77957
624.674	300.60117
625.127	358.72469
625.58	318.62014
626.033	353.66076
626.485	303.64607
626.938	385.79808
627.39	259.53114
627.843	333.66436
628.295	299.60984
628.747	266.55597
629.199	253.50874
629.651	264.53931
630.103	259.53138
630.555	269.50003
631.006	256.53602
631.458	246.52511
631.909	168.3379
632.361	200.4184
632.812	225.47268
633.263	204.39158
633.714	169.3251
634.165	134.29621
634.616	152.33178
635.067	190.37951
635.518	125.27094
635.968	217.3839
636.419	173.33648
636.869	159.34463
637.319	174.36594
637.769	169.34532
638.219	140.30261
638.669	142.31494
639.119	162.36348
639.569	86.19637
640.019	106.22421
640.468	118.24565
640.918	132.29471
641.367	91.18704
641.816	81.16761
642.265	143.30598
642.714	112.23825
643.163	115.24586
643.612	137.31351
644.061	189.37356
644.51	135.28911
644.958	107.21903
645.406	135.29898
645.855	79.18035
646.303	112.24136
646.751	37.07938
647.199	148.31113
647.647	159.3408
648.095	116.24998
648.543	131.24338
648.99	127.28572
649.438	124.26802
649.885	111.25901
650.333	137.2406
650.78	128.29027
651.227	115.26052
651.674	121.25779
652.121	90.20675
652.568	93.21325
653.015	77.18095
653.461	152.34105
653.908	90.1957
654.354	83.18366
654.801	184.40605
655.247	113.231
655.693	139.3435
656.139	155.35142
656.585	93.2076
657.031	82.18194
657.477	127.25738
657.922	118.25571
658.368	119.27309
658.813	79.17299
659.259	78.17753
659.704	94.20909
660.149	93.2051
660.594	32.07207
661.039	104.22441
661.484	104.23008
661.929	90.20069
662.373	96.23205
662.818	62.14453
663.262	131.30039
663.707	115.27907
664.151	93.21334
664.595	114.26251
665.039	46.10799
665.483	85.20643
665.927	115.25607
666.371	108.24173
666.814	109.24412
667.258	112.25398
667.701	96.1922
668.145	73.17202
668.588	122.28395
669.031	116.26231
669.474	57.13165
669.917	172.35329
670.36	103.24346
670.803	71.16183
671.245	36.07084
671.688	126.29245
672.13	98.21019
672.573	91.21876
673.015	81.18514
673.457	160.32879
673.899	96.21894
674.341	128.29368
674.783	136.31179
675.225	74.17353
675.666	77.1777
676.108	138.28639
676.549	168.37586
676.991	145.30166
677.432	149.28179
677.873	116.2547
678.314	113.25734
678.755	136.31329
679.196	139.30373
679.637	105.24405
680.078	123.26683
680.518	124.2717
680.959	127.28759
681.399	135.32046
681.839	171.39179
682.28	165.3897
682.72	95.20776
683.16	162.38343
683.6	147.31386
684.039	132.25545
684.479	104.24454
684.919	132.29422
685.358	119.2827
685.798	166.41825
686.237	140.31683
686.676	96.20475
687.115	197.43592
687.554	182.40684
687.993	193.39615
688.432	125.26874
688.871	158.3383
689.309	165.37348
689.748	120.23067
690.186	228.50251
690.625	194.42955
691.063	128.28802
691.501	178.40856
691.939	221.51608
692.377	223.5103
692.815	225.50825
693.253	129.2901
693.69	195.39465
694.128	175.39692
694.565	240.53693
695.003	276.65095
695.44	268.58447
695.877	245.5308
696.314	287.55157
696.751	273.57452
697.188	287.60824
697.625	264.54323
698.061	288.63952
698.498	305.676
698.934	268.59214
699.371	289.62505
699.807	287.61648
700.243	289.64107
700.679	301.61475
701.115	326.68288
701.551	378.796
701.987	304.60721
702.422	367.79848
702.858	312.67551
703.294	353.71932
703.729	360.79738
704.164	364.79447
704.599	373.73691
705.035	401.80523
705.47	354.78507
705.904	396.8273
706.339	399.81712
706.774	390.81693
707.209	382.7931
707.643	438.94341
708.078	457.00533
708.512	483.09283
708.946	427.91281
709.38	460.95844
709.814	420.83541
710.248	509.09649
710.682	483.00561
711.116	565.20221
711.549	470.07738
711.983	486.97974
712.416	522.06308
712.85	539.15476
713.283	590.19092
713.716	556.20124
714.149	544.10395
714.582	608.13017
715.015	613.32597
715.448	576.24079
715.881	623.1142
716.313	625.22733
716.746	649.28832
717.178	628.27935
717.61	630.36018
718.043	682.4317
718.475	701.43508
718.907	695.47024
719.339	649.24696
719.77	685.36053
720.202	726.55897
720.634	729.49315
721.065	736.43107
721.497	740.48599
721.928	731.51344
722.359	700.42818
722.79	808.59961
723.221	854.76639
723.652	805.70316
724.083	811.48184
724.514	852.58004
724.945	895.69661
725.375	904.70496
725.806	870.74417
726.236	930.93312
726.666	915.71606
727.096	882.73085
727.526	900.85912
727.956	874.55263
728.386	927.81031
728.816	955.96709
729.246	900.75046
729.675	923.8246
730.105	959.85081
730.534	967.72581
730.964	985.96001
731.393	1094.08169
731.822	976.9605
732.251	998.01328
732.68	1043.86372
733.109	1035.98723
733.537	1074.00607
733.966	1078.06008
734.395	1088.85929
734.823	1041.73359
735.251	1072.98992
735.68	1080.04507
736.108	1097.16146
736.536	1052.85816
736.964	1138.9679
737.392	1151.19941
737.82	1146.07062
738.247	1096.94715
738.675	1154.9925
739.102	1137.15382
739.53	1112.18954
739.957	1152.24308
740.384	1145.09345
740.811	1169.21138
741.238	1152.09732
741.665	1190.04502
742.092	1112.94006
742.519	1151.16774
742.945	1162.08794
743.372	1250.26838
743.798	1182.31247
744.225	1216.15757
744.651	1134.13512
745.077	1184.23278
745.503	1192.12898
745.929	1246.16556
746.355	1138.078
746.781	1205.21896
747.207	1172.05243
747.632	1139.10331
748.058	1109.07011
748.483	1206.9718
748.908	1182.2355
749.334	1211.19348
749.759	1184.02603
750.184	1175.08937
750.609	1208.19632
751.033	1164.99284
751.458	1209.90613
751.883	1243.29486
752.307	1157.01602
752.732	1232.34499
753.156	1183.20108
753.58	1148.97267
754.005	1190.24521
754.429	1160.99549
754.853	1195.1983
755.277	1128.98662
755.7	1152.13109
756.124	1166.20088
756.548	1169.05623
756.971	1116.02747
757.394	1217.39837
757.818	1199.39583
758.241	1146.20508
758.664	1151.24166
759.087	1155.90009
759.51	1155.12872
759.933	1168.11052
760.356	1159.29344
760.778	1134.1112
761.201	1168.11479
761.623	1141.09238
762.046	1112.94107
762.468	1087.9147
762.89	1173.17597
763.312	1078.96053
763.734	1067.96838
764.156	1104.09064
764.578	1103.89256
765	1087.99438
765.421	1096.18214
765.843	1073.19393
766.264	1096.97325
766.686	1010.99446
767.107	1025.89921
767.528	1000.00261
767.949	1048.08736
768.37	1066.01261
768.791	1038.92954
769.212	987.97035
769.632	1025.83054
770.053	1020.14117
770.473	1068.96778
770.894	1025.01083
771.314	893.62789
771.734	919.66441
772.154	1008.03627
772.575	997.74843
772.994	1020.78001
773.414	983.82937
773.834	954.87497
774.254	826.60862
774.673	944.81356
775.093	959.9144
775.512	805.59849
775.931	872.76909
776.351	900.7853
776.77	923.8246
777.189	852.63027
777.607	865.79115
778.026	894.79893
778.445	804.66733
778.864	880.8194
779.282	775.52954
779.701	820.69222
780.119	783.61977
780.537	798.65414
780.955	830.71594
781.373	764.54482
781.791	765.37932
782.209	695.28102
782.627	774.70839
783.045	804.48716
783.462	694.48763
783.88	744.61888
784.297	774.61434
784.715	726.58236
785.132	722.4518
785.549	683.44672
785.966	627.34184
786.383	691.43181
786.8	726.36136
787.217	694.35312
787.633	573.24831
788.05	590.13313
788.466	655.27242
788.883	600.34005
789.299	630.28867
789.715	607.25193
790.131	563.19639
790.547	566.21035
790.963	613.30845
791.379	620.35626
791.795	514.98716
792.21	551.09246
792.626	525.06654
793.041	550.18268
793.457	483.04038
793.872	555.12503
794.287	516.08469
794.702	505.07621
795.117	482.06021
795.532	479.0622
795.947	373.77286
796.362	425.87863
796.776	410.82198
797.191	377.82267
797.605	366.77649
798.02	378.81839
798.434	363.69495
798.848	393.87209
799.262	423.94333
799.676	334.71294
800.09	374.81837
800.504	360.77643
800.918	354.72743
801.331	366.86148
801.745	323.65819
802.158	303.68777
802.572	309.67002
802.985	288.61929
803.398	313.67145
803.811	344.79583
804.224	303.67492
804.637	264.58038
805.05	261.54129
805.462	298.66447
805.875	277.66735
806.288	244.53935
806.7	256.58899
807.112	233.49229
807.525	196.43958
807.937	240.55791
808.349	235.54078
808.761	228.51912
809.173	215.47852
809.584	182.41322
809.996	168.38916
810.408	190.4627
810.819	207.44905
811.231	216.53445
811.642	261.59485
812.053	247.55384
812.464	265.59102
812.875	149.35437
813.286	161.39055
813.697	186.38859
814.108	160.36416
814.519	179.36094
814.929	198.47334
815.34	136.30816
815.75	152.36546
816.16	96.22432
816.571	154.37616
816.981	163.35556
817.391	154.3488
817.801	164.38291
818.211	125.27568
818.62	81.18253
819.03	122.28081
819.44	110.26989
819.849	178.42163
820.259	120.28798
820.668	76.17521
821.077	80.1895
821.486	112.2512
821.895	118.27378
822.304	81.20427
822.713	101.22368
823.122	95.22438
823.531	94.20753
823.939	89.20342
824.348	141.32344
824.756	64.15142
825.164	85.20162
825.573	54.12959
825.981	138.32246
826.389	16.038
826.797	50.11903
827.205	76.16582
827.612	92.21362
828.02	57.12824
828.428	88.21279
828.835	67.16861
829.243	60.13424
829.65	57.13588
830.057	92.21109
830.464	85.19834
830.871	49.10906
831.278	53.12129
831.685	11.02319
832.092	74.17257
832.499	27.05507
832.905	30.07178
833.312	40.08479
833.718	113.26637
834.124	78.16867
834.531	43.10294
834.937	32.07785
835.343	52.11696
835.749	56.12115
836.155	50.12467
836.561	25.05928
836.966	-10.02314
837.372	56.13557
837.777	34.08178
838.183	29.06012
838.588	73.17462
838.993	74.16992
839.399	-25.05893
839.804	11.02595
840.209	-6.01459
840.613	38.07869
841.018	34.08169
841.423	28.06817
841.828	47.11444
842.232	86.20048
842.637	48.10779
843.041	7.01736
843.445	80.19301
843.849	44.10455
844.253	55.12374
844.657	58.14057
845.061	-19.04087
845.465	-5.01151
845.869	43.09456
846.272	19.04474
846.676	37.08498
847.079	2.00492
847.483	14.03283
847.886	-6.01368
848.289	34.08763
848.692	52.12617
849.095	43.09864
849.498	26.06161
849.901	46.0999
850.304	-7.0159
850.707	49.11842
851.109	18.04325
851.512	-34.08023
851.914	49.12016
852.316	23.05546
852.718	-5.01261
853.121	18.04206
853.523	-23.05113
853.925	63.16013
854.326	59.14076
854.728	42.10423
855.13	55.13756
855.531	57.13028
855.933	57.1296
856.334	-10.02394
856.736	36.07695
857.137	38.08442
857.538	40.0972
857.939	61.14329
858.34	15.03481
858.741	25.06262
859.142	59.13382
859.542	20.05111
859.943	6.01437
860.343	-13.031
860.744	40.09336
861.144	86.20001
861.544	58.13516
861.945	19.0467
862.345	32.07442
862.745	60.14229
863.145	16.03543
863.544	35.08433
863.944	-27.06104
864.344	22.05241
864.743	65.15144
865.143	30.07355
865.542	-9.01992
865.941	42.0983
866.34	26.05855
866.74	-2.00515
867.139	65.15018
867.537	7.01704
867.936	-16.03668
868.335	70.16971
868.734	59.1442
869.132	5.0109
869.531	46.10529
869.929	30.06526
870.327	44.10083
870.726	8.01877
871.124	-15.03287
871.522	47.11487
871.92	2.00463
872.318	19.04409
872.715	34.07963
873.113	-19.04442
873.511	47.11208
873.908	-1.00247
874.306	13.03106
874.703	-18.04302
875.1	26.06313
875.497	31.07049
875.894	-1.00236
876.291	12.02796
876.688	53.13203
877.085	-38.08652
877.482	15.03573
877.878	-1.00232
878.275	10.02434
878.671	19.03942
879.068	15.03445
879.464	-5.01149
879.86	57.12992
880.256	18.04176
880.652	26.06372
881.048	66.15422
881.444	13.02917
881.84	42.10225
882.236	11.02646
882.631	-39.09126
883.027	23.05223
883.422	90.21992
883.817	17.04121
884.213	23.0564
884.608	28.06597
885.003	-33.07628
885.398	-13.03137
885.793	33.07957
886.188	24.05751
886.582	13.03155
886.977	-4.00898
887.371	7.01697
887.766	-7.01689
888.16	26.06161
888.554	43.09935
888.949	-7.01666
889.343	30.06889
889.737	73.18843
890.131	28.06704
890.525	34.08283
890.918	11.02657
891.312	-13.02973
891.706	48.12064
892.099	-7.01694
892.492	27.05402
892.886	13.03061
893.279	36.08761
893.672	-7.01705
894.065	-37.08783
894.458	30.07219
894.851	6.01371
895.244	-3.00738
895.637	24.05502
896.029	61.14234
896.422	20.04615
896.814	12.02877
897.206	-12.02739
897.599	13.0302
897.991	-23.0531
898.383	-1.00225
898.775	52.11066
899.167	32.07171
899.559	9.02179
899.951	18.04006
900.342	43.10404
900.734	-1.0024
901.125	10.02491
901.517	9.02106
901.908	64.14307
902.299	-16.03777
902.69	40.08905
903.082	-30.06886
903.473	-19.04404
903.863	42.10194
904.254	13.02862
904.645	-23.0539
905.036	5.01173
905.426	27.05767
905.817	20.04646
906.207	2.00462
906.597	24.05332
906.987	6.01497
907.378	-11.02659
907.768	11.02788
908.158	8.01847
908.547	-60.14841
908.937	9.02212
909.327	17.03875
909.717	-7.01667
910.106	-47.10691
910.495	79.185
910.885	29.06982
911.274	17.04043
911.663	16.03869
912.052	-2.00462
912.441	28.06771
912.83	58.12719
913.219	-12.03005
913.608	10.02311
913.997	0
914.385	16.03591
914.774	20.04666
915.162	-8.01827
915.55	-26.05887
915.939	-8.0196
916.327	16.03828
916.715	46.11424
917.103	-22.05076
917.491	-6.01396
917.878	9.02108
918.266	-1.00248
918.654	17.04175
919.041	-16.04056
919.429	43.09603
919.816	14.03403
920.203	2.0046
920.591	73.17362
920.978	44.10213
921.365	-5.0125
921.752	-70.15932
922.139	-7.01424
922.525	47.10846
922.912	36.08363
923.299	13.03101
923.685	-6.01512
924.072	28.05974
924.458	-2.00474
924.844	-19.04514
925.231	12.02656
925.617	12.02961
926.003	25.06074
926.389	15.03609
926.774	21.05067
927.16	-9.02133
927.546	16.03974
927.931	-7.01646
928.317	20.04279
928.702	-2.00445
929.088	-13.02929
929.473	9.02205
929.858	7.01643
930.243	6.01375
930.628	0
931.013	74.1761
931.398	11.02364
931.783	43.10774
932.167	-47.1092
932.552	15.03588
932.937	5.01165
933.321	-13.03131
933.705	14.03407
934.09	-11.02634
934.474	-1.00223
934.858	30.07518
935.242	54.11982
935.626	3.00736
936.009	23.05939
936.393	39.09454
936.777	19.04708
937.16	8.01998
937.544	0
937.927	-9.02194
938.311	-21.04781
938.694	19.04812
939.077	28.06355
939.46	-13.0302
939.843	31.05929
940.226	1.00246
940.609	-55.12008
940.991	19.04652
941.374	26.06099
941.757	-12.02797
942.139	-5.0107
942.522	8.01781
942.904	60.13838
943.286	-41.09897
943.668	42.104
944.05	58.13558
944.432	51.11919
944.814	59.13827
945.196	8.01897
945.578	-30.06889
945.959	15.03366
946.341	22.05032
946.722	-3.00665
947.104	28.06368
947.485	47.1037
947.866	3.00721
948.247	-3.00725
948.628	-11.02557
949.009	17.04206
949.39	13.03081
949.771	24.05172
950.152	22.05141
950.532	38.09092
950.913	57.12981
951.293	-15.03941
951.674	-11.0252
952.054	-17.04082
952.434	-29.06892
952.814	24.05394
953.194	-12.02982
953.574	-16.03701
953.954	29.06535
954.334	-37.08807
954.714	-37.08725
955.093	25.05808
955.473	-14.03373
955.853	25.06242
956.232	26.069
956.611	40.09008
956.99	32.0777
957.37	35.08557
957.749	-41.09277
958.128	23.05613
958.506	-40.10028
958.885	33.08038
959.264	-15.03546
959.643	-21.04429
960.021	38.08949
960.4	84.18001
960.778	-9.02091
961.156	-21.05069
961.535	64.14165
961.913	-13.02884
962.291	4.00993
962.669	-12.02922
963.047	22.0538
963.424	25.06099
963.802	10.0235
964.18	-47.11329
964.557	-33.07012
964.935	-1.00224
965.312	-13.0327
965.69	2.00476
966.067	18.04133
966.444	9.02113
966.821	28.06895
967.198	5.01144
967.575	2.00466
967.952	-2.00445
968.329	65.1506
968.705	63.12522
969.082	1.0025
969.458	-8.01855
969.835	-21.04877
970.211	64.15854
970.587	16.03815
970.963	20.0492
971.339	18.04519
971.715	1.00237
972.091	17.04012
972.467	33.07776
972.843	-7.01676
973.219	-13.02896
973.594	7.01762
973.97	6.01334
974.345	-5.01146
974.721	-25.05677
975.096	-20.04616
975.471	47.10474
975.846	-3.00688
976.221	-19.04639
976.596	-34.07782
976.971	-10.02355
977.346	51.11125
977.72	61.14875
978.095	-22.05517
978.469	59.1329
978.844	-57.13614
979.218	-20.04637
979.593	31.07017
979.967	5.01156
980.341	12.02625
980.715	15.0358
981.089	16.03812
981.463	49.10671
981.837	-8.01883
982.21	-8.01725
982.584	43.09876
982.957	2.00481
983.331	-22.04908
983.704	52.12246
984.078	54.12707
984.451	19.04437
984.824	-25.05857
985.197	20.04572
985.57	64.1526
985.943	82.19101
986.316	33.07603
986.688	58.13222
987.061	-3.00665
987.434	1.00252
987.806	-23.05299
988.179	46.10304
988.551	-8.01939
988.923	25.05928
989.295	54.12747
989.667	4.00923
990.039	25.05944
990.411	21.04595
990.783	3.00649
991.155	2.00466
991.527	-10.02291
991.898	5.01193
992.27	-8.01905
992.641	26.06164
993.012	45.09887
993.384	-10.02274
993.755	9.02197
994.126	-11.02544
994.497	-17.0402
994.868	12.02589
995.239	-3.00685
995.61	-44.10664
995.98	32.07492
996.351	31.07421
996.722	24.05263
997.092	-6.01371
997.462	63.14295
997.833	7.01563
998.203	3.00686
998.573	30.07202
998.943	-1.00224
999.313	-6.01374
999.683	41.09473
1000.053	16.03475
1000.423	59.1361
1000.792	8.0198
1001.162	-4.00954
1001.531	-14.0327
1001.901	13.03098
1002.27	18.03749
1002.639	11.02685
1003.009	56.12648
1003.378	-26.06408
1003.747	72.16175
1004.116	1.00229
1004.485	27.06164
1004.853	-10.02418
1005.222	-18.04338
1005.591	7.01557
1005.959	116.25041
1006.328	44.09535
1006.696	88.20369
1007.064	-6.01443
1007.433	37.08692
1007.801	36.08382
1008.169	29.07043
1008.537	29.05918
1008.905	73.1612
1009.273	-4.00938
1009.64	9.02046
1010.008	22.05021
1010.375	-62.13888
1010.743	49.10326
1011.11	10.0228
1011.478	-10.02363
1011.845	3.00669
1012.212	31.06576
1012.579	-14.03292
1012.946	-18.04047
1013.313	11.02473
1013.68	0
1014.047	-5.01141
1014.414	37.08379
1014.78	-17.04057
1015.147	62.14048
1015.513	2.00463
1015.88	12.02912
1016.246	47.1095
1016.612	60.12736
1016.978	-54.12692
1017.344	16.03733
1017.71	-44.0997
1018.076	12.02655
1018.442	18.04431
1018.808	46.11052
1019.174	47.11251
1019.539	66.13942
1019.905	30.06894
1020.27	44.10431
1020.636	45.10012
1021.001	61.13909
1021.366	-7.01599
1021.731	7.01715
1022.096	9.02201
1022.461	6.01351
1022.826	31.07011
1023.191	11.0277
1023.556	16.03563
1023.92	20.04651
1024.285	16.03736
1024.649	-22.05131
1025.014	45.10472
1025.378	7.0169
1025.742	57.13531
1026.107	-35.0745
1026.471	19.04113
1026.835	48.11567
1027.199	34.07792
1027.562	49.10834
1027.926	16.03693
1028.29	-13.03139
1028.654	31.06673
1029.017	68.15665
1029.381	43.09888
1029.744	29.07085
1030.107	-11.02439
1030.471	27.06174
1030.834	5.0108
1031.197	2.00447
1031.56	28.06236
1031.923	27.06687
1032.286	1.00219
1032.648	92.20566
1033.011	23.05066
1033.374	-16.03487
1033.736	-27.06889
1034.099	-1.00232
1034.461	-14.03459
1034.823	33.07812
1035.185	-16.03876
1035.548	48.1104
1035.91	-18.04098
1036.272	2.00429
1036.634	17.03897
1036.995	5.01111
1037.357	-20.04639
1037.719	23.05299
1038.08	-19.04262
1038.442	40.09126
1038.803	55.12455
1039.165	22.05304
1039.526	-22.05046
1039.887	62.14111
1040.248	2.00476
1040.609	22.05155
1040.97	47.1101
1041.331	31.07506
1041.692	40.08872
1042.053	29.06189
1042.413	10.02215
1042.774	3.00691
1043.134	-28.0628
1043.495	2.00478
1043.855	-2.00458
1044.215	51.12069
1044.576	-18.04156
1044.936	7.01502
1045.296	17.03997
1045.656	-34.0791
1046.016	30.06814
1046.375	81.18521
1046.735	18.03932
1047.095	53.11674
1047.454	-3.00582
1047.814	69.15828
1048.173	-17.03803
1048.533	41.08875
1048.892	58.13446
1049.251	13.03109
1049.61	-39.09169
1049.969	23.05121
1050.328	6.01212
1050.687	29.06711
1051.046	27.06281
1051.405	-10.0237
1051.763	-18.03959
1052.122	19.04543
1052.48	45.10558
1052.839	16.03552
1053.197	6.01338
1053.555	52.10922
1053.914	30.06922
1054.272	65.14815
1054.63	-37.08776
1054.988	27.06146
1055.345	10.02019
1055.703	19.04345
1056.061	16.03943
1056.419	15.0375
1056.776	47.1079
1057.134	67.14572
1057.491	42.10037
1057.848	15.03499
1058.206	-46.10168
1058.563	54.11067
1058.92	22.04743
1059.277	26.06059
1059.634	2.00446
1059.991	-39.08652
1060.348	68.1456
1060.704	37.08484
1061.061	29.06286
1061.418	54.12569
1061.774	-29.06879
1062.131	18.04639
1062.487	35.07803
1062.843	41.09759
1063.199	5.01181
1063.555	9.0199
1063.911	4.00972
1064.267	51.09707
1064.623	-3.00694
1064.979	5.01088
1065.335	17.03756
1065.691	-16.03578
1066.046	19.03932
1066.402	20.0436
1066.757	42.10045
1067.112	27.06248
1067.468	10.0227
1067.823	9.0207
1068.178	-10.02292
1068.533	8.01847
1068.888	-46.10453
1069.243	-20.04706
1069.598	16.03706
1069.952	-35.07593
1070.307	11.02631
1070.662	-57.12944
1071.016	16.03441
1071.371	28.05974
1071.725	-17.03792
1072.079	74.16965
1072.434	-1.00232
1072.788	5.01129
1073.142	-41.09477
1073.496	-6.01348
1073.85	-15.03293
1074.203	4.00914
1074.557	-13.03338
1074.911	8.01784
1075.265	22.04859
1075.618	37.08535
1075.971	67.1516
1076.325	-10.02437
1076.678	21.0456
1077.031	-6.01292
1077.385	2.00411
1077.738	50.10683
1078.091	-10.02187
1078.444	51.11111
1078.796	30.07054
1079.149	70.16562
1079.502	4.00901
1079.855	10.02205
1080.207	18.04191
1080.56	6.01496
1080.912	11.0253
1081.264	-42.09664
1081.617	-11.02561
1081.969	-33.08086
1082.321	20.04681
1082.673	-49.10707
1083.025	-4.00891
1083.377	-295.61973
1083.728	6.01333
1084.08	-19.04519
1084.432	-14.03246
1084.783	47.1024
1085.135	13.03133
1085.486	23.05024
1085.838	11.02584
1086.189	31.0716
1086.54	0
1086.891	-11.02673
1087.242	11.0253
1087.593	-14.03195
1087.944	27.0581
1088.295	-12.02568
1088.646	-5.0114
1088.996	-14.03255
1089.347	-15.03502
1089.698	-24.05458
1090.048	52.12905
1090.398	-45.09904
1090.749	-10.02292
1091.099	51.12437
1091.449	6.01438
1091.799	-26.06228
1092.149	18.04246
1092.499	32.07433
1092.849	-7.01715
1093.199	26.06142
1093.548	-22.05076
1093.898	3.00724
1094.248	18.04402
1094.597	15.03763
1094.947	3.00775
1095.296	47.11131
1095.645	-32.07962
1095.994	2.00449
1096.343	-40.09523
1096.692	-14.03552
1097.041	34.09059
1097.39	24.05751
1097.739	18.04475
1098.088	-33.08441
1098.437	-30.07758
1098.785	66.17234
1099.134	-2.00505
1099.482	-5.01319
1099.83	36.09149
1100.179	36.091
1100.527	60.15388
1100.875	1.00257
1101.223	8.02047
1101.571	4.01081
1101.919	-28.07206
1102.267	36.09908
1102.615	-3.00965
1102.962	-5.01604
1103.31	2.00642
1103.658	-1.00321
