Data from N3 R8 sample 3_Subt2__1__13-55-46-138.txt Node

Date: Mon Sep 22 13:55:46 PDT 2025
User: uwsun
Spectrometer: HDX01956
Trigger mode: 0
Integration Time (sec): 5.000000E-1
Scans to average: 1
Nonlinearity correction enabled: true
Boxcar width: 0
Storing dark spectrum: false
XAxis mode: Wavelengths
Number of Pixels in Spectrum: 2068
>>>>>Begin Spectral Data<<<<<
194.03	7.02035
194.578	8.02599
195.127	4.01285
195.676	1.00321
196.225	14.03723
196.773	-25.06943
197.321	24.06712
197.87	31.08013
198.418	70.18091
198.966	83.21993
199.513	34.08695
200.061	87.22293
200.609	87.23015
201.156	38.08519
201.704	79.20172
202.251	68.18208
202.798	105.2744
203.345	79.19523
203.892	60.15291
204.438	34.08051
204.985	66.15881
205.532	56.14951
206.078	52.12848
206.624	86.21459
207.17	112.25862
207.716	98.24143
208.262	54.10801
208.808	105.26385
209.354	115.28336
209.899	105.26839
210.445	108.273
210.99	90.22074
211.535	56.13162
212.08	114.26889
212.625	62.15661
213.17	20.05057
213.715	40.09093
214.259	102.23825
214.804	82.20313
215.348	71.16568
215.892	68.1635
216.436	97.22287
216.98	92.20396
217.524	76.1819
218.068	59.14666
218.612	39.0979
219.155	116.27265
219.698	45.10661
220.242	86.21171
220.785	87.20517
221.328	86.21389
221.871	29.07225
222.414	23.05705
222.956	34.08218
223.499	105.23729
224.041	82.18935
224.583	70.14981
225.126	70.15312
225.668	40.09734
226.21	34.0861
226.751	37.08164
227.293	57.12965
227.835	68.16573
228.376	78.17717
228.918	110.27468
229.459	104.25809
230	46.1093
230.541	53.12197
231.082	-2.00487
231.622	15.03452
232.163	70.1699
232.704	58.14347
233.244	57.14112
233.784	56.13618
234.324	20.04393
234.864	45.10132
235.404	106.25002
235.944	82.19574
236.484	8.01973
237.023	31.07356
237.563	35.08103
238.102	73.17008
238.641	57.14365
239.18	86.20198
239.719	26.06467
240.258	64.14212
240.797	71.16984
241.335	89.21557
241.874	74.14026
242.412	53.12664
242.95	97.23318
243.488	47.10643
244.026	85.1978
244.564	112.22766
245.102	86.19272
245.64	45.10736
246.177	88.19688
246.715	85.20068
247.252	41.0939
247.789	127.22948
248.326	70.16888
248.863	63.13801
249.4	53.11865
249.936	64.13134
250.473	74.17162
251.009	74.16911
251.546	95.20679
252.082	112.24468
252.618	49.10974
253.154	46.11077
253.69	81.18073
254.226	62.14788
254.761	58.1295
255.297	43.094
255.832	86.2045
256.367	49.11551
256.903	78.16961
257.438	97.22875
257.972	76.1668
258.507	100.23174
259.042	123.26763
259.576	32.06935
260.111	32.0736
260.645	93.19753
261.179	108.25058
261.713	81.18133
262.247	108.24948
262.781	98.20665
263.315	108.26381
263.849	108.26606
264.382	75.17101
264.915	72.16857
265.449	76.18723
265.982	115.2584
266.515	88.21255
267.048	44.09184
267.58	60.12913
268.113	45.09646
268.646	99.24385
269.178	125.28341
269.71	97.20899
270.243	59.13241
270.775	69.17383
271.307	86.20442
271.838	104.24206
272.37	116.28556
272.902	35.07961
273.433	62.13522
273.965	87.20914
274.496	126.31052
275.027	105.26015
275.558	92.2212
276.089	151.37548
276.62	112.28462
277.15	93.22704
277.681	115.24522
278.211	100.24317
278.741	93.20553
279.272	98.22413
279.802	113.28181
280.332	96.22511
280.861	81.19324
281.391	89.20056
281.921	97.23123
282.45	169.41533
282.98	129.33182
283.509	137.30695
284.038	34.07707
284.567	104.23881
285.096	135.32305
285.625	63.14226
286.153	87.20397
286.682	119.27177
287.21	54.12979
287.739	69.16215
288.267	139.33414
288.795	104.27285
289.323	53.12401
289.851	76.17577
290.378	119.26629
290.906	114.27877
291.433	91.22497
291.961	87.19645
292.488	118.29102
293.015	93.2165
293.542	90.22539
294.069	128.31347
294.596	131.31957
295.122	143.33197
295.649	113.24618
296.175	136.32488
296.702	66.15724
297.228	159.38251
297.754	83.18175
298.28	145.32781
298.806	109.25984
299.332	201.44607
299.857	122.27666
300.383	100.24771
300.908	102.24794
301.433	140.3384
301.958	149.34029
302.483	98.24427
303.008	126.30915
303.533	100.25736
304.058	87.20189
304.582	110.25794
305.107	94.24419
305.631	106.23637
306.155	173.39764
306.679	149.35069
307.203	101.23215
307.727	98.22989
308.251	116.28197
308.775	82.19551
309.298	87.20731
309.822	133.33217
310.345	179.42047
310.868	165.39197
311.391	133.32033
311.914	122.30497
312.437	137.30644
312.96	114.26586
313.482	144.33753
314.005	160.39691
314.527	134.34917
315.049	120.29932
315.571	152.33642
316.093	121.29429
316.615	135.32477
317.137	177.38135
317.659	164.39281
318.18	151.35885
318.702	165.37652
319.223	155.31398
319.744	180.39805
320.265	193.46394
320.786	166.40638
321.307	157.38399
321.828	155.34527
322.348	158.36367
322.869	192.44493
323.389	451.78137
323.909	133.30019
324.43	157.3675
324.95	254.57176
325.47	196.47553
325.989	221.50938
326.509	170.37233
327.029	158.35276
327.548	229.51179
328.067	213.50247
328.587	207.50174
329.106	203.4505
329.625	148.37583
330.144	220.49361
330.662	256.5871
331.181	192.43451
331.7	220.49787
332.218	233.49035
332.736	233.52825
333.255	194.44136
333.773	263.60714
334.291	238.5759
334.808	226.49371
335.326	247.54175
335.844	258.58884
336.361	262.64825
336.879	244.54745
337.396	301.70424
337.913	305.68359
338.43	268.57901
338.947	261.59509
339.464	331.68799
339.981	279.64228
340.497	284.67916
341.014	323.756
341.53	260.56534
342.046	275.65525
342.562	290.69085
343.078	321.72034
343.594	345.78372
344.11	378.85675
344.626	311.74669
345.141	303.66121
345.657	314.67781
346.172	338.77668
346.687	321.7079
347.202	294.6262
347.717	365.83887
348.232	309.73314
348.747	340.7465
349.261	309.64799
349.776	350.78266
350.29	397.93824
350.805	385.89472
351.319	368.81442
351.833	328.7056
352.347	358.80648
352.861	384.83883
353.374	401.85389
353.888	413.93853
354.401	353.76867
354.915	403.84435
355.428	400.93855
355.941	409.89475
356.454	413.863
356.967	401.88244
357.48	450.96883
357.993	419.95447
358.505	432.99737
359.018	398.90353
359.53	467.05485
360.042	491.00732
360.554	408.91721
361.066	468.05905
361.578	462.93864
362.09	446.98164
362.602	437.89979
363.113	414.90052
363.625	436.90722
364.136	426.8655
364.647	512.11452
365.158	512.10367
365.669	478.04964
366.18	545.17869
366.691	493.00688
367.201	485.05588
367.712	497.04078
368.222	505.04683
368.733	558.10198
369.243	547.10676
369.753	519.09652
370.263	517.12376
370.773	555.23305
371.282	498.07114
371.792	583.21259
372.301	592.29494
372.811	656.53673
373.32	652.24281
373.829	612.29361
374.338	694.36145
374.847	687.40194
375.356	664.41163
375.865	841.54142
376.373	792.57008
376.882	735.60774
377.39	825.70445
377.898	776.66571
378.407	851.60993
378.915	880.60374
379.423	979.9147
379.93	991.83426
380.438	952.91313
380.946	1047.97661
381.453	1129.15209
381.96	1152.17544
382.468	1233.21207
382.975	1256.32181
383.482	1288.13588
383.989	1346.61797
384.495	1395.30878
385.002	1494.15175
385.509	1535.55049
386.015	1694.10772
386.521	1735.50628
387.028	1908.69432
387.534	1905.49143
388.04	1927.80554
388.546	2056.71471
389.051	2107.61288
389.557	2288.97577
390.063	2487.79166
390.568	2458.04848
391.073	2552.73549
391.578	2792.25292
392.084	2803.86749
392.589	2869.5192
393.093	3183.96699
393.598	3489.64105
394.103	3772.87034
394.607	4142.59964
395.112	4464.60955
395.616	4732.27862
396.12	5145.66102
396.624	5646.55212
397.128	6141.48621
397.632	6873.33478
398.136	7361.28216
398.639	7864.75112
399.143	8777.019
399.646	9757.27368
400.15	10819.262
400.653	12164.71233
401.156	13731.81807
401.659	15922.0733
402.162	19615.51717
402.664	25682.28562
403.167	37473.62915
403.67	57258.79531
404.172	52566.9044
404.674	31176.06428
405.176	3757.7064
405.678	27.69154
406.18	0
406.682	0
407.184	45159.96023
407.686	58897.86778
408.187	61455.21265
408.688	61917.9837
409.19	43724.8897
409.691	35273.26129
410.192	30003.90792
410.693	26017.96756
411.194	23388.61499
411.694	22326.56429
412.195	20582.2859
412.696	18635.96929
413.196	17482.40308
413.696	17112.57832
414.196	17476.77938
414.696	16839.61804
415.196	16047.42538
415.696	14517.49602
416.196	11498.66427
416.695	8859.0907
417.195	7863.79806
417.694	7398.96341
418.194	7007.83095
418.693	6594.09188
419.192	6389.27341
419.691	6217.29463
420.19	6031.56861
420.688	5928.70835
421.187	5663.88144
421.685	5179.72412
422.184	4710.0544
422.682	4107.9851
423.18	3470.71908
423.678	3174.8065
424.176	2847.76857
424.674	2836.6389
425.172	2654.98339
425.669	2537.30266
426.167	2324.82834
426.664	2080.71853
427.161	1965.71027
427.659	1732.7229
428.156	1675.22392
428.652	1550.74756
429.149	1533.6012
429.646	1388.13756
430.143	1421.44354
430.639	1254.19553
431.135	1224.31515
431.632	1107.93788
432.128	1112.04667
432.624	1011.08649
433.12	977.75446
433.616	945.60079
434.111	862.66612
434.607	841.66231
435.103	857.43876
435.598	798.29029
436.093	787.5155
436.588	743.36762
437.083	696.29024
437.578	677.31398
438.073	610.32537
438.568	568.19733
439.062	634.14121
439.557	575.17095
440.051	524.04246
440.546	595.19911
441.04	558.17365
441.534	543.20985
442.028	486.00939
442.522	434.92877
443.015	451.87262
443.509	503.07937
444.002	455.98695
444.496	417.82461
444.989	429.9381
445.482	429.96579
445.975	437.89331
446.468	410.7893
446.961	400.76227
447.454	418.85041
447.947	364.77259
448.439	402.8748
448.931	351.71524
449.424	343.77602
449.916	342.73982
450.408	307.62559
450.9	357.78991
451.392	268.61856
451.884	252.52064
452.375	318.71375
452.867	269.54815
453.358	270.56308
453.849	283.54624
454.341	353.71506
454.832	209.41174
455.323	285.63693
455.814	260.54849
456.304	291.60593
456.795	273.56693
457.285	231.46793
457.776	264.53931
458.266	262.56751
458.756	320.70377
459.247	232.50789
459.737	218.47825
460.226	307.63355
460.716	161.35522
461.206	236.51905
461.695	201.46366
462.185	175.38417
462.674	201.42636
463.163	229.47068
463.653	177.34262
464.142	187.41517
464.63	151.34193
465.119	203.44244
465.608	215.45665
466.096	212.42974
466.585	129.27447
467.073	154.34369
467.561	178.39954
468.05	219.4763
468.538	155.35185
469.026	185.41415
469.513	190.38285
470.001	229.48851
470.489	179.39559
470.976	212.45195
471.463	111.25698
471.951	171.39635
472.438	118.26247
472.925	150.33337
473.412	162.37318
473.899	137.29314
474.385	96.22123
474.872	168.37353
475.359	90.20865
475.845	157.30347
476.331	179.36426
476.817	119.27396
477.303	198.43456
477.789	127.29028
478.275	127.30031
478.761	133.30105
479.247	78.1652
479.732	72.17226
480.218	108.26812
480.703	129.30562
481.188	116.23428
481.673	93.20201
482.158	89.18392
482.643	63.1526
483.128	78.16903
483.612	103.23001
484.097	83.19215
484.581	47.10357
485.066	63.14446
485.55	28.05863
486.034	78.16115
486.518	65.14683
487.002	84.19959
487.486	50.11757
487.969	58.13739
488.453	67.1632
488.936	107.23192
489.42	65.13613
489.903	69.16757
490.386	54.11847
490.869	75.15582
491.352	96.22538
491.835	82.16036
492.318	66.14376
492.8	67.13187
493.283	11.02709
493.765	53.12615
494.247	36.07988
494.73	64.13514
495.212	-8.01846
495.694	41.09281
496.175	56.12941
496.657	52.11701
497.139	-4.00663
497.62	-19.04416
498.102	-3.00726
498.583	27.06518
499.064	32.06923
499.545	56.12353
500.026	33.07162
500.507	12.02683
500.988	-16.03825
501.469	58.1412
501.949	14.03347
502.43	22.05129
502.91	-5.01003
503.39	4.00962
503.87	63.14353
504.35	-41.09216
504.83	18.03851
505.31	24.05599
505.79	0
506.269	-16.03603
506.749	36.08028
507.228	5.01136
507.707	-13.02806
508.187	-78.18069
508.666	-47.11354
509.145	-50.11311
509.623	-30.06834
510.102	-47.1095
510.581	-44.10237
511.059	-43.10486
511.538	-76.1895
512.016	-95.21967
512.494	-6.01411
512.972	-55.12693
513.45	-57.1317
513.928	-12.02811
514.406	-77.18306
514.884	-81.20318
515.361	-43.09912
515.839	16.03553
516.316	-24.05604
516.793	-21.05148
517.27	-28.06538
517.747	-20.0502
518.224	-56.12529
518.701	-50.10794
519.178	-50.12063
519.654	-55.12571
520.131	-74.17867
520.607	-51.12251
521.083	-103.23096
521.56	-26.05973
522.036	-83.17798
522.512	-58.13829
522.987	-47.10959
523.463	-70.16177
523.939	-21.04947
524.414	-57.12613
524.89	-34.07882
525.365	-65.14197
525.84	-52.12127
526.315	-36.08392
526.79	-76.16547
527.265	-32.07012
527.74	-64.15301
528.215	-92.21117
528.689	-104.22277
529.164	-96.20137
529.638	-81.20376
530.112	-76.17591
530.587	-81.16972
531.061	-144.34017
531.534	-81.19005
532.008	-104.24511
532.482	-60.13269
532.956	-96.23911
533.429	-90.21187
533.903	-38.08024
534.376	-79.16853
534.849	-63.14034
535.322	-80.18164
535.795	-161.38158
536.268	-80.18811
536.741	-107.24968
537.213	-86.1909
537.686	-101.23975
538.158	-45.09845
538.631	-111.26135
539.103	-82.17952
539.575	-80.15838
540.047	-100.2105
540.519	-127.29145
540.991	-67.15776
541.463	-78.18505
541.934	-117.25998
542.406	-59.13486
542.877	-38.08463
543.348	-119.27757
543.82	-68.1612
544.291	-24.05394
544.762	-129.29722
545.233	-73.17735
545.703	-126.27293
546.174	-77.17444
546.645	-69.16284
547.115	-72.17002
547.585	-88.19777
548.056	-78.18483
548.526	-91.21076
548.996	-109.25515
549.466	-77.18405
549.935	-92.21514
550.405	-77.16505
550.875	-130.30233
551.344	-76.17759
551.814	-65.14455
552.283	-59.12428
552.752	-36.08144
553.221	-64.13804
553.69	-50.10914
554.159	-59.14205
554.628	-78.17141
555.096	-45.11113
555.565	-106.22941
556.033	-81.18492
556.502	-115.2714
556.97	-118.25451
557.438	-92.21066
557.906	-132.30116
558.374	-92.20821
558.842	-104.24196
559.31	-100.21485
559.777	-60.143
560.245	-141.31968
560.712	-123.27808
561.18	-120.25849
561.647	-66.1448
562.114	-99.22245
562.581	-59.14086
563.048	-118.26269
563.514	-162.39054
563.981	-103.2284
564.448	-36.07978
564.914	-101.22778
565.381	-114.25221
565.847	-124.28211
566.313	-122.27542
566.779	-124.27387
567.245	-66.15003
567.711	-82.19356
568.176	-165.36282
568.642	-120.2953
569.108	-103.24713
569.573	-149.33988
570.038	-111.22557
570.504	-120.26415
570.969	-77.18784
571.434	-129.27853
571.899	-146.3378
572.363	-78.17372
572.828	-113.24942
573.293	-77.17081
573.757	-143.3196
574.222	-111.24131
574.686	-68.14981
575.15	-110.25491
575.614	-110.24549
576.078	-75.17219
576.542	-91.19985
577.006	-38.08284
577.469	-110.26137
577.933	-82.17618
578.396	-76.1748
578.86	-115.2601
579.323	-70.16164
579.786	-109.22818
580.249	-129.28545
580.712	-64.15207
581.175	-93.22136
581.637	-109.23898
582.1	-158.33376
582.563	-112.22776
583.025	-88.20676
583.487	-76.14821
583.95	-103.21677
584.412	-55.11141
584.874	-168.39163
585.336	-68.15615
585.797	-73.15207
586.259	-109.24452
586.721	-174.39954
587.182	-138.30365
587.643	-107.23133
588.105	-108.2469
588.566	-123.24779
589.027	-88.20539
589.488	-139.30424
589.949	-114.26607
590.41	-83.15751
590.87	-71.15435
591.331	-119.24514
591.791	-159.35638
592.252	-152.33838
592.712	-107.24811
593.172	-162.35136
593.632	-59.12171
594.092	-52.11071
594.552	-138.28435
595.011	-129.28343
595.471	-101.212
595.931	-64.13608
596.39	-71.16196
596.849	-132.29459
597.308	-96.19834
597.768	-92.22464
598.227	-61.14094
598.685	-66.14412
599.144	-56.12617
599.603	-86.19042
600.062	7.01391
600.52	-15.03167
600.978	-26.05783
601.437	-53.11252
601.895	36.07131
602.353	-27.05532
602.811	-23.04715
603.269	-11.02446
603.727	35.0781
604.184	27.0575
604.642	2.00451
605.099	73.15546
605.557	80.1781
606.014	71.14073
606.471	93.21436
606.928	112.22277
607.385	169.3844
607.842	159.32622
608.299	119.25
608.755	224.48562
609.212	253.49936
609.668	261.51152
610.125	281.59917
610.581	311.63921
611.037	288.5667
611.493	323.66268
611.949	328.69953
612.405	406.6849
612.861	425.842
613.316	357.73475
613.772	432.84086
614.227	438.88298
614.683	486.85882
615.138	480.95208
615.593	537.06167
616.048	522.99093
616.503	547.12597
616.958	571.21131
617.412	597.18383
617.867	479.88824
618.321	513.85821
618.776	514.93345
619.23	545.06745
619.684	502.92139
620.138	514.97194
620.592	515.04952
621.046	520.01382
621.5	556.13657
621.954	452.8367
622.407	515.93979
622.861	524.08557
623.314	468.86546
623.768	490.95876
624.221	528.87002
624.674	409.79893
625.127	462.91296
625.58	400.76486
626.033	431.79124
626.485	407.84821
626.938	439.89903
627.39	400.79414
627.843	385.75883
628.295	376.75346
628.747	361.73863
629.199	400.77709
629.651	354.70839
630.103	373.74555
630.555	324.59403
631.006	317.65478
631.458	374.77615
631.909	291.5687
632.361	253.52306
632.812	333.68289
633.263	290.54511
633.714	236.44666
634.165	292.62411
634.616	265.56456
635.067	265.52009
635.518	252.53138
635.968	260.45483
636.419	257.48986
636.869	261.55338
637.319	231.47972
637.769	219.44241
638.219	262.5515
638.669	238.51729
639.119	295.64375
639.569	267.58734
640.019	235.48301
640.468	316.62883
640.918	247.53833
641.367	223.4447
641.816	248.49397
642.265	281.58329
642.714	288.58914
643.163	288.59261
643.612	352.77056
644.061	337.64298
644.51	380.77064
644.958	365.70351
645.406	331.70301
645.855	307.66852
646.303	376.76427
646.751	340.68164
647.199	361.72324
647.647	368.75312
648.095	379.77054
648.543	396.68733
648.99	393.83577
649.438	375.76693
649.885	412.90417
650.333	411.67017
650.78	408.87238
651.227	401.85538
651.674	375.75476
652.121	369.8001
652.568	385.83087
653.015	398.87639
653.461	412.87484
653.908	362.74152
654.354	359.74851
654.801	410.86186
655.247	409.77999
655.693	364.8621
656.139	375.81207
656.585	366.77073
657.031	318.67084
657.477	334.64484
657.922	403.82008
658.368	343.75166
658.813	377.77346
659.259	335.72267
659.704	359.7545
660.149	344.71867
660.594	333.70356
661.039	355.72471
661.484	282.60065
661.929	315.66962
662.373	320.74062
662.818	248.55688
663.262	336.73865
663.707	327.76176
664.151	278.61398
664.595	318.70231
665.039	283.63351
665.483	335.77517
665.927	342.72558
666.371	324.6928
666.814	267.57846
667.258	324.70299
667.701	312.5934
668.145	328.73438
668.588	321.71767
669.031	296.6447
669.474	315.69001
669.917	346.68276
670.36	329.74344
670.803	310.67233
671.245	333.60946
671.688	365.80694
672.13	290.59619
672.573	303.69891
673.015	296.64717
673.457	323.63932
673.899	296.64771
674.341	353.77324
674.783	311.68786
675.225	285.64061
675.666	319.70054
676.108	374.73524
676.549	340.73361
676.991	360.71306
677.432	401.71171
677.873	388.80304
678.314	299.65524
678.755	326.72238
679.196	357.74401
679.637	351.77599
680.078	315.65532
680.518	328.68768
680.959	317.69
681.399	376.85083
681.839	368.80966
682.28	331.75649
682.72	336.69729
683.16	304.69968
683.6	328.67279
684.039	338.62189
684.479	350.78331
684.919	395.83234
685.358	333.7583
685.798	381.92268
686.237	341.74002
686.676	305.62094
687.115	432.9089
687.554	420.8926
687.993	410.80032
688.432	387.78501
688.871	420.84825
689.309	397.85603
689.748	374.675
690.186	420.88832
690.625	424.89364
691.063	356.76352
691.501	419.91507
691.939	446.99522
692.377	439.96077
692.815	479.0238
693.253	421.88985
693.69	392.75755
694.128	471.00189
694.565	505.06596
695.003	487.09921
695.44	554.13298
695.877	492.00779
696.314	502.9149
696.751	579.1347
697.188	558.11075
697.625	530.02356
698.061	542.13794
698.498	594.23523
698.934	561.16158
699.371	563.1444
699.807	588.17927
700.243	593.23013
700.679	647.21624
701.115	595.17051
701.551	645.2768
701.987	655.20051
702.422	698.40992
702.858	700.38811
703.294	672.2686
703.729	653.35598
704.164	733.47293
704.599	694.2667
705.035	698.30425
705.47	715.46444
705.904	795.5126
706.339	763.43262
706.774	767.47127
707.209	779.47277
707.643	833.64033
708.078	884.77227
708.512	905.87321
708.946	852.65226
709.38	859.62984
709.814	855.52783
710.248	923.81354
710.682	893.69199
711.116	977.89459
711.549	890.8696
711.983	889.62549
712.416	980.7909
712.85	960.87175
713.283	1014.85038
713.716	1013.97662
714.149	1077.92366
714.582	1052.74384
715.015	1145.19632
715.448	1055.03976
715.881	1135.76833
716.313	1052.86105
716.746	1109.96879
717.178	1128.03902
717.61	1136.18788
718.043	1208.24386
718.475	1172.14566
718.907	1225.29292
719.339	1212.01796
719.77	1217.12103
720.202	1332.48955
720.634	1353.38509
721.065	1329.22537
721.497	1348.33267
721.928	1392.46113
722.359	1429.44052
722.79	1489.48699
723.221	1510.67081
723.652	1563.76575
724.083	1544.31394
724.514	1634.45773
724.945	1644.56249
725.375	1674.57835
725.806	1687.75807
726.236	1668.90655
726.666	1699.58928
727.096	1786.7785
727.526	1801.98508
727.956	1768.44186
728.386	1800.80858
728.816	1873.07959
729.246	1890.83842
729.675	1951.95829
730.105	1945.89743
730.534	1963.64416
730.964	2040.09579
731.393	2092.05648
731.822	2046.12856
732.251	2212.26872
732.68	2167.81053
733.109	2219.1002
733.537	2236.03838
733.966	2267.14751
734.395	2211.70886
734.823	2255.58788
735.251	2311.03907
735.68	2365.15118
736.108	2388.34855
736.536	2333.83285
736.964	2465.86818
737.392	2470.29945
737.82	2460.05316
738.247	2366.9077
738.675	2451.87565
739.102	2424.23159
739.53	2460.3891
739.957	2476.38635
740.384	2543.12142
740.811	2498.28279
741.238	2501.10112
741.665	2550.9142
742.092	2440.87129
742.519	2463.23393
742.945	2444.04275
743.372	2533.19835
743.798	2527.45755
744.225	2537.06889
744.651	2480.22012
745.077	2530.29424
745.503	2495.06176
745.929	2534.01515
746.355	2488.09582
746.781	2561.2202
747.207	2423.94505
747.632	2490.14479
748.058	2457.15034
748.483	2450.72237
748.908	2603.32396
749.334	2440.12453
749.759	2410.86459
750.184	2415.00609
750.609	2476.14733
751.033	2356.83116
751.458	2438.59358
751.883	2465.24508
752.307	2366.89569
752.732	2405.34299
753.156	2432.20517
753.58	2341.82518
754.005	2362.24566
754.429	2397.85545
754.853	2427.16825
755.277	2353.90202
755.7	2387.13447
756.124	2462.25886
756.548	2334.93412
756.971	2311.99981
757.394	2434.49303
757.818	2425.53342
758.241	2274.24539
758.664	2323.3243
759.087	2267.65561
759.51	2285.08433
759.933	2275.01554
760.356	2358.4178
760.778	2340.12577
761.201	2332.04467
761.623	2283.05007
762.046	2261.82444
762.468	2222.82041
762.89	2260.11695
763.312	2266.94812
763.734	2250.98656
764.156	2275.13923
764.578	2198.73257
765	2189.9589
765.421	2130.25934
765.843	2136.35173
766.264	2195.89901
766.686	2182.17181
767.107	2095.89393
767.528	1976.09337
767.949	2117.20828
768.37	2129.02136
768.791	2125.93273
769.212	2007.08836
769.632	1991.7105
770.053	1947.27235
770.473	2009.86546
770.894	1976.03727
771.314	1905.62076
771.734	1897.61616
772.154	1893.07052
772.575	1921.58962
772.994	1923.59406
773.414	1919.7734
773.834	1788.84233
774.254	1805.72251
774.673	1885.82829
775.093	1864.96127
775.512	1736.7184
775.931	1754.85842
776.351	1691.74947
776.77	1706.76873
777.189	1656.56955
777.607	1644.82134
778.026	1647.75143
778.445	1586.72403
778.864	1606.78913
779.282	1622.58017
779.701	1505.63527
780.119	1519.63235
780.537	1493.62092
780.955	1497.63886
781.373	1440.4679
781.791	1416.13919
782.209	1391.12786
782.627	1412.70273
783.045	1393.20607
783.462	1295.41842
783.88	1279.46806
784.297	1316.41745
784.715	1283.46758
785.132	1217.17102
785.549	1247.31824
785.966	1233.29552
786.383	1202.20847
786.8	1109.8867
787.217	1074.90795
787.633	1124.16368
788.05	1030.77208
788.466	1039.83657
788.883	1066.15169
789.299	1020.90445
789.715	1011.89831
790.131	1029.96717
790.547	970.89484
790.963	971.91334
791.379	995.00402
791.795	877.53665
792.21	938.69416
792.626	820.55534
793.041	915.81467
793.457	870.72011
793.872	814.55369
794.287	799.57624
794.702	784.57084
795.117	756.56839
795.532	769.60354
795.947	712.36199
796.362	732.40774
796.776	667.25637
797.191	664.35893
797.605	663.31371
798.02	641.30795
798.434	606.0907
798.848	612.29418
799.262	607.30011
799.676	526.07416
800.09	493.04968
800.504	543.12324
800.918	506.00237
801.331	558.26203
801.745	445.88163
802.158	488.06399
802.572	464.97278
802.985	465.96175
803.398	432.9029
803.811	476.07019
804.224	416.90487
804.637	425.90263
805.05	384.77448
805.462	410.89296
805.875	389.9172
806.288	321.69811
806.7	383.85873
807.112	339.69959
807.525	263.5817
807.937	389.87756
808.349	336.75755
808.761	311.69618
809.173	271.59614
809.584	304.67308
809.996	344.76893
810.408	281.67263
810.819	268.57381
811.231	270.66142
811.642	302.68258
812.053	279.62147
812.464	308.6808
812.875	206.48455
813.286	234.55982
813.697	236.48758
814.108	238.53311
814.519	250.49587
814.929	254.60069
815.34	229.50905
815.75	207.49249
816.16	190.43575
816.571	188.45629
816.981	192.41624
817.391	237.5277
817.801	174.40545
818.211	182.39659
818.62	137.30518
819.03	170.38754
819.44	173.4195
819.849	154.36647
820.259	179.42473
820.668	110.25188
821.077	171.39792
821.486	139.31002
821.895	168.38592
822.304	108.27105
822.713	132.29044
823.122	110.25905
823.531	89.19669
823.939	105.23922
824.348	152.34791
824.756	149.34672
825.164	114.26889
825.573	112.26581
825.981	157.36548
826.389	81.18998
826.797	31.07407
827.205	88.19151
827.612	102.23637
828.02	72.16148
828.428	78.18897
828.835	52.13121
829.243	35.07871
829.65	64.15236
830.057	51.11798
830.464	88.20522
830.871	42.09362
831.278	19.04378
831.685	22.04627
832.092	92.21379
832.499	52.10546
832.905	47.11208
833.312	30.06373
833.718	103.24327
834.124	115.24671
834.531	44.10531
834.937	29.07059
835.343	63.14139
835.749	36.07821
836.155	10.02512
836.561	81.18998
836.966	32.07342
837.372	44.10676
837.777	58.13887
838.183	-22.04613
838.588	105.24963
838.993	44.10164
839.399	59.13681
839.804	21.04945
840.209	-42.10278
840.613	-12.02513
841.018	28.06735
841.423	-14.03435
841.828	47.11444
842.232	97.22563
842.637	64.14325
843.041	6.01488
843.445	89.21436
843.849	20.04774
844.253	77.17245
844.657	54.13097
845.061	14.0299
845.465	-37.08569
845.869	17.03759
846.272	35.08215
846.676	55.12586
847.079	13.03189
847.483	3.00705
847.886	-21.04804
848.289	-16.04159
848.692	40.09727
849.095	47.10773
849.498	16.03799
849.901	66.14272
850.304	21.04742
850.707	15.03648
851.109	48.11467
851.512	2.00469
851.914	38.09337
852.316	13.03141
852.718	29.07269
853.121	0
853.523	-18.03997
853.925	24.06142
854.326	11.02648
854.728	33.08203
855.13	30.07537
855.531	58.13254
855.933	39.089
856.334	-3.00717
856.736	51.10865
857.137	42.09323
857.538	22.05364
857.939	-7.01666
858.34	11.02555
858.741	20.05014
859.142	16.03661
859.542	33.08414
859.943	11.02631
860.343	-6.01429
860.744	21.0492
861.144	39.09154
861.544	20.04695
861.945	31.07602
862.345	63.14562
862.745	39.09286
863.145	-57.12813
863.544	4.00969
863.944	5.01123
864.344	58.13723
864.743	48.11221
865.143	2.00493
865.542	-13.0288
865.941	9.0212
866.34	-26.05918
866.74	-2.00515
867.139	36.08366
867.537	-41.10069
867.936	34.07717
868.335	28.06842
868.734	61.14903
869.132	-18.03944
869.531	41.09394
869.929	20.0436
870.327	44.10083
870.726	4.00939
871.124	9.01962
871.522	14.03443
871.92	-27.06293
872.318	-4.00932
872.715	41.0959
873.113	11.02557
873.511	19.04555
873.908	9.02215
874.306	-17.04085
874.703	-11.02625
875.1	11.02678
875.497	-16.03673
875.894	-16.03787
876.291	-1.00234
876.688	35.08748
877.085	-12.02718
877.482	27.06417
877.878	31.07146
878.275	-24.0588
878.671	-1.00208
879.068	53.1208
879.464	-28.06466
879.86	49.11186
880.256	-5.01165
880.652	3.00738
881.048	12.02834
881.444	11.0247
881.84	52.12636
882.236	25.05998
882.631	-21.04896
883.027	-4.00913
883.422	23.0569
883.817	-46.11282
884.213	-18.04448
884.608	-29.06908
885.003	-11.02531
885.398	-3.00723
885.793	33.07957
886.188	11.02642
886.582	25.06053
886.977	10.02239
887.371	29.07003
887.766	-22.05324
888.16	-10.02386
888.554	16.03717
888.949	-12.02859
889.343	34.07801
889.737	4.01045
890.131	-11.02653
890.525	7.01714
890.918	-4.00969
891.312	43.09722
891.706	23.05807
892.099	-6.01452
892.492	-15.0303
892.886	40.09369
893.279	-25.06153
893.672	-37.09063
894.065	-36.08544
894.458	36.08653
894.851	-61.14128
895.244	12.02943
895.637	60.13656
896.029	17.04001
896.422	-20.04651
896.814	8.01919
897.206	-15.03426
897.599	-11.02568
897.991	-17.0392
898.383	-6.01348
898.775	-13.02806
899.167	27.06057
899.559	-8.01943
899.951	15.0334
900.342	24.05827
900.734	-31.07472
901.125	-16.04004
901.517	4.00937
901.908	-17.03864
902.299	41.09571
902.69	-1.00225
903.082	-13.02974
903.473	-11.02546
903.863	-1.00245
904.254	-26.05771
904.645	-30.0704
905.036	1.00235
905.426	70.14813
905.817	-10.02337
906.207	14.03229
906.597	-33.07418
906.987	54.13357
907.378	6.01446
907.768	-39.09972
908.158	8.01847
908.547	-66.16343
908.937	-4.00985
909.327	-49.11317
909.717	-20.04774
910.106	-44.10002
910.495	31.07328
910.885	31.07461
911.274	-23.05512
911.663	6.01454
912.052	-38.08845
912.441	1.00243
912.83	81.17677
913.219	11.02743
913.608	-4.00927
913.997	-52.12721
914.385	-19.04296
914.774	57.13201
915.162	-29.06653
915.55	-48.10916
915.939	22.0536
916.327	17.04067
916.715	70.17308
917.103	-23.05308
917.491	-36.08425
917.878	8.01874
918.266	3.00742
918.654	37.09053
919.041	-55.14039
919.429	32.07162
919.816	26.06306
920.203	-35.08113
920.591	31.07432
920.978	40.09292
921.365	-16.04008
921.752	-42.09505
922.139	26.05249
922.525	33.07637
922.912	53.1227
923.299	9.02149
923.685	12.03014
924.072	-58.12606
924.458	4.00946
924.844	-6.01422
925.231	-11.02446
925.617	38.09331
926.003	-11.0269
926.389	-18.04357
926.774	-18.04376
927.16	12.02833
927.546	44.10872
927.931	-24.05663
928.317	-44.09543
928.702	1.00222
929.088	-53.12041
929.473	9.02205
929.858	-20.04719
930.243	-8.01838
930.628	3.00698
931.013	40.09581
931.398	23.0493
931.783	-28.07106
932.167	8.01838
932.552	13.03111
932.937	21.04879
933.321	-5.01202
933.705	38.09206
934.09	39.09251
934.474	-39.08785
934.858	9.02264
935.242	1.00224
935.626	-23.05671
936.009	7.01813
936.393	24.05834
936.777	6.0149
937.16	-13.03259
937.544	-36.07981
937.927	-25.06112
938.311	-6.01362
938.694	-3.00763
939.077	-19.04353
939.46	-7.01624
939.843	10.01922
940.226	9.02214
940.609	-9.01946
940.991	4.00982
941.374	-5.0118
941.757	-16.03733
942.139	4.00855
942.522	3.00669
942.904	61.14066
943.286	-31.07469
943.668	37.09171
944.05	16.03771
944.432	-20.04739
944.814	33.07773
945.196	22.05203
945.578	8.01823
945.959	21.04707
946.341	14.03207
946.722	-2.00443
947.104	36.08174
947.485	20.04438
947.866	-17.04104
948.247	-35.08506
948.628	-26.06061
949.009	25.06176
949.39	28.06617
949.771	-40.08739
950.152	51.11849
950.532	13.03125
950.913	60.13656
951.293	-10.02625
951.674	4.00914
952.054	39.09265
952.434	-6.0142
952.814	-33.07503
953.194	-26.06478
953.574	-36.08359
953.954	10.02262
954.334	-18.04269
954.714	-46.10867
955.093	40.09266
955.473	-11.02648
955.853	-9.02261
956.232	35.09274
956.611	35.0789
956.99	28.06804
957.37	11.02701
957.749	-17.03828
958.128	33.08038
958.506	-32.08011
958.885	15.03666
959.264	36.08425
959.643	-25.05278
960.021	9.02131
960.4	37.0801
960.778	22.0508
961.156	22.05268
961.535	15.03354
961.913	48.10513
962.291	-18.04488
962.669	-21.05123
963.047	5.01227
963.424	-3.00736
963.802	24.05623
964.18	20.04759
964.557	-40.08513
964.935	38.08432
965.312	-8.02011
965.69	-18.04297
966.067	5.01151
966.444	54.12564
966.821	54.13235
967.198	-8.01835
967.575	10.02326
967.952	-35.07848
968.329	41.09545
968.705	51.10165
969.082	27.06707
969.458	13.03002
969.835	13.02999
970.211	61.15119
970.587	-4.00957
970.963	47.11504
971.339	16.04018
971.715	-3.00713
972.091	52.12189
972.467	-21.05
972.843	6.01433
973.219	-5.01112
973.594	15.03769
973.97	-4.00891
974.345	10.02284
974.721	-24.05449
975.096	-12.02765
975.471	-1.00225
975.846	8.0183
976.221	-10.02437
976.596	-27.06171
976.971	13.03048
977.346	25.05484
977.72	33.08089
978.095	27.06712
978.469	36.08147
978.844	-27.06412
979.218	-32.07436
979.593	27.06117
979.967	-16.03715
980.341	-16.03521
980.715	9.0215
981.089	26.06183
981.463	-1.0022
981.837	17.03983
982.21	-40.08683
982.584	32.07366
982.957	8.0192
983.331	7.01552
983.704	1.00238
984.078	28.06622
984.451	32.07454
984.824	-12.02804
985.197	-40.09255
985.57	40.09581
985.943	76.17724
986.316	32.07375
986.688	-4.00923
987.061	-29.0646
987.434	0
987.806	-4.00918
988.179	66.14723
988.551	9.02174
988.923	59.13897
989.295	0
989.667	3.00692
990.039	27.06417
990.411	18.03941
990.783	-2.00433
991.155	-5.01165
991.527	-48.11079
991.898	-42.10114
992.27	13.03084
992.641	1.00238
993.012	-18.04007
993.384	28.06319
993.755	13.03171
994.126	33.07564
994.497	5.01177
994.868	-12.02603
995.239	-43.09896
995.61	13.03117
995.98	31.07259
996.351	27.06468
996.722	-8.01766
997.092	-31.07117
997.462	22.05034
997.833	3.0067
998.203	24.05465
998.573	3.00724
998.943	9.02009
999.313	-3.00687
999.683	8.01861
1000.053	4.00871
1000.423	20.0465
1000.792	6.01485
1001.162	61.14363
1001.531	-41.09627
1001.901	-16.03834
1002.27	-17.03568
1002.639	-33.08122
1003.009	9.02052
1003.378	-9.02211
1003.747	45.10165
1004.116	-9.02061
1004.485	28.06391
1004.853	9.02168
1005.222	-31.07489
1005.591	-13.02904
1005.959	59.12892
1006.328	36.07815
1006.696	-6.01415
1007.064	17.0407
1007.433	0
1007.801	45.10459
1008.169	44.10656
1008.537	-2.00411
1008.905	10.02237
1009.273	31.0722
1009.64	-27.06181
1010.008	62.14037
1010.375	-44.0982
1010.743	-1.00213
1011.11	32.07263
1011.478	19.04465
1011.845	50.11043
1012.212	-23.04936
1012.579	5.01171
1012.946	-5.01121
1013.313	38.08495
1013.68	-62.13005
1014.047	-39.08964
1014.414	-9.02057
1014.78	-2.00476
1015.147	17.03887
1015.513	-1.00232
1015.88	5.01215
1016.246	36.08405
1016.612	27.05772
1016.978	27.06246
1017.344	-10.02345
1017.71	-18.04057
1018.076	-27.06022
1018.442	23.05657
1018.808	31.07469
1019.174	17.04093
1019.539	55.11646
1019.905	45.1031
1020.27	40.0949
1020.636	-13.02927
1021.001	37.08477
1021.366	-48.11053
1021.731	5.01226
1022.096	-3.00735
1022.461	3.00676
1022.826	32.07236
1023.191	-48.12216
1023.556	34.07544
1023.92	-23.05394
1024.285	50.11596
1024.649	-48.11251
1025.014	19.04444
1025.378	14.03375
1025.742	77.18208
1026.107	7.01476
1026.471	23.04975
1026.835	45.10851
1027.199	6.01383
1027.562	30.06659
1027.926	9.0208
1028.29	-24.05808
1028.654	14.03025
1029.017	20.04651
1029.381	65.14881
1029.744	-1.00246
1030.107	29.06377
1030.471	-8.01842
1030.834	45.09633
1031.197	-19.04269
1031.56	16.03572
1031.923	1.00249
1032.286	-22.04831
1032.648	29.06567
1033.011	38.08344
1033.374	-69.15205
1033.736	-27.06889
1034.099	-11.02554
1034.461	29.07109
1034.823	-9.02148
1035.185	-9.02178
1035.548	12.0278
1035.91	17.03843
1036.272	-5.01075
1036.634	5.01149
1036.995	6.01332
1037.357	-16.03708
1037.719	-9.02087
1038.08	-10.02239
1038.442	14.03211
1038.803	29.06602
1039.165	-11.02668
1039.526	10.02279
1039.887	40.09145
1040.248	37.08742
1040.609	23.05388
1040.97	14.03301
1041.331	26.06301
1041.692	7.01563
1042.053	18.03851
1042.413	29.06398
1042.774	24.05504
1043.134	-27.06054
1043.495	18.04285
1043.855	-27.06209
1044.215	23.05472
1044.576	31.07088
1044.936	2.0043
1045.296	-12.02837
1045.656	-12.0278
1046.016	-1.00229
1046.375	41.09451
1046.735	67.14485
1047.095	-11.02455
1047.454	-42.08222
1047.814	35.08084
1048.173	-23.05151
1048.533	20.04349
1048.892	24.05601
1049.251	2.00479
1049.61	-41.09642
1049.969	-1.00224
1050.328	-32.06522
1050.687	18.04175
1051.046	39.0905
1051.405	7.01653
1051.763	-23.05064
1052.122	-15.0361
1052.48	30.0706
1052.839	2.00445
1053.197	-9.02013
1053.555	14.02965
1053.914	-8.0186
1054.272	20.046
1054.63	26.06092
1054.988	-21.04827
1055.345	32.06427
1055.703	34.07751
1056.061	-24.05958
1056.419	-8.02009
1056.776	41.09424
1057.134	16.03518
1057.491	22.05278
1057.848	-26.06114
1058.206	-13.02854
1058.563	-10.02079
1058.92	0
1059.277	-32.07542
1059.634	24.05332
1059.991	-88.19721
1060.348	56.12021
1060.704	16.03684
1061.061	66.14193
1061.418	26.06085
1061.774	-9.02127
1062.131	1.00258
1062.487	50.11113
1062.843	14.0335
1063.199	-24.057
1063.555	-17.03779
1063.911	26.06294
1064.267	11.02114
1064.623	-23.05344
1064.979	-28.06135
1065.335	-59.13241
1065.691	-11.02457
1066.046	16.03313
1066.402	50.10831
1066.757	39.09333
1067.112	-27.06315
1067.468	-12.02736
1067.823	40.09141
1068.178	-41.09454
1068.533	79.17984
1068.888	44.09816
1069.243	7.01639
1069.598	24.05551
1069.952	1.00215
1070.307	13.03109
1070.662	-24.05414
1071.016	22.04725
1071.371	-3.00644
1071.725	3.00666
1072.079	55.12657
1072.434	-7.01624
1072.788	-1.00226
1073.142	-28.06455
1073.496	-28.06321
1073.85	-17.03734
1074.203	-17.03903
1074.557	6.01536
1074.911	0
1075.265	10.02214
1075.618	39.08993
1075.971	68.15383
1076.325	-38.0931
1076.678	-4.00873
1077.031	7.01504
1077.385	-4.00823
1077.738	25.0537
1078.091	-4.00874
1078.444	85.18385
1078.796	28.06586
1079.149	40.09519
1079.502	3.00676
1079.855	-28.06223
1080.207	-1.00234
1080.56	23.05717
1080.912	-14.03237
1081.264	18.04092
1081.617	24.05549
1081.969	-16.03908
1082.321	-7.01647
1082.673	17.03663
1083.025	-47.10565
1083.377	-43.08531
1083.728	31.06851
1084.08	11.02601
1084.432	29.06666
1084.783	-3.00661
1085.135	19.04574
1085.486	3.00658
1085.838	13.03053
1086.189	7.01624
1086.54	23.05151
1086.891	-8.01943
1087.242	-19.04397
1087.593	-5.01139
1087.944	33.07092
1088.295	11.02343
1088.646	-35.08026
1088.996	-9.0209
1089.347	-28.06553
1089.698	-22.05001
1090.048	58.14378
1090.398	2.00436
1090.749	18.04102
1091.099	2.00492
1091.449	-8.01922
1091.799	-8.0191
1092.149	12.02834
1092.499	2.00467
1092.849	-12.02942
1093.199	3.00712
1093.548	4.00918
1093.898	51.1219
1094.248	8.0196
1094.597	10.02511
1094.947	53.13576
1095.296	57.13473
1095.645	30.0738
1095.994	-22.04969
1096.343	-68.16275
1096.692	-37.09424
1097.041	38.10118
1097.39	18.04318
1097.739	18.04475
1098.088	-34.08698
1098.437	-20.05163
1098.785	77.20068
1099.134	-6.01516
1099.482	-38.10078
1099.83	47.11921
1100.179	12.03046
1100.527	47.12081
1100.875	-14.03613
1101.223	-10.02567
1101.571	-14.03794
1101.919	-28.07206
1102.267	37.10182
1102.615	7.02249
1102.962	-3.00962
1103.31	3.00963
1103.658	-8.0257
