Data from N3 R8 sample 3_Subt2__5__13-55-50-142.txt Node

Date: Mon Sep 22 13:55:50 PDT 2025
User: uwsun
Spectrometer: HDX01956
Trigger mode: 0
Integration Time (sec): 5.000000E-1
Scans to average: 1
Nonlinearity correction enabled: true
Boxcar width: 0
Storing dark spectrum: false
XAxis mode: Wavelengths
Number of Pixels in Spectrum: 2068
>>>>>Begin Spectral Data<<<<<
194.03	-8.02331
194.578	-8.02603
195.127	0
195.676	-11.0354
196.225	1.00266
196.773	-26.07221
197.321	37.10326
197.87	50.12882
198.418	49.12709
198.966	80.21209
199.513	79.20044
200.061	65.1672
200.609	93.24577
201.156	49.1096
201.704	73.1866
202.251	82.21906
202.798	58.15279
203.345	63.15615
203.892	82.20816
204.438	13.03091
204.985	66.15881
205.532	75.1996
206.078	63.15535
206.624	74.18505
207.17	74.17217
207.716	45.11194
208.262	134.26305
208.808	96.24163
209.354	54.13455
209.899	112.28593
210.445	156.39094
210.99	90.22074
211.535	65.15251
212.08	105.24809
212.625	63.15911
213.17	35.08827
213.715	58.13137
214.259	108.25196
214.804	81.20069
215.348	117.27054
215.892	68.1635
216.436	111.25432
216.98	63.14051
217.524	87.20779
218.068	41.10225
218.612	62.15499
219.155	114.26805
219.698	34.08072
220.242	54.13372
220.785	87.20517
221.328	88.21879
221.871	44.10931
222.414	81.19878
222.956	22.0533
223.499	85.19287
224.041	102.23459
224.583	54.11597
225.126	58.12719
225.668	72.17417
226.21	88.2207
226.751	64.14041
227.293	40.0913
227.835	17.04183
228.376	49.11195
228.918	121.30154
229.459	26.06544
230	29.06913
230.541	77.17635
231.082	18.04364
231.622	13.02993
232.163	101.24372
232.704	74.1825
233.244	34.08453
233.784	57.13858
234.324	29.06358
234.864	36.08121
235.404	90.21294
235.944	138.32587
236.484	33.08101
237.023	82.19266
237.563	42.0971
238.102	45.10542
238.641	65.16357
239.18	42.09949
239.719	31.07703
240.258	15.03365
240.797	60.14383
241.335	56.13648
241.874	69.13094
242.412	61.14553
242.95	87.20954
243.488	62.13997
244.026	68.15877
244.564	86.17585
245.102	100.22345
245.64	48.11445
246.177	70.15719
246.715	78.18441
247.252	84.19072
247.789	104.18903
248.326	78.1879
248.863	17.0376
249.4	49.10979
249.936	99.20155
250.473	82.18988
251.009	83.18933
251.546	30.0662
252.082	100.21902
252.618	101.22377
253.154	115.2733
253.69	67.14993
254.226	58.13845
254.761	52.11624
255.297	30.06576
255.832	88.20917
256.367	56.13183
256.903	44.09637
257.438	164.3817
257.972	48.10597
258.507	86.19985
259.042	120.26127
259.576	53.11434
260.111	63.144
260.645	52.11144
261.179	79.18434
261.713	131.29024
262.247	142.3258
262.781	75.15895
263.315	75.18432
263.849	48.11956
264.382	45.10323
264.915	80.18701
265.449	78.19209
265.982	112.25182
266.515	71.17204
267.048	52.10835
267.58	122.25907
268.113	75.15972
268.646	102.2511
269.178	102.23234
269.71	72.15596
270.243	31.06997
270.775	85.21352
271.307	102.24171
271.838	104.24206
272.37	123.3024
272.902	79.17809
273.433	88.19086
273.965	93.22331
274.496	131.32254
275.027	96.23824
275.558	87.20938
276.089	116.29029
276.62	112.28462
277.15	81.19819
277.681	55.11881
278.211	68.16635
278.741	103.22716
279.272	73.16779
279.802	96.24015
280.332	65.15334
280.861	96.22837
281.391	113.25339
281.921	95.22655
282.45	153.37712
282.98	86.22287
283.509	115.25883
284.038	91.20389
284.567	58.13441
285.096	119.28563
285.625	84.18886
286.153	119.27724
286.682	133.30289
287.21	92.21952
287.739	42.09922
288.267	119.28715
288.795	122.3191
289.323	100.23183
289.851	84.19397
290.378	88.19818
290.906	108.26439
291.433	132.32387
291.961	57.1295
292.488	81.20113
293.015	87.20277
293.542	104.25979
294.069	134.3278
294.596	117.28616
295.122	84.19728
295.649	108.23554
296.175	76.18364
296.702	84.19944
297.228	171.41044
297.754	60.13202
298.28	142.32123
298.806	124.29474
299.332	156.34944
299.857	144.32509
300.383	104.25743
300.908	104.25271
301.433	149.35954
301.958	151.34472
302.483	127.31488
303.008	152.37114
303.533	101.25989
304.058	118.27215
304.582	77.18172
305.107	113.29258
305.631	89.19916
306.155	136.31491
306.679	168.39394
307.203	156.35462
307.727	112.26201
308.251	117.28435
308.775	120.28403
309.298	99.23537
309.822	141.35163
310.345	155.3658
310.868	152.36199
311.391	93.22569
311.914	154.38273
312.437	101.2276
312.96	159.36751
313.482	121.2849
314.005	118.29497
314.527	149.38726
315.049	169.41778
315.571	170.37484
316.093	155.37458
316.615	157.37612
317.137	160.34598
317.659	193.45971
318.18	174.41167
318.702	167.38093
319.223	201.40288
319.744	147.32732
320.265	172.41511
320.786	152.37307
321.307	148.36258
321.828	190.42016
322.348	159.3659
322.869	190.44047
323.389	401.70395
323.909	139.31335
324.43	123.28983
324.95	200.45519
325.47	215.51976
325.989	182.42276
326.509	153.3363
327.029	219.48277
327.548	190.42805
328.067	200.473
328.587	199.48308
329.106	208.46112
329.625	181.45694
330.144	213.47859
330.662	263.60231
331.181	196.4432
331.7	184.41945
332.218	257.538
332.736	213.48487
333.255	211.47838
333.773	251.58083
334.291	243.58744
334.808	237.51654
335.326	236.51883
335.844	253.57801
336.361	266.65766
336.879	255.57084
337.396	292.6844
337.913	305.68359
338.43	284.61148
338.947	217.49917
339.464	305.63762
339.981	283.65097
340.497	297.70848
341.014	302.70977
341.53	233.50954
342.046	336.79119
342.562	270.64568
343.078	239.54537
343.594	327.74554
344.11	341.77871
344.626	289.69678
345.141	297.64894
345.657	310.66975
346.172	367.83841
346.687	344.75496
347.202	246.52944
347.717	390.89183
348.232	317.75096
348.747	350.76683
349.261	319.66748
349.776	341.76395
350.29	386.91419
350.805	336.78842
351.319	385.84901
351.833	336.72156
352.347	428.95033
352.861	346.7619
353.374	388.82855
353.888	377.86298
354.401	401.86428
354.915	354.74973
355.428	393.92339
355.941	444.96412
356.454	420.87627
356.967	420.92055
357.48	433.93564
357.993	430.97734
358.505	398.92511
359.018	397.90145
359.53	439.99921
360.042	428.89216
360.554	454.00896
361.066	429.9804
361.578	443.90394
362.09	455.99956
362.602	458.93857
363.113	459.98884
363.625	403.84472
364.136	429.871
364.647	513.11647
365.158	492.06502
365.669	530.15133
366.18	509.10916
366.691	504.02682
367.201	467.02049
367.712	552.14215
368.222	499.03576
368.733	551.08992
369.243	588.17873
369.753	525.10776
370.263	538.16427
370.773	567.25662
371.282	524.12088
371.792	593.23068
372.301	566.24477
372.811	626.47497
373.32	592.14464
373.829	587.24747
374.338	697.36638
374.847	694.414
375.356	688.4551
375.865	773.44075
376.373	818.61189
376.882	773.6774
377.39	790.64483
377.898	805.71725
378.407	822.56596
378.915	901.6334
379.423	975.90866
379.93	944.7675
380.438	919.86072
380.946	1046.9752
381.453	1059.05238
381.96	1148.16997
382.468	1189.15676
382.975	1310.38964
383.482	1304.15312
383.989	1373.65364
384.495	1418.33235
385.002	1423.0933
385.509	1606.618
386.015	1682.10117
386.521	1726.49995
387.028	1855.6613
387.534	1938.508
388.04	1936.81121
388.546	2009.69194
389.051	2107.61288
389.557	2317.98606
390.063	2390.77351
390.568	2627.08271
391.073	2584.73831
391.578	2777.25151
392.084	2889.86418
392.589	2888.51664
393.093	3150.97267
393.598	3564.61405
394.103	3840.84246
394.607	4185.57781
395.112	4417.63499
395.616	4682.30696
396.12	5063.70514
396.624	5674.54001
397.128	6093.50015
397.632	6847.33196
398.136	7321.26129
398.639	7825.71714
399.143	8796.05037
399.646	9931.81038
400.15	10926.74263
400.653	12274.41559
401.156	13714.67129
401.659	16021.18557
402.162	19540.45852
402.664	25820.98882
403.167	37649.10181
403.67	57272.99022
404.172	52566.9044
404.674	31176.06428
405.176	3757.7064
405.678	27.69154
406.18	0
406.682	0
407.184	45159.96023
407.686	58897.86778
408.187	61455.21265
408.688	61987.64074
409.19	43715.77188
409.691	35576.67252
410.192	29835.16871
410.693	25805.20323
411.194	23548.89547
411.694	22294.0931
412.195	20669.54178
412.696	18568.04816
413.196	17494.56055
413.696	17149.03083
414.196	17385.60607
414.696	16834.55638
415.196	16003.93009
415.696	14487.20359
416.196	11399.13743
416.695	9055.48382
417.195	7715.68073
417.694	7483.03164
418.194	6982.82096
418.693	6594.09188
419.192	6375.27539
419.691	6307.27691
420.19	6117.54154
420.688	5922.71065
421.187	5658.88317
421.685	5121.75521
422.184	4783.01295
422.682	4030.02652
423.18	3464.72105
423.678	3158.80974
424.176	2858.76786
424.674	2733.64504
425.172	2649.98287
425.669	2443.27356
426.167	2202.7885
426.664	2065.71175
427.161	1950.70191
427.659	1769.75252
428.156	1689.23254
428.652	1575.77424
429.149	1541.60929
429.646	1383.13289
430.143	1450.47462
430.639	1263.20618
431.135	1153.21805
431.632	1154.99566
432.128	1048.96069
432.624	1049.14672
433.12	942.7066
433.616	960.6197
434.111	858.65996
434.607	890.73919
435.103	847.42579
435.598	767.25084
436.093	783.50923
436.588	745.37062
437.083	667.2453
437.578	701.35288
438.073	655.40969
438.568	581.22129
439.062	600.08927
439.557	603.22027
440.051	591.15772
440.546	609.22343
441.04	557.1718
441.534	534.19198
442.028	422.8906
442.522	435.93071
443.015	440.85358
443.509	486.04663
444.002	468.01039
444.496	479.93346
444.989	463.0032
445.482	398.9017
445.975	457.92996
446.468	410.7893
446.961	374.71722
447.454	407.83011
447.947	353.75104
448.439	415.90059
448.931	369.74884
449.424	335.75916
449.916	355.76581
450.408	324.65767
450.9	347.76939
451.392	266.61419
451.884	274.5633
452.375	277.62697
452.867	291.59001
453.358	328.67522
453.849	320.61217
454.341	312.63794
454.832	260.50606
455.323	289.64534
455.814	271.57032
456.304	230.48542
456.795	289.59802
457.285	255.51371
457.776	218.44999
458.266	269.5818
458.756	290.64182
459.247	216.47446
459.737	194.42776
460.226	252.52648
460.716	191.41876
461.206	248.54406
461.695	182.42142
462.185	215.46799
462.674	174.37126
463.163	200.41376
463.653	179.34633
464.142	172.38306
464.63	212.4741
465.119	224.48603
465.608	159.34184
466.096	188.38318
466.585	144.30539
467.073	159.35448
467.561	175.39305
468.05	255.55034
468.538	146.33202
469.026	156.35131
469.513	230.45919
470.001	224.47836
470.489	188.4147
470.976	165.35535
471.463	145.33342
471.951	170.39411
472.438	155.34212
472.925	186.41029
473.412	187.42861
473.899	166.35296
474.385	105.24154
474.872	160.35634
475.359	131.30123
475.845	103.20167
476.331	155.31715
476.817	139.31873
477.303	171.37744
477.789	83.19139
478.275	110.26096
478.761	120.27235
479.247	107.22518
479.732	98.2333
480.218	82.20454
480.703	86.20544
481.188	120.24214
481.673	96.20839
482.158	126.25822
482.643	63.1526
483.128	36.07871
483.612	128.28436
484.097	45.10497
484.581	50.11011
485.066	55.12632
485.55	28.05863
486.034	49.1019
486.518	49.11105
487.002	95.22525
487.486	38.08956
487.969	67.15843
488.453	68.16561
488.936	86.18724
489.42	53.11129
489.903	60.14596
490.386	80.17455
490.869	79.16399
491.352	85.19998
491.835	44.08682
492.318	74.16091
492.8	51.10076
493.283	71.17294
493.765	52.12379
494.247	-28.06295
494.73	34.07226
495.212	-39.09054
495.694	12.02732
496.175	40.09273
496.657	44.09917
497.139	33.0541
497.62	7.01619
498.102	60.14355
498.583	-4.00971
499.064	-1.00218
499.545	56.12353
500.026	19.04136
500.507	38.08449
500.988	30.07109
501.469	16.03926
501.949	11.02631
502.43	65.15024
502.91	16.03194
503.39	-29.07019
503.87	27.06196
504.35	-67.15141
504.83	30.06401
505.31	-31.07311
505.79	10.02322
506.269	-20.04508
506.749	12.02689
507.228	-1.00227
507.707	6.0129
508.187	7.01594
508.666	-25.06014
509.145	-55.12455
509.623	-15.03406
510.102	-55.12834
510.581	-47.10941
511.059	-43.10486
511.538	-96.24024
512.016	-73.16806
512.494	-21.04952
512.972	-51.1176
513.45	-33.07588
513.928	-24.05634
514.406	-75.17824
514.884	-67.16764
515.361	-69.15987
515.839	-7.01562
516.316	-28.06543
516.793	-37.09097
517.27	-56.13147
517.747	-25.0628
518.224	-53.1185
518.701	-61.13199
519.178	-86.20889
519.654	-111.25657
520.131	-75.18112
520.607	-77.18588
521.083	-78.174
521.56	-35.08055
522.036	-29.06146
522.512	-64.15277
522.987	-19.04406
523.463	-87.20173
523.939	-79.18818
524.414	-91.2028
524.89	-21.04856
525.365	-88.19314
525.84	-52.12127
526.315	-73.17141
526.79	-73.15884
527.265	-74.16358
527.74	-61.14575
528.215	-48.1092
528.689	-105.22496
529.164	-90.18853
529.638	-36.08983
530.112	-48.11049
530.587	-56.11669
531.061	-110.25814
531.534	-86.20198
532.008	-75.17577
532.482	-82.18217
532.956	-103.25687
533.429	-51.11915
533.903	-77.16398
534.376	-85.18156
534.849	-88.19704
535.322	-103.23495
535.795	-123.28938
536.268	-72.16903
536.741	-52.12003
537.213	-67.14814
537.686	-115.27372
538.158	-86.18979
538.631	-115.27098
539.103	-87.19067
539.575	-127.2542
540.047	-106.22342
540.519	-109.24924
540.991	-53.12445
541.463	-76.18023
541.934	-110.24407
542.406	-149.34672
542.877	-22.04883
543.348	-123.28713
543.82	-77.18285
544.291	-71.16111
544.762	-143.3304
545.233	-89.21687
545.703	-130.28184
546.174	-61.13774
546.645	-90.21327
547.115	-77.18201
547.585	-73.16356
548.056	-82.19446
548.526	-56.1288
548.996	-86.2004
549.466	-33.07821
549.935	-124.29179
550.405	-79.16941
550.875	-84.19358
551.344	-48.11154
551.814	-65.14455
552.283	-54.11362
552.752	-57.1295
553.221	-48.10317
553.69	-54.11797
554.159	-67.16155
554.628	-53.11586
555.096	-71.17617
555.565	-79.16999
556.033	-71.16176
556.502	-114.26899
556.97	-92.19732
557.438	-121.27868
557.906	-139.31758
558.374	-72.16228
558.842	-116.27052
559.31	-116.25009
559.777	-71.16958
560.245	-84.18824
560.712	-97.21814
561.18	-124.26734
561.647	-69.15147
562.114	-108.24312
562.581	-93.22348
563.048	-133.297
563.514	-114.27233
563.981	-98.21708
564.448	-57.12687
564.914	-107.24161
565.381	-121.26809
565.847	-116.26348
566.313	-134.30325
566.779	-100.21976
567.245	-68.15464
567.711	-60.14103
568.176	-142.31074
568.642	-92.22523
569.108	-120.28885
569.573	-135.30707
570.038	-89.17996
570.504	-121.26641
570.969	-123.30262
571.434	-171.37254
571.899	-106.2433
572.363	-47.104
572.828	-81.17759
573.293	-81.17984
573.757	-137.30581
574.222	-87.18817
574.686	-50.10974
575.15	-66.15161
575.614	-41.0902
576.078	-37.0843
576.542	-69.15084
577.006	-68.14918
577.469	-73.17222
577.933	-149.32475
578.396	-84.1935
578.86	-102.23008
579.323	-105.24415
579.786	-89.18549
580.249	-140.3105
580.712	-64.15207
581.175	-90.21409
581.637	-134.29534
582.1	-121.25353
582.563	-134.27387
583.025	-113.26679
583.487	-126.24863
583.95	-81.16964
584.412	-55.11141
584.874	-180.42059
585.336	-85.19585
585.797	-63.13095
586.259	-165.3744
586.721	-134.30523
587.182	-126.27654
587.643	-125.27129
588.105	-122.27969
588.566	-118.23744
589.027	-69.16044
589.488	-166.36541
589.949	-105.24463
590.41	-91.17303
590.87	-104.22768
591.331	-111.22825
591.791	-56.12286
592.252	-153.34068
592.712	-73.16813
593.172	-122.26235
593.632	-122.25523
594.092	-92.19758
594.552	-108.22103
595.011	-95.20723
595.471	-110.23135
595.931	-112.24064
596.39	-100.22944
596.849	-108.23983
597.308	-57.11673
597.768	-108.26449
598.227	-66.15265
598.685	-39.08468
599.144	-39.08756
599.603	-64.14106
600.062	-55.11085
600.52	-101.21724
600.978	-76.17081
601.437	-53.11252
601.895	7.01396
602.353	-50.10298
602.811	-61.12611
603.269	-18.04009
603.727	47.10461
604.184	104.21776
604.642	-11.02488
605.099	55.11758
605.557	59.13192
606.014	101.19879
606.471	101.23243
606.928	75.15047
607.385	133.30473
607.842	147.30241
608.299	159.33108
608.755	175.38336
609.212	247.4882
609.668	224.44285
610.125	260.55692
610.581	358.72801
611.037	283.55752
611.493	338.6911
611.949	321.68564
612.405	369.62874
612.861	319.64767
613.316	366.75174
613.772	434.84435
614.227	440.8866
614.683	485.85728
615.138	446.89167
615.593	529.04778
616.048	507.96597
616.503	477.99893
616.958	510.09606
617.412	568.13384
617.867	493.91102
618.321	531.88397
618.776	514.93345
619.23	518.02093
619.684	499.91658
620.138	507.96034
620.592	483.99316
621.046	455.90228
621.5	513.05871
621.954	487.89363
622.407	444.82476
622.861	528.09289
623.314	427.79772
623.768	486.95183
624.221	538.88405
624.674	424.82529
625.127	369.74508
625.58	375.72139
626.033	392.7267
626.485	441.91211
626.938	402.83015
627.39	354.71036
627.843	328.65515
628.295	340.687
628.747	318.65699
629.199	327.64633
629.651	314.63417
630.103	325.65684
630.555	304.56017
631.006	305.63169
631.458	331.69351
631.909	290.56688
632.361	254.52501
632.812	282.58497
633.263	240.45668
633.714	300.55891
634.165	262.56363
634.616	226.48556
635.067	283.55306
635.518	238.50341
635.968	283.49207
636.419	236.45213
636.869	270.57134
637.319	217.45205
637.769	185.37664
638.219	257.54157
638.669	249.53993
639.119	217.48137
639.569	264.58111
640.019	207.42815
640.468	237.48031
640.918	269.58354
641.367	220.43902
641.816	230.46004
642.265	274.56965
642.714	245.50606
643.163	276.56945
643.612	316.69702
644.061	307.59001
644.51	308.6349
644.958	285.55988
645.406	280.60131
645.855	248.54681
646.303	317.65302
646.751	281.57104
647.199	351.70483
647.647	321.66393
648.095	298.61705
648.543	356.62444
648.99	368.78687
649.438	319.66068
649.885	373.82531
650.333	340.56541
650.78	343.74373
651.227	329.71277
651.674	389.78042
652.121	357.77606
652.568	300.65924
653.015	289.65094
653.461	369.79088
653.908	355.72833
654.354	283.60002
654.801	364.77293
655.247	336.65213
655.693	333.79342
656.139	389.83986
656.585	314.6688
657.031	280.59561
657.477	379.72382
657.922	380.77733
658.368	287.63637
658.813	314.65338
659.259	311.67435
659.704	319.67635
660.149	275.58332
660.594	302.6424
661.039	336.68888
661.484	276.58863
661.929	299.63782
662.373	283.6598
662.818	205.4644
663.262	312.68935
663.707	253.59798
664.151	236.5258
664.595	301.66713
665.039	256.57626
665.483	289.67485
665.927	305.65231
666.371	283.6105
666.814	224.48976
667.258	308.67055
667.701	292.55806
668.145	282.63738
668.588	272.61428
669.031	220.48691
669.474	266.58871
669.917	289.57792
670.36	273.62395
670.803	275.60088
671.245	236.44251
671.688	299.67015
672.13	225.46934
672.573	223.52259
673.015	295.64512
673.457	279.55792
673.899	248.54819
674.341	301.66658
674.783	265.59175
675.225	277.62365
675.666	260.57807
676.108	326.64813
676.549	332.71758
676.991	309.61935
677.432	325.5882
677.873	270.57359
678.314	284.62434
678.755	282.63062
679.196	280.59353
679.637	285.63877
680.078	276.57917
680.518	312.65645
680.959	296.64717
681.399	308.70662
681.839	340.75246
682.28	319.73083
682.72	308.64318
683.16	399.90085
683.6	287.59414
684.039	288.53655
684.479	315.71007
684.919	335.71523
685.358	254.58765
685.798	325.79538
686.237	347.75208
686.676	308.62662
687.115	392.83201
687.554	382.81857
687.993	345.68383
688.432	325.66859
688.871	349.71634
689.309	407.87571
689.748	295.54317
690.186	391.83224
690.625	380.80866
691.063	362.77538
691.501	320.71352
691.939	350.79652
692.377	432.94685
692.815	418.9069
693.253	371.79277
693.69	371.72057
694.128	410.88538
694.565	488.03384
695.003	416.95433
695.44	441.92641
695.877	403.8436
696.314	445.82271
696.751	521.0348
697.188	503.01386
697.625	473.92746
698.061	478.01747
698.498	574.19887
698.934	504.05663
699.371	530.08529
699.807	515.04999
700.243	529.1128
700.679	526.01777
701.115	536.06886
701.551	612.2207
701.987	598.11154
702.422	620.27449
702.858	594.20669
703.294	649.23199
703.729	639.331
704.164	638.30977
704.599	587.09999
705.035	659.2431
705.47	696.43158
705.904	691.34758
706.339	695.32652
706.774	709.37881
707.209	766.45275
707.643	744.49541
708.078	811.65306
708.512	762.62721
708.946	771.52377
709.38	805.54725
709.814	743.36556
710.248	823.65478
710.682	809.5639
711.116	867.72496
711.549	806.72421
711.983	883.61693
712.416	889.66148
712.85	841.68558
713.283	858.62675
713.716	911.82016
714.149	953.7559
714.582	912.56932
715.015	1058.07134
715.448	921.83846
715.881	1006.62521
716.313	995.78595
716.746	1024.85739
717.178	995.85997
717.61	1061.07966
718.043	1068.05171
718.475	1098.047
718.907	1163.2096
719.339	1152.95016
719.77	1137.02258
720.202	1232.35854
720.634	1180.17224
721.065	1230.11409
721.497	1271.24339
721.928	1309.3633
722.359	1289.28235
722.79	1378.36983
723.221	1405.55142
723.652	1430.6159
724.083	1405.1911
724.514	1438.28633
724.945	1446.38003
725.375	1507.43157
725.806	1536.61397
726.236	1551.78385
726.666	1633.53566
727.096	1576.59709
727.526	1669.86379
727.956	1668.3749
728.386	1689.71737
728.816	1761.98314
729.246	1697.69082
729.675	1800.84715
730.105	1805.79798
730.534	1786.53939
730.964	1873.97825
731.393	1861.90417
731.822	1982.08531
732.251	1968.11391
732.68	2027.7466
733.109	1949.94658
733.537	2037.9384
733.966	2100.06289
734.395	2063.65212
734.823	2065.52734
735.251	2085.93796
735.68	2141.05189
736.108	2183.24887
736.536	2123.75902
736.964	2175.78389
737.392	2249.20976
737.82	2331.01439
738.247	2215.85771
738.675	2217.80911
739.102	2186.13001
739.53	2216.27865
739.957	2216.27088
740.384	2295.04688
740.811	2260.19147
741.238	2265.02525
741.665	2285.85168
742.092	2208.80391
742.519	2296.17205
742.945	2274.98816
743.372	2369.14856
743.798	2344.38473
744.225	2330.01206
744.651	2260.13849
745.077	2268.19716
745.503	2205.96591
745.929	2272.94255
746.355	2227.0075
746.781	2261.11935
747.207	2269.89871
747.632	2214.04595
748.058	2217.06077
748.483	2214.66664
748.908	2250.1985
749.334	2261.06069
749.759	2212.80539
750.184	2233.94502
750.609	2197.04383
751.033	2185.77652
751.458	2122.5211
751.883	2209.1416
752.307	2133.81286
752.732	2164.22665
753.156	2141.07995
753.58	2113.74563
754.005	2113.12399
754.429	2066.739
754.853	2072.01028
755.277	2024.76973
755.7	2020.96221
756.124	1999.03339
756.548	2135.858
756.971	2014.86304
757.394	2015.2512
757.818	2111.3577
758.241	1944.04774
758.664	2020.15076
759.087	1971.54588
759.51	2055.97212
759.933	2001.88191
760.356	1991.19777
760.778	1965.93468
761.201	1976.87387
761.623	2012.91663
762.046	1872.64087
762.468	1886.65768
762.89	1950.94553
763.312	1877.74804
763.734	1897.7996
764.156	1941.95321
764.578	1920.60748
765	1828.7504
765.421	1797.0098
765.843	1901.17722
766.264	1817.68932
766.686	1764.88279
767.107	1730.65947
767.528	1771.93171
767.949	1775.95435
768.37	1714.73879
768.791	1799.73251
769.212	1709.85279
769.632	1693.51975
770.053	1733.07673
770.473	1725.67093
770.894	1717.83381
771.314	1584.39719
771.734	1606.41511
772.154	1574.77604
772.575	1626.39636
772.994	1596.37573
773.414	1626.55598
773.834	1479.55325
774.254	1558.51806
774.673	1559.56113
775.093	1527.65322
775.512	1420.42184
775.931	1474.58539
776.351	1504.57007
776.77	1444.51151
777.189	1418.34902
777.607	1417.57588
778.026	1426.52283
778.445	1389.50832
778.864	1353.50358
779.282	1349.30927
779.701	1258.34278
780.119	1276.35073
780.537	1228.30249
780.955	1279.38025
781.373	1203.18995
781.791	1206.93464
782.209	1143.87507
782.627	1167.36391
783.045	1188.99081
783.462	1115.17345
783.88	1086.19112
784.297	1125.16406
784.715	1050.13092
785.132	1122.04972
785.549	1025.00895
785.966	1012.98724
786.383	1028.97141
786.8	945.67778
787.217	991.79785
787.633	928.87084
788.05	919.62729
788.466	912.6647
788.883	902.88983
789.299	889.71306
789.715	868.68654
790.131	818.64283
790.547	863.72813
790.963	856.73186
791.379	833.74096
791.795	738.33971
792.21	740.40335
792.626	670.31677
793.041	743.53214
793.457	723.47817
793.872	769.48362
794.287	683.38368
794.702	667.37216
795.117	711.4897
795.532	606.30886
795.947	544.08233
796.362	630.24094
796.776	599.14686
797.191	585.21837
797.605	556.12886
798.02	509.06924
798.434	507.9369
798.848	585.24429
799.262	560.21144
799.676	454.94383
800.09	479.02291
800.504	468.98593
800.918	447.89926
801.331	442.02279
801.745	460.90815
802.158	420.93063
802.572	427.90253
802.985	353.74843
803.398	372.78785
803.811	404.92347
804.224	378.82887
804.637	388.8307
805.05	298.61291
805.462	377.82685
805.875	379.89536
806.288	239.52885
806.7	348.78589
807.112	303.63036
807.525	272.60048
807.937	324.74064
808.349	252.57793
808.761	287.64564
809.173	247.54609
809.584	288.63979
809.996	238.54364
810.408	259.62257
810.819	222.48005
811.231	244.60062
811.642	288.6528
812.053	248.55597
812.464	308.6808
812.875	173.40955
813.286	216.51854
813.697	221.45813
814.108	187.42328
814.519	206.4128
814.929	220.52372
815.34	174.39121
815.75	173.41429
816.16	163.37586
816.571	183.44458
816.981	150.32811
817.391	200.44874
817.801	152.35573
818.211	140.30779
818.62	105.23545
819.03	146.33444
819.44	113.2771
819.849	162.38491
820.259	142.33934
820.668	43.09979
821.077	120.28205
821.486	117.26214
821.895	150.34581
822.304	85.21421
822.713	99.21934
823.122	91.2151
823.531	79.17496
823.939	90.20567
824.348	160.36563
824.756	66.1561
825.164	116.2735
825.573	77.18398
825.981	117.27452
826.389	71.16685
826.797	71.16834
827.205	135.29086
827.612	78.18162
828.02	93.20768
828.428	74.17941
828.835	92.23048
829.243	82.18263
829.65	68.16176
830.057	87.19981
830.464	90.20981
830.871	34.07591
831.278	20.04607
831.685	66.13746
832.092	104.2411
832.499	32.06519
832.905	44.10499
833.312	24.05105
833.718	81.19213
834.124	75.16229
834.531	62.14788
834.937	-1.00245
835.343	36.08124
835.749	36.07821
836.155	14.03514
836.561	38.08987
836.966	-5.01156
837.372	24.05845
837.777	57.1365
838.183	37.07656
838.588	54.12964
838.993	24.05566
839.399	29.06764
839.804	13.03066
840.209	-50.12254
840.613	-13.02723
841.018	-9.0218
841.423	38.09234
841.828	45.10961
842.232	64.14984
842.637	47.10556
843.041	42.10347
843.445	30.07306
843.849	22.0525
844.253	44.09921
844.657	47.11414
845.061	13.02777
845.465	2.0046
845.869	13.02877
846.272	16.0377
846.676	68.15521
847.079	26.06363
847.483	9.02113
847.886	35.07916
848.289	-30.07817
848.692	56.13577
849.095	39.08954
849.498	-5.01192
849.901	78.16824
850.304	43.09666
850.707	-2.00488
851.109	41.09808
851.512	4.00937
851.914	55.13472
852.316	-14.03399
852.718	9.02264
853.121	-9.02114
853.523	-30.06679
853.925	66.16767
854.326	1.00241
854.728	52.12881
855.13	39.09783
855.531	6.01385
855.933	6.01378
856.334	-1.00239
856.736	37.07907
857.137	10.02235
857.538	31.07546
857.939	-2.00476
858.34	50.11523
858.741	-17.0429
859.142	21.048
859.542	20.05111
859.943	31.07387
860.343	-5.01191
860.744	38.08872
861.144	42.09853
861.544	25.05864
861.945	32.07846
862.345	21.04895
862.745	24.05731
863.145	-15.03343
863.544	34.08194
863.944	51.11347
864.344	32.07609
864.743	18.04232
865.143	21.05157
865.542	-27.06
865.941	-14.03312
866.34	-1.00226
866.74	33.08444
867.139	45.10439
867.537	23.05582
867.936	14.0319
868.335	12.02941
868.734	-15.03716
869.132	-24.05265
869.531	30.06889
869.929	6.01312
870.327	31.07123
870.726	-8.01883
871.124	16.03484
871.522	22.05402
871.92	-23.05356
872.318	-2.00466
872.715	18.04229
873.113	12.02789
873.511	37.08841
873.908	-15.03708
874.306	10.02391
874.703	-19.04541
875.1	6.01462
875.497	-23.05287
875.894	-13.03075
876.291	-14.03279
876.688	13.03262
877.085	-69.15809
877.482	17.04048
877.878	-14.03256
878.275	29.07035
878.671	57.11726
879.068	62.14106
879.464	-9.0207
879.86	47.10734
880.256	-44.10334
880.652	12.02949
881.048	12.02834
881.444	18.04035
881.84	45.10949
882.236	4.00964
882.631	-5.01162
883.027	8.01822
883.422	36.08885
883.817	-42.10294
884.213	30.07347
884.608	-29.06908
885.003	-7.0161
885.398	-43.10435
885.793	45.10826
886.188	14.03361
886.582	-11.02681
886.977	19.04246
887.371	12.02907
887.766	-21.05081
888.16	27.06397
888.554	22.05104
888.949	-30.07172
889.343	10.02305
889.737	6.01567
890.131	17.04079
890.525	12.02936
890.918	-10.02425
891.312	18.0409
891.706	0
892.099	-27.0656
892.492	9.01808
892.886	1.00236
893.279	-20.04918
893.672	-5.01217
894.065	-21.0497
894.458	-18.04371
894.851	-22.05056
895.244	7.01718
895.637	7.0161
896.029	48.11229
896.422	27.06221
896.814	20.04787
897.206	-17.03884
897.599	-16.03739
897.991	-1.0023
898.383	-48.10881
898.775	49.10435
899.167	3.00676
899.559	42.10106
899.951	18.04006
900.342	49.11842
900.734	-42.10145
901.125	-12.03001
901.517	15.03506
901.908	20.04511
902.299	6.0141
902.69	38.08463
903.082	-7.01599
903.473	48.10978
903.863	-16.03926
904.254	14.03082
904.645	1.00233
905.036	-5.01175
905.426	30.06404
905.817	2.00466
906.207	15.03459
906.597	38.08418
906.987	27.06712
907.378	-16.03872
907.768	2.00508
908.158	3.00693
908.547	-63.15592
908.937	30.07344
909.327	-41.09454
909.717	-34.08138
910.106	-18.0407
910.495	10.02373
910.885	34.08178
911.274	22.05227
911.663	22.05314
912.052	-35.08141
912.441	-18.0439
912.83	53.11635
913.219	-48.12099
913.608	-22.05116
913.997	3.00726
914.385	30.06715
914.774	27.0629
915.162	-7.01599
915.55	-35.07939
915.939	19.04632
916.327	42.09999
916.715	37.09204
917.103	-40.09262
917.491	20.04629
917.878	17.03976
918.266	-21.0522
918.654	42.10267
919.041	6.01515
919.429	-9.02031
919.816	17.0413
920.203	-16.03695
920.591	32.07671
920.978	27.06288
921.365	-9.02252
921.752	-10.02248
922.139	9.01824
922.525	7.01628
922.912	37.08593
923.299	17.04053
923.685	-8.02016
924.072	17.03636
924.458	14.03306
924.844	-7.01659
925.231	10.02214
925.617	8.01975
926.003	21.05106
926.389	16.03849
926.774	9.02177
927.16	15.03539
927.546	-18.04498
927.931	-17.04006
928.317	-7.01506
928.702	8.01777
929.088	-6.0135
929.473	-23.05667
929.858	14.03282
930.243	37.08426
930.628	5.01163
931.013	49.11717
931.398	34.0727
931.783	17.0428
932.167	-27.06248
932.552	11.02633
932.937	-16.03745
933.321	-9.02166
933.705	21.05104
934.09	16.03812
934.474	-6.01342
934.858	32.08017
935.242	59.13077
935.626	-5.01229
936.009	18.04652
936.393	39.09454
936.777	5.01242
937.16	4.01
937.544	0
937.927	-19.0464
938.311	-41.09371
938.694	8.0203
939.077	16.0364
939.46	18.04156
939.843	40.07633
940.226	-11.02715
940.609	16.03441
940.991	11.02697
941.374	3.00707
941.757	-2.00465
942.139	49.10367
942.522	17.03778
942.904	58.13382
943.286	-5.01199
943.668	-6.01499
944.05	29.06818
944.432	0
944.814	45.10575
945.196	52.12227
945.578	-2.00457
945.959	70.15532
946.341	-25.05772
946.722	36.07911
947.104	29.06594
947.485	-9.02009
947.866	3.00721
948.247	4.00965
948.628	-16.03723
949.009	33.0814
949.39	32.07557
949.771	13.02808
950.152	-13.03059
950.532	1.00241
950.913	-19.04393
951.293	-28.07374
951.674	-39.08986
952.054	-11.02638
952.434	-5.01183
952.814	-19.04308
953.194	7.01734
953.574	-1.00231
953.954	-11.02499
954.334	-44.10487
954.714	15.03502
955.093	19.0442
955.473	3.0072
955.853	16.04001
956.232	52.1374
956.611	66.14784
956.99	52.12579
957.37	45.10982
957.749	-7.01573
958.128	12.02934
958.506	-20.04996
958.885	54.13102
959.264	-44.10459
959.643	-25.05278
960.021	-10.02377
960.4	41.08868
960.778	13.03007
961.156	-43.10423
961.535	43.09559
961.913	33.0725
962.291	14.03471
962.669	-26.06349
963.047	21.05136
963.424	-20.0492
963.802	-8.01886
964.18	28.06653
964.557	-76.16301
964.935	-8.01792
965.312	-4.01005
965.69	14.03321
966.067	6.01381
966.444	29.0678
966.821	0
967.198	-11.02524
967.575	6.01397
967.952	26.05757
968.329	64.14831
968.705	42.08389
969.082	72.17738
969.458	-5.01159
969.835	8.01847
970.211	30.07478
970.587	13.03101
970.963	32.07854
971.339	12.03016
971.715	-4.0095
972.091	22.05187
972.467	15.03547
972.843	9.02149
973.219	-15.03343
973.594	16.0402
973.97	-9.02007
974.345	46.10432
974.721	-26.05906
975.096	4.00919
975.471	44.09812
975.846	-10.02296
976.221	20.04847
976.596	-26.05942
976.971	1.00235
977.346	36.07878
977.72	5.01232
978.095	-8.02001
978.469	43.09718
978.844	2.00472
979.218	0
979.593	23.05215
979.967	-2.00463
980.341	64.13845
980.715	-1.00239
981.089	-8.01915
981.463	55.11962
981.837	-18.04246
982.21	3.00645
982.584	40.09192
982.957	-43.10419
983.331	27.05962
983.704	23.05447
984.078	41.09673
984.451	5.01171
984.824	-4.00933
985.197	-7.01609
985.57	5.01206
985.943	31.07293
986.316	-9.02091
986.688	-2.00461
987.061	-1.00221
987.434	14.03515
987.806	-41.09481
988.179	3.00678
988.551	22.05302
988.923	48.11331
989.295	15.03568
989.667	33.0757
990.039	16.03811
990.411	41.08932
990.783	1.00216
991.155	24.05562
991.527	14.03192
991.898	2.00478
992.27	-16.03816
992.641	28.06635
993.012	15.03316
993.384	-19.04329
993.755	16.03901
994.126	5.01153
994.497	7.01648
994.868	-15.03255
995.239	-47.10825
995.61	3.00721
995.98	7.01647
996.351	33.07897
996.722	-31.06877
997.092	-8.01828
997.462	52.11826
997.833	11.02454
998.203	39.08853
998.573	19.04571
998.943	38.08432
999.313	-17.03903
999.683	47.10846
1000.053	21.04556
1000.423	40.09262
1000.792	-2.00496
1001.162	59.13897
1001.531	-12.02802
1001.901	32.07598
1002.27	29.06025
1002.639	-25.06144
1003.009	9.02052
1003.378	18.044
1003.747	63.14179
1004.116	-24.05513
1004.485	-23.05304
1004.853	-19.04602
1005.222	-20.04822
1005.591	-23.05149
1005.959	53.11596
1006.328	55.11891
1006.696	48.11198
1007.064	11.02636
1007.433	4.00946
1007.801	44.10229
1008.169	40.09694
1008.537	25.05106
1008.905	8.01791
1009.273	22.05133
1009.64	24.05438
1010.008	80.18046
1010.375	-24.05334
1010.743	15.03185
1011.11	31.07037
1011.478	-1.00236
1011.845	50.11043
1012.212	16.03405
1012.579	14.03274
1012.946	-26.05855
1013.313	55.12252
1013.68	-28.05829
1014.047	31.07026
1014.414	28.06352
1014.78	14.03321
1015.147	36.082
1015.513	23.05306
1015.88	47.11329
1016.246	11.02581
1016.612	-12.02587
1016.978	-2.00465
1017.344	-13.0305
1017.71	-62.141
1018.076	7.0155
1018.442	4.00987
1018.808	28.0675
1019.174	10.02411
1019.539	80.16847
1019.905	64.14608
1020.27	27.06422
1020.636	4.00898
1021.001	82.18618
1021.366	-56.12916
1021.731	-24.05915
1022.096	-20.04918
1022.461	-8.01806
1022.826	35.0791
1023.191	-22.05573
1023.556	23.05115
1023.92	-4.00935
1024.285	10.02338
1024.649	11.02549
1025.014	-24.05661
1025.378	-5.0121
1025.742	22.05258
1026.107	-20.04243
1026.471	-36.07885
1026.835	63.15139
1027.199	-18.04168
1027.562	56.12363
1027.926	-4.00927
1028.29	-21.05079
1028.654	-23.05009
1029.017	26.0604
1029.381	18.0416
1029.744	20.04894
1030.107	-36.08024
1030.471	46.10478
1030.834	41.08784
1031.197	-31.06983
1031.56	-41.09262
1031.923	-7.01744
1032.286	-24.05272
1032.648	26.05891
1033.011	72.15696
1033.374	-41.08982
1033.736	4.01015
1034.099	-37.08634
1034.461	17.04177
1034.823	-54.12999
1035.185	17.04093
1035.548	25.05776
1035.91	-50.11458
1036.272	27.05762
1036.634	-10.02305
1036.995	-7.01559
1037.357	-60.14026
1037.719	-11.02552
1038.08	-21.04713
1038.442	24.05493
1038.803	1.00229
1039.165	-13.03155
1039.526	2.00456
1039.887	26.05961
1040.248	-1.00238
1040.609	31.07251
1040.97	31.07285
1041.331	5.01217
1041.692	7.01563
1042.053	27.05765
1042.413	40.08805
1042.774	-32.07422
1043.134	1.00223
1043.495	-12.02873
1043.855	-6.01374
1044.215	66.15573
1044.576	33.07543
1044.936	16.03426
1045.296	19.04465
1045.656	10.02306
1046.016	-13.02979
1046.375	-15.03496
1046.735	22.04802
1047.095	-12.02679
1047.454	-19.03699
1047.814	61.14016
1048.173	8.0178
1048.533	-31.06814
1048.892	18.04206
1049.251	33.07861
1049.61	-27.06333
1049.969	24.05343
1050.328	-28.05702
1050.687	50.11523
1051.046	39.0905
1051.405	-4.00947
1051.763	19.04146
1052.122	0
1052.48	-2.00474
1052.839	-48.10797
1053.197	0
1053.555	17.03598
1053.914	28.06463
1054.272	48.10978
1054.63	23.05392
1054.988	50.11329
1055.345	28.05629
1055.703	30.06845
1056.061	-14.03469
1056.419	8.02003
1056.776	104.23603
1057.134	6.01322
1057.491	49.11694
1057.848	-10.02344
1058.206	-22.04839
1058.563	-10.02079
1058.92	21.04528
1059.277	13.03037
1059.634	44.09734
1059.991	-79.17671
1060.348	37.07975
1060.704	75.17067
1061.061	21.0456
1061.418	28.0655
1061.774	5.01178
1062.131	44.11288
1062.487	52.11552
1062.843	29.06918
1063.199	-10.02369
1063.555	17.03752
1063.911	22.0533
1064.267	19.03644
1064.623	-55.12859
1064.979	-38.08344
1065.335	-25.05571
1065.691	-30.06729
1066.046	17.03519
1066.402	23.05011
1066.757	13.03126
1067.112	8.01858
1067.468	2.00455
1067.823	26.05958
1068.178	-13.02981
1068.533	5.01155
1068.888	55.12242
1069.243	-23.05416
1069.598	7.01624
1069.952	8.0172
1070.307	16.03824
1070.662	-24.05414
1071.016	42.08981
1071.371	13.02783
1071.725	-25.05585
1072.079	30.06938
1072.434	-28.06522
1072.788	11.0248
1073.142	-2.00459
1073.496	-12.027
1073.85	-10.02193
1074.203	-10.02293
1074.557	18.04597
1074.911	-16.03586
1075.265	15.03318
1075.618	41.09451
1075.971	62.14043
1076.325	-28.06847
1076.678	4.00872
1077.031	-7.01508
1077.385	-1.00206
1077.738	28.06011
1078.091	-6.01311
1078.444	43.09384
1078.796	24.0565
1079.149	33.07864
1079.502	-21.04754
1079.855	-1.00221
1080.207	-17.03986
1080.56	11.0274
1080.912	-11.02542
1081.264	-26.05963
1081.617	-6.01395
1081.969	5.01217
1082.321	39.09093
1082.673	-31.06748
1083.025	-12.02678
1083.377	-4.00786
1083.728	42.09261
1084.08	-42.10033
1084.432	-8.01852
1084.783	10.02196
1085.135	20.04814
1085.486	26.05675
1085.838	7.01646
1086.189	-2.00465
1086.54	7.01573
1086.891	-47.115
1087.242	3.00691
1087.593	-19.04341
1087.944	-1.00216
1088.295	41.08674
1088.646	-27.06181
1088.996	-1.00232
1089.347	-36.08439
1089.698	-10.02268
1090.048	23.05738
1090.398	-6.0131
1090.749	53.11992
1091.099	47.1147
1091.449	31.07393
1091.799	-31.07432
1092.149	11.02598
1092.499	12.02799
1092.849	39.09471
1093.199	-4.0095
1093.548	-19.04381
1093.898	6.01446
1094.248	17.04158
1094.597	31.07754
1094.947	-10.0259
1095.296	48.11366
1095.645	-17.04218
1095.994	-27.06104
1096.343	-63.15064
1096.692	-45.11478
1097.041	42.11176
1097.39	33.07894
1097.739	-14.03501
1098.088	-32.08184
1098.437	6.01542
1098.785	66.17234
1099.134	-28.07103
1099.482	-44.11681
1099.83	5.01278
1100.179	9.02286
1100.527	46.11826
1100.875	11.02827
1101.223	42.10685
1101.571	15.04046
1101.919	20.05104
1102.267	5.01383
1102.615	-3.00965
1102.962	-7.02246
1103.31	10.03208
1103.658	-1.00321
