Data from N3 R8 sample 8_Subt2__0__13-38-59-665.txt Node

Date: Mon Sep 22 13:38:59 PDT 2025
User: uwsun
Spectrometer: HDX01956
Trigger mode: 0
Integration Time (sec): 5.000000E-1
Scans to average: 1
Nonlinearity correction enabled: true
Boxcar width: 0
Storing dark spectrum: false
XAxis mode: Wavelengths
Number of Pixels in Spectrum: 2068
>>>>>Begin Spectral Data<<<<<
194.03	6.01744
194.578	5.01625
195.127	7.02247
195.676	-3.00964
196.225	18.04783
196.773	-18.04993
197.321	19.05317
197.87	-6.01561
198.418	36.09358
198.966	48.12794
199.513	30.07678
200.061	39.10077
200.609	40.10665
201.156	87.19308
201.704	68.17397
202.251	43.11562
202.798	44.11618
203.345	48.1193
203.892	6.01544
204.438	-52.12517
204.985	55.13262
205.532	41.10973
206.078	41.10151
206.624	52.13055
207.17	47.10993
207.716	53.13165
208.262	85.16879
208.808	77.19447
209.354	75.18616
209.899	92.2357
210.445	77.19571
210.99	39.09656
211.535	31.07322
212.08	81.19228
212.625	30.07621
213.17	-5.0127
213.715	27.06154
214.259	93.21761
214.804	79.1958
215.348	73.17028
215.892	22.05336
216.436	73.16853
216.98	34.07629
217.524	87.20779
218.068	23.05755
218.612	45.11284
219.155	51.12139
219.698	52.12303
220.242	51.12636
220.785	95.22368
221.328	58.14499
221.871	16.03995
222.414	45.11117
222.956	28.06776
223.499	84.19064
224.041	37.0862
224.583	22.04757
225.126	29.06398
225.668	26.06344
226.21	21.0533
226.751	-18.04017
227.293	42.09582
227.835	32.07851
228.376	50.11422
228.918	60.15118
229.459	53.13275
230	27.06439
230.541	56.1288
231.082	22.0533
231.622	8.01844
232.163	79.19142
232.704	22.05478
233.244	36.08947
233.784	28.06845
234.324	-33.0733
234.864	-21.04792
235.404	59.14043
235.944	114.27045
236.484	-3.00741
237.023	83.19497
237.563	38.08792
238.102	26.06114
238.641	29.07345
239.18	35.08302
239.719	-2.005
240.258	31.06931
240.797	48.11532
241.335	24.05884
241.874	20.03841
242.412	41.09819
242.95	70.16914
243.488	43.09745
244.026	21.04948
244.564	63.12949
245.102	65.14629
245.64	34.08128
246.177	52.1172
246.715	22.05258
247.252	63.14365
247.789	36.06657
248.326	37.08982
248.863	58.12719
249.4	52.11644
249.936	84.1716
250.473	4.00941
251.009	50.11481
251.546	9.01995
252.082	78.17163
252.618	57.12745
253.154	54.12984
253.69	33.07436
254.226	70.16671
254.761	65.14491
255.297	26.05704
255.832	60.14339
256.367	73.17128
256.903	36.07898
257.438	162.3772
257.972	29.06428
258.507	91.21126
259.042	55.1214
259.576	22.04778
260.111	0
260.645	65.1389
261.179	28.06599
261.713	69.15485
262.247	95.22002
262.781	98.20665
263.315	45.11121
263.849	32.07994
264.382	14.03232
264.915	53.12455
265.449	23.05721
265.982	34.07767
266.515	49.11922
267.048	19.03988
267.58	15.0326
268.113	31.06665
268.646	76.18799
269.178	101.23011
269.71	31.06774
270.243	25.0565
270.775	20.05083
271.307	90.21376
271.838	37.08725
272.37	92.22748
272.902	58.13131
273.433	45.0985
273.965	57.13781
274.496	76.18902
275.027	66.16469
275.558	38.0923
276.089	84.21142
276.62	55.14118
277.15	39.09617
277.681	31.06731
278.211	49.12029
278.741	56.12472
279.272	69.15873
279.802	97.24261
280.332	46.10892
280.861	24.05788
281.391	73.16504
281.921	37.08922
282.45	76.18998
282.98	39.10189
283.509	60.13656
284.038	14.03186
284.567	83.19139
285.096	40.09745
285.625	46.10423
286.153	65.15305
286.682	32.07436
287.21	26.06282
287.739	49.1156
288.267	79.19207
288.795	61.16121
289.323	25.05882
289.851	32.07466
290.378	17.03884
290.906	61.15064
291.433	37.09238
291.961	48.10925
292.488	83.20602
293.015	35.08241
293.542	56.1411
294.069	104.25583
294.596	39.09677
295.122	17.04045
295.649	21.04664
296.175	74.17887
296.702	21.05046
297.228	107.25995
297.754	-21.04699
298.28	81.18551
298.806	61.14675
299.332	102.23102
299.857	104.2367
300.383	27.06778
300.908	23.05674
301.433	82.20037
301.958	77.1784
302.483	62.15555
303.008	65.16128
303.533	91.23456
304.058	57.13306
304.582	52.12332
305.107	48.12568
305.631	25.05668
306.155	58.13638
306.679	121.28634
307.203	74.17101
307.727	41.09725
308.251	31.07655
308.775	85.20255
309.298	43.10333
309.822	78.19674
310.345	132.31291
310.868	87.20978
311.391	36.0883
311.914	82.20646
312.437	47.10708
312.96	37.08759
313.482	107.25262
314.005	49.12402
314.527	97.25436
315.049	95.23804
315.571	112.24996
316.093	25.0619
316.615	107.25878
317.137	163.35225
317.659	123.29692
318.18	85.20457
318.702	88.20393
319.223	101.20713
319.744	125.2796
320.265	89.21816
320.786	79.19652
321.307	65.16169
321.828	96.21646
322.348	40.09424
322.869	102.24058
323.389	120.22622
323.909	47.10795
324.43	79.18775
324.95	119.27528
325.47	98.24214
325.989	98.23142
326.509	76.16975
327.029	94.21265
327.548	105.24067
328.067	80.19359
328.587	127.31246
329.106	84.19103
329.625	70.18022
330.144	112.25687
330.662	114.26889
331.181	101.2328
331.7	129.29734
332.218	126.27141
332.736	94.21913
333.255	97.22501
333.773	114.27097
334.291	138.34022
334.808	101.22648
335.326	141.31617
335.844	156.36337
336.361	175.4399
336.879	120.2761
337.396	155.37303
337.913	134.3109
338.43	131.29133
338.947	110.25845
339.464	145.31388
339.981	122.28965
340.497	162.39644
341.014	151.36533
341.53	108.24242
342.046	162.39437
342.562	161.39304
343.078	124.28952
343.594	179.42031
344.11	178.41983
344.626	172.42387
345.141	134.30288
345.657	209.46131
346.172	190.44953
346.687	185.4196
347.202	155.34012
347.717	241.56764
348.232	190.46115
348.747	200.45206
349.261	176.37993
349.776	187.43223
350.29	199.48833
350.805	181.43757
351.319	203.46472
351.833	160.35663
352.347	188.43825
352.861	167.38155
353.374	202.44875
353.888	216.51044
354.401	143.32527
354.915	194.42525
355.428	204.49698
355.941	205.46779
356.454	186.40823
356.967	195.44767
357.48	283.63116
357.993	156.37422
358.505	203.49002
359.018	217.51072
359.53	222.52746
360.042	224.4881
360.554	215.50246
361.066	249.58967
361.578	242.51635
362.09	257.5881
362.602	289.61489
363.113	199.45264
363.625	223.48603
364.136	223.47406
364.647	262.60158
365.158	308.69415
365.669	218.50577
366.18	315.71587
366.691	300.64065
367.201	231.53094
367.712	249.55097
368.222	234.5153
368.733	287.60372
369.243	254.54924
369.753	280.62357
370.263	261.59917
370.773	297.69625
371.282	209.47827
371.792	305.67459
372.301	300.69764
372.811	292.73354
373.32	336.69044
373.829	283.64212
374.338	316.67598
374.847	364.79817
375.356	358.81275
375.865	407.82822
376.373	430.92538
376.882	334.79321
377.39	409.92455
377.898	416.96312
378.407	403.84659
378.915	423.86078
379.423	478.04435
379.93	521.07621
380.438	520.14777
380.946	543.15032
381.453	549.19292
381.96	636.35204
382.468	609.26675
382.975	613.31411
383.482	584.15558
383.989	705.579
384.495	671.33145
385.002	669.2102
385.509	778.56024
386.015	784.28615
386.521	846.55721
387.028	954.7503
387.534	909.58537
388.04	933.77134
388.546	1045.84146
389.051	1080.81798
389.557	1194.11838
390.063	1172.96708
390.568	1246.19283
391.073	1292.06188
391.578	1400.45241
392.084	1474.30827
392.589	1509.13417
393.093	1626.52249
393.598	1685.42553
394.103	1939.79773
394.607	2123.83047
395.112	2237.99866
395.616	2392.92689
396.12	2631.67306
396.624	2920.77646
397.128	3109.85514
397.632	3502.66468
398.136	3655.31592
398.639	4061.32798
399.143	4548.41946
399.646	5187.53219
400.15	5669.17011
400.653	6347.84936
401.156	7112.87074
401.659	8338.13605
402.162	10389.03628
402.664	14190.20429
403.167	21725.1976
403.67	48951.08865
404.172	51026.86433
404.674	31176.06428
405.176	3757.7064
405.678	27.69154
406.18	0
406.682	0
407.184	45159.96023
407.686	58897.86778
408.187	48118.69852
408.688	29362.12676
409.19	20876.20286
409.691	16613.19411
410.192	14224.59938
410.693	12304.28484
411.194	11349.4891
411.694	10525.80926
412.195	9557.82683
412.696	8769.90486
413.196	8432.27641
413.696	8227.94927
414.196	8208.85869
414.696	7909.50279
415.196	7235.88051
415.696	6468.57287
416.196	5107.34988
416.695	4102.2182
417.195	3723.58225
417.694	3523.74721
418.194	3254.0322
418.693	3118.51441
419.192	2992.71675
419.691	2962.71159
420.19	2925.92214
420.688	2725.01146
421.187	2626.2204
421.685	2413.712
422.184	2188.70104
422.682	1978.35762
423.18	1734.50251
423.678	1507.3273
424.176	1399.18292
424.674	1346.06146
425.172	1252.14639
425.669	1187.24008
426.167	1137.96356
426.664	1015.79868
427.161	922.69655
427.659	846.66791
428.156	871.46392
428.652	818.72353
429.149	733.51082
429.646	664.23938
430.143	620.29281
430.639	615.25652
431.135	594.29549
431.632	529.06539
432.128	514.08712
432.624	477.10153
433.12	469.95264
433.616	409.79401
434.111	385.8298
434.607	440.95219
435.103	441.8251
435.598	400.72009
436.093	394.83115
436.588	342.69358
437.083	339.68513
437.578	304.64328
438.073	308.71313
438.568	301.67269
439.062	287.56327
439.557	282.61343
440.051	236.5018
440.546	305.65655
441.04	221.50003
441.534	286.67217
442.028	200.44265
442.522	180.40636
443.015	237.48207
443.509	259.586
444.002	176.40446
444.496	234.48258
444.989	244.55442
445.482	204.4804
445.975	151.32869
446.468	251.5017
446.961	199.39776
447.454	248.5241
447.947	151.33539
448.439	190.43208
448.931	158.3361
449.424	160.37548
449.916	107.24309
450.408	128.27146
450.9	164.37748
451.392	150.35435
451.884	115.2449
452.375	116.27116
452.867	116.24461
453.358	137.29416
453.849	189.37304
454.341	183.38513
454.832	105.21192
455.323	136.31329
455.814	158.34078
456.304	130.28039
456.795	116.24934
457.285	136.28149
457.776	125.26341
458.266	116.2591
458.756	166.37689
459.247	85.19186
459.737	92.20719
460.226	150.32047
460.716	65.14629
461.206	64.14584
461.695	92.21683
462.185	115.25564
462.674	117.25273
463.163	139.2915
463.653	130.25448
464.142	43.09832
464.63	54.12469
465.119	108.24013
465.608	112.24323
466.096	104.21603
466.585	58.12531
467.073	43.09817
467.561	93.2124
468.05	91.2033
468.538	21.04896
469.026	100.22778
469.513	137.27943
470.001	136.29598
470.489	45.10223
470.976	80.17544
471.463	13.03068
471.951	24.05725
472.438	41.09266
472.925	52.11792
473.412	77.18038
473.899	47.10253
474.385	11.02578
474.872	87.19669
475.359	82.1904
475.845	38.07555
476.331	86.17872
476.817	62.14436
477.303	113.25245
477.789	32.07454
478.275	33.07945
478.761	54.1242
479.247	21.04503
479.732	51.12251
480.218	48.12047
480.703	43.10357
481.188	12.02481
481.673	12.02652
482.158	46.09598
482.643	22.0537
483.128	-22.04869
483.612	58.13073
484.097	41.09571
484.581	-19.04245
485.066	-13.03026
485.55	-2.00422
486.034	55.11422
486.518	32.07277
487.002	29.06964
487.486	11.02606
487.969	24.05722
488.453	23.05648
488.936	60.13136
489.42	22.04651
489.903	54.13151
490.386	9.01993
490.869	27.0567
491.352	17.04053
491.835	23.04561
492.318	29.06366
492.8	20.0398
493.283	1.00247
493.765	27.06459
494.247	-15.03364
494.73	9.01923
495.212	-54.12574
495.694	-48.11062
496.175	41.09503
496.657	-26.05944
497.139	-10.01659
497.62	19.04383
498.102	6.0145
498.583	-5.01214
499.064	-16.03497
499.545	-2.00447
500.026	-2.00437
500.507	-38.08582
500.988	-41.09849
501.469	-23.05684
501.949	-32.07717
502.43	-15.03522
502.91	-42.08498
503.39	-22.05318
503.87	-6.01386
504.35	-68.1537
504.83	31.06613
505.31	-22.05179
505.79	-40.0938
506.269	-42.09509
506.749	7.0157
507.228	-74.17081
507.707	14.03004
508.187	7.01594
508.666	-18.04325
509.145	-92.2099
509.623	-54.1236
510.102	-70.16382
510.581	-78.18269
511.059	-72.17653
511.538	-112.28109
512.016	-90.2079
512.494	-36.08514
512.972	-71.16437
513.45	-37.08515
513.928	-46.10846
514.406	-81.19272
514.884	-88.22101
515.361	-79.1834
515.839	7.01557
516.316	-38.08897
516.793	-56.13816
517.27	-74.17434
517.747	-39.09821
518.224	-75.16845
518.701	-71.15396
519.178	-71.17198
519.654	-71.16281
520.131	-89.21549
520.607	-61.14681
521.083	-75.16721
521.56	-93.2165
522.036	-23.04868
522.512	-67.16002
522.987	-27.06271
523.463	-54.1244
523.939	-42.09933
524.414	-83.18466
524.89	-66.15398
525.365	-106.23353
525.84	-59.13778
526.315	-92.21683
526.79	-125.27498
527.265	-79.17481
527.74	-43.10239
528.215	-90.2065
528.689	-113.24252
529.164	-66.13752
529.638	-57.14277
530.112	-49.11281
530.587	-70.14631
531.061	-103.24139
531.534	-91.21393
532.008	-74.17339
532.482	-100.22299
532.956	-97.24165
533.429	-90.21187
533.903	-41.08663
534.376	-126.27153
534.849	-82.18338
535.322	-103.23495
535.795	-129.30385
536.268	-112.26499
536.741	-94.21878
537.213	-97.21581
537.686	-100.23733
538.158	-83.18305
538.631	-61.14223
539.103	-93.20407
539.575	-119.23775
540.047	-165.35229
540.519	-144.33158
540.991	-103.24422
541.463	-76.18023
541.934	-106.235
542.406	-145.33715
542.877	-47.10487
543.348	-131.30628
543.82	-147.35377
544.291	-78.17724
544.762	-125.28778
545.233	-87.21192
545.703	-98.21101
546.174	-95.216
546.645	-62.14613
547.115	-59.13897
547.585	-102.2299
548.056	-93.22102
548.526	-66.1521
548.996	-84.19566
549.466	-49.1165
549.935	-81.18901
550.405	-95.20442
550.875	-75.17253
551.344	-82.19183
551.814	-100.22401
552.283	-59.12428
552.752	-56.1272
553.221	-88.19078
553.69	-33.07177
554.159	-52.12503
554.628	-79.17364
555.096	-87.2165
555.565	-93.20072
556.033	-62.141
556.502	-62.14482
556.97	-106.22804
557.438	-69.15727
557.906	-105.23825
558.374	-43.09634
558.842	-56.12905
559.31	-61.12996
559.777	-39.09258
560.245	-85.19052
560.712	-56.12488
561.18	-33.06976
561.647	-2.00433
562.114	-36.07984
562.581	-66.15779
563.048	-62.13642
563.514	-66.15622
563.981	-103.2284
564.448	17.03726
564.914	-55.12287
565.381	-38.08273
565.847	-83.18726
566.313	-64.14277
566.779	-8.01724
567.245	-36.08134
567.711	17.03936
568.176	-55.11814
568.642	-49.119
569.108	-29.0686
569.573	-43.09599
570.038	-52.10425
570.504	-2.00429
570.969	34.08122
571.434	3.00629
571.899	-4.00899
572.363	34.07396
572.828	-10.0216
573.293	18.03914
573.757	12.02596
574.222	2.00424
574.686	95.20213
575.15	12.02714
575.614	38.08221
576.078	27.06072
576.542	-17.03675
577.006	54.11542
577.469	11.02553
577.933	17.03575
578.396	-25.05691
578.86	1.00221
579.323	29.06564
579.786	62.12487
580.249	-4.00862
580.712	92.21202
581.175	-6.01404
581.637	-36.07771
582.1	12.0244
582.563	1.00198
583.025	-19.04404
583.487	-22.04235
583.95	1.00206
584.412	31.06156
584.874	-48.10925
585.336	12.02711
585.797	-3.00615
586.259	-48.10633
586.721	-51.11422
587.182	-85.18495
587.643	-65.13926
588.105	-55.1244
588.566	-39.07705
589.027	-19.04374
589.488	-39.08356
589.949	-18.04122
590.41	-12.02238
590.87	-2.00428
591.331	-45.09116
591.791	-16.03481
592.252	-23.04983
592.712	-17.03872
593.172	-40.0845
593.632	16.03245
594.092	-25.05291
594.552	-33.06639
595.011	-65.14089
595.471	17.03475
595.931	17.03551
596.39	-27.06104
596.849	15.03246
597.308	37.07416
597.768	24.05733
598.227	89.19949
598.685	92.19417
599.144	123.26694
599.603	10.0217
600.062	124.23963
600.52	133.27164
600.978	130.27979
601.437	114.2332
601.895	162.31141
602.353	183.35712
602.811	199.38742
603.269	250.52578
603.727	205.4413
604.184	323.64351
604.642	230.49458
605.099	316.63733
605.557	354.74317
606.014	367.67712
606.471	411.88697
606.928	390.72552
607.385	467.99787
607.842	435.83683
608.299	484.93491
608.755	548.10398
609.212	612.1049
609.668	591.06664
610.125	667.30132
610.581	708.32362
611.037	645.16135
611.493	651.23519
611.949	700.37066
612.405	737.13146
612.861	752.37487
613.316	780.4513
613.772	811.43562
614.227	790.46267
614.683	880.39614
615.138	841.52672
615.593	882.60496
616.048	853.48824
616.503	829.59957
616.958	921.80621
617.412	836.56648
617.867	819.38976
618.321	790.22135
618.776	793.33754
619.23	865.56799
619.684	760.30365
620.138	785.38516
620.592	710.38371
621.046	751.38514
621.5	771.50029
621.954	711.23015
622.407	678.18505
622.861	711.41225
623.314	615.0942
623.768	661.23956
624.221	668.05702
624.674	630.16476
625.127	590.12932
625.58	541.99925
626.033	500.90202
626.485	513.04211
626.938	519.04185
627.39	479.93346
627.843	507.97066
628.295	531.02427
628.747	452.90576
629.199	467.89277
629.651	476.92563
630.103	462.90439
630.555	368.66723
631.006	390.79236
631.458	474.9617
631.909	283.55411
632.361	341.69107
632.812	326.66959
633.263	369.68013
633.714	385.70215
634.165	305.65005
634.616	323.67944
635.067	346.66608
635.518	340.70307
635.968	310.53517
636.419	261.497
636.869	262.55538
637.319	284.5828
637.769	269.53718
638.219	288.60275
638.669	291.62534
639.119	258.56743
639.569	301.6574
640.019	270.55057
640.468	300.59922
640.918	286.61816
641.367	190.3818
641.816	247.4921
642.265	274.56965
642.714	233.48257
643.163	251.52078
643.612	276.61389
644.061	293.565
644.51	268.55742
644.958	250.49518
645.406	226.491
645.855	215.47733
646.303	231.48507
646.751	220.4533
647.199	286.58293
647.647	247.51935
648.095	296.61319
648.543	320.5666
648.99	259.56688
649.438	212.44959
649.885	237.53928
650.333	278.4702
650.78	263.58
651.227	252.55493
651.674	254.52548
652.121	195.43851
652.568	228.50861
653.015	225.51343
653.461	275.60138
653.908	175.37364
654.354	169.36724
654.801	225.49226
655.247	261.51563
655.693	298.71481
656.139	255.56637
656.585	188.4114
657.031	215.46382
657.477	188.37569
657.922	190.4054
658.368	218.49033
658.813	235.4976
659.259	181.40335
659.704	223.48273
660.149	191.41257
660.594	183.39936
661.039	164.34932
661.484	192.41696
661.929	229.49592
662.373	171.40747
662.818	108.24948
663.262	202.45658
663.707	198.47298
664.151	182.41003
664.595	154.35178
665.039	126.29118
665.483	154.36914
665.927	185.40595
666.371	194.4265
666.814	146.32448
667.258	181.40469
667.701	197.38517
668.145	180.4153
668.588	146.3382
669.031	211.46787
669.474	175.39467
669.917	180.36905
670.36	172.40111
670.803	146.32772
671.245	80.15578
671.688	209.47711
672.13	127.27069
672.573	153.36346
673.015	161.36205
673.457	165.33868
673.899	121.27456
674.341	183.41524
674.783	123.28272
675.225	137.31729
675.666	161.36532
676.108	218.44433
676.549	193.42956
676.991	165.34174
677.432	263.48352
677.873	172.37321
678.314	126.28619
678.755	165.37789
679.196	160.34806
679.637	170.39004
680.078	132.2858
680.518	197.42499
680.959	127.28759
681.399	192.45074
681.839	185.42267
682.28	185.43524
682.72	178.38244
683.16	176.41544
683.6	165.35091
684.039	207.3934
684.479	159.36985
684.919	180.39722
685.358	83.19854
685.798	191.47908
686.237	170.38237
686.676	140.29574
687.115	214.47185
687.554	195.43473
687.993	187.38436
688.432	177.37627
688.871	169.36099
689.309	235.52433
689.748	145.27705
690.186	203.44975
690.625	209.46131
691.063	149.33383
691.501	144.33277
691.939	186.43734
692.377	215.49279
692.815	251.56397
693.253	180.40054
693.69	179.3636
694.128	182.41221
694.565	241.53905
695.003	218.51995
695.44	220.48467
695.877	217.47295
696.314	248.4811
696.751	283.59426
697.188	291.61618
697.625	269.55289
698.061	254.56801
698.498	244.54768
698.934	254.56286
699.371	234.51205
699.807	237.51456
700.243	260.58023
700.679	260.53596
701.115	254.54054
701.551	300.64259
701.987	243.49224
702.422	326.71546
702.858	266.58158
703.294	340.69488
703.729	352.78096
704.164	359.78439
704.599	368.72788
705.035	366.74089
705.47	393.86447
705.904	348.73477
706.339	387.7947
706.774	385.80735
707.209	404.83466
707.643	428.92385
708.078	408.90857
708.512	427.97897
708.946	447.95142
709.38	450.93969
709.814	440.87111
710.248	485.05007
710.682	461.96628
711.116	568.20782
711.549	451.03767
711.983	459.93106
712.416	517.05408
712.85	487.05485
713.283	552.12378
713.716	545.1802
714.149	597.19707
714.582	558.04992
715.015	643.38205
715.448	598.28218
715.881	596.07321
716.313	617.21387
716.746	604.21141
717.178	633.28809
717.61	636.37139
718.043	669.40839
718.475	732.48815
718.907	692.46484
719.339	721.3616
719.77	763.48822
720.202	769.63615
720.634	780.57937
721.065	744.4439
721.497	787.56343
721.928	817.65928
722.359	788.57596
722.79	887.72392
723.221	884.81627
723.652	857.79273
724.083	909.62038
724.514	994.77914
724.945	899.70255
725.375	992.8311
725.806	977.91078
726.236	995.03695
726.666	993.82702
727.096	1029.95014
727.526	978.98524
727.956	985.70027
728.386	1036.97153
728.816	1061.13231
729.246	1133.08181
729.675	1091.07146
730.105	1087.03292
730.534	1086.87966
730.964	1180.24144
731.393	1237.27356
731.822	1181.26013
732.251	1153.2445
732.68	1207.06613
733.109	1213.2293
733.537	1215.19187
733.966	1261.30513
734.395	1253.04741
734.823	1226.94029
735.251	1271.24339
735.68	1207.21603
736.108	1335.48602
736.536	1194.03127
736.964	1230.07492
737.392	1276.3659
737.82	1234.18063
738.247	1129.98891
738.675	1226.07594
739.102	1226.27291
739.53	1196.3092
739.957	1202.31309
740.384	1217.18548
740.811	1194.24512
741.238	1176.12825
741.665	1232.09399
742.092	1141.97571
742.519	1092.0859
742.945	1142.06233
743.372	1133.11608
743.798	1095.18567
744.225	1151.076
744.651	1080.05994
745.077	1088.09922
745.503	1052.94693
745.929	1061.93392
746.355	1090.01405
746.781	1056.01599
747.207	1060.91119
747.632	937.81778
748.058	946.83744
748.483	934.6415
748.908	1018.00128
749.334	938.8167
749.759	883.63236
750.184	929.7569
750.609	904.76992
751.033	856.58511
751.458	864.496
751.883	882.77476
752.307	789.50772
752.732	806.69228
753.156	886.76975
753.58	776.46459
754.005	743.55476
754.429	741.41585
754.853	721.4834
755.277	792.51602
755.7	765.55144
756.124	686.44644
756.548	682.35173
756.971	671.35624
757.394	718.5801
757.818	713.58449
758.241	679.45263
758.664	665.44409
759.087	668.24624
759.51	569.20181
759.933	594.22974
760.356	630.40018
760.778	608.27897
761.201	589.22291
761.623	600.24938
762.046	542.08686
762.468	528.06459
762.89	625.3168
763.312	493.02829
763.734	495.04253
764.156	565.21003
764.578	570.11624
765	424.90816
765.421	484.09976
765.843	487.12689
766.264	445.93522
766.686	538.17865
767.107	412.88056
767.528	436.98817
767.949	465.05075
768.37	434.94722
768.791	427.91478
769.212	380.86583
769.632	338.71115
770.053	424.00584
770.473	377.81535
770.894	376.85153
771.314	306.64127
771.734	327.6821
772.154	342.79717
772.575	339.6977
772.994	361.73997
773.414	352.7582
773.834	333.75064
774.254	256.56658
774.673	321.70968
775.093	329.75313
775.512	229.51623
775.931	321.73364
776.351	277.62978
776.77	300.67999
777.189	322.69567
777.607	250.58918
778.026	276.63474
778.445	257.59849
778.864	244.5766
779.282	315.68943
779.701	256.59557
780.119	208.48601
780.537	248.57764
780.955	280.65062
781.373	232.52673
781.791	235.4817
782.209	191.397
782.627	217.53505
783.045	236.49896
783.462	236.5564
783.88	249.59922
784.297	211.49544
784.715	225.54291
785.132	222.4983
785.549	231.53816
785.966	197.4613
786.383	178.41151
786.8	172.367
787.217	181.39633
787.633	208.48887
788.05	172.36413
788.466	192.41465
788.883	236.5674
789.299	218.48812
789.715	173.39207
790.131	156.36136
790.547	157.36592
790.963	216.50133
791.379	163.39139
791.795	113.23802
792.21	164.35509
792.626	97.21661
793.041	179.4162
793.457	145.33555
793.872	161.35626
794.287	126.28805
794.702	167.38262
795.117	112.26591
795.532	147.34907
795.947	80.17662
796.362	131.28867
796.776	119.25463
797.191	137.31414
797.605	127.28349
798.02	104.23833
798.434	111.22547
798.848	160.37225
799.262	145.34194
799.676	91.20447
800.09	82.19048
800.504	76.17389
800.918	78.17026
801.331	128.31521
801.745	73.15722
802.158	117.27559
802.572	82.18641
802.985	34.0771
803.398	66.14912
803.811	142.34168
804.224	57.13343
804.637	99.22519
805.05	23.05024
805.462	87.20245
805.875	78.19498
806.288	58.13318
806.7	75.17879
807.112	102.2217
807.525	39.09029
807.937	71.17055
808.349	66.157
808.761	71.16678
809.173	47.10825
809.584	61.14189
809.996	79.18623
810.408	17.04273
810.819	63.14086
811.231	108.27251
811.642	97.22839
812.053	86.19922
812.464	158.36019
812.875	19.04632
813.286	55.13607
813.697	44.09482
814.108	90.20774
814.519	15.03139
814.929	99.24115
815.34	39.09011
815.75	41.10065
816.16	56.13188
816.571	64.15894
816.981	74.16447
817.391	80.18392
817.801	29.0695
818.211	26.05853
818.62	-4.00917
819.03	66.15362
819.44	56.13877
819.849	57.13817
820.259	36.08777
820.668	-12.02815
821.077	50.11912
821.486	58.13153
821.895	76.1778
822.304	41.10414
822.713	15.03382
823.122	-1.00241
823.531	2.0045
823.939	47.10834
824.348	75.17432
824.756	39.09272
825.164	35.08382
825.573	27.06513
825.981	36.0858
826.389	3.00714
826.797	41.09778
827.205	56.1227
827.612	50.11706
828.02	-31.071
828.428	16.03921
828.835	25.06339
829.243	27.06082
829.65	8.01925
830.057	30.06969
830.464	41.0965
830.871	10.02244
831.278	-6.01389
831.685	43.09002
832.092	59.138
832.499	29.05912
832.905	-8.01928
833.312	29.06162
833.718	113.26637
834.124	48.10446
834.531	13.0313
834.937	6.01467
835.343	-6.01366
835.749	22.04794
836.155	-7.01763
836.561	-10.02387
836.966	33.0757
837.372	6.01466
837.777	10.02416
838.183	32.06629
838.588	65.15572
838.993	-12.02803
839.399	-30.07079
839.804	-3.0071
840.209	-67.16472
840.613	24.04985
841.018	-23.05586
841.423	-38.09365
841.828	20.04894
842.232	30.07071
842.637	8.01811
843.041	-26.06485
843.445	53.12852
843.849	4.00958
844.253	48.10814
844.657	50.12136
845.061	-5.01072
845.465	13.02981
845.869	40.08801
846.272	44.1031
846.676	15.0346
847.079	1.00246
847.483	4.0094
847.886	-21.04804
848.289	-6.01557
848.692	43.10451
849.095	30.069
849.498	6.01427
849.901	49.10634
850.304	18.04067
850.707	-30.07358
851.109	28.06714
851.512	-9.02113
851.914	9.02223
852.316	-17.0413
852.718	-7.01766
853.121	-10.0235
853.523	4.00884
853.925	35.0894
854.326	-9.02175
854.728	11.02745
855.13	6.01514
855.531	5.01155
855.933	26.05949
856.334	23.05472
856.736	18.03862
857.137	43.09543
857.538	32.07787
857.939	49.11537
858.34	29.06711
858.741	-3.00755
859.142	-1.0023
859.542	-7.01797
859.943	5.01197
860.343	-22.05256
860.744	48.11185
861.144	26.06118
861.544	44.10281
861.945	80.19439
862.345	23.05359
862.745	34.08104
863.145	-6.01335
863.544	-2.00485
863.944	5.01123
864.344	54.12786
864.743	30.07038
865.143	6.01478
865.542	-45.10037
865.941	1.00236
866.34	20.0451
866.74	-27.06981
867.139	62.14334
867.537	10.02433
867.936	23.05232
868.335	8.01962
868.734	6.01481
869.132	2.00436
869.531	59.13469
869.929	-11.02414
870.327	61.13931
870.726	-33.07803
871.124	-7.01532
871.522	-11.02717
871.92	4.00927
872.318	4.00931
872.715	55.12829
873.113	19.04409
873.511	31.07415
873.908	-2.00493
874.306	20.04772
874.703	-14.03343
875.1	21.05104
875.497	4.00914
875.894	4.00943
876.291	-9.02106
876.688	24.0601
877.085	-2.00452
877.482	-50.12059
877.878	5.01158
878.275	4.00975
878.671	37.07646
879.068	11.02528
879.464	8.01834
879.86	25.05735
880.256	-31.07262
880.652	19.04663
881.048	4.00946
881.444	4.00899
881.84	12.02938
882.236	39.09333
882.631	-65.15287
883.027	33.07479
883.422	36.08885
883.817	-33.08074
884.213	-43.10673
884.608	22.05189
885.003	0
885.398	-11.02653
885.793	9.0218
886.188	13.03122
886.582	12.02913
886.977	-4.00898
887.371	6.01455
887.766	-27.0654
888.16	-19.04541
888.554	8.01861
888.949	-13.03098
889.343	-27.06271
889.737	-10.02618
890.131	7.01683
890.525	35.08525
890.918	-19.04616
891.312	38.086
891.706	9.02278
892.099	-3.00726
892.492	21.04207
892.886	19.04468
893.279	-35.0863
893.672	-46.11286
894.065	-10.02361
894.458	13.03138
894.851	-11.02522
895.244	-28.06918
895.637	21.04817
896.029	37.08675
896.422	0
896.814	39.09301
897.206	-5.0114
897.599	27.06256
897.991	-38.08799
898.383	6.01345
898.775	0
899.167	50.11163
899.559	41.09867
899.951	36.07981
900.342	-14.03424
900.734	-30.0723
901.125	-18.04506
901.517	11.02573
901.908	18.04062
902.299	23.05388
902.69	50.11108
903.082	-10.02286
903.473	6.01384
903.863	10.02442
904.254	7.01543
904.645	16.03721
905.036	-34.08038
905.426	-16.0345
905.817	11.0256
906.207	1.00231
906.597	30.06657
906.987	20.04978
907.378	-44.10704
907.768	-28.07146
908.158	-18.04178
908.547	-41.10106
908.937	-14.03455
909.327	-13.02981
909.717	-29.06934
910.106	-17.03843
910.495	3.00713
910.885	12.02898
911.274	2.00477
911.663	21.05073
912.052	-56.1308
912.441	-26.06351
912.83	54.11852
913.219	-10.02503
913.608	-16.03717
913.997	-30.07309
914.385	17.03815
914.774	52.12055
915.162	-11.02514
915.55	-29.0657
915.939	0
916.327	26.06209
916.715	43.10685
917.103	-26.06004
917.491	-38.08897
917.878	-2.0047
918.266	-24.05969
918.654	2.00493
919.041	-8.02025
919.429	6.0135
919.816	25.06065
920.203	-18.04158
920.591	65.15483
920.978	19.04432
921.365	-25.06273
921.752	-21.04732
922.139	15.03036
922.525	28.06486
922.912	26.06052
923.299	11.02625
923.685	-16.04039
924.072	13.02783
924.458	-23.0547
924.844	16.03775
925.231	-1.00222
925.617	12.02961
926.003	27.06557
926.389	11.02648
926.774	-43.10502
927.16	27.06355
927.546	19.04716
927.931	4.00939
928.317	-54.11737
928.702	-15.03348
929.088	-20.04513
929.473	32.07805
929.858	37.08634
930.243	-17.03914
930.628	-18.04206
931.013	38.09106
931.398	-6.01294
931.783	9.02269
932.167	-1.0023
932.552	13.03111
932.937	12.02793
933.321	-19.04581
933.705	-3.00732
934.09	10.02385
934.474	-30.06745
934.858	9.02264
935.242	48.10664
935.626	0
936.009	20.05167
936.393	30.07284
936.777	23.05694
937.16	-9.02254
937.544	26.0569
937.927	-4.00974
938.311	-59.13534
938.694	17.04307
939.077	10.02278
939.46	35.08055
939.843	8.01539
940.226	-6.0148
940.609	-21.04552
940.991	30.07331
941.374	30.07032
941.757	-22.05139
942.139	18.03834
942.522	1.00223
942.904	39.09033
943.286	-55.13312
943.668	4.00997
944.05	44.10314
944.432	5.01179
944.814	52.12203
945.196	17.04025
945.578	-15.03434
945.959	23.05153
946.341	5.01147
946.722	-8.01774
947.104	38.08624
947.485	34.07522
947.866	-19.04588
948.247	-1.00241
948.628	36.0829
949.009	20.04945
949.39	-30.07169
949.771	26.05601
950.152	2.00469
950.532	18.04323
950.913	43.09821
951.293	13.034
951.674	-35.08058
952.054	20.04769
952.434	-3.00709
952.814	-3.00678
953.194	19.04695
953.574	-24.0556
953.954	52.11663
954.334	-57.13619
954.714	-23.05409
955.093	25.05808
955.473	27.06454
955.853	41.10207
956.232	-1.00267
956.611	26.05872
956.99	58.14014
957.37	8.01966
957.749	-49.11105
958.128	26.06342
958.506	-2.00498
958.885	72.1741
959.264	37.08658
959.643	-49.10399
960.021	-31.07398
960.4	42.09082
960.778	-15.03489
961.156	4.00961
961.535	64.14165
961.913	6.01326
962.291	-10.0249
962.669	-39.09546
963.047	27.06596
963.424	0
963.802	-7.0165
964.18	-3.00717
964.557	-41.08727
964.935	27.06005
965.312	7.01755
965.69	15.03558
966.067	-4.00923
966.444	14.03283
966.821	-1.00248
967.198	26.05922
967.575	36.08329
967.952	27.05977
968.329	40.09314
968.705	19.03815
969.082	43.1065
969.458	-6.01391
969.835	10.02308
970.211	60.14874
970.587	27.06424
970.963	31.0761
971.339	-20.05056
971.715	12.02843
972.091	76.17731
972.467	0
972.843	43.10199
973.219	-13.02896
973.594	-25.06327
973.97	26.05755
974.345	-3.00687
974.721	-21.04765
975.096	-7.01612
975.471	21.04705
975.846	28.06381
976.221	-44.10792
976.596	-40.09167
976.971	22.05149
977.346	15.03297
977.72	33.08089
978.095	-4.01
978.469	47.10613
978.844	-11.02604
979.218	32.07342
979.593	-11.02511
979.967	-11.02552
980.341	44.09559
980.715	-48.11594
981.089	27.06419
981.463	0
981.837	1.00235
982.21	20.04286
982.584	21.04844
982.957	6.0144
983.331	20.04423
983.704	56.13178
984.078	37.08736
984.451	-29.06836
984.824	-44.10346
985.197	-3.00689
985.57	58.13845
985.943	55.1288
986.316	-17.03956
986.688	52.11869
987.061	14.03091
987.434	16.04016
987.806	10.02289
988.179	18.04055
988.551	-15.0364
988.923	48.11331
989.295	49.11578
989.667	26.05973
990.039	27.06417
990.411	31.06768
990.783	-43.09396
991.155	32.07404
991.527	-38.08754
991.898	50.1183
992.27	2.00475
992.641	18.04274
993.012	19.04197
993.384	-33.0754
993.755	-10.0245
994.126	22.05054
994.497	-19.04495
994.868	14.0302
995.239	-18.04122
995.61	2.00481
995.98	0
996.351	48.11453
996.722	-1.0022
997.092	-5.01142
997.462	57.1295
997.833	25.05562
998.203	1.00229
998.573	26.06247
998.943	23.05119
999.313	42.09528
999.683	49.11304
1000.053	70.15027
1000.423	24.05575
1000.792	-2.00496
1001.162	3.00714
1001.531	4.00931
1001.901	42.09953
1002.27	4.00836
1002.639	0
1003.009	5.01141
1003.378	-13.03196
1003.747	64.14401
1004.116	-25.05744
1004.485	44.1001
1004.853	12.0289
1005.222	-9.02165
1005.591	10.02223
1005.959	82.17831
1006.328	44.09535
1006.696	60.13965
1007.064	10.02397
1007.433	31.07291
1007.801	59.13675
1008.169	10.02437
1008.537	8.0164
1008.905	15.03352
1009.273	4.00937
1009.64	-13.02968
1010.008	48.10898
1010.375	-80.17987
1010.743	2.00426
1011.11	84.18863
1011.478	20.04699
1011.845	24.0533
1012.212	-24.05152
1012.579	23.05369
1012.946	11.02458
1013.313	-15.0339
1013.68	-42.08771
1014.047	0
1014.414	13.02958
1014.78	18.04267
1015.147	30.06842
1015.513	50.11472
1015.88	12.02912
1016.246	24.05617
1016.612	42.0895
1016.978	-13.03031
1017.344	-4.00937
1017.71	-4.00899
1018.076	8.01771
1018.442	49.11994
1018.808	27.0651
1019.174	-23.05579
1019.539	27.05752
1019.905	70.15958
1020.27	18.04288
1020.636	23.0514
1021.001	51.11652
1021.366	1.00228
1021.731	14.03426
1022.096	32.07793
1022.461	-2.00451
1022.826	31.07011
1023.191	-18.04557
1023.556	48.10619
1023.92	11.02563
1024.285	71.16398
1024.649	-6.01395
1025.014	-30.07084
1025.378	29.06971
1025.742	15.0359
1026.107	-3.00634
1026.471	-1.00217
1026.835	107.25497
1027.199	3.00692
1027.562	59.13018
1027.926	-6.01391
1028.29	-12.02897
1028.654	41.08807
1029.017	13.03028
1029.381	21.0485
1029.744	18.04407
1030.107	4.00884
1030.471	16.03667
1030.834	23.04947
1031.197	-33.07436
1031.56	17.03795
1031.923	5.01243
1032.286	-45.09929
1032.648	14.0318
1033.011	0
1033.374	25.054
1033.736	-27.06889
1034.099	6.01388
1034.461	46.1124
1034.823	-17.04063
1035.185	17.04093
1035.548	19.04395
1035.91	-8.01818
1036.272	20.04275
1036.634	-21.0485
1036.995	-2.00445
1037.357	-33.07673
1037.719	38.08729
1038.08	14.03119
1038.442	12.02753
1038.803	43.09761
1039.165	2.00484
1039.526	-18.04125
1039.887	39.08918
1040.248	23.05449
1040.609	1.00235
1040.97	8.01888
1041.331	11.02673
1041.692	-9.02016
1042.053	12.0257
1042.413	43.0946
1042.774	-31.07188
1043.134	-28.0628
1043.495	2.00478
1043.855	-24.05515
1044.215	45.10661
1044.576	10.02296
1044.936	9.0193
1045.296	-2.00472
1045.656	21.04833
1046.016	14.0319
1046.375	0
1046.735	50.10849
1047.095	33.07299
1047.454	-2.00388
1047.814	40.09229
1048.173	-55.12399
1048.533	53.11444
1048.892	26.06066
1049.251	25.05964
1049.61	-16.03745
1049.969	15.03346
1050.328	8.01616
1050.687	-10.02332
1051.046	3.00701
1051.405	-14.0332
1051.763	-3.00658
1052.122	34.08107
1052.48	38.08928
1052.839	40.08835
1053.197	20.04447
1053.555	27.05702
1053.914	11.02548
1054.272	56.12787
1054.63	14.03288
1054.988	11.02512
1055.345	0
1055.703	34.07751
1056.061	-11.02724
1056.419	6.01503
1056.776	48.11018
1057.134	16.03518
1057.491	13.03124
1057.848	-21.04933
1058.206	-49.10838
1058.563	0
1058.92	21.04528
1059.277	27.0629
1059.634	42.09296
1059.991	-49.10893
1060.348	57.12233
1060.704	38.08712
1061.061	11.02393
1061.418	23.05386
1061.774	25.05868
1062.131	11.02838
1062.487	19.0425
1062.843	57.13525
1063.199	-51.12176
1063.555	42.09222
1063.911	-10.02437
1064.267	-6.01158
1064.623	-20.04644
1064.979	8.0174
1065.335	-35.07816
1065.691	-43.0967
1066.046	30.06193
1066.402	46.09973
1066.757	22.05282
1067.112	-20.04672
1067.468	26.05882
1067.823	57.12981
1068.178	9.02055
1068.533	40.09178
1068.888	20.04484
1069.243	-13.03055
1069.598	43.09908
1069.952	35.07479
1070.307	15.03585
1070.662	13.0291
1071.016	41.08769
1071.371	0
1071.725	-45.10095
1072.079	42.09691
1072.434	-11.02554
1072.788	17.03828
1073.142	-13.02988
1073.496	-15.03377
1073.85	-11.02413
1074.203	-38.08761
1074.557	-6.01539
1074.911	-27.06064
1075.265	25.05518
1075.618	23.05321
1075.971	47.10678
1076.325	-13.0317
1076.678	12.0261
1077.031	30.06412
1077.385	-30.06212
1077.738	22.04729
1078.091	17.03697
1078.444	18.03949
1078.796	42.09853
1079.149	46.10934
1079.502	24.05383
1079.855	8.01765
1080.207	23.0535
1080.56	5.01247
1080.912	-8.01847
1081.264	5.0114
1081.617	-2.00465
1081.969	-2.00487
1082.321	50.11633
1082.673	-47.10266
1083.025	-14.03126
1083.377	-270.56408
1083.728	39.08605
1084.08	-10.02374
1084.432	-7.01621
1084.783	17.03727
1085.135	25.06012
1085.486	15.03282
1085.838	-11.02595
1086.189	-2.00465
1086.54	-8.01803
1086.891	-41.10021
1087.242	-32.07425
1087.593	-5.01139
1087.944	43.09221
1088.295	22.04674
1088.646	-15.03426
1088.996	43.09884
1089.347	-18.04204
1089.698	21.04732
1090.048	26.06483
1090.398	10.02175
1090.749	35.07948
1091.099	57.13884
1091.449	33.07867
1091.799	12.02854
1092.149	33.07761
1092.499	15.03496
1092.849	7.0171
1093.199	29.06847
1093.548	7.01606
1093.898	36.0863
1094.248	2.00491
1094.597	66.16403
1094.947	27.06948
1095.296	22.05235
1095.645	-23.05713
1095.994	-42.09524
1096.343	-74.17732
1096.692	-21.05334
1097.041	52.13814
1097.39	20.04796
1097.739	-25.06264
1098.088	-28.07156
1098.437	41.10473
1098.785	49.12832
1099.134	-6.01516
1099.482	-3.00791
1099.83	40.10158
1100.179	11.02793
1100.527	52.13355
1100.875	11.02827
1101.223	-12.03082
1101.571	17.04584
1101.919	-6.01538
1102.267	9.02488
1102.615	10.03211
1102.962	-3.00962
1103.31	10.03208
1103.658	0
