Data from N3 R8 sample 2_Subt2__4__13-42-31-660.txt Node

Date: Mon Sep 22 13:42:31 PDT 2025
User: uwsun
Spectrometer: HDX01956
Trigger mode: 0
Integration Time (sec): 5.000000E-1
Scans to average: 1
Nonlinearity correction enabled: true
Boxcar width: 0
Storing dark spectrum: false
XAxis mode: Wavelengths
Number of Pixels in Spectrum: 2068
>>>>>Begin Spectral Data<<<<<
194.03	72.20732
194.578	78.25131
195.127	69.21988
195.676	75.23888
196.225	73.19221
196.773	36.09902
197.321	123.33868
197.87	123.31285
198.418	153.3897
198.966	211.54705
199.513	205.50844
200.061	149.37764
200.609	204.529
201.156	186.40427
201.704	195.4877
202.251	203.53139
202.798	202.51911
203.345	215.518
203.892	249.61326
204.438	127.2953
204.985	215.50266
205.532	213.55376
206.078	178.42959
206.624	234.56814
207.17	227.51214
207.716	207.49967
208.262	232.44489
208.808	238.58369
209.354	199.48272
209.899	248.61788
210.445	235.58049
210.99	195.46893
211.535	183.41945
212.08	248.56967
212.625	206.50691
213.17	185.45398
213.715	154.34198
214.259	189.43389
214.804	214.51725
215.348	238.53706
215.892	219.51141
216.436	198.44571
216.98	244.52378
217.524	176.41318
218.068	140.34286
218.612	140.34502
219.155	219.50437
219.698	180.4153
220.242	159.38613
220.785	228.5229
221.328	223.54072
221.871	135.32982
222.414	129.31375
222.956	155.36609
223.499	215.47495
224.041	178.40315
224.583	187.39008
225.126	183.39072
225.668	181.42881
226.21	149.36956
226.751	178.38112
227.293	130.29133
227.835	151.3623
228.376	169.37677
228.918	147.3646
229.459	159.39061
230	126.29477
230.541	235.52108
231.082	183.42987
231.622	169.37693
232.163	191.45303
232.704	155.37656
233.244	157.38156
233.784	185.43897
234.324	112.24126
234.864	123.27252
235.404	163.3802
235.944	220.51122
236.484	161.38585
237.023	206.47226
237.563	167.37647
238.102	177.4039
238.641	150.3717
239.18	179.41275
239.719	126.30766
240.258	172.37336
240.797	173.40574
241.335	197.46744
241.874	178.32881
242.412	162.37898
242.95	190.44866
243.488	174.38382
244.026	178.4066
244.564	184.36786
245.102	181.39767
245.64	137.32106
246.177	178.39083
246.715	209.48153
247.252	135.30334
247.789	198.35129
248.326	192.4525
248.863	154.33087
249.4	140.30779
249.936	181.36161
250.473	176.39992
251.009	198.44115
251.546	163.34968
252.082	226.48179
252.618	146.32044
253.154	186.43597
253.69	213.46226
254.226	143.33578
254.761	198.42925
255.297	157.33492
255.832	213.49408
256.367	205.46855
256.903	162.34596
257.438	238.54583
257.972	126.27363
258.507	230.51922
259.042	242.51321
259.576	163.34334
260.111	183.40815
260.645	174.36304
261.179	254.57223
261.713	186.40737
262.247	254.56965
262.781	211.43388
263.315	205.49166
263.849	155.37853
264.382	174.3888
264.915	127.29413
265.449	199.47909
265.982	229.50249
266.515	193.45689
267.048	172.34882
267.58	191.39948
268.113	184.38254
268.646	172.41793
269.178	240.53139
269.71	204.42941
270.243	176.38547
270.775	193.47536
271.307	216.50054
271.838	221.50247
272.37	233.56115
272.902	224.48997
273.433	237.49767
273.965	173.40907
274.496	218.52811
275.027	286.68498
275.558	243.56745
276.089	245.59874
276.62	178.44704
277.15	206.49227
277.681	221.46038
278.211	211.50239
278.741	197.4259
279.272	229.50989
279.802	264.64024
280.332	196.45059
280.861	198.46174
281.391	162.35959
281.921	190.44483
282.45	260.62818
282.98	240.60532
283.509	249.54499
284.038	163.35978
284.567	242.54029
285.096	255.59617
285.625	205.44945
286.153	243.55226
286.682	236.52624
287.21	221.51425
287.739	215.49081
288.267	268.6284
288.795	267.68097
289.323	214.48488
289.851	184.4164
290.378	247.5381
290.906	237.56624
291.433	242.58161
291.961	235.51457
292.488	243.58545
293.015	237.53601
293.542	215.52622
294.069	265.6324
294.596	242.57807
295.122	224.51166
295.649	190.40716
296.175	272.63279
296.702	201.46643
297.228	277.6514
297.754	206.43935
298.28	265.58441
298.806	228.53106
299.332	313.6784
299.857	265.58344
300.383	237.57229
300.908	233.55242
301.433	255.60294
301.958	299.66215
302.483	276.66557
303.008	290.68979
303.533	240.6025
304.058	222.50137
304.582	270.61324
305.107	259.65358
305.631	273.58767
306.155	286.64247
306.679	343.77665
307.203	272.60374
307.727	248.56465
308.251	296.69512
308.775	300.68524
309.298	247.57044
309.822	294.71272
310.345	289.66424
310.868	295.68317
311.391	319.74108
311.914	328.78914
312.437	307.66256
312.96	310.69494
313.482	244.56071
314.005	292.70681
314.527	309.78083
315.049	354.84522
315.571	320.68335
316.093	330.77102
316.615	302.7034
317.137	347.72028
317.659	377.8661
318.18	338.77419
318.702	334.7361
319.223	356.68798
319.744	392.82838
320.265	374.86797
320.786	338.80085
321.307	364.85577
321.828	350.74806
322.348	341.75609
322.869	372.83116
323.389	626.03316
323.909	352.75885
324.43	325.7356
324.95	433.93884
325.47	377.88339
325.989	364.81497
326.509	407.8467
327.029	345.74041
327.548	489.03212
328.067	399.90709
328.587	390.9126
329.106	399.84927
329.625	440.05669
330.144	487.03059
330.662	440.97169
331.181	446.95692
331.7	432.93528
332.218	482.95873
332.736	500.06992
333.255	491.04768
333.773	465.0281
334.291	541.23172
334.808	526.07416
335.326	501.03806
335.844	508.09878
336.361	508.1976
336.879	488.03789
337.396	536.19399
337.913	595.25186
338.43	509.04103
338.947	536.15203
339.464	585.1454
339.981	575.24314
340.497	566.27806
341.014	588.30241
341.53	590.19092
342.046	604.34567
342.562	607.35543
343.078	582.23387
343.594	581.25452
344.11	602.30021
344.626	632.42205
345.141	644.30188
345.657	599.21216
346.172	636.37197
346.687	637.30978
347.202	599.18947
347.717	743.57599
348.232	670.47623
348.747	667.36169
349.261	718.36818
349.776	688.42907
350.29	716.58491
350.805	697.5175
351.319	714.46403
351.833	689.36531
352.347	701.46614
352.861	755.51789
353.374	723.43011
353.888	755.59451
354.401	775.53455
354.915	760.46518
355.428	775.68246
355.941	749.51895
356.454	777.4912
356.967	757.53939
357.48	800.59113
357.993	766.62023
358.505	765.64666
359.018	847.74526
359.53	852.77481
360.042	859.61797
360.554	837.71383
361.066	824.73087
361.578	883.62099
362.09	830.67767
362.602	831.55824
363.113	864.69787
363.625	825.56674
364.136	904.63594
364.647	897.79464
365.158	933.8315
365.669	873.75945
366.18	940.86301
366.691	948.73927
367.201	894.77915
367.712	944.78401
368.222	950.77614
368.733	962.7226
369.243	984.79461
369.753	1003.89709
370.263	991.93911
370.773	1004.02264
371.282	992.90957
371.792	1088.01034
372.301	1094.13996
372.811	1124.39063
373.32	1165.94945
373.829	1198.20987
374.338	1221.10133
374.847	1221.19269
375.356	1273.35042
375.865	1387.20024
376.373	1411.39936
376.882	1379.60854
377.39	1464.59704
377.898	1476.695
378.407	1629.5119
378.915	1650.43953
379.423	1685.7578
379.93	1812.69063
380.438	1790.91928
380.946	1940.89071
381.453	1994.03361
381.96	2053.05702
382.468	2270.04877
382.975	2337.21729
383.482	2397.84739
383.989	2479.58854
384.495	2548.97966
385.002	2686.58147
385.509	2878.18076
386.015	2970.26683
386.521	3182.8024
387.028	3396.8672
387.534	3343.57836
388.04	3495.99155
388.546	3584.71824
389.051	3819.43991
389.557	4090.7402
390.063	4218.34973
390.568	4517.54583
391.073	4619.04239
391.578	4869.54432
392.084	5016.97321
392.589	5073.52627
393.093	5574.8426
393.598	6107.38042
394.103	6712.58868
394.607	7437.64745
395.112	7906.03927
395.616	8250.27971
396.12	8826.03103
396.624	9769.23943
397.128	10605.00019
397.632	11714.21736
398.136	12645.36581
398.639	13551.67017
399.143	15475.38955
399.646	17215.88895
400.15	19009.9207
400.653	21395.67302
401.156	23961.67563
401.659	27859.55791
402.162	34296.36497
402.664	45800.6331
403.167	60313.33996
403.67	60395.17756
404.172	52566.9044
404.674	31176.06428
405.176	3757.7064
405.678	27.69154
406.18	0
406.682	0
407.184	45159.96023
407.686	58897.86778
408.187	61455.21265
408.688	62150.63916
409.19	62552.06205
409.691	59246.26898
410.192	50446.89156
410.693	43933.72118
411.194	40456.59479
411.694	38598.66301
412.195	35204.69554
412.696	32335.10137
413.196	30454.14633
413.696	30228.45286
414.196	30862.7723
414.696	29739.65814
415.196	28316.96414
415.696	25002.03879
416.196	19502.09615
416.695	15247.34042
417.195	13720.8225
417.694	13021.465
418.194	12136.84313
418.693	11412.96328
419.192	11319.27408
419.691	10813.97547
420.19	10650.14446
420.688	10343.96353
421.187	9972.17166
421.685	9213.82814
422.184	8240.17717
422.682	7060.08043
423.18	6052.46683
423.678	5378.75724
424.176	4921.90674
424.674	4773.83128
425.172	4444.45137
425.669	4255.00447
426.167	3883.61386
426.664	3610.69816
427.161	3297.86792
427.659	3091.1651
428.156	2955.46538
428.652	2782.47671
429.149	2644.24413
429.646	2501.69884
430.143	2404.11962
430.639	2181.94023
431.135	2171.19825
431.632	1962.69834
432.128	1835.78797
432.624	1827.09664
433.12	1693.50021
433.616	1691.30919
434.111	1579.54022
434.607	1515.53071
435.103	1516.10335
435.598	1379.87702
436.093	1362.26677
436.588	1294.05925
437.083	1244.99819
437.578	1225.07145
438.073	1101.14306
438.568	1097.04564
439.062	1097.74553
439.557	1036.89157
440.051	993.76323
440.546	1011.84536
441.04	934.80378
441.534	933.9123
442.028	877.66485
442.522	884.70626
443.015	821.44733
443.509	909.78181
444.002	784.57953
444.496	871.5389
444.989	840.67544
445.482	855.75467
445.975	774.46009
446.468	765.34628
446.961	754.31269
447.454	759.423
447.947	705.38339
448.439	679.38873
448.931	726.35199
449.424	629.33801
449.916	651.31335
450.408	633.19279
450.9	630.31252
451.392	624.3357
451.884	581.11018
452.375	589.24629
452.867	606.13874
453.358	610.17443
453.849	579.03694
454.341	627.18899
454.832	501.91932
455.323	629.30376
455.814	572.12228
456.304	566.10473
456.795	584.12698
457.285	559.04587
457.776	500.96675
458.266	482.9949
458.756	559.16569
459.247	509.04715
459.737	486.00401
460.226	537.04927
460.716	462.9549
461.206	461.96585
461.695	453.99224
462.185	435.90252
462.674	461.9223
463.163	463.90142
463.653	344.6393
464.142	383.81557
464.63	431.92016
465.119	468.96253
465.608	385.78738
466.096	393.76367
466.585	398.79718
467.073	448.93883
467.561	366.7897
468.05	456.94166
468.538	313.68766
469.026	416.88679
469.513	395.75841
470.001	434.88457
470.489	345.73594
470.976	348.71994
471.463	245.55207
471.951	346.77404
472.438	353.74679
472.925	331.70791
473.412	284.63824
473.899	277.57473
474.385	264.58794
474.872	338.72492
475.359	287.63929
475.845	276.51828
476.331	323.63573
476.817	238.53487
477.303	302.64827
477.789	280.62021
478.275	274.62939
478.761	236.52297
479.247	216.44366
479.732	203.47349
480.218	251.60678
480.703	232.53868
481.188	204.40368
481.673	181.38578
482.158	235.46972
482.643	201.47417
483.128	171.3632
483.612	219.47731
484.097	189.42833
484.581	212.45097
485.066	181.40519
485.55	180.36421
486.034	176.35562
486.518	203.44563
487.002	183.42651
487.486	152.35028
487.969	164.3805
488.453	177.42225
488.936	195.41472
489.42	135.27835
489.903	166.39578
490.386	155.33281
490.869	168.3418
491.352	192.44228
491.835	156.29973
492.318	119.25628
492.8	128.2483
493.283	125.3014
493.765	107.25203
494.247	91.1996
494.73	112.23399
495.212	56.12756
495.694	117.26074
496.175	83.19078
496.657	96.21407
497.139	78.12626
497.62	54.1237
498.102	110.26066
498.583	90.21467
499.064	81.17339
499.545	117.25479
500.026	102.21811
500.507	96.21088
500.988	93.21769
501.469	108.26046
501.949	92.21666
502.43	90.20699
502.91	31.06167
503.39	60.14278
503.87	98.22169
504.35	14.03112
504.83	88.1854
505.31	69.15955
505.79	58.1334
506.269	36.08021
506.749	72.15936
507.228	41.09247
507.707	49.10435
508.187	57.1285
508.666	53.12562
509.145	-18.04045
509.623	40.08982
510.102	20.04598
510.581	54.1232
511.059	37.08888
511.538	3.00737
512.016	38.08554
512.494	63.14614
512.972	8.01823
513.45	37.08389
513.928	43.09963
514.406	65.1503
514.884	37.09083
515.361	9.02053
515.839	117.25436
516.316	71.16268
516.793	34.08249
517.27	74.16931
517.747	70.17283
518.224	57.12455
518.701	78.16376
519.178	39.09251
519.654	27.06069
520.131	6.01427
520.607	41.09676
521.083	49.10644
521.56	58.13099
522.036	69.1431
522.512	33.07731
522.987	58.13244
523.463	20.04539
523.939	28.06532
524.414	-7.01533
524.89	38.08684
525.365	50.10655
525.84	4.00923
526.315	28.06445
526.79	39.08284
527.265	53.11404
527.74	-20.04741
528.215	-4.00902
528.689	-17.03573
529.164	-10.02058
529.638	-14.03479
530.112	28.06347
530.587	14.02872
531.061	-61.14178
531.534	18.04142
532.008	32.07342
532.482	-12.02627
532.956	-20.04913
533.429	-36.08386
533.903	3.00628
534.376	-72.15336
534.849	-33.07305
535.322	-31.06969
535.795	-44.10193
536.268	2.00463
536.741	-36.08283
537.213	-65.14365
537.686	-38.08911
538.158	-4.00868
538.631	-56.13044
539.103	-53.11532
539.575	-61.12023
540.047	-77.16126
540.519	-57.12897
540.991	-28.06543
541.463	25.05813
541.934	-11.0239
542.406	-36.0819
542.877	46.10066
543.348	-74.17108
543.82	6.01402
544.291	-10.02241
544.762	-28.06321
545.233	-31.07472
545.703	-26.05512
546.174	11.02447
546.645	10.02324
547.115	32.07404
547.585	-19.0421
548.056	-7.01636
548.526	0
548.996	0
549.466	65.15114
549.935	35.07981
550.405	38.07943
550.875	4.00906
551.344	-31.0718
551.814	-2.00439
552.283	-23.04806
552.752	35.07803
553.221	46.09687
553.69	83.17606
554.159	33.07806
554.628	10.02157
555.096	27.06579
555.565	-17.03609
556.033	9.02017
556.502	3.00692
556.97	-38.08055
557.438	-44.09978
557.906	-52.11672
558.374	44.09682
558.842	-49.11276
559.31	-57.12133
559.777	-11.02597
560.245	-35.07764
560.712	-65.14521
561.18	-42.08895
561.647	-32.0697
562.114	-16.03534
562.581	-52.12398
563.048	-45.09866
563.514	-51.12036
563.981	-35.07651
564.448	25.0547
564.914	-59.13192
565.381	-31.06739
565.847	-33.07369
566.313	-18.03977
566.779	-53.11532
567.245	-27.06089
567.711	13.03012
568.176	-86.18597
568.642	-55.13372
569.108	-28.06622
569.573	-49.10951
570.038	-60.12051
570.504	-38.08221
570.969	-30.07254
571.434	-15.0316
571.899	-62.14106
572.363	4.00876
572.828	-34.07381
573.293	-22.04825
573.757	-30.06548
574.222	-52.11163
574.686	11.02383
575.15	2.00453
575.614	-4.00873
576.078	-19.04313
576.542	-12.02592
577.006	-15.03254
577.469	-4.00931
577.933	-23.04879
578.396	-70.1608
578.86	-67.15005
579.323	-25.05721
579.786	-4.00818
580.249	-64.1397
580.712	7.01641
581.175	-54.12757
581.637	-67.1456
582.1	-93.19365
582.563	-77.15534
583.025	-67.15677
583.487	-36.06954
583.95	-11.02268
584.412	-45.09095
584.874	-98.2253
585.336	-36.08214
585.797	-44.09107
586.259	-102.22849
586.721	-42.09389
587.182	-102.22274
587.643	-80.17196
588.105	-95.21661
588.566	-55.10907
589.027	-35.08084
589.488	-83.17952
589.949	-33.07579
590.41	-24.04489
590.87	7.01497
591.331	-66.13434
591.791	-58.1273
592.252	-40.08698
592.712	9.02039
593.172	-49.10371
593.632	22.04456
594.092	-20.04229
594.552	-22.04415
595.011	-70.15189
595.471	-43.0891
595.931	11.02301
596.39	5.01123
596.849	8.01734
597.308	46.09201
597.768	38.09053
598.227	76.17081
598.685	62.13172
599.144	126.27328
599.603	65.13938
600.062	45.08861
600.52	86.17752
600.978	66.144
601.437	90.18511
601.895	136.26307
602.353	128.25305
602.811	120.23802
603.269	126.27223
603.727	184.39788
604.184	194.39811
604.642	139.30475
605.099	208.42993
605.557	239.51448
606.014	277.52259
606.471	253.56449
606.928	305.57938
607.385	341.74853
607.842	326.6436
608.299	324.64986
608.755	358.75389
609.212	375.71896
609.668	346.66448
610.125	450.92426
610.581	454.90304
611.037	432.82126
611.493	408.82099
611.949	452.938
612.405	465.7719
612.861	452.88984
613.316	429.86861
613.772	518.98765
614.227	492.97953
614.683	516.90473
615.138	452.90241
615.593	550.08412
616.048	445.8606
616.503	494.02878
616.958	553.17766
617.412	554.10943
617.867	400.75634
618.321	498.83653
618.776	442.81737
619.23	453.90797
619.684	434.8102
620.138	444.85394
620.592	427.88909
621.046	412.82522
621.5	429.90358
621.954	355.67305
622.407	377.71197
622.861	407.86667
623.314	319.61189
623.768	336.68141
624.221	422.71578
624.674	293.58809
625.127	348.70607
625.58	311.60749
626.033	279.5318
626.485	285.61007
626.938	314.66124
627.39	304.61708
627.843	287.57871
628.295	279.57163
628.747	243.51049
629.199	301.59857
629.651	249.5104
630.103	278.56791
630.555	205.38713
631.006	201.42599
631.458	301.63484
631.909	157.31658
632.361	213.44431
632.812	255.53216
633.263	138.26911
633.714	166.31956
634.165	163.35812
634.616	138.30211
635.067	204.40614
635.518	131.28358
635.968	179.31981
636.419	176.34207
636.869	133.28988
637.319	107.22836
637.769	106.21969
638.219	116.25202
638.669	119.26519
639.119	135.30458
639.569	123.27876
640.019	117.24688
640.468	129.2679
640.918	97.21814
641.367	46.09551
641.816	128.26208
642.265	137.29352
642.714	84.17978
643.163	96.20608
643.612	129.29568
644.061	116.2332
644.51	138.29535
644.958	115.23498
645.406	82.18361
645.855	111.25177
646.303	81.17572
646.751	76.16167
647.199	108.22904
647.647	91.19792
648.095	144.30845
648.543	123.22897
648.99	144.32283
649.438	84.18312
649.885	83.19474
650.333	124.21851
650.78	134.3035
651.227	121.27378
651.674	106.22657
652.121	125.28513
652.568	74.17033
653.015	90.21096
653.461	103.23343
653.908	143.30744
654.354	72.15969
654.801	145.3226
655.247	137.27854
655.693	63.15786
656.139	125.28513
656.585	73.16363
657.031	115.25341
657.477	74.15179
657.922	100.21754
658.368	64.14849
658.813	109.23717
659.259	118.26639
659.704	115.25469
660.149	76.16821
660.594	73.16302
661.039	73.15857
661.484	33.07409
661.929	112.24861
662.373	80.19396
662.818	36.08435
663.262	113.26005
663.707	87.21223
664.151	43.09963
664.595	92.21278
665.039	35.08235
665.483	91.22075
665.927	153.33799
666.371	107.23954
666.814	45.10211
667.258	65.14881
667.701	179.35147
668.145	78.18362
668.588	98.22917
669.031	136.30628
669.474	107.24466
669.917	149.30763
670.36	117.2758
670.803	79.17977
671.245	52.10193
671.688	138.31954
672.13	67.14467
672.573	76.18322
673.015	133.30081
673.457	160.32879
673.899	84.19204
674.341	125.28697
674.783	126.28944
675.225	64.15037
675.666	62.14351
676.108	145.30045
676.549	158.35422
676.991	157.32575
677.432	151.28543
677.873	132.28886
678.314	122.27733
678.755	144.33119
679.196	135.29524
679.637	127.2939
680.078	129.27949
680.518	172.37305
680.959	134.30301
681.399	130.30889
681.839	154.35404
682.28	168.39656
682.72	88.19274
683.16	173.4086
683.6	221.46428
684.039	167.32048
684.479	120.28128
684.919	141.3137
685.358	137.32433
685.798	197.49359
686.237	131.29701
686.676	107.22766
687.115	171.38044
687.554	210.46672
687.993	206.42159
688.432	222.4673
688.871	154.33002
689.309	196.44085
689.748	171.32467
690.186	233.51299
690.625	209.46131
691.063	179.39857
691.501	179.41077
691.939	225.52501
692.377	252.57329
692.815	259.58098
693.253	222.48969
693.69	224.45033
694.128	209.47076
694.565	277.61497
695.003	258.61062
695.44	282.61317
695.877	270.58184
696.314	263.50837
696.751	312.65096
697.188	327.68695
697.625	250.51604
698.061	282.62698
698.498	297.65936
698.934	327.71358
699.371	329.70546
699.807	299.64059
700.243	300.66395
700.679	306.62426
701.115	305.64186
701.551	322.68643
701.987	356.70249
702.422	366.79647
702.858	352.75559
703.294	410.82464
703.729	331.73759
704.164	401.86836
704.599	358.70976
705.035	401.80523
705.47	390.85842
705.904	439.90838
706.339	418.85235
706.774	426.88523
707.209	407.84029
707.643	477.01687
708.078	523.13489
708.512	527.1819
708.946	521.08921
709.38	462.96217
709.814	467.91873
710.248	556.18585
710.682	559.14452
711.116	598.26343
711.549	495.12911
711.983	486.97974
712.416	570.14838
712.85	580.23177
713.283	566.14867
713.716	653.3819
714.149	616.22983
714.582	568.06615
715.015	651.39687
715.448	596.27844
715.881	696.2217
716.313	642.25573
716.746	666.3169
717.178	660.33489
717.61	679.45076
718.043	765.57685
718.475	744.50846
718.907	763.59032
719.339	716.3538
719.77	771.50101
720.202	824.73238
720.634	857.70504
721.065	837.5888
721.497	832.63567
721.928	829.67909
722.359	839.65835
722.79	860.68207
723.221	930.89115
723.652	906.87486
724.083	959.68776
724.514	913.66779
724.945	914.72469
725.375	969.79881
725.806	922.82644
726.236	944.95615
726.666	981.81031
727.096	937.81519
727.526	964.96301
727.956	977.69
728.386	989.90333
728.816	1098.18814
729.246	969.85408
729.675	1046.00742
730.105	1082.02602
730.534	1036.81654
730.964	1083.10497
731.393	1140.1454
731.822	1107.15579
732.251	1125.20434
732.68	1168.01982
733.109	1155.15306
733.537	1194.16531
733.966	1171.18834
734.395	1175.96198
734.823	1123.82885
735.251	1208.16649
735.68	1191.19528
736.108	1200.30813
736.536	1159.99112
736.964	1170.00516
737.392	1258.34278
737.82	1280.23542
738.247	1197.07074
738.675	1206.05288
739.102	1205.24544
739.53	1251.38412
739.957	1229.34997
740.384	1270.25031
740.811	1278.35443
741.238	1269.24332
741.665	1263.12916
742.092	1220.06795
742.519	1206.24124
742.945	1292.24589
743.372	1280.30549
743.798	1228.37675
744.225	1288.24359
744.651	1279.32412
745.077	1217.27679
745.503	1213.15499
745.929	1231.14779
746.355	1292.26943
746.781	1191.20073
747.207	1203.08994
747.632	1217.20439
748.058	1233.23235
748.483	1184.94748
748.908	1284.36904
749.334	1243.23348
749.759	1172.01181
750.184	1276.21097
750.609	1252.25143
751.033	1241.0806
751.458	1181.87669
751.883	1294.35917
752.307	1229.10173
752.732	1198.29879
753.156	1235.26874
753.58	1148.97267
754.005	1182.23441
754.429	1218.06232
754.853	1200.20478
755.277	1166.0323
755.7	1166.14959
756.124	1189.23188
756.548	1189.0807
756.971	1188.11963
757.394	1152.30441
757.818	1193.3871
758.241	1181.25363
758.664	1172.27136
759.087	1183.93133
759.51	1162.13793
759.933	1152.08994
760.356	1182.32656
760.778	1119.09089
761.201	1220.1803
761.623	1146.09895
762.046	1143.97918
762.468	1082.90834
762.89	1139.13046
763.312	1123.01813
763.734	1090.9994
764.156	1130.12653
764.578	1174.97686
765	1082.98767
765.421	1097.18363
765.843	1079.20324
766.264	1092.96803
766.686	1119.15249
767.107	1065.95393
767.528	992.99176
767.949	1092.15309
768.37	1072.02102
768.791	1030.91843
769.212	1012.00714
769.632	1007.80662
770.053	1022.14443
770.473	990.85926
770.894	1050.04792
771.314	916.66023
771.734	993.76505
772.154	1005.03159
772.575	958.69697
772.994	1040.8055
773.414	1019.87964
773.834	959.8826
774.254	910.73724
774.673	948.81951
775.093	957.91128
775.512	884.72337
775.931	834.70653
776.351	852.70883
776.77	940.85088
777.189	901.70385
777.607	850.76594
778.026	897.80373
778.445	864.76797
778.864	840.75212
779.282	857.65921
779.701	803.6634
780.119	795.64022
780.537	830.70829
780.955	794.65463
781.373	741.50613
781.791	763.37641
782.209	797.43202
782.627	786.73056
783.045	803.48568
783.462	726.54559
783.88	729.59125
784.297	741.55672
784.715	709.55082
785.132	700.41461
785.549	663.41042
785.966	704.48183
786.383	705.4563
786.8	630.20894
787.217	630.24677
787.633	616.32991
788.05	566.09323
788.466	663.28554
788.883	650.43691
789.299	649.3219
789.715	576.19614
790.131	566.20199
790.547	545.17065
790.963	638.35453
791.379	581.28128
791.795	548.0422
792.21	535.06464
792.626	535.08442
793.041	582.243
793.457	507.08656
793.872	526.07319
794.287	522.09588
794.702	544.14968
795.117	441.9802
795.532	420.94457
795.947	388.80124
796.362	454.93248
796.776	460.91156
797.191	426.91993
797.605	395.83271
798.02	420.90115
798.434	343.65983
798.848	418.92273
799.262	367.82794
799.676	319.68314
800.09	409.88833
800.504	367.79033
800.918	419.84837
801.331	337.79771
801.745	302.61834
802.158	314.71114
802.572	335.72236
802.985	323.68931
803.398	294.63328
803.811	317.73731
804.224	259.58218
804.637	305.66473
805.05	279.57629
805.462	253.56939
805.875	319.7624
806.288	220.48874
806.7	271.62162
807.112	255.53617
807.525	233.51858
807.937	235.54683
808.349	201.46569
808.761	263.59456
809.173	198.44224
809.584	199.45026
809.996	185.42709
810.408	172.42028
810.819	174.38012
811.231	202.50109
811.642	235.53841
812.053	271.60465
812.464	267.59523
812.875	156.37052
813.286	185.44674
813.697	174.36449
814.108	159.36195
814.519	144.2927
814.929	204.48712
815.34	129.29271
815.75	124.29973
816.16	141.32655
816.571	106.26123
816.981	135.29623
817.391	159.35976
817.801	136.31928
818.211	143.31418
818.62	89.20023
819.03	137.31439
819.44	143.34871
819.849	173.41018
820.259	129.30904
820.668	49.11358
821.077	116.27286
821.486	129.28831
821.895	133.30766
822.304	59.14938
822.713	78.17357
823.122	84.19882
823.531	63.13999
823.939	89.20342
824.348	131.30111
824.756	80.18869
825.164	76.18058
825.573	77.18398
825.981	123.28826
826.389	90.21071
826.797	91.21493
827.205	58.12703
827.612	132.30407
828.02	92.20549
828.428	72.17463
828.835	40.10115
829.243	47.10543
829.65	67.15941
830.057	77.1772
830.464	77.17996
830.871	28.06259
831.278	67.15289
831.685	105.21679
832.092	79.18405
832.499	3.00615
832.905	17.04077
833.312	50.10576
833.718	92.21776
834.124	92.19835
834.531	71.16906
834.937	13.03174
835.343	11.02495
835.749	21.04577
836.155	62.15426
836.561	72.16917
836.966	17.03912
837.372	34.08265
837.777	76.18135
838.183	27.056
838.588	44.10583
838.993	80.18348
839.399	25.05836
839.804	21.04945
840.209	-50.12254
840.613	-55.11626
841.018	34.08169
841.423	7.01711
841.828	66.16013
842.232	84.1959
842.637	86.19161
843.041	43.10591
843.445	59.14291
843.849	25.05962
844.253	53.11929
844.657	51.12376
845.061	45.09545
845.465	1.0023
845.869	30.06615
846.272	39.09147
846.676	41.09409
847.079	27.06606
847.483	-22.05195
847.886	-8.01825
848.289	7.01813
848.692	35.08519
849.095	73.16645
849.498	3.00714
849.901	45.09775
850.304	-16.0364
850.707	10.02434
851.109	27.06476
851.512	25.05831
851.914	33.08116
852.316	-6.01455
852.718	-26.06582
853.121	13.03041
853.523	39.08558
853.925	22.05632
854.326	12.02889
854.728	24.05976
855.13	37.09284
855.531	-16.03711
855.933	55.1251
856.334	-17.04076
856.736	4.00861
857.137	15.03348
857.538	41.09961
857.939	34.08029
858.34	14.0325
858.741	3.00754
859.142	38.08656
859.542	7.01793
859.943	35.08334
860.343	-31.07418
860.744	50.11647
861.144	40.09387
861.544	32.07495
861.945	49.11976
862.345	4.00935
862.745	14.0335
863.145	12.02659
863.544	2.00485
863.944	1.00225
864.344	51.12083
864.743	56.1307
865.143	-4.00987
865.542	-4.00885
865.941	33.07737
866.34	6.01357
866.74	-3.00772
867.139	46.10669
867.537	-13.03176
867.936	13.02963
868.335	21.05138
868.734	46.1127
869.132	-33.07254
869.531	36.08257
869.929	35.07606
870.327	49.11218
870.726	-25.05902
871.124	14.03049
871.522	49.11971
871.92	-29.06762
872.318	11.02557
872.715	46.10749
873.113	1.00233
873.511	30.07178
873.908	13.03197
874.306	19.04535
874.703	7.01665
875.1	12.02921
875.497	28.0637
875.894	-29.06881
876.291	6.014
876.688	40.09988
877.085	-21.04765
877.482	23.0547
877.878	10.02315
878.275	-31.07605
878.671	60.12335
879.068	41.09368
879.464	-6.01379
879.86	26.05963
880.256	-4.00932
880.652	24.05884
881.048	31.07293
881.444	-40.09075
881.84	36.08774
882.236	14.03366
882.631	-23.05365
883.027	0
883.422	21.05197
883.817	40.09654
884.213	-2.00493
884.608	-3.00711
885.003	-22.05074
885.398	-39.09457
885.793	9.0218
886.188	-21.05075
886.582	22.0533
886.977	2.00449
887.371	15.03632
887.766	3.00723
888.16	40.09453
888.554	16.03717
888.949	-38.09099
889.343	-5.01156
889.737	-3.00785
890.131	29.06942
890.525	1.00245
890.918	22.05304
891.312	52.11735
891.706	49.12313
892.099	3.00725
892.492	11.02209
892.886	70.16299
893.279	8.01957
893.672	-33.08077
894.065	-44.10459
894.458	23.05542
894.851	-44.10156
895.244	0
895.637	10.02299
896.029	36.08442
896.422	-7.01624
896.814	38.09064
897.206	-9.02053
897.599	18.04178
897.991	-17.0392
898.383	20.04471
898.775	42.08958
899.167	-3.00677
899.559	14.03387
899.951	43.09519
900.342	19.04618
900.734	4.00958
901.125	-40.10053
901.517	-22.05179
901.908	19.04287
902.299	3.00706
902.69	38.08463
903.082	-8.01828
903.473	37.08481
903.863	7.0171
904.254	10.02203
904.645	-44.10354
905.036	26.06075
905.426	-18.03882
905.817	32.07416
906.207	43.0986
906.597	2.00446
906.987	3.00749
907.378	-26.06304
907.768	-9.02289
908.158	-29.06746
908.547	-24.05897
908.937	29.07101
909.327	7.01599
909.717	15.03557
910.106	-51.1161
910.495	27.06387
910.885	14.0338
911.274	23.05464
911.663	4.00969
912.052	1.00231
912.441	10.02426
912.83	2.00444
913.219	-6.01501
913.608	15.03463
913.997	-8.01941
914.385	11.02472
914.774	26.06059
915.162	28.0635
915.55	-36.08167
915.939	15.03659
916.327	4.00959
916.715	46.11424
917.103	8.01835
917.491	-10.02328
917.878	-15.0353
918.266	-10.02481
918.654	7.01722
919.041	6.01515
919.429	36.08051
919.816	57.13744
920.203	-22.05086
920.591	75.17831
920.978	37.086
921.365	-39.09811
921.752	-78.17782
922.139	-18.0367
922.525	45.10389
922.912	22.05125
923.299	0
923.685	-12.03027
924.072	10.02142
924.458	-4.00948
924.844	-25.05946
925.231	-7.01555
925.617	9.02222
926.003	13.03165
926.389	-16.03872
926.774	26.06268
927.16	13.03068
927.546	16.03974
927.931	-70.16665
928.317	6.01287
928.702	1.00222
929.088	-37.08379
929.473	1.00245
929.858	0
930.243	-20.04607
930.628	9.02092
931.013	30.072
931.398	29.06208
931.783	12.03024
932.167	-2.00461
932.552	39.09286
932.937	8.01863
933.321	-9.02166
933.705	25.06071
934.09	-3.00717
934.474	-11.02464
934.858	48.1199
935.242	35.07797
935.626	9.02206
936.009	12.03104
936.393	0
936.777	23.05694
937.16	1.0025
937.544	12.02634
937.927	-18.04395
938.311	-5.01135
938.694	5.0127
939.077	-53.12226
939.46	2.00463
939.843	43.082
940.226	13.03195
940.609	-30.06515
940.991	35.08545
941.374	16.03761
941.757	-9.02097
942.139	13.02772
942.522	38.08407
942.904	73.16793
943.286	-70.1699
943.668	22.05468
944.05	24.05648
944.432	25.05873
944.814	22.05193
945.196	-37.08851
945.578	-8.01829
945.959	5.01124
946.341	8.01835
946.722	-7.01552
947.104	35.07948
947.485	19.04217
947.866	-25.06044
948.247	-5.01208
948.628	4.00927
949.009	26.06422
949.39	24.05676
949.771	-19.04132
950.152	1.00235
950.532	7.01685
950.913	8.0184
951.293	4.01048
951.674	7.01598
952.054	9.0215
952.434	-43.10247
952.814	29.06511
953.194	-29.0723
953.574	21.04821
953.954	53.11885
954.334	-31.0737
954.714	-30.07065
955.093	4.00933
955.473	-10.02407
955.853	24.05993
956.232	39.10327
956.611	-4.00909
956.99	31.07529
957.37	63.15323
957.749	4.00897
958.128	44.10696
958.506	0
958.885	32.07796
959.264	38.0889
959.643	-52.11042
960.021	11.02604
960.4	62.1335
960.778	10.02315
961.156	-10.02409
961.535	96.21106
961.913	27.0594
962.291	1.00248
962.669	-2.00486
963.047	28.0684
963.424	3.00735
963.802	-22.05201
964.18	-1.00239
964.557	-52.11095
964.935	10.02232
965.312	-5.01256
965.69	64.15037
966.067	3.00691
966.444	47.1095
966.821	12.02964
967.198	25.05696
967.575	-3.00699
967.952	31.06857
968.329	81.18708
968.705	52.10362
969.082	66.16277
969.458	-5.01159
969.835	25.05753
970.211	53.13155
970.587	23.05477
970.963	50.12232
971.339	-50.12706
971.715	-16.03811
972.091	71.16581
972.467	17.04018
972.843	3.00717
973.219	-19.04238
973.594	-35.08874
973.97	-31.06943
974.345	-2.00458
974.721	-16.03627
975.096	-1.0023
975.471	17.03812
975.846	47.10669
976.221	0
976.596	11.02495
976.971	9.02112
977.346	22.04829
977.72	34.08333
978.095	42.10412
978.469	30.06798
978.844	-4.00946
979.218	-6.01387
979.593	12.02727
979.967	-17.03948
980.341	6.01314
980.715	2.00479
981.089	5.01194
981.463	51.11102
981.837	-29.06855
982.21	-39.08464
982.584	6.01388
982.957	19.0455
983.331	14.031
983.704	40.09442
984.078	17.04029
984.451	22.05135
984.824	-7.01634
985.197	-9.0207
985.57	64.1526
985.943	51.11952
986.316	14.03238
986.688	1.00231
987.061	16.03531
987.434	12.03014
987.806	28.06386
988.179	33.07412
988.551	5.01209
988.923	46.10863
989.295	15.03568
989.667	1.00231
990.039	66.15567
990.411	38.08284
990.783	19.04097
991.155	0
991.527	27.06139
991.898	-15.03594
992.27	27.06387
992.641	-2.00477
993.012	-4.00888
993.384	32.07215
993.755	-4.00979
994.126	7.01613
994.497	24.0563
994.868	-4.00866
995.239	-55.12688
995.61	-37.08955
995.98	58.1351
996.351	11.02643
996.722	-14.03095
997.092	-5.01142
997.462	67.15191
997.833	18.04011
998.203	-11.02522
998.573	21.0505
998.943	-9.02016
999.313	-20.04594
999.683	35.08096
1000.053	-3.00654
1000.423	21.04881
1000.792	12.02967
1001.162	54.12732
1001.531	-22.05147
1001.901	18.04285
1002.27	-34.07163
1002.639	24.05845
1003.009	18.04097
1003.378	23.05617
1003.747	88.19704
1004.116	-20.04591
1004.485	20.04572
1004.853	20.04809
1005.222	-30.07246
1005.591	-7.01562
1005.959	62.13539
1006.328	36.07815
1006.696	47.10967
1007.064	-13.0313
1007.433	-31.07379
1007.801	14.03274
1008.169	43.10415
1008.537	-16.03298
1008.905	16.03575
1009.273	-6.01408
1009.64	-54.1243
1010.008	38.08645
1010.375	-43.09595
1010.743	16.03396
1011.11	27.06134
1011.478	54.12603
1011.845	22.04888
1012.212	2.00427
1012.579	3.00703
1012.946	39.08666
1013.313	67.14888
1013.68	-35.07298
1014.047	2.00456
1014.414	23.05223
1014.78	38.08973
1015.147	40.09104
1015.513	45.10335
1015.88	7.017
1016.246	21.04918
1016.612	-8.01723
1016.978	8.01858
1017.344	32.07442
1017.71	-19.04283
1018.076	16.03537
1018.442	32.07857
1018.808	65.1556
1019.174	-5.01209
1019.539	34.07233
1019.905	87.19765
1020.27	48.1137
1020.636	-8.01799
1021.001	56.12782
1021.366	-52.11984
1021.731	-4.00982
1022.096	-8.01963
1022.461	43.09606
1022.826	34.07685
1023.191	1.00252
1023.556	43.09523
1023.92	-31.07282
1024.285	4.00936
1024.649	9.02086
1025.014	21.0491
1025.378	26.06254
1025.742	11.02634
1026.107	12.02528
1026.471	17.03682
1026.835	76.18218
1027.199	-4.00924
1027.562	45.09958
1027.926	5.01157
1028.29	-18.04351
1028.654	-1.00217
1029.017	46.10643
1029.381	21.0485
1029.744	-10.02461
1030.107	-44.09824
1030.471	48.10929
1030.834	13.02802
1031.197	-20.04495
1031.56	13.02904
1031.923	-6.01495
1032.286	-11.0241
1032.648	58.13057
1033.011	9.01988
1033.374	8.01734
1033.736	8.02029
1034.099	-8.01856
1034.461	27.06621
1034.823	-32.07671
1035.185	37.08874
1035.548	12.0278
1035.91	-10.02273
1036.272	35.07457
1036.634	-23.05314
1036.995	-2.00445
1037.357	-18.04173
1037.719	6.01387
1038.08	18.04007
1038.442	63.14307
1038.803	-8.01835
1039.165	8.01934
1039.526	-3.00685
1039.887	16.03676
1040.248	44.10382
1040.609	5.01175
1040.97	57.13327
1041.331	48.11585
1041.692	-27.06072
1042.053	40.08516
1042.413	38.08368
1042.774	-3.00692
1043.134	-9.02011
1043.495	-13.03113
1043.855	0
1044.215	17.04049
1044.576	28.06406
1044.936	-9.01937
1045.296	-12.02837
1045.656	-44.10257
1046.016	25.05684
1046.375	22.0509
1046.735	42.09129
1047.095	-17.03799
1047.454	-26.0507
1047.814	23.05325
1048.173	-29.06503
1048.533	32.06941
1048.892	37.08614
1049.251	24.05727
1049.61	-34.07985
1049.969	-2.00448
1050.328	-9.01825
1050.687	12.02786
1051.046	43.09971
1051.405	12.02832
1051.763	-30.06615
1052.122	9.02156
1052.48	31.07293
1052.839	-9.02008
1053.197	-12.02686
1053.555	39.08215
1053.914	2.00464
1054.272	69.15714
1054.63	15.03522
1054.988	26.0592
1055.345	-16.03249
1055.703	45.10236
1056.061	10.02467
1056.419	19.04747
1056.776	44.10108
1057.134	22.04831
1057.491	55.13111
1057.848	-51.1205
1058.206	-4.00876
1058.563	44.09038
1058.92	-8.01736
1059.277	3.00702
1059.634	15.03339
1059.991	-29.0642
1060.348	62.13292
1060.704	22.0506
1061.061	34.07362
1061.418	30.07016
1061.774	-3.00708
1062.131	0
1062.487	17.03804
1062.843	44.10467
1063.199	-19.04508
1063.555	9.0199
1063.911	61.1467
1064.267	51.09707
1064.623	-4.00926
1064.979	-3.00654
1065.335	-29.06468
1065.691	-44.09897
1066.046	33.06807
1066.402	32.06958
1066.757	40.0957
1067.112	4.0093
1067.468	24.05431
1067.823	31.07097
1068.178	-8.01833
1068.533	27.06211
1068.888	-15.03387
1069.243	1.00234
1069.598	8.01856
1069.952	-13.02807
1070.307	41.09751
1070.662	-9.02024
1071.016	49.10462
1071.371	13.02783
1071.725	-26.0581
1072.079	32.07398
1072.434	-19.04418
1072.788	20.045
1073.142	-19.04373
1073.496	15.03357
1073.85	42.09109
1074.203	-16.03673
1074.557	-6.01539
1074.911	18.04006
1075.265	48.10544
1075.618	6.01393
1075.971	57.12923
1076.325	-24.05865
1076.678	25.05423
1077.031	6.01289
1077.385	17.03483
1077.738	-14.03033
1078.091	12.02613
1078.444	29.06348
1078.796	26.06118
1079.149	39.09283
1079.502	15.0337
1079.855	23.05058
1080.207	0
1080.56	3.00748
1080.912	-5.01154
1081.264	-9.02057
1081.617	-6.01395
1081.969	12.02916
1082.321	19.04448
1082.673	-35.07625
1083.025	-12.02678
1083.377	-270.56408
1083.728	68.14912
1084.08	-5.01186
1084.432	-9.02084
1084.783	8.01757
1085.135	39.09354
1085.486	6.01315
1085.838	20.0469
1086.189	-7.01629
1086.54	7.01573
1086.891	-20.04869
1087.242	-4.00923
1087.593	3.00682
1087.944	75.15972
1088.295	25.05308
1088.646	-47.10803
1088.996	-1.00232
1089.347	3.00698
1089.698	-23.0523
1090.048	2.00501
1090.398	-12.02623
1090.749	41.093
1091.099	2.00492
1091.449	6.01438
1091.799	15.03565
1092.149	-8.01896
1092.499	15.03496
1092.849	-4.00979
1093.199	35.08254
1093.548	-3.0069
1093.898	-2.00483
1094.248	6.01471
1094.597	61.15174
1094.947	12.03096
1095.296	30.07128
1095.645	35.08602
1095.994	-15.03383
1096.343	-74.17732
1096.692	-1.00253
1097.041	37.09854
1097.39	21.05035
1097.739	26.06455
1098.088	-30.0767
1098.437	17.04361
1098.785	66.17234
1099.134	-15.03796
1099.482	-55.14628
1099.83	38.09654
1100.179	46.11607
1100.527	32.08247
1100.875	-17.0439
1101.223	14.03579
1101.571	27.07269
1101.919	12.03067
1102.267	47.12913
1102.615	-7.02252
1102.962	-9.02888
1103.31	6.01926
1103.658	-2.00642
