Data from N3 R8 sample 8_Subt2__4__13-39-03-665.txt Node

Date: Mon Sep 22 13:39:03 PDT 2025
User: uwsun
Spectrometer: HDX01956
Trigger mode: 0
Integration Time (sec): 5.000000E-1
Scans to average: 1
Nonlinearity correction enabled: true
Boxcar width: 0
Storing dark spectrum: false
XAxis mode: Wavelengths
Number of Pixels in Spectrum: 2068
>>>>>Begin Spectral Data<<<<<
194.03	-9.02622
194.578	-2.0065
195.127	5.01606
195.676	4.01285
196.225	-23.06154
196.773	-32.08896
197.321	19.05317
197.87	1.0026
198.418	30.07807
198.966	42.11206
199.513	43.1098
200.061	15.03892
200.609	19.05083
201.156	17.03828
201.704	89.22685
202.251	57.15291
202.798	59.1554
203.345	31.07728
203.892	26.06666
204.438	20.04749
204.985	50.12068
205.532	32.08577
206.078	44.10888
206.624	51.12807
207.17	20.04703
207.716	56.13903
208.262	42.08424
208.808	30.0764
209.354	71.17636
209.899	85.21803
210.445	90.22823
210.99	2.00499
211.535	-15.03574
212.08	107.25272
212.625	66.1666
213.17	3.00761
213.715	4.00916
214.259	43.1016
214.804	64.15906
215.348	62.14493
215.892	13.03158
216.436	82.18897
216.98	69.1537
217.524	41.09879
218.068	5.01255
218.612	-10.02532
219.155	30.07169
219.698	0
220.242	9.02247
220.785	90.21212
221.328	70.17461
221.871	3.00751
222.414	47.11607
222.956	21.05089
223.499	59.13458
224.041	81.18708
224.583	73.15613
225.126	45.09895
225.668	24.05858
226.21	20.05077
226.751	58.12741
227.293	41.09356
227.835	46.11257
228.376	45.1029
228.918	43.10868
229.459	63.15752
230	14.03347
230.541	25.05785
231.082	2.00486
231.622	-16.03705
232.163	56.13628
232.704	47.11649
233.244	57.14112
233.784	27.06601
234.324	-4.00883
234.864	-19.04334
235.404	71.1686
235.944	98.23321
236.484	1.00247
237.023	57.13458
237.563	28.06491
238.102	37.08681
238.641	55.13866
239.18	59.1393
239.719	-5.01251
240.258	-17.03839
240.797	66.15803
241.335	45.1099
241.874	66.12534
242.412	13.0313
242.95	38.09237
243.488	37.08396
244.026	48.11251
244.564	103.20979
245.102	62.13963
245.64	28.06702
246.177	38.08589
246.715	22.05258
247.252	15.03453
247.789	12.02232
248.326	38.09223
248.863	43.0946
249.4	27.06077
249.936	34.07025
250.473	49.11421
251.009	25.05769
251.546	2.00444
252.082	88.19322
252.618	40.08975
253.154	60.1441
253.69	41.09224
254.226	30.072
254.761	28.0629
255.297	15.03298
255.832	85.20216
256.367	51.12018
256.903	43.0942
257.438	79.18695
257.972	-13.02907
258.507	65.15168
259.042	84.18429
259.576	-19.04162
260.111	57.13044
260.645	36.07741
261.179	84.19582
261.713	39.08806
262.247	70.16293
262.781	103.21696
263.315	46.11366
263.849	14.03509
264.382	4.00925
264.915	26.06142
265.449	47.11641
265.982	69.1565
266.515	49.11922
267.048	54.11247
267.58	60.12913
268.113	19.04095
268.646	61.1513
269.178	123.27898
269.71	44.09588
270.243	30.06773
270.775	18.04576
271.307	42.10068
271.838	26.06145
272.37	69.17133
272.902	65.14695
273.433	58.1266
273.965	9.02196
274.496	57.14226
275.027	93.23092
275.558	48.11637
276.089	45.11405
276.62	81.20697
277.15	18.04456
277.681	43.09312
278.211	56.1373
278.741	78.17292
279.272	92.21066
279.802	54.13611
280.332	36.08541
280.861	60.14372
281.391	81.18283
281.921	18.04356
282.45	90.22441
282.98	76.19729
283.509	107.24121
284.038	-13.02975
284.567	31.07222
285.096	85.20534
285.625	26.05915
286.153	36.08524
286.682	67.15462
287.21	58.1393
287.739	23.05453
288.267	49.1198
288.795	86.22632
289.323	22.05179
289.851	74.17122
290.378	83.18711
290.906	63.15552
291.433	65.16146
291.961	51.11601
292.488	77.19133
293.015	44.10342
293.542	37.09355
294.069	74.18304
294.596	77.18973
295.122	46.10884
295.649	47.10383
296.175	33.08038
296.702	28.0672
297.228	105.25519
297.754	-14.03128
298.28	82.18777
298.806	5.01216
299.332	129.29057
299.857	53.12187
300.383	58.14478
300.908	67.16393
301.433	98.23876
301.958	104.23967
302.483	57.14313
303.008	111.2731
303.533	49.12723
304.058	7.0165
304.582	31.07381
305.107	44.11528
305.631	38.08593
306.155	69.1619
306.679	76.18142
307.203	57.13217
307.727	72.16976
308.251	62.15223
308.775	53.12707
309.298	50.11999
309.822	86.21661
310.345	111.2642
310.868	79.19078
311.391	31.0761
311.914	70.17663
312.437	51.1161
312.96	26.06168
313.482	68.16176
314.005	49.12402
314.527	95.2492
315.049	60.15129
315.571	69.15536
316.093	76.1864
316.615	94.2279
317.137	112.24468
317.659	115.27802
318.18	88.21167
318.702	82.19025
319.223	74.15268
319.744	95.21381
320.265	71.17462
320.786	93.23075
321.307	89.22043
321.828	62.14077
322.348	68.15933
322.869	67.15911
323.389	84.15976
323.909	62.14197
324.43	56.13368
324.95	154.35376
325.47	110.27119
325.989	120.28216
326.509	109.2418
327.029	73.16585
327.548	105.24067
328.067	53.12891
328.587	102.25211
329.106	123.27751
329.625	79.20307
330.144	122.27924
330.662	140.32854
331.181	99.22828
331.7	59.13789
332.218	104.22508
332.736	86.2008
333.255	110.25451
333.773	172.40426
334.291	136.33541
334.808	115.25713
335.326	153.34223
335.844	178.41281
336.361	165.41551
336.879	147.3364
337.396	134.32377
337.913	144.33344
338.43	116.25877
338.947	105.24694
339.464	179.38467
339.981	138.32663
340.497	177.43193
341.014	137.33233
341.53	121.27088
342.046	116.28482
342.562	146.35742
343.078	115.26898
343.594	147.34733
344.11	190.44709
344.626	163.40236
345.141	148.33357
345.657	134.30041
346.172	220.51748
346.687	175.39773
347.202	90.20019
347.717	252.59227
348.232	123.30229
348.747	211.47585
349.261	204.43773
349.776	157.36505
350.29	198.48596
350.805	197.47482
351.319	180.41398
351.833	175.38885
352.347	184.42926
352.861	140.3216
353.374	167.3737
353.888	215.50818
354.401	217.48618
354.915	218.47543
355.428	207.50401
355.941	212.48308
356.454	242.52486
356.967	176.40559
357.48	226.50999
357.993	172.41135
358.505	176.42701
359.018	195.46091
359.53	279.65559
360.042	215.46939
360.554	222.51811
361.066	197.47122
361.578	199.42857
362.09	243.55763
362.602	227.48949
363.113	241.5435
363.625	222.48395
364.136	242.51231
364.647	222.51383
365.158	257.58526
365.669	240.55438
366.18	282.64517
366.691	289.61863
367.201	243.55718
367.712	246.54467
368.222	262.57356
368.733	277.58397
369.243	310.66229
369.753	274.61096
370.263	275.62953
370.773	218.51896
371.282	265.59957
371.792	317.69937
372.301	296.68888
372.811	307.76914
373.32	334.68664
373.829	289.65493
374.338	364.77057
374.847	370.8103
375.356	361.81906
375.865	435.87955
376.373	427.91952
376.882	334.79321
377.39	401.90794
377.898	397.9226
378.407	401.84276
378.915	472.94977
379.423	519.12429
379.93	504.04499
380.438	483.07419
380.946	525.11649
381.453	553.20061
381.96	600.28537
382.468	549.15697
382.975	642.36777
383.482	611.20148
383.989	676.52299
384.495	692.36647
385.002	763.34766
385.509	819.62708
386.015	790.29387
386.521	801.49082
387.028	974.77812
387.534	926.60789
388.04	926.76102
388.546	1048.84532
389.051	1049.78044
389.557	1141.05164
390.063	1211.01024
390.568	1211.15032
391.073	1325.0952
391.578	1391.44226
392.084	1433.26993
392.589	1449.08683
393.093	1597.49777
393.598	1773.48548
394.103	1923.78775
394.607	2122.83002
395.112	2233.99699
395.616	2414.93259
396.12	2569.66994
396.624	2908.77759
397.128	3140.84967
397.632	3474.67427
398.136	3737.2795
398.639	4065.32594
399.143	4665.35376
399.646	5194.52856
400.15	5710.1546
400.653	6306.85217
401.156	7155.89257
401.659	8354.16076
402.162	10433.22228
402.664	13954.59761
403.167	21769.84507
403.67	48632.814
404.172	51017.70541
404.674	31176.06428
405.176	3757.7064
405.678	27.69154
406.18	0
406.682	0
407.184	45159.96023
407.686	58897.86778
408.187	48195.97687
408.688	29309.59554
409.19	20876.20286
409.691	17024.34762
410.192	14385.15871
410.693	12489.65173
411.194	11405.8161
411.694	10690.56184
412.195	9825.65161
412.696	9009.43874
413.196	8435.28238
413.696	8200.90992
414.196	8169.79329
414.696	7768.34336
415.196	7279.90861
415.696	6489.57502
416.196	5211.29695
416.695	4082.22863
417.195	3682.5992
417.694	3498.75879
418.194	3308.01203
418.693	3116.51488
419.192	3048.70791
419.691	2974.70998
420.19	2902.92354
420.688	2753.01312
421.187	2686.21445
421.685	2424.71396
422.184	2183.6993
422.682	1923.33513
423.18	1663.45088
423.678	1533.35001
424.176	1342.12772
424.674	1342.05769
425.172	1261.15673
425.669	1217.28013
426.167	1126.95016
426.664	1013.79605
427.161	944.72757
427.659	879.71969
428.156	821.39842
428.652	738.58204
429.149	754.54685
429.646	645.2095
430.143	714.4581
430.639	615.25652
431.135	599.30503
431.632	555.11118
432.128	530.11711
432.624	483.11408
433.12	480.97254
433.616	466.89237
434.111	446.94867
434.607	420.9128
435.103	419.7882
435.598	379.68595
436.093	356.75726
436.588	354.71594
437.083	322.65331
437.578	333.70017
438.073	277.64531
438.568	268.60302
439.062	273.53757
439.557	220.48488
440.051	244.5179
440.546	320.68661
441.04	225.50866
441.534	288.6766
442.028	245.53714
442.522	186.41939
443.015	248.50318
443.509	186.42709
444.002	231.52499
444.496	260.53307
444.989	230.5241
445.482	235.55006
445.975	226.48409
446.468	189.38321
446.961	166.33434
447.454	225.47789
447.947	151.33539
448.439	180.41017
448.931	172.36477
449.424	145.34127
449.916	122.27632
450.408	126.26733
450.9	205.46798
451.392	126.29904
451.884	127.26975
452.375	121.28257
452.867	123.25897
453.358	138.29624
453.849	151.3007
454.341	174.36691
454.832	142.28416
455.323	133.30656
455.814	117.25457
456.304	103.22344
456.795	170.36115
457.285	102.21272
457.776	112.23669
458.266	170.37547
458.756	173.39223
459.247	117.26236
459.737	74.16727
460.226	164.34932
460.716	106.23656
461.206	121.27255
461.695	96.22608
462.185	109.24261
462.674	122.26325
463.163	129.27113
463.653	71.14093
464.142	76.17263
464.63	103.23552
465.119	104.23143
465.608	103.22411
466.096	95.19773
466.585	65.14023
467.073	64.14549
467.561	77.17642
468.05	127.28161
468.538	64.14796
469.026	50.11504
469.513	136.27745
470.001	102.22359
470.489	92.20702
470.976	54.11907
471.463	56.13106
471.951	40.09512
472.438	65.14617
472.925	99.22236
473.412	68.15958
473.899	37.08088
474.385	83.19177
474.872	75.16998
475.359	57.13301
475.845	50.09913
476.331	42.08814
476.817	61.14206
477.303	94.21083
477.789	77.17777
478.275	71.16971
478.761	78.17853
479.247	36.07695
479.732	73.17462
480.218	32.08054
480.703	48.1155
481.188	-2.00415
481.673	-34.07585
482.158	22.04615
482.643	19.0464
483.128	-15.03315
483.612	33.07476
484.097	28.06553
484.581	46.10139
485.066	-12.02793
485.55	-4.00843
486.034	42.08748
486.518	20.04559
487.002	45.10773
487.486	-1.00237
487.969	35.08328
488.453	18.04425
488.936	19.04196
489.42	-20.04267
489.903	48.11703
490.386	6.0133
490.869	50.10446
491.352	40.09493
491.835	15.0298
492.318	8.01764
492.8	-18.03614
493.283	-17.04209
493.765	30.07172
494.247	-26.05843
494.73	-1.00214
495.212	-50.11633
495.694	7.01595
496.175	7.01633
496.657	-27.06174
497.139	12.01979
497.62	-15.03484
498.102	-6.01454
498.583	-17.04138
499.064	-36.07901
499.545	28.06213
500.026	-20.0439
500.507	-34.07673
500.988	-25.05987
501.469	28.06855
501.949	-8.01921
502.43	-11.02581
502.91	-49.0993
503.39	-39.09457
503.87	13.02992
504.35	-82.18588
504.83	2.00429
505.31	-37.08736
505.79	-48.11273
506.269	-54.12256
506.749	4.00898
507.228	-34.07785
507.707	-18.03889
508.187	-85.19717
508.666	-7.01678
509.145	-51.1154
509.623	-57.13055
510.102	-47.1095
510.581	-54.12588
511.059	-64.15668
511.538	-78.19456
512.016	-93.21496
512.494	18.04213
512.972	-57.13159
513.45	-40.09211
513.928	-64.15142
514.406	-97.2315
514.884	-69.1727
515.361	-83.19284
515.839	-33.07403
516.316	-19.04432
516.793	-99.24618
517.27	-40.09361
517.747	-49.12362
518.224	-73.16389
518.701	-80.17381
519.178	-51.12307
519.654	-114.26366
520.131	-91.22042
520.607	-52.12493
521.083	-50.1109
521.56	-28.06435
522.036	-34.07214
522.512	-83.19884
522.987	-96.22599
523.463	-82.18995
523.939	-86.20513
524.414	-68.15082
524.89	-63.14689
525.365	-100.22003
525.84	-87.20429
526.315	-69.1619
526.79	-92.20099
527.265	-87.19284
527.74	-56.13368
528.215	-102.23459
528.689	-127.27339
529.164	-85.17786
529.638	-50.12508
530.112	-67.1548
530.587	-71.14843
531.061	-118.27735
531.534	-63.1473
532.008	-65.15203
532.482	-116.25952
532.956	-107.26704
533.429	-65.15227
533.903	-109.23374
534.376	-71.1512
534.849	-115.25893
535.322	-110.25127
535.795	-147.34746
536.268	-80.18811
536.741	-105.24492
537.213	-82.18187
537.686	-102.24217
538.158	-73.16066
538.631	-99.23256
539.103	-106.23324
539.575	-157.31643
540.047	-130.27546
540.519	-136.31266
540.991	-55.1292
541.463	-42.09895
541.934	-117.25998
542.406	-131.30376
542.877	-68.15239
543.348	-107.24899
543.82	-80.19009
544.291	-59.13355
544.762	-108.2478
545.233	-106.25911
545.703	-95.20442
546.174	-80.18134
546.645	-98.23259
547.115	-51.11994
547.585	-95.21381
548.056	-96.22828
548.526	-70.16145
548.996	-103.24082
549.466	-93.22297
549.935	-47.10894
550.405	-84.18032
550.875	-95.21941
551.344	-67.15628
551.814	-99.22172
552.283	-76.16068
552.752	-79.18028
553.221	-52.11187
553.69	-35.07615
554.159	-52.12503
554.628	-54.11807
555.096	-48.1186
555.565	-72.15469
556.033	-67.15252
556.502	-92.21616
556.97	-80.17114
557.438	-80.18274
557.906	-137.31288
558.374	-62.13946
558.842	-65.15006
559.31	-99.21266
559.777	-35.08302
560.245	-90.20194
560.712	-60.13391
561.18	-114.24525
561.647	-57.12481
562.114	-47.10448
562.581	-66.15779
563.048	-97.215
563.514	-83.1971
563.981	-57.12518
564.448	28.06122
564.914	-45.10033
565.381	-25.05428
565.847	-60.13474
566.313	-82.18361
566.779	-34.07368
567.245	-29.06543
567.711	46.10588
568.176	-67.14429
568.642	-69.1682
569.108	-36.08528
569.573	-82.18452
570.038	-15.02981
570.504	9.01927
570.969	-13.03133
571.434	-26.0549
571.899	-16.03606
572.363	55.11911
572.828	5.01076
573.293	29.06291
573.757	-52.11403
574.222	36.07581
574.686	22.04755
575.15	32.07207
575.614	54.11642
576.078	24.05401
576.542	16.03435
577.006	44.09425
577.469	11.02553
577.933	2.00422
578.396	32.07201
578.86	-25.05551
579.323	36.08137
579.786	41.08298
580.249	16.03433
580.712	72.16659
581.175	-4.00936
581.637	-34.07337
582.1	-20.04097
582.563	17.03355
583.025	-13.0301
583.487	9.0172
583.95	13.02666
584.412	72.14161
584.874	-44.10006
585.336	50.1121
585.797	16.03267
586.259	-32.07065
586.721	-15.03334
587.182	-63.13644
587.643	-46.09815
588.105	-25.0562
588.566	-8.01569
589.027	21.04796
589.488	-28.05985
589.949	21.04771
590.41	8.01484
590.87	-21.04517
591.331	-9.01808
591.791	34.07318
592.252	-31.06728
592.712	30.06767
593.172	-15.03151
593.632	21.04254
594.092	30.06273
594.552	5.00997
595.011	-5.0107
595.471	18.03679
595.931	43.0893
596.39	57.12666
596.849	62.13281
597.308	24.04825
597.768	49.1165
598.227	123.27377
598.685	121.25375
599.144	114.24789
599.603	100.21282
600.062	138.26578
600.52	144.29337
600.978	211.4462
601.437	182.36657
601.895	281.52468
602.353	193.37574
602.811	223.43167
603.269	271.5673
603.727	308.64832
604.184	322.64167
604.642	313.66102
605.099	400.79118
605.557	375.78361
606.014	483.86532
606.471	459.98035
606.928	544.9734
607.385	568.18527
607.842	570.05939
608.299	584.09948
608.755	612.21504
609.212	676.20081
609.668	719.2559
610.125	769.46447
610.581	799.46061
611.037	770.34273
611.493	821.49411
611.949	860.62104
612.405	896.3124
612.861	874.54942
613.316	860.5688
613.772	917.57921
614.227	882.59604
614.683	949.47639
615.138	920.63709
615.593	1026.7999
616.048	1015.69661
616.503	1006.85977
616.958	1002.92792
617.412	960.74457
617.867	961.56927
618.321	988.44079
618.776	952.53763
619.23	954.69074
619.684	846.4183
620.138	892.53073
620.592	829.57053
621.046	912.61528
621.5	904.70413
621.954	813.36914
622.407	808.36476
622.861	816.5816
623.314	677.18548
623.768	745.36856
624.221	786.20234
624.674	695.26437
625.127	739.36432
625.58	685.21841
626.033	613.0726
626.485	609.21048
626.938	609.19754
627.39	621.16785
627.843	578.08603
628.295	610.15472
628.747	565.10095
629.199	561.04651
629.651	538.0291
630.103	502.97341
630.555	459.813
631.006	483.9605
631.458	478.96893
631.909	420.79572
632.361	432.85727
632.812	451.9002
633.263	386.70844
633.714	424.76566
634.165	351.74061
634.616	334.70088
635.067	377.72035
635.518	349.72023
635.968	387.65444
636.419	342.63843
636.869	359.74485
637.319	344.69636
637.769	336.66054
638.219	325.67462
638.669	342.72685
639.119	335.72484
639.569	370.79628
640.019	300.60757
640.468	372.73062
640.918	289.62425
641.367	256.50659
641.816	289.57015
642.265	341.69834
642.714	287.58723
643.163	343.69703
643.612	337.74007
644.061	361.68476
644.51	335.68637
644.958	321.62524
645.406	305.65147
645.855	262.57598
646.303	290.60103
646.751	287.58244
647.199	324.65467
647.647	309.64083
648.095	323.66508
648.543	328.57955
648.99	345.74137
649.438	279.58301
649.885	321.71797
650.333	328.54726
650.78	337.73166
651.227	282.61708
651.674	342.69358
652.121	252.56005
652.568	309.67773
653.015	284.64033
653.461	328.70924
653.908	318.65788
654.354	251.5359
654.801	251.54612
655.247	264.52119
655.693	287.68987
656.139	331.72353
656.585	219.47609
657.031	268.57157
657.477	250.49239
657.922	241.50852
658.368	210.47311
658.813	232.49158
659.259	227.50104
659.704	234.50535
660.149	202.43531
660.594	191.41611
661.039	223.46889
661.484	204.44188
661.929	269.57757
662.373	222.52381
662.818	137.31465
663.262	236.52972
663.707	179.42915
664.151	162.36647
664.595	206.46562
665.039	196.44663
665.483	232.54782
665.927	182.39962
666.371	233.50803
666.814	201.44161
667.258	162.36363
667.701	183.35899
668.145	198.45519
668.588	184.42301
669.031	172.38449
669.474	186.41853
669.917	189.38671
670.36	170.3966
670.803	186.41407
671.245	164.31297
671.688	206.47055
672.13	185.38933
672.573	124.29622
673.015	200.44615
673.457	203.4131
673.899	151.34054
674.341	185.4196
674.783	221.49799
675.225	192.43981
675.666	152.34553
676.108	188.3858
676.549	246.54149
676.991	199.40902
677.432	203.37884
677.873	176.38156
678.314	185.41517
678.755	151.3468
679.196	208.44785
679.637	195.44516
680.078	141.3047
680.518	182.39389
680.959	190.42472
681.399	220.51364
681.839	233.52718
682.28	236.5497
682.72	190.40716
683.16	182.4291
683.6	186.39377
684.039	222.42037
684.479	216.49677
684.919	177.39085
685.358	168.39533
685.798	200.50084
686.237	205.45778
686.676	111.23597
687.115	245.53669
687.554	211.46884
687.993	193.39615
688.432	201.42505
688.871	245.51469
689.309	257.57081
689.748	163.31008
690.186	227.50041
690.625	220.48447
691.063	198.43913
691.501	206.47017
691.939	245.56942
692.377	224.51249
692.815	286.63798
693.253	223.4918
693.69	224.45033
694.128	195.44049
694.565	309.68144
695.003	271.63977
695.44	269.58652
695.877	245.5308
696.314	243.47196
696.751	346.71644
697.188	302.63793
697.625	284.58175
698.061	317.69966
698.498	308.68222
698.934	301.66046
699.371	296.63923
699.807	305.6526
700.243	295.65356
700.679	328.66579
701.115	321.67315
701.551	333.70818
701.987	336.66614
702.422	364.79245
702.858	381.81272
703.294	398.80271
703.729	407.89263
704.164	390.84653
704.599	388.76384
705.035	392.7888
705.47	418.91463
705.904	409.85199
706.339	438.88907
706.774	450.9301
707.209	449.91826
707.643	461.98803
708.078	490.07062
708.512	521.16986
708.946	444.94565
709.38	453.94532
709.814	474.93096
710.248	543.16134
710.682	537.10486
711.116	569.20969
711.549	524.18839
711.983	557.10284
712.416	539.09354
712.85	566.20565
713.283	606.21879
713.716	641.36002
714.149	642.27411
714.582	595.10952
715.015	664.42082
715.448	658.39279
715.881	705.23463
716.313	670.30192
716.746	667.31857
717.178	691.38778
717.61	717.51947
718.043	760.56829
718.475	768.54867
718.907	776.61279
719.339	772.43995
719.77	807.5578
720.202	849.7752
720.634	841.67937
721.065	861.62491
721.497	824.62296
721.928	900.7936
722.359	882.72597
722.79	993.8818
723.221	973.9594
723.652	998.02154
724.083	990.72841
724.514	1010.80044
724.945	1012.86438
725.375	1058.92115
725.806	1080.05994
726.236	1111.21563
726.666	1099.9691
727.096	1096.04226
727.526	1118.19625
727.956	1100.84175
728.386	1196.18756
728.816	1187.31737
729.246	1135.08446
729.675	1179.19145
730.105	1222.21069
730.534	1215.03126
730.964	1305.40493
731.393	1329.38742
731.822	1268.37655
732.251	1311.45798
732.68	1354.22884
733.109	1318.35977
733.537	1384.39152
733.966	1315.37178
734.395	1329.12674
734.823	1324.037
735.251	1343.32703
735.68	1347.38796
736.108	1406.57312
736.536	1314.16497
736.964	1345.19993
737.392	1410.52906
737.82	1374.34169
738.247	1326.21731
738.675	1365.22669
739.102	1270.32919
739.53	1337.49587
739.957	1312.45926
740.384	1390.38805
740.811	1276.3519
741.238	1315.29744
741.665	1293.1624
742.092	1273.12761
742.519	1269.32213
742.945	1278.22959
743.372	1302.33219
743.798	1242.39594
744.225	1258.2083
744.651	1178.19444
745.077	1176.22196
745.503	1134.0551
745.929	1140.03576
746.355	1137.07669
746.781	1138.13015
747.207	1089.94914
747.632	1026.94869
748.058	1036.96962
748.483	1046.78536
748.908	1035.02669
749.334	1023.94157
749.759	1063.87814
750.184	984.83621
750.609	941.82642
751.033	976.754
751.458	959.61932
751.883	971.91423
752.307	890.65966
752.732	890.83435
753.156	873.74898
753.58	837.55641
754.005	843.72535
754.429	813.52668
754.853	813.6384
755.277	817.55453
755.7	760.54304
756.124	737.53675
756.548	788.52361
756.971	717.43412
757.394	773.68167
757.818	770.69107
758.241	703.49626
758.664	719.54359
759.087	695.28806
759.51	664.37365
759.933	653.33428
760.356	683.50145
760.778	653.3602
761.201	656.34193
761.623	690.40839
762.046	612.20769
762.468	538.0823
762.89	642.34763
763.312	545.12386
763.734	574.18827
764.156	562.20437
764.578	627.21157
765	533.11286
765.421	522.17714
765.843	517.18932
766.264	541.1111
766.686	527.15718
767.107	424.90384
767.528	436.98817
767.949	490.10172
768.37	431.94128
768.791	499.0505
769.212	479.06748
769.632	438.90124
770.053	411.97957
770.473	421.90193
770.894	433.96921
771.314	371.76631
771.734	389.80024
772.154	349.81236
772.575	392.79715
772.994	361.73997
773.414	405.86241
773.834	357.80078
774.254	325.70891
774.673	364.7975
775.093	377.85466
775.512	253.56753
775.931	265.61249
776.351	328.73801
776.77	323.72869
777.189	337.72573
777.607	300.70012
778.026	345.78245
778.445	227.53175
778.864	278.65261
779.282	285.62773
779.701	264.61321
780.119	241.55946
780.537	250.58207
780.955	246.57547
781.373	272.61252
781.791	215.4427
782.209	238.48951
782.627	275.67079
783.045	268.56264
783.462	239.56315
783.88	229.55319
784.297	239.55811
784.715	273.65273
785.132	224.50258
785.549	177.41675
785.966	213.4972
786.383	247.56317
786.8	225.47456
787.217	206.44869
787.633	207.48662
788.05	182.38445
788.466	194.41879
788.883	207.50042
789.299	226.50519
789.715	197.44428
790.131	161.37258
790.547	189.43772
790.963	232.53676
791.379	203.48372
791.795	152.31742
792.21	165.35718
792.626	174.38237
793.041	223.51399
793.457	133.30852
793.872	204.44735
794.287	176.3983
794.702	164.37598
795.117	162.38091
795.532	159.3767
795.947	125.27337
796.362	126.27794
796.776	138.29407
797.191	171.38943
797.605	96.21567
798.02	91.20908
798.434	100.20364
798.848	139.32473
799.262	152.35796
799.676	65.14683
800.09	90.20873
800.504	85.19413
800.918	103.22363
801.331	144.35357
801.745	80.17203
802.158	118.27789
802.572	96.21761
802.985	120.26737
803.398	54.12231
803.811	114.27576
804.224	79.18413
804.637	114.25852
805.05	49.10644
805.462	99.22983
805.875	99.24654
806.288	96.21876
806.7	79.18818
807.112	108.23444
807.525	19.04416
807.937	85.20364
808.349	51.12167
808.761	117.27237
809.173	89.20326
809.584	90.20815
809.996	93.21863
810.408	74.18411
810.819	67.14968
811.231	60.15269
811.642	77.18201
812.053	87.20149
812.464	167.38001
812.875	18.04389
813.286	76.1873
813.697	58.12462
814.108	62.14391
814.519	88.18116
814.929	105.25547
815.34	58.1335
815.75	34.08358
816.16	28.0663
816.571	31.07745
816.981	111.2448
817.391	87.19973
817.801	53.12644
818.211	59.13192
818.62	-5.01147
819.03	59.13751
819.44	74.18277
819.849	90.21681
820.259	24.05865
820.668	-13.0305
821.077	36.086
821.486	27.06161
821.895	64.15008
822.304	14.03573
822.713	82.18232
823.122	33.07888
823.531	9.02022
823.939	18.04173
824.348	43.10058
824.756	42.0998
825.164	40.0957
825.573	31.07472
825.981	75.17742
826.389	26.06164
826.797	24.05742
827.205	49.10752
827.612	47.1101
828.02	27.06112
828.428	33.08062
828.835	-9.02296
829.243	38.0854
829.65	25.05996
830.057	-18.04221
830.464	32.07545
830.871	-12.02705
831.278	2.00462
831.685	44.09209
832.092	57.13337
832.499	18.03679
832.905	-39.09454
833.312	-31.06673
833.718	23.05517
834.124	82.17717
834.531	-7.01692
834.937	24.05847
835.343	-13.02963
835.749	2.00438
836.155	40.09992
836.561	19.0451
836.966	0
837.372	28.06814
837.777	27.06503
838.183	68.13973
838.588	58.13914
838.993	17.03948
839.399	-23.0542
839.804	-3.0071
840.209	-34.08308
840.613	-2.00418
841.018	16.03857
841.423	-1.00245
841.828	27.06599
842.232	37.08709
842.637	15.03391
843.041	20.04947
843.445	29.07064
843.849	38.0904
844.253	28.06334
844.657	26.06339
845.061	-8.01717
845.465	21.04808
845.869	2.00444
846.272	15.03535
846.676	35.08042
847.079	-5.01231
847.483	-8.01884
847.886	-4.00912
848.289	9.0233
848.692	14.03421
849.095	78.17767
849.498	5.0119
849.901	50.10849
850.304	-16.0364
850.707	34.0824
851.109	31.0743
851.512	10.02339
851.914	28.06893
852.316	-31.07551
852.718	10.02515
853.121	-16.03764
853.523	-6.01329
853.925	21.05377
854.326	6.01446
854.728	11.02745
855.13	29.07287
855.531	21.04835
855.933	52.11835
856.334	-25.06003
856.736	-12.02592
857.137	10.02235
857.538	21.05121
857.939	-3.00714
858.34	28.06481
858.741	-10.02521
859.142	-15.03453
859.542	19.04857
859.943	36.0857
860.343	-34.08141
860.744	47.10954
861.144	55.12869
861.544	38.0889
861.945	37.09063
862.345	15.035
862.745	8.01916
863.145	-18.04014
863.544	9.02179
863.944	30.06704
864.344	36.08554
864.743	24.05637
865.143	-14.0346
865.542	-44.09812
865.941	-17.04025
866.34	-23.05232
866.74	-22.05684
867.139	54.12504
867.537	0
867.936	3.00685
868.335	20.04894
868.734	-28.06954
869.132	-39.08583
869.531	21.04831
869.929	16.03491
870.327	33.07579
870.726	-25.05902
871.124	7.01527
871.522	35.08573
871.92	-12.02789
872.318	-25.05852
872.715	20.04697
873.113	-18.04208
873.511	27.06464
873.908	-27.0669
874.306	5.01197
874.703	20.04745
875.1	9.02192
875.497	7.01599
875.894	6.01414
876.291	-7.01637
876.688	30.07505
877.085	-33.07506
877.482	-4.00956
877.878	-1.00232
878.275	-32.07851
878.671	5.01041
879.068	12.02758
879.464	-6.01379
879.86	25.05735
880.256	-4.00932
880.652	26.06372
881.048	8.01891
881.444	-15.03386
881.84	-29.07154
882.236	32.07668
882.631	-4.0093
883.027	6.01367
883.422	-3.00746
883.817	18.04362
884.213	8.01967
884.608	-28.06668
885.003	9.02063
885.398	-5.01205
885.793	30.07238
886.188	7.01683
886.582	24.05812
886.977	-9.02023
887.371	-21.05119
887.766	5.01204
888.16	12.02851
888.554	7.01629
888.949	4.0095
889.343	28.06432
889.737	19.0495
890.131	31.07418
890.525	27.06587
890.918	29.06982
891.312	17.03864
891.706	15.03792
892.099	16.03856
892.492	32.06395
892.886	78.18133
893.279	0
893.672	-23.05619
894.065	-30.07112
894.458	39.09368
894.851	-17.03903
895.244	-19.04687
895.637	21.04817
896.029	49.11461
896.422	15.03464
896.814	30.07167
897.206	-19.04343
897.599	12.02789
897.991	-39.09033
898.383	26.05805
898.775	2.0043
899.167	35.07839
899.559	35.08433
899.951	10.02229
900.342	16.03891
900.734	-40.09658
901.125	0
901.517	-30.07073
901.908	-12.02725
902.299	19.04455
902.69	21.04693
903.082	12.02731
903.473	33.0757
903.863	1.00245
904.254	-30.06665
904.645	-7.01635
905.036	23.05378
905.426	37.07886
905.817	-22.05153
906.207	11.02539
906.597	14.03117
906.987	18.04482
907.378	-41.09968
907.768	-7.0178
908.158	-38.08855
908.547	-56.13842
908.937	13.03193
909.327	-21.04823
909.717	-14.03338
910.106	-68.15533
910.495	54.12707
910.885	17.04102
911.274	6.0143
911.663	1.00242
912.052	-60.14026
912.441	7.01699
912.83	64.14017
913.219	13.03241
913.608	-5.01159
913.997	-5.01212
914.385	42.09377
914.774	50.11596
915.162	14.03184
915.55	-29.0657
915.939	19.04632
916.327	54.12826
916.715	48.11917
917.103	-4.0092
917.491	19.04399
917.878	25.05838
918.266	-12.02978
918.654	5.01231
919.041	-12.0304
919.429	12.02697
919.816	39.09436
920.203	10.02297
920.591	40.09574
920.978	18.04199
921.365	-41.10318
921.752	-32.07227
922.139	3.00609
922.525	23.05333
922.912	-2.00468
923.299	8.0191
923.685	13.03264
924.072	-20.04312
924.458	30.07062
924.844	-11.02609
925.231	14.03097
925.617	24.05908
926.003	10.02436
926.389	2.00482
926.774	-14.03401
927.16	0
927.546	57.1405
927.931	-26.06137
928.317	-6.01291
928.702	19.04211
929.088	-19.04287
929.473	-14.03444
929.858	12.02814
930.243	-11.02529
930.628	-1.00233
931.013	60.14317
931.398	4.00861
931.783	30.07535
932.167	-18.04158
932.552	30.07156
932.937	-3.007
933.321	-26.06278
933.705	39.09447
934.09	22.05235
934.474	-27.06067
934.858	23.05771
935.242	34.07575
935.626	-15.03693
936.009	11.02846
936.393	5.0122
936.777	20.04954
937.16	-1.0025
937.544	-63.14046
937.927	-47.11538
938.311	-54.12375
938.694	18.0456
939.077	-18.04123
939.46	11.02544
939.843	30.05739
940.226	-1.00246
940.609	-49.10684
940.991	-3.00738
941.374	25.05866
941.757	11.02553
942.139	24.05105
942.522	3.00669
942.904	29.0673
943.286	-24.05775
943.668	-14.03502
944.05	35.08219
944.432	-23.05453
944.814	56.13132
945.196	28.06615
945.578	13.02959
945.959	15.03366
946.341	8.01835
946.722	16.03531
947.104	58.1311
947.485	28.06202
947.866	-5.01204
948.247	17.04091
948.628	12.02776
949.009	-7.01739
949.39	18.04262
949.771	6.01298
950.152	6.01406
950.532	11.02645
950.913	20.04589
951.293	1.00262
951.674	-5.01144
952.054	25.05955
952.434	-7.01657
952.814	22.04946
953.194	-24.05978
953.574	-23.05327
953.954	27.06087
954.334	-17.04031
954.714	-1.00234
955.093	24.05577
955.473	-44.1066
955.853	47.11687
956.232	34.09011
956.611	22.04973
956.99	27.06562
957.37	56.13638
957.749	-48.10876
958.128	19.0464
958.506	-37.09271
958.885	34.0828
959.264	-15.03546
959.643	-44.09327
960.021	-16.03808
960.4	40.08653
960.778	-12.0279
961.156	8.01921
961.535	34.07572
961.913	12.02648
962.291	-5.01244
962.669	-26.06349
963.047	-1.00246
963.424	-10.02455
963.802	32.07486
964.18	-20.04796
964.557	8.01685
964.935	-5.01119
965.312	19.04752
965.69	18.04267
966.067	0
966.444	5.01175
966.821	22.05424
967.198	23.05242
967.575	12.0279
967.952	1.00223
968.329	25.05838
968.705	52.10362
969.082	34.08435
969.458	-18.04183
969.835	-6.01389
970.211	32.07973
970.587	32.07606
970.963	27.06633
971.339	15.03768
971.715	1.00237
972.091	45.10563
972.467	9.02131
972.843	-26.06249
973.219	-13.02896
973.594	12.03017
973.97	2.00445
974.345	-14.03213
974.721	-32.07277
975.096	-20.04616
975.471	47.10474
975.846	29.06607
976.221	-22.05374
976.596	-19.04336
976.971	-4.00941
977.346	20.04391
977.72	17.0418
978.095	42.10412
978.469	37.08372
978.844	-9.0213
979.218	1.00231
979.593	41.09262
979.967	-13.03017
980.341	1.00219
980.715	-15.036
981.089	-6.01436
981.463	60.13036
981.837	-1.00235
982.21	-15.03239
982.584	60.13733
982.957	6.0144
983.331	7.01552
983.704	74.17353
984.078	38.0897
984.451	-3.00704
984.824	-13.03038
985.197	16.03661
985.57	16.0385
985.943	35.08228
986.316	-19.04423
986.688	21.04823
987.061	40.08783
987.434	31.07759
987.806	4.00917
988.179	-9.02039
988.551	62.14828
988.923	30.07106
989.295	-8.01911
989.667	-26.06035
990.039	25.05944
990.411	29.06334
990.783	10.02161
991.155	14.03251
991.527	-32.07363
991.898	39.09247
992.27	21.04973
992.641	37.08753
993.012	61.13357
993.384	11.02491
993.755	-17.0417
994.126	60.13678
994.497	13.03056
994.868	35.07515
995.239	-4.00913
995.61	-9.02167
995.98	36.08422
996.351	24.05753
996.722	8.0176
997.092	24.05449
997.462	19.0435
997.833	-1.00224
998.203	27.06144
998.573	16.03851
998.943	32.07109
999.313	4.00914
999.683	30.06947
1000.053	18.03907
1000.423	23.05344
1000.792	-1.00248
1001.162	57.13431
1001.531	-28.06558
1001.901	26.0618
1002.27	-15.03147
1002.639	-22.05404
1003.009	59.13317
1003.378	14.03425
1003.747	47.10613
1004.116	-21.04821
1004.485	5.01147
1004.853	46.11006
1005.222	0
1005.591	17.03774
1005.959	76.16547
1006.328	69.14873
1006.696	50.11661
1007.064	-3.00721
1007.433	-12.02846
1007.801	20.04672
1008.169	25.06076
1008.537	34.0693
1008.905	49.10875
1009.273	-27.0636
1009.64	0
1010.008	71.16045
1010.375	-28.06228
1010.743	14.02973
1011.11	48.10859
1011.478	28.06568
1011.845	19.04224
1012.212	17.03617
1012.579	-9.02114
1012.946	7.01566
1013.313	35.07829
1013.68	-46.09615
1014.047	-18.0412
1014.414	36.08154
1014.78	29.0686
1015.147	43.09781
1015.513	3.00695
1015.88	-3.0073
1016.246	23.05384
1016.612	-14.0302
1016.978	-30.07018
1017.344	9.02103
1017.71	-31.07006
1018.076	17.03757
1018.442	36.08833
1018.808	31.07469
1019.174	49.11726
1019.539	66.13942
1019.905	59.1348
1020.27	53.12542
1020.636	-37.08372
1021.001	42.09613
1021.366	-10.02285
1021.731	40.09742
1022.096	-1.00245
1022.461	21.04713
1022.826	19.04308
1023.191	4.01009
1023.556	51.11276
1023.92	17.03956
1024.285	62.14345
1024.649	-14.0326
1025.014	13.03044
1025.378	4.00966
1025.742	68.16108
1026.107	37.07752
1026.471	29.06264
1026.835	78.1869
1027.199	18.04138
1027.562	68.14975
1027.926	31.07134
1028.29	15.03603
1028.654	-2.00434
1029.017	2.00467
1029.381	27.06228
1029.744	40.09753
1030.107	0
1030.471	76.17207
1030.834	34.07296
1031.197	5.01118
1031.56	17.03795
1031.923	21.05207
1032.286	17.03702
1032.648	38.08589
1033.011	57.12466
1033.374	-33.07217
1033.736	-20.05097
1034.099	-30.06991
1034.461	-15.03707
1034.823	14.03327
1035.185	40.09588
1035.548	-1.00232
1035.91	-2.00454
1036.272	-2.0043
1036.634	6.01378
1036.995	1.00222
1037.357	-31.07205
1037.719	7.01618
1038.08	5.01116
1038.442	72.16321
1038.803	31.07054
1039.165	18.04343
1039.526	-16.03665
1039.887	60.13662
1040.248	-27.06459
1040.609	14.03285
1040.97	52.1217
1041.331	-7.01707
1041.692	3.0067
1042.053	17.03638
1042.413	49.10766
1042.774	18.04133
1043.134	25.05546
1043.495	-3.00717
1043.855	5.01142
1044.215	28.06656
1044.576	11.02525
1044.936	26.05555
1045.296	-25.05925
1045.656	7.01615
1046.016	31.0704
1046.375	14.03244
1046.735	38.08266
1047.095	24.05319
1047.454	-26.0507
1047.814	85.19436
1048.173	-22.04926
1048.533	-11.02408
1048.892	-1.00235
1049.251	18.043
1049.61	-12.02806
1049.969	-32.07207
1050.328	44.08813
1050.687	29.06711
1051.046	52.12036
1051.405	13.03067
1051.763	12.02623
1052.122	8.01917
1052.48	36.08462
1052.839	2.00445
1053.197	17.03782
1053.555	48.10091
1053.914	24.05544
1054.272	53.12109
1054.63	7.01646
1054.988	40.09082
1055.345	2.00404
1055.703	35.07977
1056.061	1.00247
1056.419	13.03252
1056.776	43.0988
1057.134	20.04393
1057.491	12.02884
1057.848	-10.02344
1058.206	-36.07941
1058.563	-22.04586
1058.92	21.04528
1059.277	-33.07779
1059.634	30.06657
1059.991	-33.07311
1060.348	21.04542
1060.704	46.10529
1061.061	41.08864
1061.418	2.0047
1061.774	-9.02127
1062.131	27.06948
1062.487	24.05363
1062.843	9.02155
1063.199	1.00236
1063.555	-15.03333
1063.911	19.04606
1064.267	36.06877
1064.623	-54.12623
1064.979	-44.09673
1065.335	-34.07591
1065.691	-40.0899
1066.046	23.04755
1066.402	57.12328
1066.757	1.00241
1067.112	18.04173
1067.468	2.00455
1067.823	52.11854
1068.178	16.03648
1068.533	6.01386
1068.888	-3.00676
1069.243	-28.06599
1069.598	1.00232
1069.952	5.01075
1070.307	32.07624
1070.662	-43.09737
1071.016	7.01508
1071.371	-19.04095
1071.725	-20.04464
1072.079	74.16965
1072.434	12.02773
1072.788	25.0562
1073.142	-13.02988
1073.496	-38.08596
1073.85	9.01966
1074.203	-9.02063
1074.557	-22.05658
1074.911	-6.01342
1075.265	45.09891
1075.618	20.04629
1075.971	76.17165
1076.325	-32.07831
1076.678	13.02827
1077.031	8.01718
1077.385	2.00411
1077.738	9.0194
1078.091	-10.02187
1078.444	26.05694
1078.796	27.06352
1079.149	51.12111
1079.502	7.01575
1079.855	9.01985
1080.207	38.08813
1080.56	-9.0225
1080.912	2.00461
1081.264	-40.092
1081.617	33.07616
1081.969	6.0146
1082.321	60.13932
1082.673	-9.0195
1083.025	-25.05594
1083.377	-298.62644
1083.728	52.11442
1084.08	-38.09071
1084.432	37.08491
1084.783	25.05472
1085.135	18.04335
1085.486	54.11717
1085.838	41.09575
1086.189	-14.03262
1086.54	19.04259
1086.891	6.01454
1087.242	-12.02773
1087.593	0
1087.944	45.09646
1088.295	69.14508
1088.646	-21.04802
1088.996	-3.00696
1089.347	14.0325
1089.698	-8.01813
1090.048	34.08466
1090.398	36.07788
1090.749	31.07046
1091.099	47.1147
1091.449	34.08104
1091.799	-32.07674
1092.149	-18.04275
1092.499	24.05584
1092.849	-17.04172
1093.199	-27.06444
1093.548	31.07077
1093.898	8.01928
1094.248	38.09258
1094.597	54.1345
1094.947	32.08227
1095.296	59.13941
1095.645	-26.06462
1095.994	-46.1044
1096.343	-50.11926
1096.692	-22.05589
1097.041	41.10912
1097.39	37.08844
1097.739	2.00499
1098.088	-3.00763
1098.437	36.09204
1098.785	80.20839
1099.134	-12.03036
1099.482	-46.12216
1099.83	58.14682
1100.179	36.091
1100.527	41.1055
1100.875	11.02827
1101.223	-4.01026
1101.571	16.04315
1101.919	13.03322
1102.267	7.01935
1102.615	3.00964
1102.962	-9.02888
1103.31	-3.00964
1103.658	-1.00321
