Data from N3 R8 sample 2_Subt2__3__13-42-30-660.txt Node

Date: Mon Sep 22 13:42:30 PDT 2025
User: uwsun
Spectrometer: HDX01956
Trigger mode: 0
Integration Time (sec): 5.000000E-1
Scans to average: 1
Nonlinearity correction enabled: true
Boxcar width: 0
Storing dark spectrum: false
XAxis mode: Wavelengths
Number of Pixels in Spectrum: 2068
>>>>>Begin Spectral Data<<<<<
194.03	62.17879
194.578	66.21295
195.127	61.19457
195.676	68.21677
196.225	111.29038
196.773	58.15897
197.321	115.31705
197.87	166.419
198.418	186.47098
198.966	191.49691
199.513	166.41465
200.061	182.45856
200.609	209.5415
201.156	214.46235
201.704	216.53816
202.251	189.49592
202.798	223.57097
203.345	179.43421
203.892	227.56135
204.438	144.3337
204.985	188.44187
205.532	209.54374
206.078	186.44822
206.624	240.58205
207.17	185.42097
207.716	219.52743
208.262	217.41764
208.808	204.50347
209.354	239.57538
209.899	262.65109
210.445	214.53066
210.99	221.52882
211.535	196.44807
212.08	250.57403
212.625	200.49269
213.17	182.44686
213.715	175.38691
214.259	217.49537
214.804	215.51957
215.348	202.45918
215.892	187.43943
216.436	220.493
216.98	218.47059
217.524	208.48525
218.068	183.44458
218.612	162.39761
219.155	176.40882
219.698	169.39078
220.242	149.36253
220.785	180.41679
221.328	183.44707
221.871	120.29399
222.414	191.45914
222.956	164.38666
223.499	210.46439
224.041	193.43579
224.583	187.39008
225.126	137.29543
225.668	153.36444
226.21	185.45582
226.751	170.36462
227.293	177.39281
227.835	192.45707
228.376	196.43452
228.918	214.52426
229.459	168.41203
230	167.38753
230.541	155.34942
231.082	158.37295
231.622	163.364
232.163	182.43243
232.704	175.42355
233.244	172.41684
233.784	156.37223
234.324	151.32254
234.864	165.36237
235.404	213.49192
235.944	244.5643
236.484	141.33921
237.023	176.40591
237.563	164.36993
238.102	187.42586
238.641	217.53111
239.18	201.46144
239.719	153.3717
240.258	131.28685
240.797	181.42384
241.335	155.37076
241.874	95.17914
242.412	145.34034
242.95	192.4532
243.488	168.37105
244.026	209.47442
244.564	183.36595
245.102	251.54333
245.64	132.30965
246.177	182.39928
246.715	158.36774
247.252	169.37708
247.789	268.46685
248.326	159.37713
248.863	176.37635
249.4	184.40077
249.936	198.39402
250.473	169.38456
251.009	189.42188
251.546	161.34554
252.082	246.52215
252.618	163.35647
253.154	155.36552
253.69	181.3955
254.226	218.50437
254.761	206.44583
255.297	180.38206
255.832	220.5096
256.367	202.46197
256.903	167.35625
257.438	231.53052
257.972	176.37814
258.507	242.54497
259.042	249.52725
259.576	211.43975
260.111	165.36938
260.645	168.35099
261.179	181.41386
261.713	221.48044
262.247	279.6225
262.781	244.498
263.315	210.50317
263.849	165.4022
264.382	193.42956
264.915	238.53904
265.449	187.45123
265.982	224.49204
266.515	219.51583
267.048	143.29193
267.58	164.34506
268.113	174.36256
268.646	259.61903
269.178	248.54819
269.71	206.43343
270.243	198.43163
270.775	196.48248
271.307	186.43359
271.838	186.4259
272.37	280.66832
272.902	202.4439
273.433	186.39497
273.965	234.54676
274.496	203.49316
275.027	244.58908
275.558	198.46646
276.089	241.58941
276.62	218.54354
277.15	201.48079
277.681	184.38646
278.211	241.5705
278.741	224.48147
279.272	219.48864
279.802	259.62871
280.332	180.41514
280.861	223.51747
281.391	225.49288
281.921	208.48525
282.45	261.63047
282.98	189.48104
283.509	277.60268
284.038	198.43383
284.567	206.46334
285.096	279.6492
285.625	218.47664
286.153	258.58457
286.682	249.55373
287.21	205.47853
287.739	184.42267
288.267	250.58826
288.795	256.65419
289.323	207.46969
289.851	223.50065
290.378	216.47367
290.906	263.62522
291.433	219.52863
291.961	252.54981
292.488	224.54162
293.015	199.45355
293.542	231.56369
294.069	269.64145
294.596	226.54151
295.122	228.52038
295.649	275.57848
296.175	269.62618
296.702	170.39691
297.228	259.61121
297.754	179.384
298.28	316.68943
298.806	260.60177
299.332	292.63572
299.857	289.63307
300.383	234.56537
300.908	248.58628
301.433	259.61192
301.958	300.66422
302.483	245.59429
303.008	253.60608
303.533	252.63126
304.058	187.42534
304.582	257.58526
305.107	274.68957
305.631	247.53467
306.155	242.54854
306.679	325.73859
307.203	286.63297
307.727	256.58192
308.251	241.57205
308.775	293.67019
309.298	277.63589
309.822	257.62736
310.345	314.71808
310.868	326.75031
311.391	306.71271
311.914	300.72562
312.437	254.55441
312.96	289.65067
313.482	267.61073
314.005	279.677
314.527	312.78799
315.049	325.7803
315.571	274.59096
316.093	307.72053
316.615	311.72307
317.137	342.71069
317.659	362.83414
318.18	303.69891
318.702	350.76877
319.223	300.58754
319.744	382.80902
320.265	387.89582
320.786	400.93635
321.307	344.81191
321.828	332.71236
322.348	314.70014
322.869	358.8022
323.389	686.11369
323.909	344.74288
324.43	372.8339
324.95	399.8714
325.47	399.93091
325.989	402.89298
326.509	405.84291
327.029	428.90207
327.548	471.99988
328.067	416.94247
328.587	416.96846
329.106	405.86091
329.625	425.02349
330.144	385.83443
330.662	471.03142
331.181	409.88455
331.7	408.88785
332.218	499.98862
332.736	434.94362
333.255	486.03811
333.773	482.06199
334.291	513.17446
334.808	493.01417
335.326	503.04175
335.844	486.05604
336.361	576.34024
336.879	474.01112
337.396	589.29786
337.913	559.1853
338.43	510.04284
338.947	528.13676
339.464	516.02652
339.981	573.23934
340.497	588.32186
341.014	582.29071
341.53	541.1041
342.046	585.3084
342.562	566.27443
343.078	603.27262
343.594	568.22982
344.11	678.4408
344.626	580.31876
345.141	621.26192
345.657	625.25735
346.172	630.36076
346.687	674.37445
347.202	599.18947
347.717	694.48763
348.232	650.4381
348.747	671.36863
349.261	658.27188
349.776	726.49537
350.29	718.58868
350.805	737.59109
351.319	669.38555
351.833	646.2928
352.347	711.48379
352.861	651.33981
353.374	704.39865
353.888	683.46498
354.401	747.48869
354.915	702.37199
355.428	745.62757
355.941	839.66686
356.454	741.43431
356.967	770.56123
357.48	802.59437
357.993	730.55613
358.505	811.72856
359.018	795.65708
359.53	819.71847
360.042	838.58645
360.554	779.6158
361.066	842.76172
361.578	828.54079
362.09	850.7103
362.602	809.52512
363.113	914.7752
363.625	869.63283
364.136	897.62613
364.647	917.82625
365.158	968.88469
365.669	890.78677
366.18	958.89078
366.691	982.78645
367.201	900.78862
367.712	976.83023
368.222	985.82585
368.733	983.75083
369.243	1026.85161
369.753	996.88704
370.263	976.91646
370.773	942.92599
371.282	954.853
371.792	1086.00763
372.301	1085.1268
372.811	1161.44969
373.32	1145.92627
373.829	1182.18892
374.338	1247.13153
374.847	1238.21372
375.356	1309.39558
375.865	1357.17065
376.373	1398.38537
376.882	1359.58302
377.39	1436.56543
377.898	1417.625
378.407	1560.45262
378.915	1648.438
379.423	1689.76137
379.93	1820.69624
380.438	1793.92181
380.946	1899.86308
381.453	1967.01537
381.96	2118.09528
382.468	2232.03278
382.975	2328.21358
383.482	2323.82806
383.989	2415.56048
384.495	2507.97209
385.002	2735.5797
385.509	2778.1759
386.015	2943.27279
386.521	3152.8085
387.028	3376.87276
387.534	3348.57681
388.04	3493.99214
388.546	3569.72368
389.051	3738.47603
389.557	4056.75652
390.063	4312.29929
390.568	4437.5896
391.073	4520.0984
391.578	4849.55567
392.084	5038.96097
392.589	5049.53911
393.093	5560.84933
393.598	6128.37472
394.103	6716.58851
394.607	7273.58367
395.112	7823.97883
395.616	8313.353
396.12	8911.19253
396.624	9756.2021
397.128	10561.83447
397.632	11677.01737
398.136	12593.00946
398.639	13636.35029
399.143	15296.5714
399.646	17303.97761
400.15	18801.07343
400.653	21295.21498
401.156	24068.18325
401.659	27853.48481
402.162	34154.20153
402.664	45885.94828
403.167	60353.96969
403.67	60395.17756
404.172	52566.9044
404.674	31176.06428
405.176	3757.7064
405.678	27.69154
406.18	0
406.682	0
407.184	45159.96023
407.686	58897.86778
408.187	61455.21265
408.688	62150.63916
409.19	62552.06205
409.691	59253.36273
410.192	50207.91816
410.693	44060.35066
411.194	40289.98279
411.694	38554.28369
412.195	35502.07198
412.696	32230.15556
413.196	30502.62896
413.696	30407.28719
414.196	30894.07678
414.696	29788.17317
415.196	28405.99761
415.696	24723.19771
416.196	19373.30116
416.695	15382.73152
417.195	13665.37245
417.694	12952.9398
418.194	12184.1471
418.693	11499.4124
419.192	11158.50293
419.691	10865.19403
420.19	10564.81631
420.688	10301.81895
421.187	9916.98285
421.685	9206.81242
422.184	8195.12397
422.682	6961.04975
423.18	6024.47564
423.678	5390.75117
424.176	5043.83888
424.674	4735.8528
425.172	4476.43375
425.669	4277.99307
426.167	3884.61341
426.664	3596.70338
427.161	3322.86167
427.659	3030.17006
428.156	2950.46628
428.652	2793.47837
429.149	2629.2413
429.646	2537.70274
430.143	2386.11372
430.639	2233.96233
431.135	2076.14225
431.632	2009.72336
432.128	1814.77255
432.624	1756.03144
433.12	1786.56616
433.616	1675.29873
434.111	1601.56011
434.607	1566.58049
435.103	1499.09069
435.598	1405.89674
436.093	1305.2051
436.588	1326.09141
437.083	1204.95541
437.578	1270.12199
438.073	1159.22537
438.568	1101.0511
439.062	1082.7289
439.557	1057.91982
440.051	1000.77248
440.546	1026.86574
441.04	993.89094
441.534	924.89767
442.028	912.71671
442.522	841.63982
443.015	907.5636
443.509	900.76788
444.002	834.66115
444.496	868.53478
444.989	837.67061
445.482	797.65684
445.975	824.53561
446.468	829.43486
446.961	740.29301
447.454	796.47893
447.947	673.33045
448.439	704.43181
448.931	744.3794
449.424	703.47162
449.916	663.33392
450.408	622.17518
450.9	644.33757
451.392	618.32455
451.884	597.1364
452.375	593.25367
452.867	571.08207
453.358	589.13964
453.849	575.03081
454.341	561.0807
454.832	599.07063
455.323	556.17097
455.814	520.03257
456.304	546.07067
456.795	536.04607
457.285	512.97052
457.776	531.0174
458.266	510.04426
458.756	529.11036
459.247	497.02517
459.737	472.97994
460.226	547.06632
460.716	441.91579
461.206	510.0551
461.695	427.94043
462.185	402.84021
462.674	418.8446
463.163	504.97168
463.653	445.80626
464.142	383.81557
464.63	389.83806
465.119	438.90692
465.608	370.75927
466.096	413.79871
466.585	374.75327
467.073	390.82777
467.561	398.85285
468.05	430.89315
468.538	378.81909
469.026	389.8341
469.513	380.73225
470.001	412.84393
470.489	333.71219
470.976	313.65261
471.463	308.68506
471.951	351.78441
472.438	324.6898
472.925	329.70394
473.412	349.77382
473.899	269.55913
474.385	265.59004
474.872	312.67291
475.359	283.6309
475.845	297.55483
476.331	310.61201
476.817	244.54768
477.303	312.66829
477.789	295.65138
478.275	237.54844
478.761	265.58368
479.247	236.48255
479.732	228.52918
480.218	269.64808
480.703	295.6764
481.188	213.42061
481.673	215.45486
482.158	189.3818
482.643	224.52606
483.128	187.3958
483.612	227.4939
484.097	193.43704
484.581	191.40815
485.066	163.36625
485.55	194.39127
486.034	179.36144
486.518	157.34799
487.002	211.48905
487.486	186.42572
487.969	181.41852
488.453	213.50462
488.936	221.46735
489.42	156.32013
489.903	198.46918
490.386	176.37618
490.869	131.26877
491.352	178.41118
491.835	195.37114
492.318	134.28765
492.8	150.28945
493.283	110.26599
493.765	129.30255
494.247	100.21892
494.73	119.24823
495.212	84.19026
495.694	123.27377
496.175	112.25594
496.657	133.2943
497.139	108.17334
497.62	71.16209
498.102	90.21409
498.583	73.17469
499.064	128.27122
499.545	125.27175
500.026	105.22438
500.507	96.21088
500.988	110.25663
501.469	97.23442
501.949	90.21203
502.43	125.28548
502.91	76.14962
503.39	46.10976
503.87	93.2106
504.35	36.07965
504.83	88.1854
505.31	36.08379
505.79	87.19893
506.269	73.1614
506.749	73.16154
507.228	52.11701
507.707	108.22704
508.187	62.13963
508.666	57.13499
509.145	16.03571
509.623	47.10539
510.102	19.04369
510.581	50.11417
511.059	36.08649
511.538	3.00737
512.016	17.03843
512.494	55.12779
512.972	-23.05274
513.45	43.09737
513.928	57.1317
514.406	33.07679
514.884	6.01481
515.361	21.04779
515.839	106.23098
516.316	73.16719
516.793	72.17345
517.27	68.15577
517.747	75.18501
518.224	75.16326
518.701	68.14308
519.178	47.11131
519.654	1.00226
520.131	61.14352
520.607	47.11079
521.083	22.04806
521.56	35.07942
522.036	78.16144
522.512	-7.01653
522.987	107.24191
523.463	36.08144
523.939	29.06764
524.414	-2.00437
524.89	96.21682
525.365	7.01506
525.84	45.10294
526.315	54.12365
526.79	-8.01717
527.265	13.02821
527.74	61.14234
528.215	32.07162
528.689	-44.09303
529.164	12.02457
529.638	14.03462
530.112	17.03862
530.587	-22.04549
531.061	-36.08326
531.534	-14.03242
532.008	13.02994
532.482	8.01744
532.956	-12.02943
533.429	-37.0862
533.903	-27.05687
534.376	-51.10813
534.849	-35.07751
535.322	-30.06742
535.795	-73.17008
536.268	28.06445
536.741	-26.0597
537.213	-19.04159
537.686	-45.10567
538.158	-45.09845
538.631	-55.12809
539.103	-58.12633
539.575	-30.0587
540.047	-41.08518
540.519	-42.09474
540.991	-12.02795
541.463	-2.00468
541.934	-28.06107
542.406	-41.09337
542.877	7.01544
543.348	-60.13833
543.82	-40.09431
544.291	11.02454
544.762	-70.15939
545.233	-3.00719
545.703	-60.12813
546.174	20.04441
546.645	2.00466
547.115	4.00931
547.585	6.01322
548.056	-30.07043
548.526	47.10587
548.996	24.05471
549.466	19.04458
549.935	-10.02301
550.405	-28.05938
550.875	29.06532
551.344	1.0023
551.814	11.02408
552.283	32.06605
552.752	75.16582
553.221	69.14457
553.69	62.13212
554.159	26.06159
554.628	25.05375
555.096	75.18112
555.565	-21.04462
556.033	8.01794
556.502	-8.01849
556.97	-47.09983
557.438	-11.02478
557.906	-71.15999
558.374	-1.00222
558.842	-31.07108
559.31	-26.05497
559.777	5.01177
560.245	-37.08211
560.712	-35.07771
561.18	-37.07828
561.647	2.00432
562.114	-46.10224
562.581	6.01415
563.048	-64.14088
563.514	-46.10846
563.981	8.01733
564.448	34.07425
564.914	-41.09133
565.381	-39.08493
565.847	-50.11205
566.313	-73.16315
566.779	-33.0715
567.245	-31.06997
567.711	-9.02094
568.176	-93.20141
568.642	-7.01687
569.108	-74.17657
569.573	-89.20056
570.038	-44.08805
570.504	-49.10625
570.969	-32.07741
571.434	-45.09541
571.899	-36.08147
572.363	4.00876
572.828	-47.10231
573.293	-35.07696
573.757	-30.06548
574.222	-79.17058
574.686	-26.05678
575.15	-42.09602
575.614	-23.05041
576.078	-17.03857
576.542	-76.16638
577.006	-24.05216
577.469	-48.11269
577.933	-66.14131
578.396	-23.05234
578.86	-73.16369
579.323	-24.05491
579.786	-44.09078
580.249	-101.22219
580.712	-6.0141
581.175	-39.09186
581.637	-86.18764
582.1	-74.15344
582.563	-68.1369
583.025	-80.18767
583.487	-62.1205
583.95	-63.13142
584.412	-11.02206
584.874	-125.28893
585.336	-56.12828
585.797	-20.04117
586.259	-86.19201
586.721	-49.1097
587.182	-104.2272
587.643	-77.1654
588.105	-40.09019
588.566	-28.05517
589.027	-35.08084
589.488	-73.15755
589.949	-17.03892
590.41	7.01299
590.87	-94.20535
591.331	-64.13021
591.791	-44.09629
592.252	-37.0804
592.712	1.00227
593.172	-29.06111
593.632	22.04456
594.092	15.03147
594.552	3.00599
595.011	-62.1343
595.471	-56.11637
595.931	6.01256
596.39	30.06704
596.849	-6.01304
597.308	27.05424
597.768	15.0359
598.227	60.13529
598.685	55.11702
599.144	69.15147
599.603	14.03035
600.062	126.24337
600.52	100.20577
600.978	114.2462
601.437	138.28076
601.895	129.24995
602.353	121.23961
602.811	85.16998
603.269	124.26802
603.727	154.33515
604.184	238.48355
604.642	198.4287
605.099	254.51959
605.557	215.46521
606.014	249.473
606.471	301.66491
606.928	284.54225
607.385	327.71992
607.842	336.66178
608.299	360.71606
608.755	356.75001
609.212	392.74847
609.668	371.7082
610.125	443.91132
610.581	438.87446
611.037	428.81444
611.493	415.83373
611.949	463.95847
612.405	480.79351
612.861	475.93006
613.316	499.99416
613.772	488.93722
614.227	545.06997
614.683	519.90928
615.138	432.86648
615.593	605.17737
616.048	486.93068
616.503	544.12054
616.958	494.06526
617.412	501.01538
617.867	482.89314
618.321	493.82926
618.776	441.81572
619.23	427.861
619.684	438.81685
620.138	423.81766
620.592	418.8721
621.046	414.82884
621.5	488.01266
621.954	364.6886
622.407	376.71026
622.861	417.88603
623.314	299.57629
623.768	368.74084
624.221	378.64877
624.674	354.70052
625.127	322.6572
625.58	315.61472
626.033	342.64191
626.485	331.70148
626.938	309.65143
627.39	284.57911
627.843	285.57494
628.295	251.51753
628.747	246.51645
629.199	255.51253
629.651	275.56038
630.103	276.56408
630.555	263.4896
631.006	257.538
631.458	235.50283
631.909	183.3668
632.361	186.39032
632.812	211.44464
633.263	173.33456
633.714	157.30289
634.165	191.41717
634.616	151.32967
635.067	205.40804
635.518	178.38145
635.968	187.33342
636.419	87.17268
636.869	145.31523
637.319	141.2987
637.769	152.31178
638.219	120.26049
638.669	110.24559
639.119	155.34828
639.569	167.37508
640.019	94.19935
640.468	139.28802
640.918	154.34226
641.367	90.18503
641.816	74.15337
642.265	133.2852
642.714	111.23617
643.163	126.26873
643.612	153.349
644.061	114.22929
644.51	171.36336
644.958	114.23299
645.406	137.30328
645.855	76.17361
646.303	127.2728
646.751	80.17003
647.199	167.3496
647.647	112.2425
648.095	128.27513
648.543	102.19087
648.99	111.25054
649.438	122.26381
649.885	98.22926
650.333	109.19283
650.78	122.277
651.227	89.20269
651.674	139.29498
652.121	133.30289
652.568	90.2065
653.015	81.1902
653.461	158.35407
653.908	99.21486
654.354	60.13341
654.801	164.36343
655.247	129.26275
655.693	133.32904
656.139	115.26285
656.585	93.2076
657.031	42.09397
657.477	91.18594
657.922	113.24514
658.368	92.21227
658.813	144.31099
659.259	76.17305
659.704	129.28486
660.149	114.25031
660.594	59.13214
661.039	90.19478
661.484	41.0919
661.929	154.33885
662.373	95.22967
662.818	22.05169
663.262	136.31154
663.707	134.32402
664.151	55.12713
664.595	87.20141
665.039	58.13585
665.483	71.17288
665.927	129.28641
666.371	142.31559
666.814	89.20014
667.258	106.24067
667.701	94.18828
668.145	104.24359
668.588	84.19697
669.031	100.22686
669.474	92.211
669.917	81.16979
670.36	91.2156
670.803	135.30371
671.245	21.04147
671.688	99.23101
672.13	146.3099
672.573	92.22112
673.015	122.27655
673.457	133.27497
673.899	146.3296
674.341	107.24653
674.783	105.24222
675.225	96.22414
675.666	96.22071
676.108	153.31646
676.549	153.34336
676.991	131.27339
677.432	141.26718
677.873	129.28247
678.314	144.32588
678.755	116.26828
679.196	149.32489
679.637	181.41436
680.078	79.17299
680.518	120.26315
680.959	138.3118
681.399	160.37797
681.839	122.28227
682.28	204.47816
682.72	185.39687
683.16	186.43819
683.6	138.29522
684.039	123.23855
684.479	129.30184
684.919	182.40147
685.358	119.2827
685.798	198.49601
686.237	124.28154
686.676	168.3527
687.115	217.47816
687.554	196.43687
687.993	175.36066
688.432	169.35989
688.871	172.36716
689.309	255.5666
689.748	172.32648
690.186	227.50041
690.625	224.49286
691.063	160.35767
691.501	148.34175
691.939	200.46897
692.377	247.56249
692.815	269.60217
693.253	200.4432
693.69	184.37332
694.128	214.48153
694.565	234.52415
695.003	221.5268
695.44	232.50982
695.877	241.52258
696.314	276.53183
696.751	284.59622
697.188	295.6241
697.625	243.50238
698.061	289.64161
698.498	295.6552
698.934	261.57752
699.371	288.62302
699.807	294.63056
700.243	307.67845
700.679	311.63374
701.115	353.73502
701.551	316.67452
701.987	302.6035
702.422	373.81049
702.858	364.77933
703.294	402.81004
703.729	366.80965
704.164	347.7601
704.599	441.85736
705.035	419.83788
705.47	401.88059
705.904	381.79861
706.339	369.76081
706.774	418.87016
707.209	449.91826
707.643	463.99189
708.078	515.11941
708.512	443.0103
708.946	484.01999
709.38	492.01597
709.814	440.87111
710.248	517.11184
710.682	486.01119
711.116	531.13808
711.549	480.09814
711.983	536.06638
712.416	559.12902
712.85	538.15286
713.283	585.18216
713.716	595.27492
714.149	589.18318
714.582	589.09994
715.015	658.40978
715.448	591.26906
715.881	620.10968
716.313	606.19527
716.746	577.16437
717.178	655.32627
717.61	705.49792
718.043	688.44241
718.475	710.45058
718.907	720.51488
719.339	742.39415
719.77	677.34712
720.202	779.65385
720.634	801.61419
721.065	810.54754
721.497	779.55039
721.928	795.62262
722.359	827.63918
722.79	849.66483
723.221	837.73775
723.652	854.78763
724.083	849.53659
724.514	902.65221
724.945	914.72469
725.375	964.79172
725.806	870.74417
726.236	923.92154
726.666	948.76367
727.096	937.81519
727.526	936.91802
727.956	909.60037
728.386	1034.96867
728.816	1020.069
729.246	992.88766
729.675	963.88603
730.105	1041.97005
730.534	1027.80495
730.964	1027.02232
731.393	1098.08731
731.822	1047.06756
732.251	1145.2331
732.68	1117.95851
733.109	1097.07382
733.537	1132.08464
733.966	1112.10787
734.395	1091.86294
734.823	1144.85231
735.251	1140.07958
735.68	1178.17826
736.108	1200.30813
736.536	1151.98152
736.964	1200.04043
737.392	1217.28905
737.82	1252.20229
738.247	1118.97509
738.675	1157.99612
739.102	1116.12469
739.53	1140.23013
739.957	1125.20434
740.384	1217.18548
740.811	1274.34936
741.238	1163.11156
741.665	1241.10429
742.092	1142.97692
742.519	1243.28917
742.945	1234.17725
743.372	1193.1957
743.798	1231.38088
744.225	1298.25518
744.651	1142.14603
745.077	1179.22603
745.503	1245.1939
745.929	1251.17144
746.355	1236.20223
746.781	1192.20204
747.207	1184.06705
747.632	1267.26636
748.058	1169.15032
748.483	1195.9597
748.908	1152.19446
749.334	1201.1808
749.759	1157.99506
750.184	1230.15669
750.609	1185.16683
751.033	1188.01993
751.458	1200.89674
751.883	1195.23223
752.307	1159.01846
752.732	1159.24451
753.156	1250.28781
753.58	1148.97267
754.005	1172.22083
754.429	1201.04269
754.853	1142.12823
755.277	1187.0577
755.7	1151.12976
756.124	1186.22786
756.548	1184.07462
756.971	1165.09069
757.394	1171.33227
757.818	1144.31463
758.241	1115.16116
758.664	1168.26573
759.087	1136.8785
759.51	1143.11281
759.933	1112.0375
760.356	1184.32942
760.778	1154.13797
761.201	1151.09286
761.623	1163.12114
762.046	1101.92735
762.468	1097.92735
762.89	1139.13046
763.312	1078.96053
763.734	1115.03127
764.156	1101.08645
764.578	1085.87049
765	1075.97824
765.421	1085.16568
765.843	1060.17364
766.264	1026.87986
766.686	1073.08647
767.107	1021.89366
767.528	1033.05315
767.949	1094.15604
768.37	1022.95142
768.791	980.84766
769.212	947.90787
769.632	1013.81462
770.053	1090.25326
770.473	973.83488
770.894	1081.09313
771.314	958.71806
771.734	961.72213
772.154	977.98905
772.575	983.73011
772.994	963.70541
773.414	1002.85605
773.834	946.86271
774.254	895.71475
774.673	969.85051
775.093	970.93147
775.512	872.70477
775.931	857.74455
776.351	869.73615
776.77	955.87386
777.189	917.72741
777.607	905.85737
778.026	876.76994
778.445	809.67584
778.864	870.80271
779.282	829.61562
779.701	805.66681
780.119	816.67568
780.537	792.64388
780.955	800.66493
781.373	771.55651
781.791	730.32784
782.209	687.26877
782.627	746.65615
783.045	777.44679
783.462	754.59552
783.88	765.65722
784.297	699.48193
784.715	699.53215
785.132	678.37698
785.549	725.52174
785.966	690.45679
786.383	649.35725
786.8	659.25587
787.217	651.28208
787.633	648.38953
788.05	606.15944
788.466	667.29208
788.883	640.41772
789.299	648.32016
789.715	590.22145
790.131	566.20199
790.547	576.22911
790.963	614.31031
791.379	558.23639
791.795	500.96351
792.21	527.05064
792.626	524.06474
793.041	520.12526
793.457	520.11135
793.872	558.13035
794.287	524.0996
794.702	468.00521
795.117	504.10358
795.532	446.99769
795.947	451.91817
796.362	479.97828
796.776	484.95374
797.191	435.93755
797.605	411.86339
798.02	402.86588
798.434	391.74348
798.848	410.90659
799.262	376.84668
799.676	365.77387
800.09	371.81232
800.504	344.74447
800.918	299.62203
801.331	384.90067
801.745	312.63736
802.158	317.7175
802.572	292.63545
802.985	279.6011
803.398	315.67545
803.811	338.78289
804.224	291.64981
804.637	291.6361
805.05	283.58403
805.462	291.64981
805.875	249.60308
806.288	216.48025
806.7	242.55834
807.112	231.48828
807.525	185.41585
807.937	299.68694
808.349	247.56703
808.761	267.60311
809.173	182.40785
809.584	182.41322
809.996	198.45592
810.408	207.5025
810.819	161.35269
811.231	228.5629
811.642	262.59701
812.053	262.58566
812.464	302.66837
812.875	158.37512
813.286	185.44674
813.697	167.35037
814.108	145.33102
814.519	113.23131
814.929	194.46413
815.34	166.37383
815.75	147.35377
816.16	160.36916
816.571	129.31656
816.981	177.38495
817.391	129.29366
817.801	124.29179
818.211	152.33333
818.62	95.21346
819.03	86.19938
819.44	75.18521
819.849	139.33173
820.259	93.22433
820.668	82.18882
821.077	90.21278
821.486	138.30785
821.895	173.39701
822.304	114.2858
822.713	58.1296
823.122	95.22438
823.531	65.14437
823.939	59.13567
824.348	136.31229
824.756	79.18637
825.164	126.2965
825.573	92.21919
825.981	111.26074
826.389	70.16453
826.797	73.17302
827.205	100.21707
827.612	102.23637
828.02	80.17913
828.428	95.22941
828.835	38.09612
829.243	47.10543
829.65	78.18519
830.057	67.1545
830.464	99.23038
830.871	62.13762
831.278	28.0644
831.685	85.17628
832.092	117.27054
832.499	42.08537
832.905	5.01202
833.312	31.06584
833.718	85.20146
834.124	111.23833
834.531	60.14317
834.937	-14.03435
835.343	26.05879
835.749	42.09113
836.155	42.10488
836.561	69.16221
836.966	20.046
837.372	45.10916
837.777	91.21651
838.183	36.07451
838.588	66.15809
838.993	75.17219
839.399	13.03042
839.804	-4.00946
840.209	-18.04385
840.613	8.01668
841.018	10.02414
841.423	9.02199
841.828	70.16971
842.232	89.20735
842.637	32.0721
843.041	25.06178
843.445	50.12131
843.849	28.06674
844.253	36.08131
844.657	39.09486
845.061	-19.04087
845.465	-9.02073
845.869	22.04859
846.272	13.03065
846.676	9.02079
847.079	4.00983
847.483	11.02581
847.886	4.0091
848.289	6.01554
848.692	18.04395
849.095	50.11454
849.498	16.03799
849.901	39.08482
850.304	5.01133
850.707	4.00975
851.109	6.01445
851.512	-2.00469
851.914	48.11773
852.316	-5.01212
852.718	-22.05565
853.121	25.05834
853.523	-27.06007
853.925	46.11727
854.326	-3.00724
854.728	15.03741
855.13	26.06537
855.531	43.09856
855.933	42.09579
856.334	-14.03355
856.736	0
857.137	49.10861
857.538	16.03905
857.939	17.04028
858.34	58.13345
858.741	17.04264
859.142	11.02519
859.542	33.08414
859.943	27.06439
860.343	-12.02861
860.744	55.12799
861.144	47.11015
861.544	35.08193
861.945	49.11976
862.345	-12.02815
862.745	36.08577
863.145	-41.09186
863.544	31.07475
863.944	-19.04289
864.344	74.17454
864.743	67.15604
865.143	-2.00493
865.542	-3.00663
865.941	16.03764
866.34	8.01808
866.74	-18.04647
867.139	77.17748
867.537	7.01704
867.936	-20.04589
868.335	48.11686
868.734	14.0345
869.132	-20.04384
869.531	32.07345
869.929	43.09328
870.327	53.12124
870.726	-4.00941
871.124	2.00437
871.522	21.05157
871.92	-29.06762
872.318	2.00466
872.715	42.09822
873.113	13.0302
873.511	24.05749
873.908	9.02215
874.306	-10.024
874.703	-11.02625
875.1	-13.0318
875.497	-1.00229
875.894	-20.04738
876.291	9.02098
876.688	44.10979
877.085	-23.05221
877.482	12.0286
877.878	23.0531
878.275	-2.00488
878.671	20.04149
879.068	24.05502
879.464	4.00918
879.86	43.09828
880.256	-26.06085
880.652	31.07591
881.048	17.04011
881.444	-22.04973
881.84	23.05619
882.236	13.03126
882.631	-2.00465
883.027	4.00912
883.422	9.02232
883.817	-15.03658
884.213	-29.0718
884.608	12.02836
885.003	-6.01379
885.398	11.02642
885.793	31.07478
886.188	22.05274
886.582	19.04606
886.977	-3.00674
887.371	20.04838
887.766	-25.06053
888.16	22.05217
888.554	-3.00699
888.949	0
889.343	11.02536
889.737	18.0469
890.131	20.04796
890.525	6.01469
890.918	25.06024
891.312	38.086
891.706	-13.03303
892.099	-4.00968
892.492	-35.07103
892.886	8.01885
893.279	26.06339
893.672	-27.06601
894.065	-20.04732
894.458	12.02897
894.851	1.00229
895.244	15.03677
895.637	21.04817
896.029	53.12387
896.422	-6.01392
896.814	48.11427
897.206	-17.03884
897.599	5.01164
897.991	-22.05078
898.383	34.07579
898.775	0
899.167	4.00902
899.559	33.07954
899.951	32.071
900.342	-6.01465
900.734	-36.08685
901.125	-44.11067
901.517	17.03972
901.908	34.07648
902.299	19.04455
902.69	0
903.082	-20.04582
903.473	4.00923
903.863	-1.00245
904.254	7.01543
904.645	-33.07749
905.036	15.03513
905.426	22.04704
905.817	-13.03039
906.207	-6.01389
906.597	9.02006
906.987	-12.03004
907.378	-16.03872
907.768	-3.00762
908.158	-11.0255
908.547	-41.10106
908.937	18.04416
909.327	-26.05977
909.717	0
910.106	-43.09773
910.495	14.0332
910.885	12.02898
911.274	0
911.663	11.02662
912.052	-21.04871
912.441	-20.0488
912.83	57.12502
913.219	6.01498
913.608	-8.01855
913.997	8.01935
914.385	-16.03615
914.774	47.10907
915.162	2.00456
915.55	-54.12295
915.939	20.04874
916.327	33.0787
916.715	38.09451
917.103	3.00689
917.491	5.01161
917.878	27.06303
918.266	-28.06969
918.654	25.06131
919.041	-19.04819
919.429	3.00675
919.816	26.06306
920.203	-1.0023
920.591	78.18533
920.978	10.02337
921.365	-49.12349
921.752	-24.05412
922.139	-3.0061
922.525	37.08556
922.912	15.03499
923.299	33.07843
923.685	6.01509
924.072	-48.10411
924.458	-3.00711
924.844	-16.03799
925.231	6.0133
925.617	34.08355
926.003	1.00244
926.389	7.01687
926.774	2.00484
927.16	25.05886
927.546	25.06199
927.931	9.0211
928.317	4.00859
928.702	19.04211
929.088	-18.0406
929.473	35.08532
929.858	-42.09953
930.243	30.06842
930.628	-40.09387
931.013	33.07915
931.398	-6.01294
931.783	25.06285
932.167	-20.04622
932.552	4.00959
932.937	10.02328
933.321	-13.03131
933.705	23.05588
934.09	-8.01915
934.474	-29.06519
934.858	35.08764
935.242	41.09122
935.626	-23.05671
936.009	2.00518
936.393	39.09454
936.777	29.07172
937.16	28.06967
937.544	3.0066
937.927	26.06297
938.311	18.04065
938.694	39.09843
939.077	-16.03664
939.46	9.02082
939.843	4.0077
940.226	-16.03953
940.609	-40.08705
940.991	19.04652
941.374	23.05399
941.757	-18.04201
942.139	5.01068
942.522	6.01336
942.904	75.17246
943.286	-14.03362
943.668	-7.01749
944.05	33.07752
944.432	32.07507
944.814	50.11738
945.196	42.09895
945.578	-19.04353
945.959	4.009
946.341	3.00689
946.722	-6.0133
947.104	42.09524
947.485	31.06863
947.866	-19.04588
948.247	-6.0145
948.628	51.11709
949.009	-5.01242
949.39	25.05912
949.771	-12.02606
950.152	-3.00704
950.532	7.01685
950.913	-4.00922
951.293	4.01048
951.674	-17.039
952.054	20.04769
952.434	5.0118
952.814	6.01353
953.194	-20.04978
953.574	-3.00692
953.954	62.13877
954.334	24.05645
954.714	18.04199
955.093	-3.00701
955.473	16.03832
955.853	38.09465
956.232	29.07692
956.611	19.04297
956.99	44.1066
957.37	31.07585
957.749	-31.07
958.128	70.16933
958.506	17.04218
958.885	22.0537
959.264	22.05163
959.643	-38.08045
960.021	-13.03092
960.4	27.05857
960.778	-28.0653
961.156	3.00721
961.535	48.10659
961.913	2.00442
962.291	13.03223
962.669	13.03151
963.047	-8.01967
963.424	-8.01964
963.802	5.01176
964.18	26.0618
964.557	-19.04025
964.935	26.05783
965.312	27.06743
965.69	8.019
966.067	13.02988
966.444	28.06548
966.821	-27.06717
967.198	5.01144
967.575	20.04642
967.952	14.03108
968.329	37.0862
968.705	20.04015
969.082	58.14326
969.458	17.03923
969.835	-2.00463
970.211	24.05989
970.587	36.08551
970.963	13.03202
971.339	0
971.715	32.07551
972.091	40.09398
972.467	-7.01662
972.843	5.01195
973.219	-28.06257
973.594	-2.00504
973.97	22.04873
974.345	8.01828
974.721	7.01579
975.096	-28.06473
975.471	-4.00901
975.846	16.03655
976.221	-41.1005
976.596	-7.01594
976.971	14.03282
977.346	8.01761
977.72	51.1246
978.095	27.06712
978.469	21.04767
978.844	10.02358
979.218	-15.03474
979.593	21.04763
979.967	17.03922
980.341	8.01751
980.715	6.01434
981.089	-29.06969
981.463	9.01977
981.837	1.00235
982.21	-22.04757
982.584	28.0645
982.957	-11.02649
983.331	-10.02225
983.704	50.1178
984.078	33.07797
984.451	-10.02349
984.824	-16.03742
985.197	6.01376
985.57	51.1219
985.943	30.0706
986.316	13.03007
986.688	28.06422
987.061	-6.0133
987.434	8.02011
987.806	-2.00459
988.179	2.00452
988.551	16.0386
988.923	73.17148
989.295	-2.00477
989.667	-16.03706
990.039	-2.00478
990.411	4.00878
990.783	14.03022
991.155	4.00931
991.527	-29.06669
991.898	42.09953
992.27	17.04029
992.641	-10.02387
993.012	35.07706
993.384	-40.09152
993.755	-13.03187
994.126	15.03451
994.497	33.07728
994.868	15.03235
995.239	-3.00685
995.61	-28.06766
995.98	59.1374
996.351	29.06945
996.722	3.00661
997.092	4.00912
997.462	51.11601
997.833	-16.0359
998.203	12.02739
998.573	47.11247
998.943	30.06668
999.313	29.06596
999.683	63.14493
1000.053	18.03907
1000.423	52.12012
1000.792	5.01238
1001.162	2.00476
1001.531	-40.09391
1001.901	23.0547
1002.27	0
1002.639	-4.00979
1003.009	45.10186
1003.378	10.02448
1003.747	90.20144
1004.116	20.04554
1004.485	42.09559
1004.853	19.04569
1005.222	-35.08462
1005.591	4.0089
1005.959	53.11596
1006.328	46.09964
1006.696	59.13735
1007.064	-7.01683
1007.433	-41.09778
1007.801	35.08151
1008.169	28.06801
1008.537	-22.04541
1008.905	48.10655
1009.273	21.049
1009.64	-33.07564
1010.008	23.05249
1010.375	-20.04441
1010.743	33.06979
1011.11	19.04324
1011.478	37.08664
1011.845	23.05109
1012.212	-14.02999
1012.579	-13.03056
1012.946	18.04017
1013.313	73.16201
1013.68	-55.11519
1014.047	2.00456
1014.414	8.01822
1014.78	-5.01191
1015.147	49.11132
1015.513	33.07597
1015.88	23.05569
1016.246	44.10257
1016.612	27.05772
1016.978	15.03478
1017.344	-27.06352
1017.71	2.00449
1018.076	7.0155
1018.442	21.05167
1018.808	52.12479
1019.174	22.05292
1019.539	99.20761
1019.905	93.21103
1020.27	-10.02395
1020.636	-14.03153
1021.001	75.17053
1021.366	26.05898
1021.731	-9.02212
1022.096	21.05125
1022.461	6.01351
1022.826	41.09254
1023.191	42.10518
1023.556	49.10838
1023.92	1.00233
1024.285	32.07448
1024.649	-7.01628
1025.014	13.03044
1025.378	26.06254
1025.742	43.10235
1026.107	3.00633
1026.471	-17.03708
1026.835	70.16799
1027.199	-32.0743
1027.562	63.13888
1027.926	14.03233
1028.29	-2.00482
1028.654	23.0496
1029.017	1.00233
1029.381	-1.00232
1029.744	7.01717
1030.107	5.01105
1030.471	55.12505
1030.834	49.1048
1031.197	-5.0112
1031.56	15.0335
1031.923	3.00746
1032.286	-10.0219
1032.648	44.09933
1033.011	45.09866
1033.374	-11.02394
1033.736	-18.04586
1034.099	-24.05586
1034.461	30.07353
1034.823	4.00952
1035.185	-2.00483
1035.548	2.00464
1035.91	-2.00454
1036.272	-14.03014
1036.634	-21.0485
1036.995	-27.06037
1037.357	-1.00231
1037.719	-4.00927
1038.08	8.01785
1038.442	17.03897
1038.803	42.09536
1039.165	6.01451
1039.526	6.01368
1039.887	15.03446
1040.248	-15.0358
1040.609	26.06087
1040.97	44.10314
1041.331	1.00243
1041.692	-24.05394
1042.053	-6.0129
1042.413	57.12502
1042.774	21.04819
1043.134	0
1043.495	-11.02633
1043.855	-16.03671
1044.215	13.03099
1044.576	44.10035
1044.936	51.10837
1045.296	9.02119
1045.656	-30.06974
1046.016	31.0704
1046.375	62.14231
1046.735	46.0999
1047.095	-2.00446
1047.454	21.04049
1047.814	27.06246
1048.173	-41.09216
1048.533	-2.00437
1048.892	14.03274
1049.251	35.08334
1049.61	-48.11304
1049.969	39.08655
1050.328	21.04229
1050.687	-5.01165
1051.046	47.1089
1051.405	-22.05225
1051.763	31.06748
1052.122	-7.01682
1052.48	54.12648
1052.839	-14.03127
1053.197	5.01115
1053.555	10.0212
1053.914	18.04163
1054.272	86.19518
1054.63	25.05859
1054.988	17.03878
1055.345	25.05029
1055.703	64.14502
1056.061	-14.03469
1056.419	24.05991
1056.776	67.1532
1057.134	42.09183
1057.491	53.12639
1057.848	-15.03519
1058.206	2.00438
1058.563	-23.04796
1058.92	19.04099
1059.277	22.05131
1059.634	20.04447
1059.991	-22.04863
1060.348	18.03896
1060.704	55.12566
1061.061	16.03478
1061.418	33.07713
1061.774	13.03059
1062.131	-7.01812
1062.487	35.07803
1062.843	52.12351
1063.199	-24.057
1063.555	10.02211
1063.911	20.04847
1064.267	59.11207
1064.623	-48.11207
1064.979	-55.1212
1065.335	-26.05795
1065.691	-42.09443
1066.046	46.09461
1066.402	75.16159
1066.757	43.10282
1067.112	12.02785
1067.468	20.0453
1067.823	56.12756
1068.178	-49.11317
1068.533	24.05524
1068.888	16.0359
1069.243	-31.07311
1069.598	-16.0373
1069.952	2.0043
1070.307	-11.02642
1070.662	-15.03377
1071.016	26.05579
1071.371	25.05338
1071.725	-65.14641
1072.079	17.03942
1072.434	-23.05352
1072.788	10.02255
1073.142	-23.05297
1073.496	-19.04282
1073.85	21.04575
1074.203	1.00229
1074.557	-22.05658
1074.911	-5.01118
1075.265	47.10326
1075.618	53.12187
1075.971	34.07745
1076.325	-1.00243
1076.678	7.01524
1077.031	16.0343
1077.385	1.00206
1077.738	54.11527
1078.091	4.00872
1078.444	58.12617
1078.796	31.07288
1079.149	8.01915
1079.502	-11.02485
1079.855	0
1080.207	-21.04927
1080.56	17.0423
1080.912	-34.07892
1081.264	27.06127
1081.617	-11.02561
1081.969	-7.01707
1082.321	19.04448
1082.673	4.00864
1083.025	-34.07623
1083.377	-253.52657
1083.728	43.09479
1084.08	-9.02136
1084.432	7.01616
1084.783	26.0569
1085.135	6.01448
1085.486	10.0219
1085.838	-5.01178
1086.189	27.06241
1086.54	23.05151
1086.891	1.00242
1087.242	-7.01616
1087.593	-14.03195
1087.944	23.04953
1088.295	13.02767
1088.646	-50.115
1088.996	-33.077
1089.347	47.10838
1089.698	-4.00906
1090.048	24.05987
1090.398	16.03476
1090.749	48.10872
1091.099	49.11954
1091.449	0
1091.799	13.03091
1092.149	-6.01422
1092.499	34.07895
1092.849	-6.01469
1093.199	-5.01188
1093.548	-34.07864
1093.898	53.12664
1094.248	8.0196
1094.597	23.05761
1094.947	35.08994
1095.296	43.10192
1095.645	-25.06212
1095.994	-21.04742
1096.343	-49.11685
1096.692	-39.09937
1097.041	78.20631
1097.39	9.02163
1097.739	3.00748
1098.088	19.04816
1098.437	22.05638
1098.785	53.1387
1099.134	4.01009
1099.482	-6.01583
1099.83	59.14933
1100.179	-32.08187
1100.527	36.09272
1100.875	10.0257
1101.223	13.03324
1101.571	7.01891
1101.919	-45.11616
1102.267	28.07716
1102.615	8.0257
1102.962	-3.00962
1103.31	2.00642
1103.658	2.00642
