Data from N3 R8 sample 4_Subt2__3__13-56-07-141.txt Node

Date: Mon Sep 22 13:56:07 PDT 2025
User: uwsun
Spectrometer: HDX01956
Trigger mode: 0
Integration Time (sec): 5.000000E-1
Scans to average: 1
Nonlinearity correction enabled: true
Boxcar width: 0
Storing dark spectrum: false
XAxis mode: Wavelengths
Number of Pixels in Spectrum: 2068
>>>>>Begin Spectral Data<<<<<
194.03	76.21871
194.578	77.24812
195.127	89.28292
195.676	80.25465
196.225	116.3032
196.773	69.18879
197.321	128.35216
197.87	176.44344
198.418	234.58744
198.966	231.59683
199.513	189.47013
200.061	204.51196
200.609	218.56393
201.156	190.41261
201.704	230.57158
202.251	234.60929
202.798	216.55373
203.345	206.49716
203.892	217.53761
204.438	154.35617
204.985	230.53614
205.532	195.50854
206.078	202.4853
206.624	246.59593
207.17	240.54003
207.716	253.60538
208.262	210.40485
208.808	221.54371
209.354	232.55927
209.899	277.68648
210.445	316.76891
210.99	242.57674
211.535	235.533
212.08	287.6541
212.625	221.54231
213.17	187.45871
213.715	191.42088
214.259	232.52801
214.804	253.607
215.348	237.53492
215.892	244.56698
216.436	229.51222
216.98	258.55216
217.524	231.53646
218.068	172.41872
218.612	187.45685
219.155	246.56349
219.698	164.37959
220.242	153.37198
220.785	206.47453
221.328	223.54072
221.871	172.41731
222.414	151.36574
222.956	172.40489
223.499	202.44745
224.041	199.44879
224.583	168.35192
225.126	156.33502
225.668	226.53076
226.21	212.51974
226.751	200.42618
227.293	190.42052
227.835	172.41103
228.376	230.50628
228.918	234.57112
229.459	188.45937
230	164.3808
230.541	164.36903
231.082	164.38666
231.622	179.3984
232.163	186.44159
232.704	184.44458
233.244	199.47982
233.784	180.42752
234.324	178.37798
234.864	184.40248
235.404	229.52719
235.944	246.56869
236.484	150.36024
237.023	199.45685
237.563	231.51392
238.102	172.39289
238.641	203.49814
239.18	182.41941
239.719	153.3717
240.258	175.37963
240.797	228.52897
241.335	198.46972
241.874	173.31997
242.412	186.43307
242.95	216.50747
243.488	185.40714
244.026	236.53277
244.564	242.47731
245.102	199.43556
245.64	153.35744
246.177	216.47047
246.715	196.45276
247.252	181.40285
247.789	252.44083
248.326	225.52686
248.863	226.47803
249.4	141.30992
249.936	207.41106
250.473	234.52545
251.009	233.51536
251.546	257.54014
252.082	218.46555
252.618	204.44226
253.154	185.43372
253.69	210.45604
254.226	234.53967
254.761	215.46441
255.297	133.2852
255.832	243.56031
256.367	220.50131
256.903	170.36241
257.438	261.59581
257.972	156.33661
258.507	249.55993
259.042	273.57503
259.576	201.41984
260.111	205.45513
260.645	200.41488
261.179	194.44243
261.713	230.49905
262.247	256.5739
262.781	241.49221
263.315	224.53528
263.849	219.52843
264.382	258.56648
264.915	243.5498
265.449	206.49528
265.982	250.54614
266.515	255.5964
267.048	211.42409
267.58	216.44927
268.113	191.39647
268.646	220.52974
269.178	278.61064
269.71	252.52484
270.243	166.36433
270.775	206.50616
271.307	204.47386
271.838	218.49595
272.37	245.5887
272.902	249.54177
273.433	222.46771
273.965	207.48624
274.496	231.55823
275.027	264.63495
275.558	231.5407
276.089	266.64751
276.62	219.54593
277.15	234.55618
277.681	250.51743
278.211	256.60425
278.741	224.48147
279.272	288.6334
279.802	248.60325
280.332	227.51862
280.861	177.41447
281.391	230.5033
281.921	268.61782
282.45	236.57278
282.98	247.62219
283.509	254.55535
284.038	207.45269
284.567	258.5741
285.096	285.66237
285.625	184.4052
286.153	268.60599
286.682	307.67448
287.21	242.56078
287.739	202.46234
288.267	277.64836
288.795	291.73903
289.323	207.46969
289.851	229.51348
290.378	271.58738
290.906	308.72584
291.433	223.53788
291.961	308.664
292.488	308.73288
293.015	279.62559
293.542	254.61715
294.069	299.70887
294.596	290.68635
295.122	246.55942
295.649	230.48862
296.175	270.62838
296.702	226.52184
297.228	292.68466
297.754	207.44139
298.28	293.64237
298.806	309.70821
299.332	379.80986
299.857	301.65768
300.383	232.56075
300.908	278.65337
301.433	325.758
301.958	291.64551
302.483	302.72467
303.008	317.75009
303.533	311.77072
304.058	266.59534
304.582	294.6645
305.107	284.71345
305.631	319.67989
306.155	316.70548
306.679	360.81232
307.203	320.70318
307.727	322.72214
308.251	335.7807
308.775	339.76822
309.298	315.71761
309.822	306.74013
310.345	383.86367
310.868	323.74385
311.391	326.7563
311.914	367.87641
312.437	332.71266
312.96	374.82735
313.482	330.74524
314.005	347.8312
314.527	359.89904
315.049	368.87628
315.571	359.76015
316.093	352.81886
316.615	403.91989
317.137	375.77353
317.659	376.86398
318.18	366.8336
318.702	383.8354
319.223	375.72139
319.744	414.87065
320.265	377.87441
320.786	409.95573
321.307	421.97874
321.828	373.79324
322.348	382.83975
322.869	400.88854
323.389	442.7676
323.909	414.88062
324.43	397.88536
324.95	471.01101
325.47	441.01826
325.989	446.98164
326.509	445.91791
327.029	481.0001
327.548	460.97887
328.067	447.00426
328.587	468.07621
329.106	477.99805
329.625	461.10281
330.144	483.023
330.662	494.07664
331.181	510.07724
331.7	476.01891
332.218	478.95166
332.736	523.11367
333.255	486.03811
333.773	516.12895
334.291	519.18679
334.808	572.15611
335.326	565.15421
335.844	566.2093
336.361	579.34643
336.879	579.20746
337.396	600.31909
337.913	663.37433
338.43	584.17447
338.947	554.18618
339.464	630.22058
339.981	615.3184
340.497	633.41006
341.014	673.46458
341.53	560.13803
342.046	636.40768
342.562	646.43103
343.078	679.40942
343.594	634.35363
344.11	698.47692
344.626	698.54953
345.141	680.36346
345.657	732.43679
346.172	716.51834
346.687	746.49668
347.202	654.28226
347.717	793.66387
348.232	741.6086
348.747	817.6118
349.261	771.45052
349.776	738.51603
350.29	788.71831
350.805	799.70223
351.319	862.70904
351.833	803.54933
352.347	837.6984
352.861	807.60321
353.374	803.55895
353.888	829.72266
354.401	825.61466
354.915	842.59171
355.428	888.88174
355.941	879.73022
356.454	922.70842
356.967	843.68104
357.48	878.7149
357.993	891.83354
358.505	882.85116
359.018	938.89361
359.53	1006.02297
360.042	975.78488
360.554	945.88816
361.066	947.93578
361.578	928.68459
362.09	909.80443
362.602	997.79412
363.113	1036.95438
363.625	984.79732
364.136	989.75157
364.647	1067.05027
365.158	1093.06423
365.669	1023.99145
366.18	1089.08265
366.691	1031.85262
367.201	1043.00309
367.712	1097.99667
368.222	1043.90582
368.733	1094.89355
369.243	1136.99349
369.753	1147.09291
370.263	1149.16396
370.773	1136.22021
371.282	1191.18329
371.792	1214.17397
372.301	1246.35117
372.811	1215.53365
373.32	1271.06549
373.829	1318.35977
374.338	1345.24013
374.847	1407.40911
375.356	1382.48366
375.865	1537.33696
376.373	1579.56722
376.882	1535.79548
377.39	1493.62906
377.898	1689.92276
378.407	1753.60875
378.915	1802.54667
379.423	1929.95178
379.93	1955.78347
380.438	1958.04913
380.946	2182.02723
381.453	2265.18593
381.96	2309.18955
382.468	2457.11276
382.975	2629.30769
383.482	2675.88884
383.989	2653.6503
384.495	2767.00248
385.002	2952.55678
385.509	3170.16334
386.015	3373.14258
386.521	3550.69672
387.028	3753.74281
387.534	3784.40851
388.04	3860.85877
388.546	4079.50111
389.051	4194.25321
389.557	4492.53078
390.063	4848.99781
390.568	4949.30232
391.073	5151.74452
391.578	5467.21298
392.084	5762.60085
392.589	5733.2198
393.093	6202.59929
393.598	6822.30629
394.103	7447.72091
394.607	8139.15957
395.112	8626.82753
395.616	9186.77664
396.12	9896.66011
396.624	10971.60101
397.128	11721.14397
397.632	13284.39803
398.136	14343.94852
398.639	15110.69932
399.143	16984.17259
399.646	19152.23235
400.15	21034.55361
400.653	23255.65845
401.156	26307.70204
401.659	30632.19007
402.162	37455.67694
402.664	49139.70026
403.167	60681.20138
403.67	60395.17756
404.172	52566.9044
404.674	31176.06428
405.176	3757.7064
405.678	27.69154
406.18	0
406.682	0
407.184	45159.96023
407.686	58897.86778
408.187	61455.21265
408.688	62150.63916
409.19	62552.06205
409.691	62894.53372
410.192	58582.2052
410.693	51066.18027
411.194	46350.69815
411.694	44135.4426
412.195	41034.26948
412.696	36956.14925
413.196	34489.95181
413.696	34318.73434
414.196	34943.28674
414.696	34329.05723
415.196	32687.26823
415.696	29395.34157
416.196	23492.56855
416.695	18154.47651
417.195	15666.12777
417.694	14932.60895
418.194	14125.25615
418.693	13141.9003
419.192	12746.67322
419.691	12458.77012
420.19	12203.82104
420.688	11977.36519
421.187	11511.04474
421.685	10564.95347
422.184	9528.58162
422.682	8141.91974
423.18	6899.37366
423.678	6192.43497
424.176	5656.53194
424.674	5308.54182
425.172	5179.03882
425.669	4920.6437
426.167	4476.30939
426.664	4253.40018
427.161	3898.65319
427.659	3537.07457
428.156	3363.35585
428.652	3115.49509
429.149	3022.27032
429.646	2853.70486
430.143	2783.19463
430.639	2623.06901
431.135	2440.32073
431.632	2290.83965
432.128	2273.03236
432.624	2139.33476
433.12	2061.72238
433.616	1895.42556
434.111	1864.76741
434.607	1799.78054
435.103	1695.2229
435.598	1655.05886
436.093	1643.53079
436.588	1536.28128
437.083	1482.22401
437.578	1419.27698
438.073	1339.46169
438.568	1274.2737
439.062	1308.95914
439.557	1294.21052
440.051	1197.01407
440.546	1230.12193
441.04	1194.16313
441.534	1211.32657
442.028	1085.95687
442.522	1067.97034
443.015	1113.81553
443.509	1073.02143
444.002	1004.92162
444.496	1027.74204
444.989	986.90072
445.482	1002.9888
445.975	993.77415
446.468	954.59735
446.961	957.5784
447.454	993.75595
447.947	919.71342
448.439	916.77403
448.931	867.55888
449.424	801.64079
449.916	889.69668
450.408	753.37774
450.9	862.70427
451.392	814.67157
451.884	776.41384
452.375	741.51639
452.867	776.39813
453.358	796.465
453.849	718.24064
454.341	791.44086
454.832	670.17596
455.323	733.48443
455.814	686.31027
456.304	696.3172
456.795	695.30601
457.285	699.2633
457.776	689.27057
458.266	692.35944
458.756	692.40098
459.247	600.20948
459.737	653.29929
460.226	650.23659
460.716	583.17057
461.206	588.19557
461.695	587.24747
462.185	617.22641
462.674	634.21604
463.163	588.1092
463.653	512.91187
464.142	562.14833
464.63	571.1802
465.119	570.14364
465.608	577.12704
466.096	540.011
466.585	496.97096
467.073	504.04126
467.561	532.10512
468.05	538.08877
468.538	477.00983
469.026	517.07605
469.513	570.04678
470.001	548.08625
470.489	491.01231
470.976	441.89332
471.463	419.91043
471.951	433.95124
472.438	441.91497
472.925	454.94509
473.412	427.93136
473.899	385.77953
474.385	365.79581
474.872	444.93045
475.359	401.87207
475.845	385.70358
476.331	393.76076
476.817	372.81296
477.303	422.88239
477.789	390.844
478.275	363.81892
478.761	339.73506
479.247	343.68431
479.732	330.75041
480.218	339.80585
480.703	366.8272
481.188	297.57492
481.673	327.67483
482.158	287.56673
482.643	285.66133
483.128	265.5513
483.612	316.67452
484.097	296.65619
484.581	296.61812
485.066	244.53912
485.55	246.49022
486.034	254.50404
486.518	272.58841
487.002	247.5684
487.486	252.56912
487.969	219.50256
488.453	289.67458
488.936	233.49143
489.42	217.43917
489.903	227.53487
490.386	287.59867
490.869	250.49912
491.352	240.54754
491.835	236.44469
492.318	184.39073
492.8	233.44066
493.283	214.50728
493.765	221.50898
494.247	185.39773
494.73	198.40577
495.212	149.33301
495.694	176.38742
496.175	218.48751
496.657	154.33928
497.139	179.28151
497.62	131.29544
498.102	205.47684
498.583	159.37422
499.064	132.27945
499.545	210.44827
500.026	139.29485
500.507	146.31733
500.988	135.3134
501.469	157.37512
501.949	154.35829
502.43	128.29215
502.91	177.34016
503.39	110.25925
503.87	157.35089
504.35	108.23534
504.83	161.33375
505.31	139.31694
505.79	102.23253
506.269	111.24347
506.749	140.30546
507.228	109.2424
507.707	149.3104
508.187	137.30379
508.666	125.29214
509.145	48.10642
509.623	110.24346
510.102	94.21291
510.581	128.28767
511.059	61.14586
511.538	86.20811
512.016	90.20044
512.494	120.27522
512.972	32.07257
513.45	71.15986
513.928	91.20883
514.406	93.21385
514.884	47.11517
515.361	74.16658
515.839	139.30077
516.316	49.11276
516.793	28.06801
517.27	52.1195
517.747	76.18744
518.224	14.03087
518.701	102.21301
519.178	30.07128
519.654	43.09634
520.131	31.07336
520.607	75.17584
521.083	14.03064
521.56	50.11311
522.036	84.17363
522.512	39.09126
522.987	91.2064
523.463	47.10609
523.939	32.0746
524.414	57.12313
524.89	73.16564
525.365	-25.05414
525.84	43.0984
526.315	34.07817
526.79	28.05961
527.265	11.02388
527.74	59.13773
528.215	40.08938
528.689	-20.04206
529.164	40.08138
529.638	67.16405
530.112	44.09942
530.587	57.11578
531.061	-35.08093
531.534	27.06201
532.008	53.12109
532.482	-8.0175
532.956	10.02443
533.429	25.05753
533.903	25.05206
534.376	23.04798
534.849	-10.02203
535.322	-17.0381
535.795	-7.0161
536.268	50.11458
536.741	-10.02289
537.213	8.01741
537.686	5.01163
538.158	-6.01302
538.631	-8.01846
539.103	25.05349
539.575	7.01358
540.047	-4.00824
540.519	37.08211
540.991	-16.0373
541.463	69.15904
541.934	-29.06326
542.406	-40.09108
542.877	66.14382
543.348	-16.03656
543.82	63.14556
544.291	62.13688
544.762	2.00449
545.233	17.0406
545.703	14.02942
546.174	-19.04254
546.645	53.12212
547.115	52.11984
547.585	15.033
548.056	3.007
548.526	34.07679
548.996	20.04563
549.466	69.16031
549.935	44.10014
550.405	61.12685
550.875	32.07204
551.344	-3.00691
551.814	49.10639
552.283	56.11497
552.752	39.08688
553.221	109.22636
553.69	76.16146
554.159	100.23348
554.628	82.17413
555.096	71.17159
555.565	20.04212
556.033	28.06252
556.502	7.01613
556.97	-14.02952
557.438	-24.0542
557.906	-51.11446
558.374	-3.00667
558.842	19.04313
559.31	-43.09125
559.777	5.01177
560.245	1.0022
560.712	-32.071
561.18	-30.06337
561.647	47.10066
562.114	-26.05755
562.581	-8.01891
563.048	-52.11418
563.514	-18.04221
563.981	-98.21708
564.448	52.11312
564.914	-7.01548
565.381	-2.00432
565.847	-10.02223
566.313	-54.12022
566.779	-4.00861
567.245	-34.07679
567.711	24.05549
568.176	-46.09862
568.642	-26.06287
569.108	-37.08766
569.573	-50.11177
570.038	-22.0438
570.504	-46.09968
570.969	-31.07498
571.434	-48.10184
571.899	-22.04965
572.363	-23.05064
572.828	-35.07599
573.293	-33.07254
573.757	-52.11403
574.222	-56.12032
574.686	-23.05019
575.15	-79.18195
575.614	-7.01529
576.078	-6.01358
576.542	-60.13091
577.006	-13.02819
577.469	-4.00931
577.933	-96.20688
578.396	-4.00907
578.86	-67.15005
579.323	-19.04343
579.786	-19.03898
580.249	-46.10003
580.712	-19.04475
581.175	-73.17309
581.637	-85.18542
582.1	-64.13241
582.563	-80.1615
583.025	-38.08841
583.487	-14.0269
583.95	-51.1061
584.412	29.05762
584.874	-76.17396
585.336	-11.02497
585.797	-37.07646
586.259	-32.07065
586.721	-65.14599
587.182	-33.07101
587.643	-47.10031
588.105	-41.09247
588.566	-37.07306
589.027	6.01374
589.488	-73.15755
589.949	3.00684
590.41	42.07727
590.87	-21.04517
591.331	28.05577
591.791	-34.07425
592.252	22.04721
592.712	11.02491
593.172	21.04377
593.632	37.07468
594.092	37.07725
594.552	20.03974
595.011	22.0468
595.471	37.07529
595.931	79.16274
596.39	50.11126
596.849	76.1623
597.308	114.22442
597.768	110.25845
598.227	160.35338
598.685	165.34266
599.144	216.45948
599.603	172.3603
600.062	229.4314
600.52	201.40418
600.978	230.48435
601.437	236.46942
601.895	285.53162
602.353	275.52494
602.811	292.5559
603.269	330.68178
603.727	404.83241
604.184	451.87179
604.642	414.85493
605.099	443.8674
605.557	491.9996
606.014	517.91816
606.471	533.11827
606.928	596.05073
607.385	668.36343
607.842	685.23731
608.299	716.30496
608.755	680.32892
609.212	807.38559
609.668	754.30508
610.125	878.62835
610.581	893.59425
611.037	867.47382
611.493	912.62198
611.949	950.75168
612.405	916.33362
612.861	991.70432
613.316	905.63235
613.772	994.67726
614.227	965.70984
614.683	1014.54822
615.138	969.70274
615.593	1072.85829
616.048	996.67337
616.503	986.83179
616.958	1026.96285
617.412	1040.85215
617.867	956.56325
618.321	999.452
618.776	945.52929
619.23	967.70808
619.684	910.49937
620.138	879.51359
620.592	884.65252
621.046	836.50955
621.5	880.66853
621.954	748.28164
622.407	806.36211
622.861	830.60341
623.314	734.26634
623.768	701.30179
624.221	747.15566
624.674	678.23869
625.127	719.33395
625.58	648.16348
626.033	623.08728
626.485	647.27479
626.938	678.31186
627.39	632.18537
627.843	565.06494
628.295	570.08939
628.747	524.03084
629.199	541.01412
629.651	525.00734
630.103	481.93736
630.555	459.813
631.006	496.98336
631.458	456.92898
631.909	345.6656
632.361	380.76324
632.812	413.83163
633.263	394.72166
633.714	421.76082
634.165	320.6798
634.616	359.74918
635.067	318.6163
635.518	347.71642
635.968	324.55726
636.419	295.5571
636.869	308.64632
637.319	328.6664
637.769	281.55958
638.219	279.58508
638.669	303.64944
639.119	288.62941
639.569	302.65945
640.019	227.46741
640.468	230.46687
640.918	282.61004
641.367	209.41813
641.816	201.40474
642.265	231.48485
642.714	177.37119
643.163	206.43171
643.612	227.51005
644.061	200.39429
644.51	238.49833
644.958	192.38546
645.406	185.40543
645.855	198.44115
646.303	181.38427
646.751	148.30989
647.199	214.44332
647.647	170.36352
648.095	215.45346
648.543	160.29511
648.99	192.42618
649.438	169.36177
649.885	231.52627
650.333	188.32575
650.78	192.42973
651.227	148.33303
651.674	192.40273
652.121	145.32942
652.568	175.39467
653.015	146.33847
653.461	218.48248
653.908	182.388
654.354	116.25492
654.801	226.49434
655.247	210.41984
655.693	177.43435
656.139	207.46435
656.585	148.32661
657.031	105.23186
657.477	147.29655
657.922	183.39106
658.368	155.35313
658.813	167.35888
659.259	134.30152
659.704	185.40372
660.149	146.31841
660.594	136.29975
661.039	199.42064
661.484	147.32229
661.929	162.35585
662.373	131.31455
662.818	93.21548
663.262	130.29815
663.707	179.42915
664.151	111.25371
664.595	158.36062
665.039	126.29118
665.483	162.38773
665.927	194.42489
666.371	161.35641
666.814	145.32233
667.258	145.32661
667.701	193.37771
668.145	144.33463
668.588	188.43186
669.031	201.44662
669.474	142.3224
669.917	195.39845
670.36	181.42135
670.803	151.33859
671.245	112.21644
671.688	187.42879
672.13	176.37113
672.573	151.35885
673.015	169.37942
673.457	212.43053
673.899	169.37973
674.341	173.39334
674.783	196.44392
675.225	190.4354
675.666	207.4653
676.108	282.56641
676.549	207.45938
676.991	279.5631
677.432	268.49209
677.873	214.46017
678.314	233.51772
678.755	232.52417
679.196	252.53745
679.637	241.54505
680.078	213.45319
680.518	238.50892
680.959	210.46749
681.399	246.57141
681.839	261.58715
682.28	289.66609
682.72	246.52078
683.16	299.68886
683.6	225.47226
684.039	241.45423
684.479	261.59485
684.919	334.71325
685.358	263.60739
685.798	343.83662
686.237	282.61969
686.676	311.63229
687.115	351.75166
687.554	308.67055
687.993	329.65455
688.432	319.65714
688.871	355.72767
689.309	351.76432
689.748	354.64217
690.186	380.81077
690.625	447.93735
691.063	356.76352
691.501	411.89912
691.939	393.88658
692.377	410.90281
692.815	477.01996
693.253	446.93753
693.69	444.84736
694.128	395.85573
694.565	514.08285
695.003	491.10736
695.44	539.10599
695.877	507.03506
696.314	499.91012
696.751	598.16676
697.188	546.08985
697.625	584.1135
698.061	628.29385
698.498	638.3139
698.934	622.27056
699.371	714.40207
699.807	627.24632
700.243	705.42636
700.679	648.21782
701.115	673.29999
701.551	748.44546
701.987	704.27462
702.422	817.60577
702.858	797.54508
703.294	823.497
703.729	867.71537
704.164	898.73664
704.599	847.48706
705.035	866.55191
705.47	900.76705
705.904	954.74591
706.339	982.7459
706.774	1032.8549
707.209	1026.82433
707.643	1033.93969
708.078	1091.08248
708.512	1151.25117
708.946	1203.13936
709.38	1159.03963
709.814	1176.93106
710.248	1248.26588
710.682	1248.16223
711.116	1356.39472
711.549	1330.52472
711.983	1355.1919
712.416	1409.30152
712.85	1443.496
713.283	1432.34259
713.716	1477.56989
714.149	1561.44931
714.582	1571.24391
715.015	1639.77938
715.448	1620.71987
715.881	1698.23061
716.313	1779.574
716.746	1789.63616
717.178	1821.73245
717.61	1858.97817
718.043	1974.99636
718.475	2019.94206
718.907	2027.07303
719.339	2067.67877
719.77	2131.86725
720.202	2170.25294
720.634	2308.11339
721.065	2373.91768
721.497	2341.04983
721.928	2416.20398
722.359	2448.11439
722.79	2535.11111
723.221	2657.39849
723.652	2673.46289
724.083	2784.77589
724.514	2785.88791
724.945	2932.03666
725.375	2938.02225
725.806	2896.28746
726.236	3024.55839
726.666	3069.99648
727.096	3113.18263
727.526	3304.46772
727.956	3226.65553
728.386	3396.16502
728.816	3431.50255
729.246	3465.08985
729.675	3491.20484
730.105	3589.08801
730.534	3580.68323
730.964	3762.2443
731.393	3751.13966
731.822	3812.27141
732.251	3866.31396
732.68	4021.60109
733.109	4011.00079
733.537	4101.85646
733.966	4138.97919
734.395	4240.31604
734.823	4319.07979
735.251	4219.75573
735.68	4272.86136
736.108	4492.01975
736.536	4361.3755
736.964	4449.33279
737.392	4436.93519
737.82	4562.5267
738.247	4466.41087
738.675	4668.22399
739.102	4655.74211
739.53	4599.97999
739.957	4701.91192
740.384	4733.49771
740.811	4746.73007
741.238	4792.44969
741.665	4766.19669
742.092	4709.19791
742.519	4812.63908
742.945	4747.41406
743.372	4821.55674
743.798	4839.91109
744.225	4874.34778
744.651	4794.62246
745.077	4773.71789
745.503	4886.34387
745.929	4701.37362
746.355	4740.47623
746.781	4791.59447
747.207	4716.30199
747.632	4702.56501
748.058	4669.60411
748.483	4835.91929
748.908	4785.72613
749.334	4758.5246
749.759	4737.18202
750.184	4794.34686
750.609	4729.55862
751.033	4804.11574
751.458	4731.80634
751.883	4695.71981
752.307	4629.30273
752.732	4749.86096
753.156	4707.67146
753.58	4720.16064
754.005	4624.81295
754.429	4576.26468
754.853	4589.68689
755.277	4682.287
755.7	4606.64806
756.124	4618.78343
756.548	4591.39255
756.971	4465.5686
757.394	4615.13648
757.818	4630.19308
758.241	4562.90369
758.664	4556.99113
759.087	4549.04354
759.51	4459.711
759.933	4486.60044
760.356	4503.13485
760.778	4396.77384
761.201	4525.59063
761.623	4418.68362
762.046	4360.39564
762.468	4389.39388
762.89	4411.80096
763.312	4313.59877
763.734	4388.62465
764.156	4354.85426
764.578	4265.34397
765	4194.72275
765.421	4166.24694
765.843	4148.39448
766.264	4098.67741
766.686	4133.08045
767.107	4012.78003
767.528	4020.20913
767.949	4060.22673
768.37	4012.9488
768.791	3833.89484
769.212	3873.22592
769.632	3760.69165
770.053	3875.59904
770.473	3699.93918
770.894	3721.23337
771.314	3588.69329
771.734	3612.68432
772.154	3555.43437
772.575	3555.64318
772.994	3505.6662
773.414	3535.93707
773.834	3407.23335
774.254	3315.03872
774.673	3277.12311
775.093	3211.36053
775.512	3118.14992
775.931	3130.34814
776.351	3118.26161
776.77	3002.27828
777.189	3010.02682
777.607	2884.45102
778.026	2881.33421
778.445	2760.37378
778.864	2780.44846
779.282	2737.09089
779.701	2638.34516
780.119	2515.28567
780.537	2527.31492
780.955	2468.31782
781.373	2415.1293
781.791	2340.63444
782.209	2331.65005
782.627	2334.51866
783.045	2286.75696
783.462	2175.21762
783.88	2120.29808
784.297	2138.15328
784.715	2066.25296
785.132	1971.86212
785.549	1993.04529
785.966	1949.00808
786.383	1898.90111
786.8	1864.55423
787.217	1737.57381
787.633	1721.8513
788.05	1603.34993
788.466	1669.48208
788.883	1694.93836
789.299	1666.62698
789.715	1490.47452
790.131	1422.464
790.547	1480.5476
790.963	1457.54814
791.379	1442.61166
791.795	1268.99916
792.21	1300.13469
792.626	1339.22401
793.041	1257.2955
793.457	1249.25229
793.872	1238.1234
794.287	1177.11769
794.702	1116.06531
795.117	1086.08737
795.532	1055.06012
795.947	963.73191
796.362	1057.87622
796.776	1036.7777
797.191	965.84197
797.605	957.76769
798.02	893.71914
798.434	885.48106
798.848	878.7497
799.262	863.74723
799.676	770.48662
800.09	762.52882
800.504	810.57667
800.918	685.30108
801.331	738.60853
801.745	702.30591
802.158	682.42667
802.572	648.3016
802.985	628.24976
803.398	633.26236
803.811	608.33054
804.224	535.13236
804.637	609.23974
805.05	550.06531
805.462	556.17149
805.875	512.17616
806.288	501.04593
806.7	479.05073
807.112	439.88561
807.525	435.92749
807.937	488.07658
808.349	415.92051
808.761	451.98036
809.173	375.80686
809.584	389.84597
809.996	357.79584
810.408	367.864
810.819	339.71467
811.231	368.88501
811.642	421.92838
812.053	408.88446
812.464	479.01894
812.875	301.69485
813.286	294.69527
813.697	294.5995
814.108	344.75369
814.519	253.50147
814.929	310.72516
815.34	273.6013
815.75	260.61226
816.16	254.57504
816.571	239.57451
816.981	267.56956
817.391	244.5425
817.801	229.52782
818.211	197.4279
818.62	213.46699
819.03	225.50721
819.44	208.50104
819.849	189.44673
820.259	194.45899
820.668	141.32085
821.077	189.43824
821.486	196.43198
821.895	173.39701
822.304	180.44587
822.713	162.35421
823.122	152.35503
823.531	146.31882
823.939	134.3035
824.348	164.37447
824.756	124.28997
825.164	126.2965
825.573	139.32817
825.981	193.44609
826.389	100.23367
826.797	123.28871
827.205	134.28877
827.612	121.27935
828.02	120.26648
828.428	104.25072
828.835	98.24524
829.243	115.25437
829.65	93.22017
830.057	103.2358
830.464	104.24177
830.871	65.14419
831.278	105.23777
831.685	103.21276
832.092	85.1978
832.499	100.20057
832.905	76.18023
833.312	84.17635
833.718	128.30085
834.124	121.25924
834.531	86.20418
834.937	76.18336
835.343	34.07676
835.749	39.08468
836.155	56.13948
836.561	78.18305
836.966	36.08253
837.372	68.16424
837.777	65.15543
838.183	67.13771
838.588	115.27288
838.993	88.2015
839.399	71.16424
839.804	89.20678
840.209	-52.12749
840.613	33.06841
841.018	63.15053
841.423	17.04147
841.828	54.13131
842.232	46.10808
842.637	49.11001
843.041	38.09368
843.445	103.24742
843.849	35.08331
844.253	71.15921
844.657	72.17404
845.061	31.06596
845.465	10.02294
845.869	49.10761
846.272	-14.03318
846.676	72.1642
847.079	52.12664
847.483	-10.02356
847.886	33.07467
848.289	49.12595
848.692	56.13577
849.095	68.15521
849.498	32.07574
849.901	57.1235
850.304	7.01585
850.707	-9.02199
851.109	40.0957
851.512	-18.04234
851.914	23.05667
852.316	39.09375
852.718	-23.05819
853.121	30.06994
853.523	-18.03997
853.925	51.1299
854.326	19.04568
854.728	63.15575
855.13	49.12269
855.531	72.16407
855.933	40.09126
856.334	-15.03595
856.736	51.10865
857.137	22.04904
857.538	30.07303
857.939	9.02136
858.34	47.10838
858.741	11.02762
859.142	31.07071
859.542	43.10945
859.943	8.01915
860.343	6.01426
860.744	31.07248
861.144	83.19314
861.544	53.12363
861.945	7.01724
862.345	13.03035
862.745	6.01438
863.145	-23.05134
863.544	4.00969
863.944	26.05815
864.344	25.05953
864.743	28.06571
865.143	7.01724
865.542	17.03743
865.941	14.03294
866.34	25.05631
866.74	-3.00772
867.139	35.08135
867.537	48.11594
867.936	-22.0505
868.335	18.04407
868.734	18.04433
869.132	-41.09027
869.531	34.07801
869.929	-2.00438
870.327	11.02538
870.726	11.02579
871.124	17.03701
871.522	18.04423
871.92	-28.06527
872.318	49.11304
872.715	44.10285
873.113	3.00698
873.511	-1.00241
873.908	3.00739
874.306	-8.01919
874.703	-17.04062
875.1	22.05346
875.497	-26.0598
875.894	6.01414
876.291	9.02098
876.688	24.0601
877.085	-24.05449
877.482	-16.03834
877.878	29.06687
878.275	7.01705
878.671	25.0518
879.068	38.08687
879.464	7.01605
879.86	48.1096
880.256	-18.04206
880.652	-11.02714
881.048	54.12648
881.444	8.01797
881.84	19.04645
882.236	49.11703
882.631	-6.01395
883.027	-4.00913
883.422	22.05444
883.817	2.00486
884.213	-12.02962
884.608	1.00237
885.003	6.01376
885.398	22.05274
885.793	13.03146
886.188	3.00722
886.582	29.07016
886.977	28.06246
887.371	-5.01215
887.766	-20.04838
888.16	31.07339
888.554	3.00699
888.949	-22.05252
889.343	8.01845
889.737	10.02609
890.131	-8.01929
890.525	-11.02702
890.918	48.11515
891.312	50.11288
891.706	38.09568
892.099	10.02413
892.492	-26.05266
892.886	78.18133
893.279	11.02689
893.672	1.00243
894.065	-15.03546
894.458	35.08414
894.851	-15.03442
895.244	0
895.637	1.0023
896.029	29.0681
896.422	22.05074
896.814	24.0574
897.206	-45.10339
897.599	8.01861
897.991	-14.03226
898.383	15.03357
898.775	32.0684
899.167	30.06726
899.559	30.07235
899.951	49.10834
900.342	15.03648
900.734	-44.10632
901.125	-12.03001
901.517	-12.02819
901.908	53.11875
902.299	-9.02122
902.69	39.08684
903.082	39.08828
903.473	23.05287
903.863	10.02442
904.254	-9.01991
904.645	-6.01401
905.036	4.00939
905.426	7.01502
905.817	-14.03274
906.207	-8.01853
906.597	-1.00223
906.987	47.11641
907.378	25.06003
907.768	-13.03309
908.158	-4.00926
908.547	-39.0961
908.937	-3.00739
909.327	-47.10851
909.717	-27.06454
910.106	-16.03617
910.495	-19.04535
910.885	19.04583
911.274	-4.00955
911.663	36.08672
912.052	-24.05571
912.441	-26.06351
912.83	74.16173
913.219	9.02245
913.608	-32.07457
913.997	-1.00242
914.385	3.00675
914.774	60.13888
915.162	-27.06191
915.55	9.02023
915.939	-6.01469
916.327	37.08817
916.715	28.06977
917.103	-5.0115
917.491	-22.05135
917.878	28.06535
918.266	17.04197
918.654	-11.02715
919.041	-30.07624
919.429	38.08495
919.816	61.14697
920.203	-16.03695
920.591	102.24124
920.978	-11.02581
921.365	-25.06273
921.752	-24.05412
922.139	27.05449
922.525	27.06256
922.912	-10.02344
923.299	0
923.685	7.0176
924.072	-31.06699
924.458	-21.04993
924.844	-2.00474
925.231	-17.03785
925.617	-1.00247
926.003	-18.04408
926.389	-6.01449
926.774	8.01935
927.16	-20.0475
927.546	25.06199
927.931	-33.078
928.317	-18.03882
928.702	19.04211
929.088	-29.06556
929.473	-2.00491
929.858	6.01409
930.243	-1.00229
930.628	22.051
931.013	54.129
931.398	50.10655
931.783	41.10277
932.167	-41.09515
932.552	-6.01441
932.937	23.05342
933.321	6.0144
933.705	-18.04407
934.09	11.02623
934.474	49.10838
934.858	29.07269
935.242	56.1242
935.626	-3.00737
936.009	9.0233
936.393	9.02194
936.777	17.04214
937.16	12.02994
937.544	-14.0309
937.927	-20.04885
938.311	-45.10294
938.694	65.16328
939.077	-16.03664
939.46	25.05765
939.843	19.03644
940.226	17.04175
940.609	-8.01729
940.991	-12.02955
941.374	19.04463
941.757	-5.01164
942.139	72.15156
942.522	-4.00893
942.904	30.06961
943.286	-22.05292
943.668	27.06704
944.05	42.09849
944.432	-1.00236
944.814	64.14984
945.196	27.0638
945.578	-19.04353
945.959	3.00675
946.341	9.02064
946.722	11.0243
947.104	28.06368
947.485	74.16235
947.866	-46.11165
948.247	21.0505
948.628	6.0139
949.009	-17.04232
949.39	9.02135
949.771	19.04099
950.152	15.0351
950.532	-18.04353
950.913	12.02758
951.293	-1.00262
951.674	-42.09683
952.054	13.03104
952.434	-8.01894
952.814	-29.06588
953.194	-13.03232
953.574	-29.06724
953.954	5.01132
954.334	8.01888
954.714	-46.10867
955.093	-27.06338
955.473	-3.00721
955.853	69.17089
956.232	40.1059
956.611	12.02718
956.99	35.08494
957.37	14.03436
957.749	-30.06773
958.128	18.04397
958.506	18.04465
958.885	23.05613
959.264	-9.02125
959.643	-39.08258
960.021	-21.05002
960.4	37.0801
960.778	6.0139
961.156	10.024
961.535	19.04245
961.913	-3.00664
962.291	-5.01244
962.669	-26.06349
963.047	13.03184
963.424	11.0269
963.802	-7.0165
964.18	19.04522
964.557	-57.12175
964.935	-29.06524
965.312	-33.08331
965.69	-5.01191
966.067	3.00691
966.444	-11.02592
966.821	13.0321
967.198	-5.01146
967.575	24.05566
967.952	48.10579
968.329	29.06767
968.705	0
969.082	20.04974
969.458	-45.10513
969.835	14.03229
970.211	13.0325
970.587	23.05477
970.963	35.08586
971.339	-31.07852
971.715	0
972.091	40.09398
972.467	-12.02852
972.843	45.1067
973.219	-16.03566
973.594	-52.13224
973.97	-18.0402
974.345	24.05467
974.721	-12.02718
975.096	-19.04385
975.471	10.02246
975.846	26.05927
976.221	-13.0317
976.596	-10.02278
976.971	23.05382
977.346	18.03954
977.72	8.0197
978.095	-18.04511
978.469	6.01366
978.844	-30.07128
979.218	7.01614
979.593	-8.01825
979.967	2.00463
980.341	10.02188
980.715	-40.09647
981.089	2.00478
981.463	36.07861
981.837	-6.01412
982.21	-14.03022
982.584	20.04615
982.957	-35.08468
983.331	-19.04236
983.704	66.15501
984.078	19.04502
984.451	-17.03998
984.824	-52.12246
985.197	27.06164
985.57	37.08868
985.943	40.09394
986.316	38.08747
986.688	-9.02079
987.061	34.07475
987.434	16.04016
987.806	-6.01378
988.179	14.03157
988.551	59.14119
988.923	89.20841
989.295	43.10172
989.667	-17.03939
990.039	45.10657
990.411	33.07202
990.783	10.02161
991.155	-1.00233
991.527	-52.12012
991.898	7.0167
992.27	21.04973
992.641	-17.04063
993.012	17.03757
993.384	0
993.755	-10.0245
994.126	-1.00231
994.497	-29.06873
994.868	13.02805
995.239	10.02277
995.61	-29.07009
995.98	43.10046
996.351	13.03123
996.722	-16.03538
997.092	-7.01599
997.462	60.13623
997.833	36.07991
998.203	-12.02752
998.573	32.0768
998.943	17.03789
999.313	-16.03673
999.683	58.13356
1000.053	4.00871
1000.423	49.11326
1000.792	-29.07225
1001.162	69.16221
1001.531	-29.06794
1001.901	-8.01914
1002.27	10.02086
1002.639	-6.01469
1003.009	48.10859
1003.378	28.06832
1003.747	63.14179
1004.116	0
1004.485	1.00229
1004.853	20.04809
1005.222	5.012
1005.591	8.0178
1005.959	75.16333
1006.328	45.0975
1006.696	38.08883
1007.064	-18.04338
1007.433	13.03068
1007.801	52.1207
1008.169	60.14487
1008.537	-8.01646
1008.905	-22.04955
1009.273	34.07914
1009.64	6.01365
1010.008	41.09322
1010.375	-90.20277
1010.743	16.03396
1011.11	37.08389
1011.478	2.00472
1011.845	11.02449
1012.212	-16.03429
1012.579	10.0234
1012.946	0
1013.313	48.10708
1013.68	2.00414
1014.047	-17.0389
1014.414	13.02958
1014.78	8.019
1015.147	21.04798
1015.513	12.02774
1015.88	4.00972
1016.246	18.04218
1016.612	26.0556
1016.978	10.02321
1017.344	-2.00468
1017.71	-4.00899
1018.076	27.05955
1018.442	21.05167
1018.808	24.0579
1019.174	20.04812
1019.539	57.12065
1019.905	83.18872
1020.27	49.11605
1020.636	6.01346
1021.001	57.13007
1021.366	-38.08733
1021.731	-15.03691
1022.096	16.03908
1022.461	14.03146
1022.826	17.03856
1023.191	0
1023.556	29.06441
1023.92	11.02563
1024.285	24.05595
1024.649	-22.05131
1025.014	-23.05424
1025.378	13.03135
1025.742	1.0024
1026.107	-8.01693
1026.471	31.06693
1026.835	61.14664
1027.199	-15.03471
1027.562	10.02229
1027.926	-1.00232
1028.29	-4.00964
1028.654	-1.00217
1029.017	-15.03513
1029.381	40.09203
1029.744	8.01962
1030.107	-5.01107
1030.471	9.02065
1030.834	18.03876
1031.197	-63.14284
1031.56	12.02681
1031.923	-22.05498
1032.286	-2.00437
1032.648	11.025
1033.011	31.06817
1033.374	-47.10309
1033.736	-19.04841
1034.099	-30.06991
1034.461	15.03687
1034.823	11.02615
1035.185	51.122
1035.548	-26.06068
1035.91	-8.01818
1036.272	-20.04312
1036.634	-12.02767
1036.995	30.06629
1037.357	-26.06037
1037.719	20.04611
1038.08	6.01339
1038.442	48.10934
1038.803	38.08635
1039.165	11.02657
1039.526	-22.05046
1039.887	44.10051
1040.248	16.03796
1040.609	5.01175
1040.97	18.04241
1041.331	46.11106
1041.692	-7.01568
1042.053	45.0957
1042.413	39.08587
1042.774	-8.01847
1043.134	-2.00446
1043.495	9.02146
1043.855	-22.05054
1044.215	50.11835
1044.576	9.02067
1044.936	16.03426
1045.296	16.03762
1045.656	-12.0278
1046.016	-11.02519
1046.375	41.09451
1046.735	10.02188
1047.095	8.01779
1047.454	14.02704
1047.814	59.13562
1048.173	41.09061
1048.533	29.06294
1048.892	38.08845
1049.251	10.02393
1049.61	-38.08932
1049.969	-19.04268
1050.328	-22.04474
1050.687	4.0093
1051.046	43.09971
1051.405	-33.07855
1051.763	-10.02196
1052.122	9.02156
1052.48	31.07293
1052.839	-19.04248
1053.197	15.03339
1053.555	2.00425
1053.914	19.04393
1054.272	4.00923
1054.63	-4.00943
1054.988	11.02512
1055.345	-9.01825
1055.703	9.02062
1056.061	13.03206
1056.419	16.04
1056.776	13.03005
1057.134	7.01542
1057.491	39.09326
1057.848	-14.03284
1058.206	-54.11957
1058.563	-15.03122
1058.92	-15.0326
1059.277	-3.00703
1059.634	8.01783
1059.991	-64.14271
1060.348	4.00868
1060.704	34.07801
1061.061	58.12494
1061.418	11.02582
1061.774	9.02119
1062.131	14.03611
1062.487	18.04027
1062.843	11.02633
1063.199	-30.07134
1063.555	-8.01775
1063.911	41.09897
1064.267	47.08954
1064.623	-7.01621
1064.979	-35.0768
1065.335	-18.04006
1065.691	-32.0718
1066.046	42.08646
1066.402	26.05661
1066.757	21.05043
1067.112	-16.03734
1067.468	9.02043
1067.823	52.11854
1068.178	3.00686
1068.533	30.06897
1068.888	-1.00225
1069.243	0
1069.598	9.02088
1069.952	-21.04542
1070.307	15.03585
1070.662	11.02464
1071.016	33.0707
1071.371	16.03423
1071.725	-11.0245
1072.079	38.08775
1072.434	-46.10753
1072.788	8.01805
1073.142	-19.04373
1073.496	-34.07685
1073.85	-25.055
1074.203	-19.04364
1074.557	14.03578
1074.911	-19.04261
1075.265	53.1163
1075.618	37.08535
1075.971	15.0343
1076.325	-35.0857
1076.678	34.07362
1077.031	19.04071
1077.385	-32.06629
1077.738	25.0537
1078.091	-15.03285
1078.444	40.08735
1078.796	-3.0071
1079.149	55.13051
1079.502	-9.02032
1079.855	-16.03547
1080.207	28.06507
1080.56	-19.04759
1080.912	7.01612
1081.264	-3.00685
1081.617	-14.03261
1081.969	-15.03663
1082.321	-9.02118
1082.673	-51.11149
1083.025	1.00223
1083.377	-2.00393
1083.728	63.1383
1084.08	15.03544
1084.432	53.12124
1084.783	26.0569
1085.135	46.11018
1085.486	-36.07961
1085.838	-14.03305
1086.189	7.01624
1086.54	3.00675
1086.891	-4.00971
1087.242	-20.04629
1087.593	14.03177
1087.944	38.08157
1088.295	24.05096
1088.646	-11.0251
1088.996	-15.03488
1089.347	-19.04439
1089.698	6.01356
1090.048	25.06235
1090.398	-41.09016
1090.749	32.07271
1091.099	52.12678
1091.449	9.02155
1091.799	-5.01193
1092.149	40.09394
1092.499	24.05584
1092.849	28.06814
1093.199	6.01423
1093.548	13.02979
1093.898	-7.01692
1094.248	-9.02212
1094.597	29.07256
1094.947	30.07716
1095.296	14.03337
1095.645	-16.03969
1095.994	-58.13196
1096.343	-47.11204
1096.692	-53.13538
1097.041	60.15918
1097.39	62.14749
1097.739	10.0249
1098.088	-12.03058
1098.437	24.06149
1098.785	81.21096
1099.134	-11.02782
1099.482	-36.09544
1099.83	59.14933
1100.179	-16.04082
1100.527	67.17162
1100.875	-6.01546
1101.223	15.03834
1101.571	15.04046
1101.919	-5.01282
1102.267	14.03867
1102.615	13.04173
1102.962	-6.01925
1103.31	20.06409
1103.658	-3.00963
