Data from N3 R8 sample 4_Subt2__1__13-56-05-141.txt Node

Date: Mon Sep 22 13:56:05 PDT 2025
User: uwsun
Spectrometer: HDX01956
Trigger mode: 0
Integration Time (sec): 5.000000E-1
Scans to average: 1
Nonlinearity correction enabled: true
Boxcar width: 0
Storing dark spectrum: false
XAxis mode: Wavelengths
Number of Pixels in Spectrum: 2068
>>>>>Begin Spectral Data<<<<<
194.03	70.20162
194.578	77.24812
195.127	80.25459
195.676	63.20095
196.225	72.18961
196.773	66.18067
197.321	153.41927
197.87	183.4605
198.418	178.45137
198.966	245.63146
199.513	192.47733
200.061	227.56731
200.609	193.50143
201.156	244.52378
201.704	204.50938
202.251	200.5238
202.798	220.56359
203.345	187.45293
203.892	222.54949
204.438	173.3986
204.985	207.48472
205.532	215.55877
206.078	216.51755
206.624	219.53322
207.17	243.54644
207.716	217.52282
208.262	222.42675
208.808	226.5555
209.354	229.55235
209.899	252.62739
210.445	242.59701
210.99	239.56992
211.535	239.54163
212.08	304.69046
212.625	257.62643
213.17	225.54803
213.715	228.4985
214.259	253.57336
214.804	251.60243
215.348	265.59469
215.892	206.48228
216.436	202.45434
216.98	206.44583
217.524	252.58279
218.068	203.49131
218.612	177.43322
219.155	242.55478
219.698	179.41308
220.242	214.51432
220.785	237.54255
221.328	223.54072
221.871	163.39614
222.414	179.43127
222.956	110.26207
223.499	244.53574
224.041	192.43362
224.583	189.39407
225.126	154.33087
225.668	188.44479
226.21	203.49851
226.751	152.32728
227.293	231.50688
227.835	161.38556
228.376	185.41107
228.918	207.50777
229.459	207.50401
230	194.44778
230.541	206.45954
231.082	157.37066
231.622	195.43257
232.163	183.43472
232.704	204.49103
233.244	181.4379
233.784	215.50719
234.324	172.36572
234.864	171.37507
235.404	202.46754
235.944	222.51566
236.484	194.46201
237.023	194.44582
237.563	159.35902
238.102	200.45427
238.641	204.5005
239.18	233.53147
239.719	188.45372
240.258	186.40255
240.797	196.45761
241.335	216.51064
241.874	194.35693
242.412	165.38577
242.95	174.41215
243.488	192.42193
244.026	261.58619
244.564	236.46613
245.102	202.44185
245.64	166.38681
246.177	224.48707
246.715	217.49917
247.252	212.46881
247.789	239.41952
248.326	201.47288
248.863	227.48004
249.4	203.44037
249.936	189.37689
250.473	202.45658
251.009	185.41329
251.546	157.33725
252.082	246.52215
252.618	215.46501
253.154	170.39972
253.69	208.45189
254.226	228.52646
254.761	210.4541
255.297	187.39632
255.832	228.5273
256.367	209.47731
256.903	199.42156
257.438	271.61739
257.972	186.39876
258.507	245.55139
259.042	292.61248
259.576	196.40985
260.111	183.40815
260.645	211.43662
261.179	224.50774
261.713	260.56053
262.247	263.58874
262.781	266.54019
263.315	238.56721
263.849	237.56991
264.382	227.50167
264.915	167.3837
265.449	235.56189
265.982	235.515
266.515	175.41572
267.048	166.33711
267.58	207.43141
268.113	221.45567
268.646	253.60538
269.178	252.55656
269.71	195.41128
270.243	172.37702
270.775	214.52504
271.307	209.48499
271.838	255.57577
272.37	241.57953
272.902	237.51698
273.433	242.50761
273.965	239.55789
274.496	241.58129
275.027	265.63724
275.558	234.5474
276.089	281.6821
276.62	264.65271
277.15	192.46005
277.681	197.41258
278.211	246.58178
278.741	246.52625
279.272	240.53316
279.802	275.66554
280.332	233.53168
280.861	236.54623
281.391	223.48871
281.921	274.6309
282.45	257.62128
282.98	278.69637
283.509	237.52004
284.038	225.49018
284.567	300.66173
285.096	286.66456
285.625	252.54701
286.153	229.52192
286.682	229.51137
287.21	238.55195
287.739	246.55806
288.267	258.60614
288.795	309.78222
289.323	237.53448
289.851	252.56238
290.378	315.67632
290.906	261.62071
291.433	259.62045
291.961	275.59706
292.488	227.54856
293.015	250.56391
293.542	236.57536
294.069	305.72226
294.596	279.66172
295.122	246.55942
295.649	274.5765
296.175	277.64378
296.702	223.51522
297.228	319.74401
297.754	246.5201
298.28	334.72592
298.806	219.51101
299.332	304.66016
299.857	308.67198
300.383	280.67062
300.908	331.76987
301.433	314.73393
301.958	353.77291
302.483	255.61738
303.008	359.84254
303.533	311.77072
304.058	245.55071
304.582	322.72362
305.107	241.61012
305.631	311.66399
306.155	310.69294
306.679	327.74284
307.203	288.63713
307.727	303.68218
308.251	279.65738
308.775	331.75131
309.298	275.63156
309.822	369.88186
310.345	348.79037
310.868	338.77606
311.391	323.74978
311.914	356.85194
312.437	340.72858
312.96	340.75748
313.482	346.77882
314.005	338.81104
314.527	310.78322
315.049	326.78255
315.571	365.77184
316.093	293.68956
316.615	361.83101
317.137	368.76029
317.659	398.91049
318.18	330.75709
318.702	387.84341
319.223	350.67735
319.744	371.78762
320.265	461.04931
320.786	398.93204
321.307	391.9144
321.828	369.78542
322.348	403.882
322.869	426.94117
323.389	302.54392
323.909	351.75685
324.43	416.92407
324.95	484.03607
325.47	462.06239
325.989	448.98563
326.509	440.90862
327.029	402.85212
327.548	453.96544
328.067	447.00426
328.587	477.09498
329.106	436.92055
329.625	464.10936
330.144	469.99824
330.662	517.12138
331.181	483.02612
331.7	490.04577
332.218	508.00259
332.736	510.089
333.255	501.06675
333.773	569.2312
334.291	555.26007
334.808	556.12783
335.326	526.08388
335.844	573.22243
336.361	585.35879
336.879	542.13944
337.396	613.34404
337.913	655.36014
338.43	596.19534
338.947	597.26655
339.464	662.2729
339.981	637.35916
340.497	643.4294
341.014	643.40811
341.53	577.1681
342.046	613.36321
342.562	647.43295
343.078	649.35606
343.594	660.40129
344.11	729.53216
344.626	671.49786
345.141	692.38372
345.657	698.38091
346.172	706.50037
346.687	728.46657
347.202	672.31202
347.717	822.71378
348.232	725.57918
348.747	760.51919
349.261	759.4321
349.776	776.58057
350.29	748.64479
350.805	777.6632
351.319	811.62688
351.833	735.44099
352.347	834.69346
352.861	778.55594
353.374	797.54949
353.888	812.69367
354.401	816.60041
354.915	863.62313
355.428	897.89711
355.941	904.76908
356.454	892.66504
356.967	838.67299
357.48	875.71024
357.993	895.84012
358.505	898.87814
359.018	896.82608
359.53	967.96334
360.042	892.66668
360.554	911.83443
361.066	885.83423
361.578	977.75177
362.09	954.87409
362.602	973.76155
363.113	1039.95862
363.625	985.7987
364.136	1049.82933
364.647	1019.98178
365.158	1125.10832
365.669	1020.98701
366.18	1045.01942
366.691	1072.90635
367.201	1052.01606
367.712	1090.9874
368.222	1037.89768
368.733	1108.91078
369.243	1107.95712
369.753	1137.07981
370.263	1192.22169
370.773	1183.28675
371.282	1127.09865
371.792	1256.2254
372.301	1221.31785
372.811	1197.50596
373.32	1309.10516
373.829	1268.29885
374.338	1389.28621
374.847	1361.35838
375.356	1479.59353
375.865	1566.36126
376.373	1615.60012
376.882	1522.78071
377.39	1686.82395
377.898	1576.80676
378.407	1676.55006
378.915	1888.59936
379.423	1918.94405
379.93	1930.76837
380.438	2012.08638
380.946	2132.00247
381.453	2183.14562
381.96	2352.20713
382.468	2504.12512
382.975	2588.29844
383.482	2654.88736
383.989	2761.67831
384.495	2860.00372
385.002	2997.54911
385.509	3088.17277
386.015	3328.15945
386.521	3519.70765
387.028	3664.77797
387.534	3816.39391
388.04	3916.83461
388.546	3951.5634
389.051	4216.24147
389.557	4540.50427
390.063	4883.97803
390.568	5046.24754
391.073	5177.73063
391.578	5489.20153
392.084	5483.72695
392.589	5764.20838
393.093	6191.60235
393.598	6814.30558
394.103	7586.78779
394.607	8182.20476
395.112	8569.74724
395.616	9233.87641
396.12	10049.14565
396.624	10810.90983
397.128	11810.62937
397.632	13183.64284
398.136	14252.11602
398.639	15124.8407
399.143	16961.90746
399.646	19113.70324
400.15	20942.21943
400.653	23306.38849
401.156	26601.50164
401.659	30756.4367
402.162	37261.09928
402.664	49038.00855
403.167	60713.7383
403.67	60395.17756
404.172	52566.9044
404.674	31176.06428
405.176	3757.7064
405.678	27.69154
406.18	0
406.682	0
407.184	45159.96023
407.686	58897.86778
408.187	61455.21265
408.688	62150.63916
409.19	62552.06205
409.691	62894.53372
410.192	58723.01965
410.693	51091.60239
411.194	46300.96333
411.694	44076.69455
412.195	41091.83971
412.696	37227.3287
413.196	34943.59871
413.696	34340.91602
414.196	34841.47048
414.696	34105.21908
415.196	32507.67923
415.696	29400.39639
416.196	23619.38617
416.695	17910.30774
417.195	15643.89223
417.694	15013.43562
418.194	13968.85198
418.693	12997.83167
419.192	12639.94801
419.691	12458.77012
420.19	12276.25937
420.688	11833.56912
421.187	11384.35852
421.685	10627.19874
422.184	9729.12274
422.682	8221.02178
423.18	6938.37891
423.678	6121.45399
424.176	5757.48981
424.674	5387.5028
425.172	5219.01704
425.669	4925.64086
426.167	4501.29546
426.664	4227.41394
427.161	3842.67814
427.659	3467.09458
428.156	3322.36986
428.652	3126.49462
429.149	3061.26838
429.646	2906.69989
430.143	2741.19075
430.639	2596.0648
431.135	2488.33719
431.632	2377.86456
432.128	2127.96703
432.624	2078.29427
433.12	1949.6656
433.616	1945.44937
434.111	1895.78823
434.607	1790.77363
435.103	1770.26569
435.598	1702.08416
436.093	1622.51332
436.588	1554.29587
437.083	1428.17667
437.578	1495.34883
438.073	1376.50672
438.568	1294.29774
439.062	1257.91094
439.557	1262.17396
440.051	1192.00832
440.546	1191.07552
441.04	1167.12846
441.534	1168.2668
442.028	1068.93446
442.522	1036.92772
443.015	1121.82456
443.509	1032.96485
444.002	1037.96914
444.496	1028.74327
444.989	1028.96195
445.482	987.96581
445.975	1000.78348
446.468	968.61469
446.961	889.49346
447.454	1010.77823
447.947	863.63108
448.439	898.74657
448.931	856.54338
449.424	862.74163
449.916	904.71911
450.408	890.57296
450.9	821.63863
451.392	786.62417
451.884	744.36638
452.375	711.46477
452.867	756.36897
453.358	764.41726
453.849	754.29057
454.341	771.41145
454.832	712.23613
455.323	716.45558
455.814	762.42899
456.304	668.27274
456.795	751.39206
457.285	682.23785
457.776	700.28735
458.266	674.32963
458.756	680.38042
459.247	654.30219
459.737	644.28404
460.226	693.3048
460.716	590.18274
461.206	602.22019
461.695	562.20074
462.185	607.20931
462.674	632.21278
463.163	566.07336
463.653	579.01191
464.142	513.05966
464.63	560.16028
465.119	592.18183
465.608	553.08621
466.096	554.03368
466.585	526.02068
467.073	556.13554
467.561	519.08118
468.05	543.09765
468.538	477.00983
469.026	550.13648
469.513	559.02937
470.001	538.06888
470.489	478.99018
470.976	485.97256
471.463	392.85666
471.951	462.00678
472.438	435.90373
472.925	422.88474
473.412	452.98066
473.899	438.87608
474.385	361.78776
474.872	439.92099
475.359	386.84213
475.845	365.67039
476.331	385.7467
476.817	429.92621
477.303	377.79616
477.789	363.79011
478.275	359.81056
478.761	356.76912
479.247	290.5857
479.732	320.72915
480.218	356.84349
480.703	350.79362
481.188	298.57671
481.673	329.67865
482.158	320.627
482.643	310.71577
483.128	279.57862
483.612	318.6785
484.097	281.62488
484.581	231.48935
485.066	230.50968
485.55	227.45436
486.034	288.56697
486.518	281.60671
487.002	328.74254
487.486	237.53688
487.969	270.61324
488.453	250.58803
488.936	285.59423
489.42	196.39858
489.903	276.64412
490.386	254.53372
490.869	216.43464
491.352	272.61653
491.835	196.37295
492.318	260.54295
492.8	214.40661
493.283	222.52543
493.765	202.46699
494.247	186.3998
494.73	171.35258
495.212	196.43379
495.694	200.43803
496.175	212.47468
496.657	191.41752
497.139	105.16867
497.62	142.31953
498.102	174.40721
498.583	158.37194
499.064	138.29177
499.545	194.41555
500.026	169.35613
500.507	167.36135
500.988	156.36065
501.469	189.4488
501.949	167.38753
502.43	157.35624
502.91	148.28642
503.39	142.33259
503.87	216.47686
504.35	77.16889
504.83	169.34971
505.31	119.27243
505.79	121.27478
506.269	95.20908
506.749	159.34551
507.228	92.20532
507.707	118.24751
508.187	108.24093
508.666	131.3058
509.145	43.09543
509.623	75.16721
510.102	83.18841
510.581	93.21051
511.059	63.15059
511.538	69.16751
512.016	76.16975
512.494	135.30869
512.972	67.15086
513.45	114.25442
513.928	79.18173
514.406	120.27444
514.884	74.18042
515.361	65.14659
515.839	108.23524
516.316	54.12415
516.793	56.13531
517.27	96.21867
517.747	79.19473
518.224	103.22287
518.701	116.24149
519.178	62.14641
519.654	11.02481
520.131	52.12256
520.607	47.11079
521.083	19.04153
521.56	50.11311
522.036	76.15737
522.512	35.08196
522.987	116.26177
523.463	38.08593
523.939	44.10233
524.414	39.08457
524.89	67.15222
525.365	-13.02808
525.84	56.12782
526.315	42.0964
526.79	28.05961
527.265	-15.03275
527.74	76.17682
528.215	61.13571
528.689	-11.02309
529.164	21.04291
529.638	27.0666
530.112	26.05896
530.587	81.16363
531.061	-30.0693
531.534	-1.00231
532.008	36.08253
532.482	19.04132
532.956	20.04876
533.429	26.05982
533.903	25.05206
534.376	35.07282
534.849	-1.0022
535.322	-17.0381
535.795	-25.05769
536.268	29.06674
536.741	1.00228
537.213	1.00218
537.686	-7.01632
538.158	5.01082
538.631	-18.04161
539.103	9.01932
539.575	-12.02338
540.047	-75.15701
540.519	-50.11297
540.991	-15.03496
541.463	2.00467
541.934	-47.10292
542.406	-32.07274
542.877	122.26269
543.348	10.02273
543.82	38.08824
544.291	53.11723
544.762	-25.05641
545.233	-17.04087
545.703	-66.14113
546.174	53.11689
546.645	6.01395
547.115	65.14941
547.585	-22.04877
548.056	-4.00934
548.526	-6.01366
548.996	-15.03446
549.466	54.12583
549.935	58.13163
550.405	53.11041
550.875	39.08767
551.344	60.13645
551.814	63.13638
552.283	37.07629
552.752	79.17452
553.221	80.16721
553.69	85.18022
554.159	89.20825
554.628	65.13854
555.096	42.10206
555.565	14.02952
556.033	34.07582
556.502	-9.0208
556.97	39.08128
557.438	-9.02026
557.906	-26.05805
558.374	11.02437
558.842	-35.08032
559.31	-9.01896
559.777	23.05394
560.245	-10.02207
560.712	-21.04649
561.18	-19.04004
561.647	21.04523
562.114	-20.04421
562.581	-59.14086
563.048	-37.08099
563.514	-36.08472
563.981	-24.05234
564.448	31.06774
564.914	-43.09583
565.381	-19.0412
565.847	-36.08044
566.313	-60.13374
566.779	-48.10433
567.245	-3.00673
567.711	8.01855
568.176	-85.18377
568.642	-48.11655
569.108	-29.0686
569.573	-44.09824
570.038	-77.15526
570.504	5.01072
570.969	-18.04343
571.434	-1.0021
571.899	-31.07009
572.363	15.03276
572.828	-23.04981
573.293	-22.04825
573.757	-70.15409
574.222	-31.06625
574.686	-22.048
575.15	-14.03183
575.614	-34.07469
576.078	28.06295
576.542	-19.0411
577.006	0
577.469	-11.02564
577.933	-27.05732
578.396	-28.06378
578.86	-50.11159
579.323	1.00228
579.786	-26.05343
580.249	-66.14412
580.712	5.01172
581.175	-86.20442
581.637	-96.2099
582.1	-131.27509
582.563	-45.09011
583.025	-38.08841
583.487	-53.10279
583.95	-21.0434
584.412	13.02592
584.874	-73.16699
585.336	27.06082
585.797	-7.01437
586.259	-49.10856
586.721	-48.10743
587.182	-90.19603
587.643	-21.04457
588.105	-52.11754
588.566	-38.07505
589.027	7.01603
589.488	-28.05985
589.949	43.09725
590.41	12.02224
590.87	-4.00857
591.331	48.09516
591.791	37.07958
592.252	-10.02161
592.712	37.08334
593.172	27.0562
593.632	49.09862
594.092	59.12258
594.552	46.09086
595.011	24.05103
595.471	13.0266
595.931	83.17083
596.39	83.18343
596.849	81.17279
597.308	73.1451
597.768	149.34741
598.227	204.44641
598.685	155.32261
599.144	214.45542
599.603	164.34415
600.062	236.44382
600.52	216.43284
600.978	243.51027
601.437	219.43733
601.895	307.56953
602.353	287.54625
602.811	346.65006
603.269	370.75756
603.727	409.84176
604.184	467.89926
604.642	398.82484
605.099	499.96412
605.557	482.98329
606.014	498.88876
606.471	574.19357
606.928	575.01917
607.385	651.33379
607.842	628.15063
608.299	729.32434
608.755	762.46061
609.212	779.34739
609.668	800.36805
610.125	828.55452
610.581	888.58735
611.037	822.41405
611.493	860.54982
611.949	868.63295
612.405	924.34201
612.861	899.58354
613.316	942.68325
613.772	993.67602
614.227	951.69108
614.683	961.48993
615.138	1004.74833
615.593	980.73964
616.048	1031.71594
616.503	997.84722
616.958	975.88801
617.412	1012.81515
617.867	968.57766
618.321	961.41285
618.776	964.55183
619.23	931.6597
619.684	881.46309
620.138	844.46669
620.592	872.63487
621.046	853.53365
621.5	816.57106
621.954	833.3953
622.407	783.33137
622.861	797.5517
623.314	714.2383
623.768	742.36406
624.221	715.11637
624.674	667.22193
625.127	691.29083
625.58	628.13328
626.033	671.15647
626.485	605.20364
626.938	635.24113
627.39	594.12438
627.843	555.04862
628.295	512.99375
628.747	510.00654
629.199	506.95821
629.651	471.917
630.103	522.00567
630.555	483.85018
631.006	438.88014
631.458	462.93992
631.909	382.73044
632.361	415.82681
632.812	398.80419
633.263	354.65494
633.714	389.70873
634.165	364.76585
634.616	338.70864
635.067	293.57125
635.518	355.73162
635.968	367.62398
636.419	304.57283
636.869	262.55538
637.319	286.58664
637.769	304.60214
638.219	238.50363
638.669	300.64343
639.119	259.56951
639.569	279.61219
640.019	243.49855
640.468	242.48988
640.918	222.48641
641.367	172.34706
641.816	216.43344
642.265	225.47289
642.714	176.36917
643.163	235.48933
643.612	249.55695
644.061	279.53981
644.51	180.38173
644.958	167.33721
645.406	215.46819
645.855	198.44115
646.303	174.36997
646.751	138.28959
647.199	236.48649
647.647	225.47539
648.095	206.43534
648.543	187.34258
648.99	209.46228
649.438	182.3885
649.885	189.43424
650.333	136.2389
650.78	200.44689
651.227	122.27599
651.674	160.33798
652.121	193.43419
652.568	162.36632
653.015	163.37661
653.461	221.48882
653.908	153.32823
654.354	138.30186
654.801	171.37839
655.247	156.31579
655.693	148.36514
656.139	237.52836
656.585	130.28797
657.031	172.37448
657.477	141.28484
657.922	189.40336
658.368	144.3288
658.813	195.41652
659.259	157.35161
659.704	186.40582
660.149	123.26956
660.594	111.24593
661.039	157.33492
661.484	152.3329
661.929	159.34948
662.373	129.30987
662.818	103.23817
663.262	210.47388
663.707	205.48904
664.151	123.28046
664.595	165.37607
665.039	110.25501
665.483	172.41087
665.927	176.38693
666.371	158.34999
666.814	176.38872
667.258	176.39392
667.701	183.35899
668.145	161.37287
668.588	149.34495
669.031	207.45938
669.474	154.3488
669.917	176.36117
670.36	176.41011
670.803	152.34076
671.245	114.22019
671.688	212.48367
672.13	157.33245
672.573	185.43677
673.015	184.41182
673.457	229.46325
673.899	156.35146
674.341	170.38676
674.783	185.41994
675.225	212.48367
675.666	180.40685
676.108	211.43075
676.549	252.554
676.991	229.46749
677.432	239.44205
677.873	192.41482
678.314	235.52195
678.755	213.48311
679.196	275.58357
679.637	268.60278
680.078	229.48554
680.518	258.54929
680.959	237.52464
681.399	226.52703
681.839	281.62955
682.28	283.65305
682.72	263.5547
683.16	313.7191
683.6	273.56693
684.039	236.44535
684.479	292.66132
684.919	298.64134
685.358	261.60301
685.798	329.80457
686.237	306.66903
686.676	258.53088
687.115	362.77337
687.554	380.81463
687.993	404.78973
688.432	317.65331
688.871	328.67643
689.309	390.8422
689.748	379.68315
690.186	423.89408
690.625	446.93546
691.063	391.83224
691.501	409.89513
691.939	427.95657
692.377	463.00619
692.815	494.0525
693.253	454.95266
693.69	423.81139
694.128	430.92459
694.565	537.12569
695.003	510.14583
695.44	550.1258
695.877	531.07826
696.314	554.99641
696.751	606.18015
697.188	591.16755
697.625	532.02694
698.061	638.31154
698.498	656.34557
698.934	654.32636
699.371	633.26646
699.807	658.29862
700.243	712.43824
700.679	736.35369
701.115	715.3674
701.551	815.54997
701.987	777.38101
702.422	855.66558
702.858	815.57327
703.294	889.59036
703.729	917.79329
704.164	956.82344
704.599	925.59133
705.035	901.6003
705.47	978.88528
705.904	1038.86
706.339	1089.88338
706.774	1060.89175
707.209	1102.92155
707.643	1147.09291
708.078	1217.25339
708.512	1148.24687
708.946	1190.12321
709.38	1198.08723
709.814	1238.99859
710.248	1345.38318
710.682	1291.21183
711.116	1440.48882
711.549	1390.60083
711.983	1394.23091
712.416	1460.35185
712.85	1512.56876
713.283	1512.41996
713.716	1575.67153
714.149	1585.47029
714.582	1608.27119
715.015	1712.84782
715.448	1767.85209
715.881	1816.29612
716.313	1844.61684
716.746	1882.69825
717.178	1862.7611
717.61	1970.0611
718.043	2049.04373
718.475	2089.98208
718.907	2186.16629
719.339	2210.73485
719.77	2211.90177
720.202	2250.29664
720.634	2353.13059
721.065	2411.92776
721.497	2363.05733
721.928	2506.23183
722.359	2584.14716
722.79	2723.14141
723.221	2785.42127
723.652	2705.46979
724.083	2762.77635
724.514	2952.8803
724.945	2943.03615
725.375	3096.00775
725.806	3086.28405
726.236	3146.55726
726.666	3225.97151
727.096	3384.13649
727.526	3414.44947
727.956	3406.60319
728.386	3557.12204
728.816	3584.46821
729.246	3590.05276
729.675	3679.14825
730.105	3742.03539
730.534	3710.63253
730.964	3736.2533
731.393	3990.04417
731.822	4101.15326
732.251	4050.23979
732.68	4218.50206
733.109	4287.86827
733.537	4253.78149
733.966	4395.85044
734.395	4428.21342
734.823	4417.02525
735.251	4530.59078
735.68	4528.72628
736.108	4600.96131
736.536	4577.25566
736.964	4727.1764
737.392	4762.75709
737.82	4804.39044
738.247	4914.15821
738.675	4774.16383
739.102	4856.62908
739.53	4783.87839
739.957	4902.79913
740.384	5010.34062
740.811	5006.58284
741.238	5031.31416
741.665	5021.05257
742.092	4953.05964
742.519	4959.55567
742.945	4941.30395
743.372	5051.42626
743.798	5046.79387
744.225	5206.16143
744.651	5047.47894
745.077	4988.59607
745.503	4961.30133
745.929	5091.15311
746.355	4964.34913
746.781	4992.48041
747.207	4995.14388
747.632	4880.46423
748.058	4985.42524
748.483	4978.83909
748.908	5089.55381
749.334	5020.376
749.759	5020.02208
750.184	4948.25945
750.609	4980.41629
751.033	5015.99619
751.458	4969.67308
751.883	4933.58537
752.307	4934.12983
752.732	4975.73336
753.156	5040.4829
753.58	4924.045
754.005	4866.67734
754.429	4785.14628
754.853	4797.57034
755.277	4781.23083
755.7	4885.49086
756.124	4835.66191
756.548	4774.28913
756.971	4718.42758
757.394	4892.98291
757.818	4894.04754
758.241	4754.7977
758.664	4762.87797
759.087	4644.98911
759.51	4734.55874
759.933	4613.53019
760.356	4724.01566
760.778	4653.63366
761.201	4595.55186
761.623	4620.57289
762.046	4557.28664
762.468	4615.26811
762.89	4554.72383
763.312	4552.46883
763.734	4506.56055
764.156	4433.81275
764.578	4479.22663
765	4438.59482
765.421	4403.13211
765.843	4357.29704
766.264	4350.54781
766.686	4299.9997
767.107	4172.70261
767.528	4210.1232
767.949	4128.19655
768.37	4101.90774
768.791	4077.78584
769.212	3902.21459
769.632	4020.57409
770.053	3989.55778
770.473	3941.84022
770.894	3908.16385
771.314	3717.64288
771.734	3767.62195
772.154	3710.39037
772.575	3682.59396
772.994	3684.59839
773.414	3643.9004
773.834	3674.15815
774.254	3458.00258
774.673	3501.06922
775.093	3430.32349
775.512	3289.12334
775.931	3249.33517
776.351	3204.25195
776.77	3223.2595
777.189	3197.00189
777.607	3108.45506
778.026	3025.33628
778.445	2932.38918
778.864	2922.46338
779.282	2871.09648
779.701	2758.36659
780.119	2724.33181
780.537	2656.34672
780.955	2654.3687
781.373	2509.15605
781.791	2524.66214
782.209	2471.67461
782.627	2474.58431
783.045	2369.77873
783.462	2277.27061
783.88	2213.35473
784.297	2200.18705
784.715	2155.31067
785.132	2113.9415
785.549	2015.05987
785.966	2012.05078
786.383	2014.97807
786.8	1933.59272
787.217	1821.63256
787.633	1836.94907
788.05	1711.42877
788.466	1769.55461
788.883	1749.99102
789.299	1699.65449
789.715	1678.6476
790.131	1574.62076
790.547	1515.58418
790.963	1567.66354
791.379	1484.65968
791.795	1368.09544
792.21	1400.2368
792.626	1424.31141
793.041	1366.4274
793.457	1315.33219
793.872	1311.20577
794.287	1217.16769
794.702	1153.11446
795.117	1183.22167
795.532	1116.14825
795.947	1017.80409
796.362	1007.81031
796.776	1067.81597
797.191	926.78404
797.605	951.75921
798.02	925.7672
798.434	951.56327
798.848	863.72575
799.262	933.85901
799.676	815.55673
800.09	823.6282
800.504	775.52096
800.918	767.42813
801.331	713.5622
801.745	680.27181
802.158	690.44087
802.572	654.31186
802.985	592.18785
803.398	671.32649
803.811	661.43053
804.224	613.27564
804.637	585.1973
805.05	541.0501
805.462	590.23398
805.875	594.34245
806.288	505.05336
806.7	529.14842
807.112	549.07783
807.525	441.93906
807.937	496.09243
808.349	441.97288
808.761	419.91701
809.173	414.8833
809.584	372.81193
809.996	394.87158
810.408	404.94423
810.819	378.79005
811.231	424.00662
811.642	436.95843
812.053	436.9395
812.464	454.97282
812.875	331.75953
813.286	326.76616
813.697	297.60521
814.108	365.79615
814.519	330.64232
814.929	361.83598
815.34	287.63028
815.75	269.63234
816.16	250.56644
816.571	238.57221
816.981	251.53729
817.391	236.52559
817.801	243.55852
818.211	225.48581
818.62	221.48371
819.03	206.46619
819.44	190.45924
819.849	214.50336
820.259	192.45443
820.668	131.2987
821.077	188.436
821.486	152.3381
821.895	211.48051
822.304	196.48408
822.713	166.36264
823.122	165.38441
823.531	165.35886
823.939	184.4125
824.348	223.50311
824.756	110.25794
825.164	94.22258
825.573	143.33735
825.981	141.32927
826.389	184.42284
826.797	67.15898
827.205	171.36558
827.612	137.31528
828.02	100.22299
828.428	110.26488
828.835	90.22555
829.243	114.25221
829.65	125.29409
830.057	119.27156
830.464	131.30291
830.871	93.2051
831.278	74.16863
831.685	76.15794
832.092	126.29083
832.499	62.12545
832.905	50.11917
833.312	88.18459
833.718	108.25483
834.124	100.21522
834.531	76.18079
834.937	66.15953
835.343	6.01362
835.749	51.11045
836.155	33.08254
836.561	73.17148
836.966	23.05287
837.372	49.11878
837.777	110.26076
838.183	46.095
838.588	93.22161
838.993	58.13361
839.399	24.05604
839.804	52.1217
840.209	-18.04385
840.613	11.02292
841.018	63.15053
841.423	-2.0049
841.828	85.2055
842.232	85.19819
842.637	53.11889
843.041	13.0322
843.445	105.25212
843.849	39.09276
844.253	70.157
844.657	46.11174
845.061	4.00856
845.465	47.10704
845.869	58.12714
846.272	25.0588
846.676	42.09637
847.079	67.16271
847.483	15.03517
847.886	17.03859
848.289	11.02846
848.692	45.10933
849.095	34.07814
849.498	16.03799
849.901	52.11278
850.304	67.14987
850.707	27.06552
851.109	46.10993
851.512	-15.03526
851.914	39.09581
852.316	28.06745
852.718	-4.01009
853.121	27.06298
853.523	11.02428
853.925	31.07924
854.326	43.1029
854.728	83.20444
855.13	7.01766
855.531	18.04147
855.933	20.04582
856.334	-15.03595
856.736	26.05569
857.137	48.10642
857.538	-15.03682
857.939	6.01425
858.34	19.04406
858.741	21.05264
859.142	-10.023
859.542	8.02049
859.943	43.10223
860.343	5.01188
860.744	54.12569
861.144	81.18856
861.544	70.16273
861.945	47.11491
862.345	42.09749
862.745	-6.01441
863.145	30.06623
863.544	7.01696
863.944	61.13543
864.344	24.05716
864.743	55.12839
865.143	30.07355
865.542	-17.0377
865.941	32.07504
866.34	-1.00226
866.74	7.01799
867.139	81.18656
867.537	-3.00732
867.936	-29.06666
868.335	13.03186
868.734	14.0345
869.132	-13.02845
869.531	22.0506
869.929	57.12328
870.327	8.01847
870.726	6.01408
871.124	-7.01532
871.522	19.04668
871.92	2.00463
872.318	-12.02802
872.715	44.10285
873.113	20.0464
873.511	33.07891
873.908	-5.01234
874.306	14.03344
874.703	13.03088
875.1	11.02678
875.497	-9.02063
875.894	-27.06404
876.291	-15.03514
876.688	-8.02015
877.085	3.00677
877.482	-35.08417
877.878	18.0416
878.275	-17.0416
878.671	-10.02088
879.068	55.12531
879.464	7.01605
879.86	32.0733
880.256	-15.03503
880.652	23.0564
881.048	20.04716
881.444	-1.00225
881.84	53.12876
882.236	30.07191
882.631	-22.05131
883.027	-6.01371
883.422	14.03469
883.817	-23.05617
884.213	19.04663
884.608	18.04249
885.003	13.02977
885.398	-52.1264
885.793	42.1011
886.188	16.0384
886.582	-13.0317
886.977	-11.02474
887.371	33.07963
887.766	7.01685
888.16	34.08044
888.554	5.01164
888.949	-36.08616
889.343	16.03684
889.737	-18.04719
890.131	33.07894
890.525	32.07799
890.918	7.01692
891.312	-4.00913
891.706	1.00253
892.099	-33.08026
892.492	18.03609
892.886	57.13306
893.279	5.01224
893.672	-20.04884
894.065	-64.15271
894.458	-10.02424
894.851	28.0637
895.244	9.02209
895.637	28.06414
896.029	31.07276
896.422	-5.01159
896.814	44.10483
897.206	-49.11267
897.599	16.03715
897.991	-13.02995
898.383	-14.03152
898.775	20.04286
899.167	9.02026
899.559	18.04351
899.951	4.00893
900.342	16.03891
900.734	-49.11851
901.125	7.01744
901.517	-6.01408
901.908	5.01131
902.299	-10.02358
902.69	-17.03829
903.082	4.00912
903.473	0
903.863	-5.01224
904.254	3.00662
904.645	1.00233
905.036	19.04446
905.426	38.08098
905.817	33.07646
906.207	-10.02317
906.597	1.00223
906.987	23.05721
907.378	-14.03387
907.768	-35.08943
908.158	3.00693
908.547	-57.14091
908.937	2.00492
909.327	-18.04132
909.717	4.0095
910.106	-89.20416
910.495	46.10842
910.885	11.02657
911.274	-6.01433
911.663	34.08194
912.052	-2.00462
912.441	14.03394
912.83	47.10331
913.219	-8.02002
913.608	-20.0465
913.997	-2.00485
914.385	-6.01353
914.774	60.13888
915.162	-22.0504
915.55	-46.10457
915.939	5.01222
916.327	43.10235
916.715	46.11424
917.103	10.02293
917.491	-27.06308
917.878	36.08389
918.266	18.04443
918.654	-4.00986
919.041	-5.01265
919.429	-10.02258
919.816	2.00487
920.203	-1.0023
920.591	41.09811
920.978	12.02803
921.365	-52.13112
921.752	-5.01123
922.139	-27.05517
922.525	41.09473
922.912	-11.02579
923.299	4.00956
923.685	-11.02774
924.072	-17.03663
924.458	-4.00948
924.844	-12.02847
925.231	-6.01333
925.617	-2.00495
926.003	-10.02445
926.389	-1.00241
926.774	27.06508
927.16	12.02833
927.546	15.03726
927.931	-52.12337
928.317	-25.054
928.702	-10.0223
929.088	-10.02252
929.473	0
929.858	29.06778
930.243	0
930.628	-28.06556
931.013	24.05766
931.398	31.06633
931.783	14.03526
932.167	-33.07646
932.552	-2.0048
932.937	39.09029
933.321	-23.0555
933.705	-20.04898
934.09	6.01432
934.474	-30.06745
934.858	1.00252
935.242	62.13734
935.626	-9.02214
936.009	-1.00259
936.393	-7.01711
936.777	-13.0324
937.16	33.08203
937.544	-9.01984
937.927	-19.0464
938.311	-30.06842
938.694	29.07332
939.077	-23.05274
939.46	20.04616
939.843	-25.04846
940.226	-9.02221
940.609	-75.16444
940.991	19.04652
941.374	31.07265
941.757	-4.00931
942.139	-30.06457
942.522	18.03999
942.904	52.12012
943.286	-15.03603
943.668	-8.01999
944.05	37.08685
944.432	23.05405
944.814	50.11738
945.196	23.05439
945.578	-11.02516
945.959	19.04261
946.341	27.06169
946.722	-25.05564
947.104	58.1311
947.485	42.09276
947.866	-35.08478
948.247	-32.07773
948.628	41.09432
949.009	1.00248
949.39	12.02845
949.771	-9.01953
950.152	6.01406
950.532	-10.02414
950.913	47.10725
951.293	16.04182
951.674	-9.02061
952.054	30.07139
952.434	-58.13861
952.814	21.04723
953.194	-26.06478
953.574	-32.07425
953.954	-6.01362
954.334	-1.00236
954.714	11.0257
955.093	12.02795
955.473	29.06929
955.853	38.09465
956.232	29.07692
956.611	-3.00682
956.99	14.03411
957.37	31.07585
957.749	-46.10419
958.128	10.02446
958.506	4.00995
958.885	53.12862
959.264	18.04228
959.643	-12.02526
960.021	-4.0095
960.4	43.09296
960.778	12.02776
961.156	-30.07254
961.535	70.15474
961.913	32.07032
962.291	-9.0224
962.669	-34.08314
963.047	0
963.424	40.09731
963.802	-25.05914
964.18	-7.01674
964.557	-38.08084
964.935	-6.01343
965.312	-13.0327
965.69	27.06389
966.067	5.01151
966.444	6.01409
966.821	35.08608
967.198	34.07732
967.575	-1.00233
967.952	19.04213
968.329	48.11159
968.705	45.08982
969.082	55.13592
969.458	-19.04416
969.835	14.03229
970.211	11.02751
970.587	41.09729
970.963	45.11019
971.339	-30.07597
971.715	-6.01426
972.091	49.11492
972.467	34.0801
972.843	6.01433
973.219	-2.00445
973.594	1.00252
973.97	-7.0156
974.345	-5.01146
974.721	-16.03627
975.096	-6.01381
975.471	3.00675
975.846	11.02515
976.221	-26.06356
976.596	-27.06171
976.971	17.03983
977.346	12.02639
977.72	3.00739
978.095	28.06959
978.469	37.08372
978.844	-8.01893
979.218	28.0643
979.593	14.0318
979.967	-3.00695
980.341	8.01751
980.715	2.00479
981.089	-29.06969
981.463	20.04382
981.837	-8.01883
982.21	2.0043
982.584	22.05074
982.957	-11.02649
983.331	-7.01557
983.704	7.01663
984.078	1.00238
984.451	0
984.824	-13.03038
985.197	-29.06695
985.57	35.08391
985.943	44.10326
986.316	16.03699
986.688	29.0665
987.061	1.00221
987.434	18.04516
987.806	-23.05299
988.179	0
988.551	-23.0559
988.923	50.11798
989.295	40.09468
989.667	-25.05802
990.039	-8.01914
990.411	20.04377
990.783	14.03022
991.155	14.03251
991.527	4.00914
991.898	-5.01196
992.27	-11.02621
992.641	21.04983
993.012	-8.01777
993.384	11.02491
993.755	12.02928
994.126	16.0368
994.497	10.02352
994.868	-21.04563
995.239	-39.08968
995.61	-4.00962
995.98	45.10509
996.351	42.10033
996.722	-38.08442
997.092	3.00684
997.462	65.14743
997.833	26.05783
998.203	22.05011
998.573	27.06486
998.943	10.02232
999.313	16.03649
999.683	14.03252
1000.053	29.0628
1000.423	29.0673
1000.792	-12.0298
1001.162	12.02852
1001.531	-1.00233
1001.901	10.02384
1002.27	17.03541
1002.639	2.00489
1003.009	28.0636
1003.378	17.04156
1003.747	46.10389
1004.116	1.00229
1004.485	14.03204
1004.853	-11.0266
1005.222	22.05262
1005.591	13.02889
1005.959	77.16761
1006.328	76.16357
1006.696	76.17633
1007.064	-19.0458
1007.433	-41.09778
1007.801	7.01639
1008.169	28.06801
1008.537	-41.08499
1008.905	-5.01122
1009.273	14.03271
1009.64	0
1010.008	42.09548
1010.375	-80.17987
1010.743	-16.0342
1011.11	34.07713
1011.478	22.05167
1011.845	0
1012.212	-6.01283
1012.579	52.1207
1012.946	-1.00224
1013.313	39.08716
1013.68	-32.06668
1014.047	4.00912
1014.414	8.01822
1014.78	21.04975
1015.147	41.0933
1015.513	15.03466
1015.88	25.06051
1016.246	8.01878
1016.612	63.13364
1016.978	7.01626
1017.344	4.00935
1017.71	-17.03831
1018.076	35.07706
1018.442	19.04676
1018.808	45.10814
1019.174	-3.00725
1019.539	7.01498
1019.905	54.1235
1020.27	25.05948
1020.636	-21.04736
1021.001	58.13233
1021.366	-30.06883
1021.731	59.14318
1022.096	-2.0049
1022.461	53.11816
1022.826	34.07685
1023.191	-14.03541
1023.556	32.07103
1023.92	-3.00701
1024.285	58.1343
1024.649	-9.02094
1025.014	26.06073
1025.378	13.03135
1025.742	44.10471
1026.107	2.00422
1026.471	10.02169
1026.835	77.18454
1027.199	-29.0673
1027.562	46.10177
1027.926	22.05072
1028.29	16.03843
1028.654	-4.00868
1029.017	-17.03983
1029.381	50.11481
1029.744	4.00982
1030.107	-6.01329
1030.471	24.05491
1030.834	23.04947
1031.197	-20.04495
1031.56	24.0535
1031.923	-9.02244
1032.286	-15.03289
1032.648	14.0318
1033.011	45.09866
1033.374	-26.05678
1033.736	17.04304
1034.099	-14.03252
1034.461	17.04177
1034.823	-23.05504
1035.185	21.05052
1035.548	8.01855
1035.91	-15.03413
1036.272	29.06186
1036.634	29.06631
1036.995	-15.03346
1037.357	-20.04639
1037.719	36.08273
1038.08	-6.01342
1038.442	68.15427
1038.803	23.05242
1039.165	28.06743
1039.526	-15.03435
1039.887	20.04591
1040.248	-23.05498
1040.609	45.10497
1040.97	55.12864
1041.331	36.08708
1041.692	-12.0269
1042.053	5.01073
1042.413	26.0574
1042.774	11.02529
1043.134	40.08846
1043.495	-11.02633
1043.855	-3.00687
1044.215	48.11366
1044.576	-7.01613
1044.936	-7.01506
1045.296	-14.03311
1045.656	-48.11198
1046.016	9.02053
1046.375	54.12415
1046.735	42.09129
1047.095	38.08396
1047.454	1.00194
1047.814	38.08771
1048.173	0
1048.533	-3.00656
1048.892	53.12299
1049.251	44.10459
1049.61	-25.05861
1049.969	-8.01793
1050.328	12.02421
1050.687	-3.00699
1051.046	24.05586
1051.405	3.00709
1051.763	-61.13538
1052.122	0
1052.48	45.10558
1052.839	-44.09889
1053.197	-6.01341
1053.555	50.10506
1053.914	7.01623
1054.272	36.08253
1054.63	-13.03069
1054.988	16.0365
1055.345	-3.00607
1055.703	22.05028
1056.061	-4.00989
1056.419	26.06488
1056.776	82.18693
1057.134	-11.02432
1057.491	33.079
1057.848	-51.1205
1058.206	-31.06831
1058.563	11.02276
1058.92	54.11562
1059.277	35.08141
1059.634	56.12358
1059.991	-34.07535
1060.348	35.07547
1060.704	24.05518
1061.061	50.10789
1061.418	3.00705
1061.774	9.02119
1062.131	26.06691
1062.487	36.08024
1062.843	28.06681
1063.199	3.00709
1063.555	10.02211
1063.911	75.17988
1064.267	-18.03483
1064.623	-32.07448
1064.979	-29.06356
1065.335	-49.10974
1065.691	-40.0899
1066.046	8.0166
1066.402	60.12969
1066.757	1.00241
1067.112	-1.00233
1067.468	29.06556
1067.823	60.13656
1068.178	-8.01833
1068.533	26.05982
1068.888	7.01574
1069.243	5.01171
1069.598	33.07619
1069.952	-66.14412
1070.307	45.10694
1070.662	19.04248
1071.016	33.0707
1071.371	-10.02151
1071.725	-46.10321
1072.079	43.09919
1072.434	-55.1288
1072.788	3.00677
1073.142	-43.09943
1073.496	-15.03377
1073.85	19.04141
1074.203	-18.04133
1074.557	18.04597
1074.911	50.11053
1075.265	40.08801
1075.618	18.04168
1075.971	43.09777
1076.325	18.04364
1076.678	11.02393
1077.031	22.04711
1077.385	28.05723
1077.738	22.04729
1078.091	27.0586
1078.444	7.01539
1078.796	33.07755
1079.149	46.10934
1079.502	21.04713
1079.855	-9.01992
1080.207	24.05582
1080.56	8.01994
1080.912	8.01841
1081.264	24.05449
1081.617	30.06927
1081.969	-17.04153
1082.321	40.09325
1082.673	-7.01516
1083.025	-49.11019
1083.377	16.03131
1083.728	62.13614
1084.08	-45.10756
1084.432	-11.02549
1084.783	36.07861
1085.135	25.06012
1085.486	-13.02861
1085.838	-9.02122
1086.189	13.03013
1086.54	-1.00225
1086.891	-5.01214
1087.242	-17.03933
1087.593	-36.08253
1087.944	57.12186
1088.295	52.10975
1088.646	-66.15228
1088.996	28.06455
1089.347	-70.16517
1089.698	-6.0136
1090.048	29.07227
1090.398	-16.035
1090.749	38.08624
1091.099	47.1147
1091.449	34.08104
1091.799	-16.03825
1092.149	20.04716
1092.499	41.09507
1092.849	7.0171
1093.199	33.07785
1093.548	31.07077
1093.898	58.13845
1094.248	-5.01228
1094.597	6.01507
1094.947	47.12052
1095.296	33.07837
1095.645	-14.03472
1095.994	-52.11816
1096.343	-45.10723
1096.692	-49.12507
1097.041	6.01606
1097.39	38.09081
1097.739	5.01246
1098.088	-26.06642
1098.437	10.02568
1098.785	57.14906
1099.134	2.00505
1099.482	-13.03433
1099.83	67.16933
1100.179	27.06836
1100.527	33.08503
1100.875	19.04875
1101.223	12.03069
1101.571	17.04584
1101.919	-14.03594
1102.267	-5.01385
1102.615	4.01285
1102.962	-13.04173
1103.31	1.00321
1103.658	4.01283
