Data from N3 R8 sample 10_Subt2__4__13-40-12-664.txt Node

Date: Mon Sep 22 13:40:12 PDT 2025
User: uwsun
Spectrometer: HDX01956
Trigger mode: 0
Integration Time (sec): 5.000000E-1
Scans to average: 1
Nonlinearity correction enabled: true
Boxcar width: 0
Storing dark spectrum: false
XAxis mode: Wavelengths
Number of Pixels in Spectrum: 2068
>>>>>Begin Spectral Data<<<<<
194.03	15.04355
194.578	21.06811
195.127	22.0705
195.676	19.06092
196.225	13.03457
196.773	-25.06943
197.321	62.17236
197.87	71.18225
198.418	87.22418
198.966	116.30568
199.513	102.25774
200.061	100.25565
200.609	99.26136
201.156	106.23431
201.704	91.23187
202.251	107.28466
202.798	108.2821
203.345	96.2365
203.892	73.18561
204.438	35.08286
204.985	111.26481
205.532	83.2206
206.078	76.18695
206.624	118.29273
207.17	87.20189
207.716	105.25834
208.262	103.20368
208.808	131.32764
209.354	122.30022
209.899	147.37296
210.445	133.33469
210.99	105.25681
211.535	112.26037
212.08	140.32854
212.625	58.14661
213.17	71.1779
213.715	56.12689
214.259	159.36722
214.804	140.34311
215.348	146.33565
215.892	87.20843
216.436	68.15715
216.98	105.23215
217.524	125.29638
218.068	64.15894
218.612	87.2165
219.155	75.17769
219.698	53.12537
220.242	59.14597
220.785	150.34939
221.328	105.26024
221.871	20.04991
222.414	90.22049
222.956	58.13956
223.499	121.27255
224.041	95.2188
224.583	77.16455
225.126	94.20457
225.668	101.24298
226.21	88.2207
226.751	81.17707
227.293	60.1364
227.835	97.23513
228.376	154.3444
228.918	91.22801
229.459	76.18957
230	98.23052
230.541	111.25248
231.082	58.13956
231.622	91.20624
232.163	83.20097
232.704	70.17277
233.244	88.21663
233.784	72.17456
234.324	29.06358
234.864	51.11469
235.404	100.23614
235.944	120.28436
236.484	69.16826
237.023	107.25017
237.563	105.23971
238.102	66.15398
238.641	71.17848
239.18	75.17652
239.719	20.0498
240.258	70.15525
240.797	126.29823
241.335	41.10021
241.874	32.06127
242.412	105.24838
242.95	96.23082
243.488	53.11987
244.026	112.25924
244.564	136.27493
245.102	131.29085
245.64	85.20123
246.177	111.24716
246.715	105.24694
247.252	89.20187
247.789	113.20492
248.326	86.20686
248.863	112.24281
249.4	63.14075
249.936	113.22932
250.473	94.21714
251.009	70.16009
251.546	92.20039
252.082	157.33972
252.618	96.21292
253.154	106.25235
253.69	103.22878
254.226	79.18782
254.761	109.24079
255.297	80.17351
255.832	79.18811
256.367	87.20357
256.903	117.2523
257.438	125.29317
257.972	76.1668
258.507	100.23174
259.042	181.38896
259.576	92.19681
260.111	64.14625
260.645	90.19128
261.179	136.31379
261.713	91.2033
262.247	139.31911
262.781	171.3548
263.315	91.22298
263.849	61.15158
264.382	107.2424
264.915	114.26471
265.449	76.18723
265.982	103.23201
266.515	108.25987
267.048	101.20816
267.58	119.25286
268.113	69.14713
268.646	130.31837
269.178	140.31645
269.71	79.17087
270.243	66.1479
270.775	98.2456
271.307	114.26951
271.838	147.33923
272.37	133.32638
272.902	68.15364
273.433	88.19086
273.965	90.21623
274.496	104.25734
275.027	128.3158
275.558	130.31031
276.089	167.41405
276.62	115.29209
277.15	122.29622
277.681	67.14436
278.211	89.21687
278.741	155.33811
279.272	97.22189
279.802	168.41478
280.332	89.20898
280.861	76.18148
281.391	130.29049
281.921	114.27087
282.45	120.29758
282.98	139.35691
283.509	163.36324
284.038	98.21925
284.567	65.15042
285.096	130.31138
285.625	86.19328
286.153	130.30221
286.682	162.36677
287.21	147.34706
287.739	130.30186
288.267	119.28715
288.795	157.40819
289.323	74.17244
289.851	128.29298
290.378	95.21364
290.906	183.44174
291.433	135.33104
291.961	121.27132
292.488	135.3319
293.015	160.36754
293.542	109.27203
294.069	138.33733
294.596	128.31242
295.122	86.2019
295.649	166.35758
296.175	126.30157
296.702	128.30132
297.228	186.44516
297.754	46.10151
298.28	169.3802
298.806	119.28313
299.332	214.47363
299.857	179.40121
300.383	125.30822
300.908	147.35431
301.433	179.42947
301.958	149.34029
302.483	141.3487
303.008	146.35689
303.533	135.34531
304.058	106.24506
304.582	165.38274
305.107	132.34066
305.631	150.33143
306.155	210.47911
306.679	218.50617
307.203	171.38754
307.727	145.33702
308.251	132.3199
308.775	165.38713
309.298	156.3668
309.822	142.35406
310.345	160.37723
310.868	199.46963
311.391	140.33674
311.914	192.47385
312.437	184.40758
312.96	192.44087
313.482	181.42118
314.005	182.44967
314.527	168.43521
315.049	168.41539
315.571	210.45915
316.093	145.35108
316.615	197.46834
317.137	230.48989
317.659	237.55974
318.18	176.41624
318.702	182.41389
319.223	189.37988
319.744	187.41293
320.265	199.47782
320.786	186.45364
321.307	194.47121
321.828	181.40102
322.348	214.48705
322.869	210.4849
323.389	496.84911
323.909	194.43241
324.43	199.46197
324.95	275.61636
325.47	237.57056
325.989	225.51819
326.509	194.42273
327.029	193.42778
327.548	256.56894
328.067	210.49569
328.587	232.55969
329.106	211.46748
329.625	217.54428
330.144	237.52989
330.662	291.66268
331.181	200.45187
331.7	226.51082
332.218	256.53602
332.736	286.64141
333.255	291.649
333.773	309.70679
334.291	295.70613
334.808	274.59248
335.326	358.76681
335.844	343.76938
336.361	299.73475
336.879	284.63195
337.396	360.83251
337.913	369.81612
338.43	294.63165
338.947	249.5691
339.464	323.67256
339.981	332.75618
340.497	326.77332
341.014	326.76257
341.53	326.69888
342.046	413.95788
342.562	315.7468
343.078	368.81781
343.594	338.76891
344.11	462.02719
344.626	386.91348
345.141	357.77012
345.657	401.84944
346.172	372.84897
346.687	369.80555
347.202	319.67576
347.717	470.05538
348.232	397.92588
348.747	393.85322
349.261	397.81633
349.776	416.91755
350.29	466.0844
350.805	403.93321
351.319	470.01601
351.833	395.83746
352.347	445.98458
352.861	438.94584
353.374	445.93851
353.888	404.91975
354.401	457.97312
354.915	417.87098
355.428	501.15016
355.941	473.0188
356.454	537.08947
356.967	451.98203
357.48	499.0611
357.993	502.12229
358.505	453.03938
359.018	454.01689
359.53	515.15211
360.042	496.01645
360.554	468.03711
361.066	485.0938
361.578	532.06185
362.09	462.01146
362.602	520.04891
363.113	565.18761
363.625	536.08868
364.136	515.02333
364.647	599.28019
365.158	595.2601
365.669	576.2392
366.18	605.29191
366.691	659.29603
367.201	596.26745
367.712	605.23718
368.222	586.19312
368.733	608.18686
369.243	646.27788
369.753	641.3186
370.263	619.31671
370.773	561.24485
371.282	619.29729
371.792	667.36169
372.301	635.37654
372.811	703.63181
373.32	700.31897
373.829	701.4532
374.338	719.40228
374.847	711.44311
375.356	766.59269
375.865	822.51371
376.373	870.69364
376.882	833.78468
377.39	906.83813
377.898	910.89739
378.407	983.80046
378.915	1023.7979
379.423	1075.05384
379.93	1111.99575
380.438	1164.22485
380.946	1210.19333
381.453	1207.25803
381.96	1270.33035
382.468	1336.33491
382.975	1463.56799
383.482	1518.36282
383.989	1560.88306
384.495	1607.50925
385.002	1632.25382
385.509	1757.74774
386.015	1846.18144
386.521	2019.67417
387.028	2134.81145
387.534	2098.57716
388.04	2175.93944
388.546	2353.82243
389.051	2445.70333
389.557	2610.05835
390.063	2750.81194
390.568	2855.101
391.073	3016.72017
391.578	3093.2538
392.084	3256.80793
392.589	3396.38823
393.093	3622.84665
393.598	3945.45006
394.103	4325.60952
394.607	4691.30187
395.112	5001.30778
395.616	5287.96867
396.12	5905.3203
396.624	6372.32751
397.128	6964.42042
397.632	7806.74925
398.136	8307.16912
398.639	8815.01929
399.143	10115.20646
399.646	11263.18955
400.15	12516.69066
400.653	13928.01318
401.156	15783.05021
401.659	18306.44281
402.162	22618.88527
402.664	30609.56893
403.167	45759.68829
403.67	58117.15892
404.172	52566.9044
404.674	31176.06428
405.176	3757.7064
405.678	27.69154
406.18	0
406.682	0
407.184	45159.96023
407.686	58897.86778
408.187	61455.21265
408.688	62150.63916
409.19	47762.86242
409.691	38568.13696
410.192	32766.84954
410.693	28542.45591
411.194	26029.77541
411.694	24783.4702
412.195	22774.07795
412.696	20703.06289
413.196	19637.80843
413.696	19110.90024
414.196	19375.49203
414.696	18663.21066
415.196	17549.66842
415.696	15734.1524
416.196	12331.60779
416.695	9704.09353
417.195	8683.81015
417.694	8260.96917
418.194	7737.33973
418.693	7287.25432
419.192	7028.29927
419.691	6939.27278
420.19	6671.4456
420.688	6519.55093
421.187	6245.75186
421.685	5773.44458
422.184	5325.71592
422.682	4437.8023
423.18	3929.53312
423.678	3499.71708
424.176	3233.70752
424.674	2978.62146
425.172	2952.98837
425.669	2783.35139
426.167	2577.87968
426.664	2348.8132
427.161	2185.81398
427.659	2002.91417
428.156	1812.3019
428.652	1748.94441
429.149	1691.75099
429.646	1559.28463
430.143	1519.54568
430.639	1421.38168
431.135	1321.44055
431.632	1285.14545
432.128	1197.15709
432.624	1094.21633
433.12	1129.9497
433.616	1068.75006
434.111	1051.94073
434.607	1043.96521
435.103	976.58631
435.598	914.43041
436.093	910.70122
436.588	840.50907
437.083	735.34948
437.578	710.36733
438.073	756.5921
438.568	657.35824
439.062	655.17276
439.557	630.26714
440.051	618.20299
440.546	671.32897
441.04	622.29009
441.534	591.3039
442.028	521.0738
442.522	504.06035
443.015	564.06019
443.509	517.10612
444.002	504.07989
444.496	530.01867
444.989	523.11898
445.482	529.1645
445.975	505.01463
446.468	477.90351
446.961	440.83036
447.454	487.97522
447.947	417.87484
448.439	412.89465
448.931	403.81149
449.424	419.93325
449.916	356.7678
450.408	355.7155
450.9	472.0173
451.392	340.77346
451.884	344.69604
452.375	333.74511
452.867	380.75479
453.358	346.70938
453.849	406.76055
454.341	392.78698
454.832	287.55502
455.323	318.70583
455.814	340.70465
456.304	314.65047
456.795	307.6327
457.285	301.59996
457.776	274.55847
458.266	271.58587
458.756	364.79313
459.247	275.59655
459.737	287.62046
460.226	323.66418
460.716	260.56173
461.206	288.62648
461.695	290.65706
462.185	275.59096
462.674	240.50475
463.163	270.54981
463.653	265.50216
464.142	203.44919
464.63	220.49117
465.119	283.60631
465.608	257.54085
466.096	238.47958
466.585	246.51007
467.073	195.43149
467.561	273.60079
468.05	272.58489
468.538	219.49066
469.026	246.54377
469.513	256.50801
470.001	289.60846
470.489	192.42317
470.976	171.36779
471.463	195.4439
471.951	157.36491
472.438	205.44774
472.925	209.4588
473.412	174.39986
473.899	145.30972
474.385	132.30201
474.872	174.38639
475.359	151.34583
475.845	120.23401
476.331	199.40311
476.817	185.42028
477.303	155.34327
477.789	133.30362
478.275	145.34167
478.761	124.2812
479.247	114.23955
479.732	118.27983
480.218	99.24618
480.703	173.40638
481.188	143.28702
481.673	130.28015
482.158	117.24026
482.643	107.25702
483.128	57.12408
483.612	94.2103
484.097	91.21034
484.581	75.1643
485.066	82.18731
485.55	41.0856
486.034	88.1814
486.518	121.27021
487.002	82.19491
487.486	87.20309
487.969	91.21418
488.453	103.2492
488.936	31.06828
489.42	62.12994
489.903	71.17236
490.386	100.21726
490.869	105.21669
491.352	106.24837
491.835	100.19473
492.318	64.13946
492.8	55.10856
493.283	44.10772
493.765	53.12615
494.247	35.07768
494.73	66.1393
495.212	22.05046
495.694	84.18847
496.175	37.08583
496.657	34.07679
497.139	47.07675
497.62	-10.0232
498.102	44.10559
498.583	24.05797
499.064	58.12478
499.545	62.13659
500.026	32.06946
500.507	9.02013
500.988	-7.01671
501.469	45.10982
501.949	55.13046
502.43	42.09752
502.91	33.06562
503.39	-20.04833
503.87	44.10063
504.35	-33.07406
504.83	67.14181
505.31	-10.02349
505.79	0
506.269	33.07357
506.749	50.11117
507.228	20.0453
507.707	50.10645
508.187	-15.03431
508.666	14.03343
509.145	-52.11768
509.623	-16.03634
510.102	-32.07433
510.581	-3.00692
511.059	-50.12209
511.538	-67.16679
512.016	-62.14243
512.494	-16.0377
512.972	-35.08045
513.45	-3.00686
513.928	-5.01169
514.406	-49.11587
514.884	-33.08206
515.361	-17.03898
515.839	-24.05374
516.316	-23.05369
516.793	-48.11825
517.27	-33.07713
517.747	-29.0729
518.224	-30.06676
518.701	-29.06232
519.178	-71.17198
519.654	-65.14887
520.131	-19.0454
520.607	-46.11039
521.083	-46.10194
521.56	-48.11075
522.036	1.00211
522.512	6.01413
522.987	-1.00231
523.463	-56.12905
523.939	-3.00704
524.414	-51.11271
524.89	-20.04624
525.365	-58.12649
525.84	-82.19236
526.315	-54.12633
526.79	-63.13679
527.265	-72.15909
527.74	-34.08082
528.215	-65.14839
528.689	-110.23593
529.164	-57.11853
529.638	-77.19356
530.112	-45.10352
530.587	-36.07468
531.061	-85.1985
531.534	-89.20915
532.008	-63.1473
532.482	-21.04606
532.956	-94.23404
533.429	-73.17128
533.903	-42.08876
534.376	-90.19245
534.849	-71.15842
535.322	-87.19781
535.795	-91.21276
536.268	-85.20006
536.741	-89.20694
537.213	-97.21581
537.686	-102.24217
538.158	-38.08302
538.631	-95.22299
539.103	-48.10433
539.575	-105.20909
540.047	-121.25588
540.519	-101.23057
540.991	-104.24663
541.463	-27.06343
541.934	-107.23727
542.406	-121.28001
542.877	0
543.348	-123.28713
543.82	-50.11812
544.291	-65.14731
544.762	-116.26658
545.233	-71.17243
545.703	-111.23967
546.174	-21.04703
546.645	-81.19161
547.115	-10.02333
547.585	-52.116
548.056	-85.20169
548.526	0
548.996	-85.19803
549.466	-62.14777
549.935	-35.08093
550.405	-56.11949
550.875	-82.1889
551.344	-47.1092
551.814	-47.10413
552.283	3.00623
552.752	-5.01124
553.221	-8.01705
553.69	-9.01947
554.159	-54.12989
554.628	-7.01515
555.096	-25.06151
555.565	-32.06816
556.033	-40.09056
556.502	-64.14955
556.97	-123.26558
557.438	-34.07695
557.906	-127.28946
558.374	-50.11219
558.842	-42.09652
559.31	-110.23685
559.777	-50.11894
560.245	-74.16549
560.712	-70.15655
561.18	-92.19698
561.647	-31.06751
562.114	-33.07315
562.581	-29.06884
563.048	-63.13865
563.514	-59.13946
563.981	-74.1631
564.448	-23.05083
564.914	-48.10708
565.381	0
565.847	-101.22871
566.313	-69.15409
566.779	-27.05842
567.245	-65.14773
567.711	-18.04196
568.176	-78.16838
568.642	-41.09942
569.108	-20.04723
569.573	-40.08923
570.038	-17.03381
570.504	-20.0431
570.969	-23.05554
571.434	-47.0997
571.899	-66.15028
572.363	37.08044
572.828	-15.03243
573.293	-25.05486
573.757	-24.05232
574.222	-27.05765
574.686	-53.1164
575.15	-59.13534
575.614	-19.0416
576.078	-15.03402
576.542	-48.10446
577.006	-17.0369
577.469	4.0093
577.933	-48.10237
578.396	-31.07066
578.86	-90.20252
579.323	-10.02282
579.786	-35.07207
580.249	-63.13749
580.712	-25.05896
581.175	-67.15868
581.637	-65.14119
582.1	-86.1788
582.563	-72.14508
583.025	-55.12839
583.487	-17.03269
583.95	-29.06004
584.412	-6.01202
584.874	-79.18093
585.336	-22.05005
585.797	-39.08063
586.259	-73.16255
586.721	-82.18482
587.182	-71.15403
587.643	-43.09169
588.105	-13.02915
588.566	-100.20039
589.027	2.00459
589.488	-97.21043
589.949	-34.0781
590.41	-64.12089
590.87	-15.03222
591.331	-48.0973
591.791	-70.15402
592.252	-79.17321
592.712	-33.0754
593.172	-58.123
593.632	-30.06148
594.092	75.15527
594.552	-40.0806
595.011	-38.08189
595.471	-33.06823
595.931	-11.02312
596.39	-20.04515
596.849	-27.05895
597.308	47.09399
597.768	-23.05544
598.227	53.11968
598.685	31.0663
599.144	77.16875
599.603	62.13304
600.062	58.11386
600.52	43.08962
600.978	42.0921
601.437	42.08732
601.895	92.17983
602.353	110.21839
602.811	88.17585
603.269	114.24694
603.727	143.31194
604.184	189.38829
604.642	128.28129
605.099	214.44173
605.557	180.3924
606.014	251.47656
606.471	231.51775
606.928	262.50291
607.385	312.68906
607.842	337.66359
608.299	281.56922
608.755	341.72078
609.212	403.76742
609.668	388.7376
610.125	387.80617
610.581	422.84564
611.037	430.81785
611.493	464.92164
611.949	490.0064
612.405	420.70583
612.861	547.05115
613.316	487.97296
613.772	493.94568
614.227	483.96363
614.683	505.88799
615.138	538.05098
615.593	504.004
616.048	531.00416
616.503	561.15121
616.958	595.25571
617.412	580.15462
617.867	429.80543
618.321	500.83943
618.776	482.88245
619.23	463.92587
619.684	448.83344
620.138	467.89321
620.592	420.87588
621.046	454.90051
621.5	439.92261
621.954	384.72288
622.407	387.72907
622.861	463.9739
623.314	346.65935
623.768	363.73162
624.221	403.68706
624.674	328.65302
625.127	319.65152
625.58	325.63273
626.033	330.62122
626.485	324.6877
626.938	339.70996
627.39	342.68818
627.843	283.57117
628.295	256.52724
628.747	259.54218
629.199	302.60041
629.651	271.55273
630.103	278.56791
630.555	278.5156
631.006	227.47835
631.458	213.45793
631.909	163.32822
632.361	193.40438
632.812	223.46868
633.263	201.3861
633.714	190.36365
634.165	184.40248
634.616	137.29999
635.067	191.38141
635.518	176.37732
635.968	226.39889
636.419	168.32715
636.869	193.41529
637.319	202.42221
637.769	213.43088
638.219	153.32979
638.669	144.31924
639.119	189.4217
639.569	151.34026
640.019	163.34047
640.468	233.47263
640.918	224.49059
641.367	167.33736
641.816	186.37583
642.265	232.48685
642.714	204.42525
643.163	200.4197
643.612	276.61389
644.061	252.49072
644.51	241.50428
644.958	240.47648
645.406	208.45362
645.855	206.45821
646.303	232.48706
646.751	213.43957
647.199	252.5176
647.647	269.56287
648.095	260.54295
648.543	251.4524
648.99	280.61012
649.438	267.55942
649.885	302.67812
650.333	259.44032
650.78	240.53183
651.227	221.48984
651.674	264.54494
652.121	274.60616
652.568	215.4809
653.015	204.46748
653.461	310.6729
653.908	203.43079
654.354	197.42553
654.801	322.69001
655.247	286.56171
655.693	237.5751
656.139	304.66831
656.585	200.43655
657.031	200.43285
657.477	258.50719
657.922	277.57986
658.368	194.4385
658.813	230.48755
659.259	245.53873
659.704	294.62675
660.149	257.54728
660.594	235.50718
661.039	207.43678
661.484	204.44188
661.929	272.58363
662.373	240.56429
662.818	159.36356
663.262	209.47172
663.707	247.58448
664.151	240.53427
664.595	219.49369
665.039	192.43787
665.483	215.50936
665.927	264.56964
666.371	239.52045
666.814	198.43529
667.258	223.49427
667.701	220.4278
668.145	233.5319
668.588	242.54988
669.031	247.54358
669.474	237.5277
669.917	256.51585
670.36	218.50377
670.803	242.53247
671.245	192.36392
671.688	281.63214
672.13	234.48714
672.573	236.55164
673.015	280.61426
673.457	298.59329
673.899	219.48702
674.341	246.55103
674.783	235.52802
675.225	243.55092
675.666	221.49534
676.108	297.59447
676.549	321.69544
676.991	282.56876
677.432	333.60145
677.873	251.53543
678.314	272.59947
678.755	321.71205
679.196	345.72092
679.637	261.58788
680.078	274.57523
680.518	311.65449
680.959	275.60393
681.399	349.79409
681.839	318.70701
682.28	347.79049
682.72	312.65096
683.16	329.75343
683.6	306.63078
684.039	274.51224
684.479	302.68258
684.919	333.71127
685.358	318.72634
685.798	337.8229
686.237	317.69146
686.676	298.60766
687.115	440.9241
687.554	375.80478
687.993	337.66922
688.432	323.66478
688.871	350.71823
689.309	449.95734
689.748	338.61564
690.186	415.87871
690.625	416.87832
691.063	390.83029
691.501	386.8489
691.939	417.9361
692.377	415.91286
692.815	478.02188
693.253	420.88793
693.69	427.81827
694.128	433.93044
694.565	511.07723
695.003	465.05417
695.44	450.94344
695.877	412.86072
696.314	502.9149
696.751	531.05224
697.188	557.10901
697.625	512.99469
698.061	516.08945
698.498	594.23523
698.934	516.07897
699.371	527.07986
699.807	535.0859
700.243	577.20115
700.679	626.18276
701.115	576.13813
701.551	605.20867
701.987	605.12263
702.422	629.2904
702.858	584.18904
703.294	698.3094
703.729	688.41764
704.164	703.4223
704.599	698.27273
705.035	736.3625
705.47	748.52072
705.904	732.41382
706.339	716.35974
706.774	770.47597
707.209	723.3854
707.643	762.5253
708.078	865.74171
708.512	820.72926
708.946	850.64916
709.38	816.56429
709.814	801.45101
710.248	869.72894
710.682	839.61038
711.116	919.80652
711.549	852.80463
711.983	865.59106
712.416	973.78121
712.85	964.87778
713.283	952.76412
713.716	997.9527
714.149	966.77414
714.582	976.65124
715.015	1038.04164
715.448	977.92518
715.881	1064.69133
716.313	1023.8232
716.746	1111.97133
717.178	1099.00102
717.61	1096.13079
718.043	1147.16229
718.475	1191.17021
718.907	1197.25572
719.339	1204.00894
719.77	1222.127
720.202	1289.4343
720.634	1262.2764
721.065	1226.10942
721.497	1336.3191
721.928	1296.34744
722.359	1368.37368
722.79	1408.40253
723.221	1381.52279
723.652	1427.61235
724.083	1458.23981
724.514	1544.38294
724.945	1460.39401
725.375	1603.51874
725.806	1540.61804
726.236	1565.79915
726.666	1540.45409
727.096	1561.58275
727.526	1582.77588
727.956	1561.29454
728.386	1662.69367
728.816	1681.90731
729.246	1644.64503
729.675	1699.7626
730.105	1728.73664
730.534	1707.48486
730.964	1773.89685
731.393	1810.86477
731.822	1770.91971
732.251	1892.0562
732.68	1835.63534
733.109	1868.88946
733.537	1834.80517
733.966	1898.93314
734.395	1843.53858
734.823	1887.4477
735.251	1962.86694
735.68	1930.9251
736.108	1901.05988
736.536	1894.6426
736.964	1955.68082
737.392	2019.07854
737.82	1944.82817
738.247	1966.74003
738.675	1965.69484
739.102	1904.95609
739.53	1895.06533
739.957	1899.06171
740.384	1943.86695
740.811	1925.99343
741.238	1981.88215
741.665	1995.72824
742.092	1881.64472
742.519	1912.95339
742.945	1864.77071
743.372	1940.92847
743.798	1892.09848
744.225	1928.81637
744.651	1857.89785
745.077	1860.94654
745.503	1862.77428
745.929	1809.69492
746.355	1841.7874
746.781	1863.88577
747.207	1806.6576
747.632	1772.77227
748.058	1775.78574
748.483	1743.43964
748.908	1798.90507
749.334	1796.78625
749.759	1703.52425
750.184	1671.60279
750.609	1755.7634
751.033	1720.52158
751.458	1696.31391
751.883	1711.80074
752.307	1679.53748
752.732	1643.82333
753.156	1634.70966
753.58	1619.44283
754.005	1624.74716
754.429	1521.37095
754.853	1470.52229
755.277	1531.41967
755.7	1530.57047
756.124	1500.60536
756.548	1466.38407
756.971	1420.38578
757.394	1502.76591
757.818	1557.85837
758.241	1411.54564
758.664	1444.62056
759.087	1442.18788
759.51	1297.30723
759.933	1368.34881
760.356	1391.60588
760.778	1365.39888
761.201	1356.34042
761.623	1334.33018
762.046	1266.12102
762.468	1290.15326
762.89	1321.36215
763.312	1239.16181
763.734	1249.19984
764.156	1245.27806
764.578	1264.07637
765	1201.14017
765.421	1162.27859
765.843	1171.34194
766.264	1119.0017
766.686	1108.13688
767.107	1110.01247
767.528	1093.14252
767.949	1091.15162
768.37	1049.99004
768.791	1057.95571
769.212	1024.02534
769.632	990.78377
770.053	1026.15095
770.473	955.80879
770.894	982.94725
771.314	847.56179
771.734	843.55595
772.154	923.90199
772.575	912.63454
772.994	865.57038
773.414	855.64114
773.834	840.69481
774.254	730.45375
774.673	863.68994
775.093	802.65874
775.512	729.47296
775.931	749.5618
776.351	688.43161
776.77	758.55576
777.189	725.42939
777.607	665.43797
778.026	689.45118
778.445	643.38087
778.864	676.46085
779.282	647.31483
779.701	619.3344
780.119	589.27073
780.537	611.31882
780.955	620.34142
781.373	577.21607
781.791	529.01063
782.209	521.00157
782.627	507.18066
783.045	548.07764
783.462	498.11196
783.88	485.11249
784.297	511.12717
784.715	482.10405
785.132	450.96259
785.549	458.01702
785.966	466.03139
786.383	442.96795
786.8	442.88777
787.217	378.7932
787.633	393.8902
788.05	360.73075
788.466	381.78944
788.883	393.91655
789.299	407.87571
789.715	379.82283
790.131	319.71497
790.547	305.69006
790.963	375.84287
791.379	347.80389
791.795	347.69326
792.21	276.58327
792.626	249.53854
793.041	341.76741
793.457	260.5879
793.872	268.57976
794.287	281.62229
794.702	234.5289
795.117	274.63014
795.532	236.55078
795.947	158.34312
796.362	215.46541
796.776	267.55299
797.191	219.49389
797.605	192.42281
798.02	214.47956
798.434	141.28445
798.848	187.43274
799.262	255.58844
799.676	162.3587
800.09	188.42753
800.504	162.36423
800.918	138.29739
801.331	167.40829
801.745	107.22875
802.158	138.32372
802.572	129.29045
802.985	129.28688
803.398	165.36526
803.811	146.35104
804.224	133.30668
804.637	199.44347
805.05	100.21485
805.462	155.35584
805.875	140.34603
806.288	135.30521
806.7	100.23724
807.112	118.2556
807.525	67.15425
807.937	160.37782
808.349	129.30314
808.761	96.22441
809.173	103.23457
809.584	73.16941
809.996	97.22786
810.408	85.21106
810.819	85.18919
811.231	72.18284
811.642	108.25375
812.053	133.30522
812.464	161.3668
812.875	57.13796
813.286	59.14586
813.697	42.09055
814.108	99.2281
814.519	1.0021
814.929	130.31482
815.34	0
815.75	83.20217
816.16	30.07101
816.571	53.13189
816.981	84.1863
817.391	68.15671
817.801	49.11699
818.211	66.14736
818.62	-15.03446
819.03	80.18569
819.44	54.13387
819.849	60.14536
820.259	44.10712
820.668	4.00935
821.077	57.13562
821.486	71.16058
821.895	82.19161
822.304	2.00511
822.713	43.09638
823.122	49.11676
823.531	28.06267
823.939	-8.01864
824.348	112.25842
824.756	22.05248
825.164	26.06237
825.573	0
825.981	104.24463
826.389	9.02141
826.797	32.07644
827.205	11.02433
827.612	51.11938
828.02	53.11933
828.428	47.11453
828.835	51.12871
829.243	51.11431
829.65	34.08141
830.057	27.06276
830.464	36.08481
830.871	46.10245
831.278	6.01386
831.685	46.09623
832.092	84.19551
832.499	39.07933
832.905	17.04077
833.312	21.0447
833.718	63.14995
834.124	101.21733
834.531	39.09343
834.937	-8.01961
835.343	-41.09398
835.749	20.0436
836.155	-9.02268
836.561	33.07812
836.966	0
837.372	58.14035
837.777	60.14361
838.183	67.13771
838.588	66.15809
838.993	53.12221
839.399	7.0164
839.804	-9.02131
840.209	-23.05609
840.613	0
841.018	14.03376
841.423	34.08268
841.828	49.11927
842.232	60.14059
842.637	35.07881
843.041	6.01488
843.445	37.08999
843.849	24.05725
844.253	35.07906
844.657	36.08761
845.061	9.01924
845.465	0
845.869	0
846.272	21.04943
846.676	7.01617
847.079	20.049
847.483	43.10026
847.886	-15.03427
848.289	-2.00519
848.692	40.09727
849.095	57.13039
849.498	-4.00953
849.901	19.0415
850.304	1.00227
850.707	4.00975
851.109	11.02646
851.512	-10.02349
851.914	3.00742
852.316	20.04825
852.718	-1.00252
853.121	20.04672
853.523	2.00442
853.925	88.22268
854.326	3.00723
854.728	10.02496
855.13	33.08287
855.531	7.01616
855.933	62.14083
856.334	3.00717
856.736	34.0727
857.137	35.0778
857.538	53.12847
857.939	8.01899
858.34	10.02323
858.741	0
859.142	22.05028
859.542	28.07146
859.943	46.1093
860.343	-40.09588
860.744	45.10492
861.144	40.09387
861.544	46.10745
861.945	-14.03462
862.345	24.0559
862.745	-2.0048
863.145	-2.00445
863.544	8.01937
863.944	22.04924
864.344	13.03103
864.743	18.04232
865.143	15.03688
865.542	-30.0667
865.941	-15.0355
866.34	48.10761
866.74	-17.04388
867.139	50.11587
867.537	-4.00976
867.936	-5.01144
868.335	36.08784
868.734	18.04433
869.132	-36.07918
869.531	60.13695
869.929	20.0436
870.327	-7.01621
870.726	-25.05902
871.124	-4.00875
871.522	23.05646
871.92	-67.15739
872.318	28.06486
872.715	39.09126
873.113	-29.06794
873.511	57.13567
873.908	-11.02717
874.306	6.01436
874.703	-15.03583
875.1	3.00732
875.497	5.01143
875.894	1.00236
876.291	1.00234
876.688	50.12463
877.085	-37.08423
877.482	-5.01196
877.878	38.08747
878.275	29.07035
878.671	26.05386
879.068	40.09141
879.464	-8.0184
879.86	44.10055
880.256	-46.10808
880.652	29.07104
881.048	39.09161
881.444	-38.08617
881.84	43.10466
882.236	34.08144
882.631	-47.11015
883.027	29.06578
883.422	15.03716
883.817	-32.07828
884.213	-18.04448
884.608	9.02128
885.003	-34.0786
885.398	-9.0217
885.793	27.06518
886.188	33.07894
886.582	24.05812
886.977	11.02463
887.371	-12.0292
887.766	-18.04353
888.16	33.07809
888.554	-19.04444
888.949	31.07325
889.343	11.02536
889.737	51.13214
890.131	16.0384
890.525	-2.00491
890.918	43.10325
891.312	42.09497
891.706	22.05555
892.099	-3.00726
892.492	-16.03233
892.886	16.03765
893.279	8.01957
893.672	2.00486
894.065	-25.05921
894.458	33.07936
894.851	-25.05749
895.244	-41.10155
895.637	-8.01846
896.029	23.05407
896.422	31.07137
896.814	62.1472
897.206	-7.01596
897.599	-4.00932
897.991	-47.10903
898.383	5.01121
898.775	11.02362
899.167	-2.00451
899.559	29.06995
899.951	27.05997
900.342	4.00975
900.734	-11.02641
901.125	-1.0025
901.517	25.05831
901.908	18.04062
902.299	34.07948
902.69	-10.02249
903.082	-29.06655
903.473	2.00462
903.863	-16.03926
904.254	-11.02434
904.645	-6.01401
905.036	13.03045
905.426	2.0043
905.817	14.03256
906.207	49.11222
906.597	13.02895
906.987	41.10166
907.378	3.00723
907.768	4.01015
908.158	-23.05344
908.547	-76.18854
908.937	-16.0395
909.327	-11.02521
909.717	-35.08379
910.106	-45.10232
910.495	0
910.885	7.01692
911.274	16.03806
911.663	9.02179
912.052	-39.09079
912.441	-14.03412
912.83	25.05521
913.219	-37.09308
913.608	-8.01855
913.997	-11.0267
914.385	-15.03388
914.774	17.03968
915.162	-23.0527
915.55	-34.0771
915.939	41.09953
916.327	3.0072
916.715	32.07968
917.103	24.05487
917.491	-18.04198
917.878	34.07926
918.266	10.02472
918.654	-7.01727
919.041	-22.05583
919.429	2.0045
919.816	35.08474
920.203	-5.01152
920.591	70.16658
920.978	-2.00468
921.365	-31.07787
921.752	-22.04959
922.139	-1.00203
922.525	17.03947
922.912	35.08132
923.299	22.05239
923.685	-6.01512
924.072	-63.13708
924.458	-24.05709
924.844	-15.03561
925.231	16.03538
925.617	57.13947
926.003	-5.01222
926.389	-32.07767
926.774	13.03142
927.16	0
927.546	14.03478
927.931	10.02344
928.317	-8.01722
928.702	12.02664
929.088	2.00449
929.473	-6.01474
929.858	33.07707
930.243	-35.08087
930.628	11.02556
931.013	86.20418
931.398	20.0429
931.783	8.02017
932.167	-16.03695
932.552	21.05018
932.937	12.02793
933.321	-18.04339
933.705	61.14714
934.09	-6.01436
934.474	9.02007
934.858	-2.00504
935.242	17.03801
935.626	6.01472
936.009	19.04909
936.393	-3.00733
936.777	37.09137
937.16	26.06471
937.544	-4.00881
937.927	-16.03905
938.311	-44.10063
938.694	22.05569
939.077	-16.03664
939.46	2.00463
939.843	22.04217
940.226	-22.05442
940.609	-18.03899
940.991	10.02453
941.374	14.03292
941.757	-4.00931
942.139	4.00855
942.522	52.11471
942.904	72.16566
943.286	6.01436
943.668	-4.00999
944.05	29.06818
944.432	-15.03551
944.814	24.05663
945.196	1.00237
945.578	-11.02516
945.959	50.1114
946.341	4.00918
946.722	-29.0646
947.104	103.23068
947.485	13.02889
947.866	-41.09942
948.247	-25.06065
948.628	-4.00928
949.009	20.04945
949.39	8.01898
949.771	2.00433
950.152	-10.02351
950.532	-41.09957
950.913	17.03903
951.293	-13.03415
951.674	-38.08754
952.054	16.03818
952.434	16.0377
952.814	35.07848
953.194	-35.08735
953.574	-21.04862
953.954	24.05414
954.334	-10.02368
954.714	-8.01876
955.093	30.06963
955.473	-23.0555
955.853	52.12919
956.232	24.06371
956.611	10.02266
956.99	16.03897
957.37	35.08557
957.749	12.02686
958.128	11.0269
958.506	9.02236
958.885	52.12621
959.264	7.01648
959.643	-14.02948
960.021	-16.03808
960.4	63.13562
960.778	-18.0419
961.156	-28.06768
961.535	89.19595
961.913	-2.00443
962.291	-36.09006
962.669	-46.11274
963.047	-24.05919
963.424	14.03422
963.802	9.02115
964.18	-1.00239
964.557	-60.12825
964.935	5.01117
965.312	-6.01507
965.69	2.00476
966.067	11.02529
966.444	29.0678
966.821	-1.00248
967.198	-1.00229
967.575	42.09706
967.952	37.08174
968.329	47.10929
968.705	59.11738
969.082	15.03734
969.458	0
969.835	-29.06746
970.211	16.03998
970.587	20.04765
970.963	46.11261
971.339	-10.02523
971.715	1.00237
972.091	30.07062
972.467	9.02131
972.843	13.03101
973.219	-4.00889
973.594	-33.08364
973.97	-38.08523
974.345	-5.01146
974.721	-39.08882
975.096	65.14749
975.471	-13.02933
975.846	23.05246
976.221	9.02186
976.596	-36.08243
976.971	21.04916
977.346	-21.04651
977.72	35.08576
978.095	-15.03757
978.469	43.09718
978.844	-7.01656
979.218	26.05973
979.593	-18.04115
979.967	32.0736
980.341	19.0415
980.715	1.00239
981.089	43.10192
981.463	-6.01322
981.837	36.08402
982.21	-9.01941
982.584	25.05763
982.957	-8.01926
983.331	4.00888
983.704	-8.01906
984.078	-26.06213
984.451	20.0467
984.824	-11.0257
985.197	-58.13468
985.57	48.1148
985.943	107.24801
986.316	11.02546
986.688	31.07106
987.061	44.09653
987.434	11.02763
987.806	-8.01838
988.179	55.12298
988.551	35.08414
988.923	39.09222
989.295	35.08292
989.667	3.00692
990.039	46.10892
990.411	34.07418
990.783	10.02161
991.155	18.04176
991.527	-4.00915
991.898	17.04048
992.27	17.04029
992.641	4.00952
993.012	21.04637
993.384	-35.08
993.755	27.06569
994.126	17.03909
994.497	9.02117
994.868	4.00865
995.239	-2.00456
995.61	-2.00481
995.98	51.11896
996.351	39.09322
996.722	-30.06654
997.092	10.02277
997.462	0
997.833	7.01563
998.203	7.01599
998.573	36.08633
998.943	21.04676
999.313	-34.07832
999.683	31.07177
1000.053	69.14815
1000.423	78.17925
1000.792	20.04938
1001.162	19.0451
1001.531	-6.01399
1001.901	-20.04796
1002.27	-14.02937
1002.639	-2.00489
1003.009	41.09288
1003.378	11.02692
1003.747	72.16175
1004.116	-14.0321
1004.485	82.18512
1004.853	-11.0266
1005.222	-13.0313
1005.591	49.10807
1005.959	59.12892
1006.328	57.12318
1006.696	65.15114
1007.064	2.0048
1007.433	-15.03559
1007.801	22.05137
1008.169	61.14725
1008.537	-33.06829
1008.905	25.05576
1009.273	10.02339
1009.64	-1.00228
1010.008	53.12021
1010.375	-65.14569
1010.743	5.01064
1011.11	-5.01143
1011.478	-2.00472
1011.845	-10.02236
1012.212	10.02131
1012.579	29.06762
1012.946	23.05128
1013.313	46.10266
1013.68	-15.03114
1014.047	-26.05961
1014.414	20.04545
1014.78	27.06389
1015.147	42.09555
1015.513	14.03235
1015.88	6.01457
1016.246	26.06083
1016.612	17.03642
1016.978	-12.02797
1017.344	6.01403
1017.71	-39.08828
1018.076	19.04197
1018.442	18.04431
1018.808	26.0627
1019.174	40.09588
1019.539	95.1994
1019.905	60.13706
1020.27	32.07603
1020.636	-30.06778
1021.001	77.175
1021.366	-39.08964
1021.731	-33.08146
1022.096	1.00245
1022.461	21.04713
1022.826	23.0521
1023.191	3.00757
1023.556	46.10181
1023.92	54.12474
1024.285	-4.00938
1024.649	-5.01162
1025.014	10.02343
1025.378	-9.02179
1025.742	36.0858
1026.107	-5.01057
1026.471	14.03034
1026.835	64.15377
1027.199	-43.10006
1027.562	89.19513
1027.926	15.03463
1028.29	34.08138
1028.654	4.00866
1029.017	48.11102
1029.381	39.08975
1029.744	-33.08155
1030.107	-13.02884
1030.471	34.07764
1030.834	25.05375
1031.197	1.00224
1031.56	74.16324
1031.923	-6.01495
1032.286	-22.04831
1032.648	18.04085
1033.011	21.04628
1033.374	-45.09866
1033.736	-1.00254
1034.099	-3.00695
1034.461	25.06133
1034.823	-27.06466
1035.185	35.08398
1035.548	13.03011
1035.91	-13.02957
1036.272	7.015
1036.634	-15.0346
1036.995	1.00222
1037.357	-26.06037
1037.719	-9.02087
1038.08	-30.06745
1038.442	61.13858
1038.803	26.05922
1039.165	14.0338
1039.526	-18.04125
1039.887	43.09824
1040.248	54.12717
1040.609	30.07018
1040.97	25.05882
1041.331	-2.00487
1041.692	21.04676
1042.053	37.07883
1042.413	44.09677
1042.774	25.05733
1043.134	-21.04703
1043.495	-32.07691
1043.855	-37.08525
1044.215	5.01194
1044.576	11.02525
1044.936	-20.04316
1045.296	8.01884
1045.656	-58.13558
1046.016	64.14437
1046.375	7.01624
1046.735	32.0697
1047.095	20.04436
1047.454	-58.11397
1047.814	67.15376
1048.173	-22.04926
1048.533	10.02179
1048.892	47.1092
1049.251	18.043
1049.61	9.02096
1049.969	7.01564
1050.328	27.05429
1050.687	18.04175
1051.046	77.17734
1051.405	-1.00237
1051.763	3.00657
1052.122	4.00959
1052.48	32.07527
1052.839	9.02001
1053.197	-15.03359
1053.555	35.07379
1053.914	-6.01394
1054.272	81.18402
1054.63	29.06791
1054.988	9.02056
1055.345	18.03627
1055.703	83.18734
1056.061	-4.00989
1056.419	12.03002
1056.776	27.06224
1057.134	32.07012
1057.491	32.07662
1057.848	-38.08956
1058.206	-60.13302
1058.563	-30.06265
1058.92	14.03024
1059.277	26.06059
1059.634	46.10173
1059.991	-77.17216
1060.348	48.10322
1060.704	35.08029
1061.061	-5.01092
1061.418	52.12108
1061.774	16.03762
1062.131	13.03353
1062.487	18.04027
1062.843	28.06681
1063.199	-6.0142
1063.555	-23.05119
1063.911	41.09897
1064.267	8.01539
1064.623	-28.06512
1064.979	-37.08123
1065.335	-4.00888
1065.691	-25.05601
1066.046	58.11897
1066.402	22.04794
1066.757	21.05043
1067.112	50.11518
1067.468	-2.00455
1067.823	66.15003
1068.178	4.00914
1068.533	31.07126
1068.888	-6.01352
1069.243	-10.02349
1069.598	-38.08897
1069.952	15.03219
1070.307	7.01676
1070.662	-33.07458
1071.016	35.07496
1071.371	5.01072
1071.725	-38.08512
1072.079	48.11062
1072.434	2.00463
1072.788	22.04948
1073.142	29.0661
1073.496	-11.02475
1073.85	-16.03513
1074.203	-13.02982
1074.557	-16.04111
1074.911	10.02229
1075.265	49.10761
1075.618	35.08077
1075.971	25.05705
1076.325	-7.01705
1076.678	-16.03501
1077.031	-2.0043
1077.385	-5.0103
1077.738	12.02585
1078.091	8.01743
1078.444	32.07
1078.796	14.03302
1079.149	33.07864
1079.502	10.02249
1079.855	-6.01327
1080.207	15.03495
1080.56	-42.10564
1080.912	-20.04629
1081.264	34.07704
1081.617	-21.04898
1081.969	-10.0244
1082.321	42.09787
1082.673	-12.02602
1083.025	-53.11929
1083.377	-270.56408
1083.728	24.05312
1084.08	-22.05235
1084.432	54.1235
1084.783	6.01319
1085.135	23.05533
1085.486	-19.04187
1085.838	-18.04252
1086.189	0
1086.54	-46.10448
1086.891	-26.06337
1087.242	17.03906
1087.593	-28.06409
1087.944	31.06665
1088.295	29.06152
1088.646	-53.12197
1088.996	21.04848
1089.347	-18.04204
1089.698	22.04957
1090.048	37.09207
1090.398	8.01741
1090.749	27.06142
1091.099	28.06857
1091.449	10.02394
1091.799	7.01666
1092.149	29.06826
1092.499	33.07664
1092.849	-5.01224
1093.199	-6.01426
1093.548	23.05259
1093.898	21.05048
1094.248	-15.03691
1094.597	30.07505
1094.947	45.11543
1095.296	17.04049
1095.645	5.01236
1095.994	-41.09296
1096.343	-33.07846
1096.692	-11.02789
1097.041	21.05607
1097.39	29.06942
1097.739	3.00748
1098.088	-6.01527
1098.437	16.04105
1098.785	40.10491
1099.134	-20.05066
1099.482	-8.02111
1099.83	41.1041
1100.179	88.22038
1100.527	16.04135
1100.875	28.07174
1101.223	46.11694
1101.571	1.0027
1101.919	1.00256
1102.267	30.08265
1102.615	11.03532
1102.962	-1.00321
1103.31	11.03529
1103.658	2.00642
