Data from N1R0 105C sample 6_Subt2__1__13-12-30-674.txt Node

Date: Tue Sep 16 13:12:30 PDT 2025
User: uwsun
Spectrometer: HDX01956
Trigger mode: 0
Integration Time (sec): 5.000000E-1
Scans to average: 1
Nonlinearity correction enabled: true
Boxcar width: 0
Storing dark spectrum: false
XAxis mode: Wavelengths
Number of Pixels in Spectrum: 2068
>>>>>Begin Spectral Data<<<<<
194.03	-2.00581
194.578	5.01625
195.127	9.02882
195.676	10.03214
196.225	19.05058
196.773	2.00559
197.321	-3.0084
197.87	13.03399
198.418	39.10224
198.966	54.14431
199.513	47.12153
200.061	-4.01043
200.609	49.13119
201.156	14.03152
201.704	9.02319
202.251	36.09732
202.798	7.01856
203.345	16.04057
203.892	51.13105
204.438	-6.01465
204.985	28.06806
205.532	11.02955
206.078	-15.03771
206.624	49.12521
207.17	64.15271
207.716	50.12495
208.262	12.02459
208.808	41.10506
209.354	33.0834
209.899	-11.02844
210.445	20.0512
210.99	38.09472
211.535	45.1083
212.08	-21.05039
212.625	16.04088
213.17	58.1501
213.715	62.14436
214.259	57.13557
214.804	1.00251
215.348	66.15525
215.892	84.20648
216.436	12.02811
216.98	34.07635
217.524	61.14831
218.068	65.16632
218.612	65.16761
219.155	44.10603
219.698	56.13536
220.242	25.06287
220.785	45.10768
221.328	20.05039
221.871	60.15485
222.414	11.02776
222.956	-13.0319
223.499	23.05236
224.041	-33.07773
224.583	40.08583
225.126	25.05597
225.668	31.07655
226.21	32.0823
226.751	43.09749
227.293	3.00694
227.835	10.02501
228.376	25.05788
228.918	35.08833
229.459	18.04571
230	36.08787
230.541	30.07018
231.082	44.10864
231.622	-18.0418
232.163	5.0123
232.704	86.21654
233.244	8.02023
233.784	15.03699
234.324	67.15265
234.864	37.08491
235.404	25.05983
235.944	7.01681
236.484	29.07348
237.023	24.05753
237.563	4.00951
238.102	44.10547
238.641	9.02301
239.18	-7.01683
239.719	34.08628
240.258	114.25621
240.797	38.09213
241.335	38.09362
241.874	39.07763
242.412	60.14743
242.95	78.19003
243.488	-32.07398
244.026	55.12965
244.564	46.09636
245.102	72.16493
245.64	4.00974
246.177	33.07455
246.715	64.15528
247.252	0
247.789	51.09626
248.326	36.08813
248.863	26.05841
249.4	59.13534
249.936	92.19443
250.473	109.25844
251.009	15.03504
251.546	94.21143
252.082	17.03749
252.618	20.04569
253.154	9.02211
253.69	32.07304
254.226	74.17874
254.761	15.0344
255.297	26.05791
255.832	21.0509
256.367	16.03834
256.903	49.11073
257.438	69.16322
257.972	37.08382
258.507	49.11394
259.042	59.13012
259.576	132.29215
260.111	25.05845
260.645	72.15723
261.179	83.19596
261.713	80.18083
262.247	29.06738
262.781	40.08598
263.315	21.0518
263.849	40.10154
264.382	30.07013
264.915	31.07469
265.449	-16.04003
265.982	87.19901
266.515	102.251
267.048	15.03258
267.58	21.04626
268.113	24.05303
268.646	-5.0125
269.178	-4.00917
269.71	96.21389
270.243	110.25582
270.775	77.1991
271.307	23.05563
271.838	73.17382
272.37	39.09691
272.902	40.09207
273.433	78.17487
273.965	63.1546
274.496	8.02021
275.027	85.21298
275.558	60.1482
276.089	44.1115
276.62	43.10972
277.15	53.13179
277.681	27.0593
278.211	41.10136
278.741	30.06803
279.272	43.1001
279.802	41.10336
280.332	-20.04856
280.861	53.12828
281.391	64.14731
281.921	15.03655
282.45	20.05045
282.98	8.02123
283.509	55.12713
284.038	44.10245
284.567	45.10653
285.096	37.09127
285.625	10.02303
286.153	91.21917
286.682	17.03997
287.21	27.06542
287.739	57.13645
288.267	45.11129
288.795	38.10054
289.323	47.11221
289.851	70.16671
290.378	41.09303
290.906	55.13647
291.433	39.09871
291.961	129.29521
292.488	21.05304
293.015	62.14845
293.542	60.15613
294.069	85.21244
294.596	-4.01
295.122	51.12427
295.649	7.01572
296.175	39.09539
296.702	74.18297
297.228	71.17269
297.754	43.0986
298.28	86.20009
298.806	9.02219
299.332	53.12085
299.857	24.05584
300.383	33.08435
300.908	24.06023
301.433	72.17862
301.958	62.14425
302.483	5.01267
303.008	97.24296
303.533	41.10726
304.058	34.08079
304.582	52.12493
305.107	4.01063
305.631	55.12683
306.155	47.11153
306.679	53.12683
307.203	68.1602
307.727	19.04607
308.251	23.05792
308.775	88.21639
309.298	-6.01487
309.822	43.10972
310.345	73.17689
310.868	69.16876
311.391	39.09779
311.914	17.04352
312.437	70.16254
312.96	51.12237
313.482	5.01206
314.005	12.0306
314.527	2.00531
315.049	67.17174
315.571	79.18064
316.093	67.16818
316.615	31.07593
317.137	43.09599
317.659	71.1743
318.18	13.03174
318.702	89.21119
319.223	19.03997
319.744	77.17621
320.265	50.12409
320.786	48.12211
321.307	46.11566
321.828	56.12895
322.348	15.03625
322.869	91.21951
323.389	298.56815
323.909	44.10277
324.43	38.09272
324.95	79.18376
325.47	91.22818
325.989	71.17126
326.509	118.26705
327.029	70.16299
327.548	30.06983
328.067	73.18001
328.587	100.25323
329.106	25.0579
329.625	62.16355
330.144	90.21245
330.662	80.19104
331.181	76.18246
331.7	29.06916
332.218	85.18801
332.736	104.24644
333.255	83.19869
333.773	11.02673
334.291	76.19293
334.808	65.14982
335.326	81.18536
335.844	75.17982
336.361	93.24221
336.879	91.21768
337.396	89.22002
337.913	126.29407
338.43	46.10656
338.947	62.15122
339.464	58.12859
339.981	53.12852
340.497	62.15527
341.014	55.13687
341.53	67.15462
342.046	104.26289
342.562	63.15985
343.078	103.24591
343.594	63.15294
344.11	128.30939
344.626	89.22773
345.141	101.23494
345.657	121.27746
346.172	91.22307
346.687	111.2583
347.202	77.17989
347.717	91.22058
348.232	106.26699
348.747	101.23725
349.261	99.2219
349.776	113.27226
350.29	94.23871
350.805	153.3792
351.319	97.22928
351.833	114.26648
352.347	60.14509
352.861	81.19398
353.374	101.23364
353.888	97.24077
354.401	42.09841
354.915	114.26198
355.428	128.32159
355.941	103.24374
356.454	111.25105
356.967	67.15978
357.48	58.13494
357.993	111.27602
358.505	41.10214
359.018	136.33565
359.53	101.25015
360.042	126.28631
360.554	163.40014
361.066	88.21751
361.578	172.38243
362.09	120.28885
362.602	131.29628
363.113	119.28389
363.625	152.34819
364.136	103.23077
364.647	93.2245
365.158	119.28074
365.669	90.21861
366.18	116.27658
366.691	103.2302
367.201	110.26709
367.712	145.33529
368.222	137.31905
368.733	90.20044
369.243	143.32356
369.753	139.32358
370.263	177.42774
370.773	67.16624
371.282	158.37916
371.792	153.3573
372.301	119.2904
372.811	125.32945
373.32	134.29472
373.829	107.25585
374.338	122.27542
374.847	156.36251
375.356	67.16143
375.865	146.31747
376.373	95.22037
376.882	171.43216
377.39	163.39406
377.898	138.34097
378.407	145.33249
378.915	202.44222
379.423	131.30772
379.93	256.58663
380.438	165.39679
380.946	223.51461
381.453	227.53903
381.96	194.46147
382.468	173.40717
382.975	256.61641
383.482	268.59041
383.989	281.70478
384.495	304.69185
385.002	281.58016
385.509	306.71075
386.015	390.76561
386.521	320.70702
387.028	387.84091
387.534	339.70116
388.04	386.88801
388.546	371.78556
389.051	418.87287
389.557	442.96386
390.063	435.92588
390.568	441.99686
391.073	421.88284
391.578	507.14536
392.084	550.14562
392.589	511.01915
393.093	616.32991
393.598	626.2932
394.103	709.49073
394.607	818.70091
395.112	793.69602
395.616	933.91144
396.12	958.82903
396.624	1070.06244
397.128	1145.22785
397.632	1314.39696
398.136	1377.4138
398.639	1478.59513
399.143	1648.96107
399.646	1874.99575
400.15	2046.04009
400.653	2245.06748
401.156	2586.12586
401.659	3062.5865
402.162	3671.18383
402.664	4741.47401
403.167	6892.13713
403.67	13971.09439
404.172	44482.70088
404.674	61417.97047
405.176	63738.15102
405.678	63977.72923
406.18	64011.81569
406.682	63863.44694
407.184	63926.60148
407.686	50902.46818
408.187	20849.31677
408.688	12190.03192
409.19	8381.57101
409.691	6690.16191
410.192	5635.45817
410.693	4837.21328
411.194	4385.75054
411.694	4035.2317
412.195	3833.65368
412.696	3503.30895
413.196	3195.74097
413.696	3047.47166
414.196	3115.01005
414.696	3056.66676
415.196	2876.31736
415.696	2675.10689
416.196	2151.12667
416.695	1684.8054
417.195	1475.65489
417.694	1431.19603
418.194	1251.04412
418.693	1221.19938
419.192	1155.18801
419.691	1065.02784
420.19	1078.12345
420.688	1064.14862
421.187	993.6579
421.685	952.85437
422.184	941.86543
422.682	753.42562
423.18	641.31801
423.678	592.22177
424.176	529.10449
424.674	578.16185
425.172	538.15386
425.669	446.01736
426.167	447.9663
426.664	417.8868
427.161	420.90464
427.659	375.86116
428.156	351.71134
428.652	275.66979
429.149	287.67202
429.646	275.59375
430.143	260.60464
430.639	249.57391
431.135	248.6028
431.632	253.56262
432.128	240.56165
432.624	264.65988
433.12	206.46163
433.616	169.36724
434.111	211.49099
434.607	160.37885
435.103	203.41818
435.598	210.42919
436.093	155.35741
436.588	150.33504
437.083	131.29242
437.578	183.41726
438.073	173.42642
438.568	135.32957
439.062	91.19581
439.557	124.28827
440.051	76.17172
440.546	87.19813
441.04	121.28877
441.534	120.29975
442.028	133.31753
442.522	86.20639
443.015	66.1426
443.509	92.22322
444.002	82.20045
444.496	76.16561
444.989	87.21065
445.482	94.23174
445.975	110.25319
446.468	105.22701
446.961	83.18083
447.454	74.16645
447.947	95.22603
448.439	107.26073
448.931	133.3024
449.424	134.33666
449.916	85.20681
450.408	101.23011
450.9	47.11461
451.392	71.17989
451.884	80.18377
452.375	6.015
452.867	78.17537
453.358	66.15155
453.849	66.1418
454.341	98.22043
454.832	39.08507
455.323	142.3484
455.814	35.08068
456.304	56.12998
456.795	85.19366
457.285	75.1652
457.776	92.2088
458.266	85.20092
458.756	12.02862
459.247	63.15064
459.737	105.25193
460.226	130.29288
460.716	89.21159
461.206	53.12693
461.695	41.10151
462.185	94.22172
462.674	95.21591
463.163	91.2033
463.653	112.23669
464.142	69.16675
464.63	75.18091
465.119	67.1556
465.608	76.17752
466.096	28.0613
466.585	70.15958
467.073	-7.01671
467.561	26.06266
468.05	11.02556
468.538	60.14618
469.026	59.13968
469.513	11.02351
470.001	86.19645
470.489	51.12125
470.976	123.28363
471.463	61.1513
471.951	67.16564
472.438	66.15452
472.925	31.07328
473.412	48.11633
473.899	88.20045
474.385	80.19447
474.872	42.0981
475.359	99.24088
475.845	58.12037
476.331	29.06219
476.817	71.17185
477.303	46.10702
477.789	15.03592
478.275	29.07209
478.761	12.02867
479.247	51.11384
479.732	27.06751
480.218	61.15904
480.703	-1.00248
481.188	-11.02418
481.673	58.13318
482.158	71.15317
482.643	20.05122
483.128	68.15808
483.612	107.25213
484.097	59.14178
484.581	8.01866
485.066	68.16579
485.55	71.15665
486.034	32.06979
486.518	91.2161
487.002	6.01468
487.486	-33.08119
487.969	-20.04914
488.453	20.04991
488.936	35.0791
489.42	46.10198
489.903	-9.02258
490.386	-49.1038
490.869	93.20235
491.352	37.08908
491.835	-13.02705
492.318	43.09682
492.8	46.09564
493.283	41.10454
493.765	42.10294
494.247	66.15307
494.73	38.08442
495.212	15.03574
495.694	37.08742
496.175	9.02178
496.657	32.07598
497.139	10.01744
497.62	48.11541
498.102	67.166
498.583	12.02961
499.064	32.07168
499.545	31.07094
500.026	31.07049
500.507	-18.04199
500.988	58.14452
501.469	-15.03773
501.949	39.09631
502.43	57.13713
502.91	56.11902
503.39	-15.03754
503.87	19.04519
504.35	-10.02365
504.83	17.03748
505.31	-17.04144
505.79	-3.00716
506.269	-1.00232
506.749	30.06883
507.228	14.03319
507.707	13.02927
508.187	30.07194
508.666	34.08441
509.145	-16.0379
509.623	22.05179
510.102	31.0752
510.581	50.12059
511.059	29.07319
511.538	18.04657
512.016	29.06977
512.494	-4.00971
512.972	17.04096
513.45	-23.05445
513.928	-14.03444
514.406	27.06648
514.884	10.02593
515.361	-18.04364
515.839	42.09702
516.316	35.08532
516.793	39.09853
517.27	20.04836
517.747	8.02066
518.224	4.00931
518.701	43.09531
519.178	40.10025
519.654	2.00478
520.131	-44.11083
520.607	-15.03707
521.083	-42.09702
521.56	-2.00476
522.036	-30.06654
522.512	40.09894
522.987	68.16338
523.463	15.03581
523.939	38.09455
524.414	12.0277
524.89	33.07906
525.365	16.03645
525.84	30.07243
526.315	31.0754
526.79	21.04773
527.265	65.15
527.74	-18.04425
528.215	-25.05921
528.689	-21.0468
529.164	-22.048
529.638	-47.12107
530.112	-36.08613
530.587	12.02596
531.061	16.039
531.534	-22.05376
532.008	26.06356
532.482	7.01625
532.956	-43.11142
533.429	52.1273
533.903	-7.01555
534.376	26.05788
534.849	-1.00233
535.322	10.0238
535.795	-9.02198
536.268	8.01953
536.741	-37.08935
537.213	-8.01863
537.686	39.09567
538.158	8.01839
538.631	-24.05897
539.103	-24.05515
539.575	4.00835
540.047	-3.00663
540.519	20.04811
540.991	18.04418
541.463	-7.01703
541.934	-42.09687
542.406	10.02424
542.877	16.03645
543.348	8.0195
543.82	-40.09898
544.291	41.09609
544.762	-6.01446
545.233	20.05101
545.703	1.00226
546.174	-17.04004
546.645	18.0439
547.115	14.0341
547.585	-23.05382
548.056	11.02731
548.526	-19.04585
548.996	0
549.466	-8.01969
549.935	1.00242
550.405	-26.05831
550.875	-16.0386
551.344	-62.15139
551.814	6.01393
552.283	48.1054
552.752	14.03319
553.221	4.00897
553.69	36.08207
554.159	-22.05565
554.628	15.03445
555.096	1.00257
555.565	-23.05191
556.033	29.06974
556.502	-12.02939
556.97	30.06742
557.438	-23.05498
557.906	8.0191
558.374	25.05854
558.842	51.1226
559.31	47.10587
559.777	37.09097
560.245	-9.02098
560.712	-2.00465
561.18	-6.01351
561.647	-5.01127
562.114	29.06706
562.581	25.06196
563.048	56.12869
563.514	71.17797
563.981	16.03706
564.448	41.0933
564.914	57.13269
565.381	63.14429
565.847	53.12382
566.313	52.12103
566.779	83.18642
567.245	24.05606
567.711	50.12004
568.176	78.17487
568.642	81.20318
569.108	54.13293
569.573	41.09537
570.038	112.23244
570.504	90.20268
570.969	73.1804
571.434	123.27047
571.899	122.28608
572.363	138.31231
572.828	185.41568
573.293	142.32083
573.757	189.4285
574.222	149.32888
574.686	236.52515
575.15	217.50754
575.614	237.54168
576.078	179.4111
576.542	203.4505
577.006	207.45517
577.469	228.54338
577.933	204.45282
578.396	203.46864
578.86	227.51778
579.323	252.58603
579.786	230.48308
580.249	274.62031
580.712	220.51909
581.175	203.48724
581.637	202.44875
582.1	166.35496
582.563	226.46483
583.025	157.3754
583.487	223.4449
583.95	151.31862
584.412	199.40736
584.874	204.48451
585.336	174.40434
585.797	152.32559
586.259	134.30954
586.721	140.32392
587.182	146.33149
587.643	156.34858
588.105	111.26003
588.566	73.15255
589.027	140.33814
589.488	147.33247
589.949	195.46198
590.41	134.26268
590.87	182.40768
591.331	132.28544
591.791	71.1645
592.252	114.26345
592.712	105.24973
593.172	62.14146
593.632	199.43151
594.092	78.17379
594.552	90.19462
595.011	63.14458
595.471	102.23008
595.931	129.28819
596.39	71.17036
596.849	79.18369
597.308	78.16621
597.768	56.14452
598.227	22.0533
598.685	29.06669
599.144	106.24817
599.603	44.10338
600.062	53.11242
600.52	70.15835
600.978	33.07849
601.437	-2.00462
601.895	36.07791
602.353	62.13659
602.811	86.1936
603.269	48.11453
603.727	72.17259
604.184	76.17312
604.642	38.09379
605.099	75.17501
605.557	48.11699
606.014	42.09117
606.471	36.09068
606.928	109.24069
607.385	94.23396
607.842	36.08313
608.299	52.12189
608.755	56.13577
609.212	40.08986
609.668	50.11334
610.125	79.1897
610.581	53.1245
611.037	21.04752
611.493	-14.03316
611.949	43.10509
612.405	62.12683
612.861	44.10156
613.316	29.06987
613.772	34.07835
614.227	79.18919
614.683	26.05565
615.138	23.05432
615.593	7.01642
616.048	47.10786
616.503	35.08525
616.958	64.15987
617.412	13.03113
617.867	19.04292
618.321	62.12815
618.776	55.12135
619.23	36.08465
619.684	18.0405
620.138	50.11454
620.592	37.08996
621.046	80.18811
621.5	28.06766
621.954	2.00447
622.407	43.09535
622.861	15.03663
623.314	33.075
623.768	70.16472
624.221	11.02192
624.674	72.16566
625.127	8.01875
625.58	34.0766
626.033	15.03305
626.485	-7.01691
626.938	94.2218
627.39	49.11457
627.843	44.10152
628.295	5.01163
628.747	64.15207
629.199	15.03438
629.651	38.08729
630.103	74.16883
630.555	4.00852
631.006	19.04439
631.458	-4.0095
631.909	20.04502
632.361	-38.08907
632.812	67.15437
633.263	46.0999
633.714	44.09323
634.165	3.00724
634.616	28.06633
635.067	65.14251
635.518	62.1463
635.968	88.17128
636.419	115.24756
636.869	46.10875
637.319	113.25849
637.769	38.08554
638.219	66.15483
638.669	53.12557
639.119	40.09559
639.569	75.17851
640.019	124.28165
640.468	132.29044
640.918	61.14391
641.367	72.16015
641.816	105.23031
642.265	135.30906
642.714	75.17074
643.163	142.32162
643.612	142.34116
644.061	103.21763
644.51	113.25537
644.958	118.25658
645.406	138.32334
645.855	123.29355
646.303	123.27944
646.751	169.38113
647.199	162.3581
647.647	154.34951
648.095	117.26257
648.543	172.33893
648.99	195.4543
649.438	136.30828
649.885	200.48341
650.333	219.40809
650.78	161.37981
651.227	195.46287
651.674	160.35634
652.121	181.43196
652.568	169.40363
653.015	159.38396
653.461	183.42264
653.908	182.40567
654.354	200.46089
654.801	144.33052
655.247	160.33754
655.693	160.4063
656.139	160.37239
656.585	166.3862
657.031	153.35139
657.477	232.48663
657.922	136.30276
658.368	172.41135
658.813	144.32004
659.259	184.43331
659.704	267.60459
660.149	136.30715
660.594	203.46585
661.039	206.45326
661.484	187.42947
661.929	199.4497
662.373	165.40355
662.818	204.48787
663.262	230.53509
663.707	219.5378
664.151	248.57946
664.595	238.55282
665.039	241.57425
665.483	200.49269
665.927	250.56114
666.371	246.55466
666.814	291.65598
667.258	265.61006
667.701	285.57468
668.145	309.72862
668.588	290.68343
669.031	263.5902
669.474	285.6498
669.917	259.54026
670.36	328.77296
670.803	316.72149
671.245	231.45144
671.688	362.82449
672.13	344.72855
672.573	345.8198
673.015	355.80218
673.457	345.70078
673.899	339.77071
674.341	342.7736
674.783	310.70208
675.225	372.85581
675.666	395.89945
676.108	359.72123
676.549	353.76835
676.991	307.63412
677.432	369.67501
677.873	349.74415
678.314	336.75074
678.755	363.83795
679.196	383.81167
679.637	337.75686
680.078	409.8819
680.518	371.79139
680.959	414.9097
681.399	403.92544
681.839	379.8564
682.28	374.86797
682.72	379.80355
683.16	401.92932
683.6	438.91139
684.039	388.73544
684.479	385.88518
684.919	442.95365
685.358	388.89831
685.798	387.94038
686.237	397.8762
686.676	378.79145
687.115	447.96382
687.554	464.012
687.993	462.92665
688.432	454.94341
688.871	429.9016
689.309	506.09631
689.748	523.96551
690.186	453.96628
690.625	476.01408
691.063	470.01905
691.501	499.11901
691.939	523.19116
692.377	475.04675
692.815	560.22537
693.253	457.99213
693.69	489.96201
694.128	502.10197
694.565	508.08332
695.003	535.2347
695.44	533.13107
695.877	570.19103
696.314	536.99719
696.751	559.12127
697.188	592.21028
697.625	522.04041
698.061	530.13765
698.498	490.04487
698.934	571.21184
699.371	528.1124
699.807	575.20229
700.243	566.21557
700.679	593.15726
701.115	627.27818
701.551	563.15844
701.987	559.07374
702.422	637.33095
702.858	628.31357
703.294	651.29531
703.729	630.34508
704.164	618.29491
704.599	633.22669
705.035	602.18069
705.47	653.38431
705.904	609.23524
706.339	685.35168
706.774	703.41387
707.209	763.50372
707.643	701.44543
708.078	688.44939
708.512	645.4208
708.946	658.35271
709.38	705.44068
709.814	704.359
710.248	747.56451
710.682	734.50984
711.116	737.54015
711.549	695.54446
711.983	757.4779
712.416	705.43872
712.85	734.56128
713.283	736.48067
713.716	725.5458
714.149	721.42149
714.582	774.45653
715.015	752.57396
715.448	778.67287
715.881	750.34291
716.313	753.48885
716.746	739.48978
717.178	761.55455
717.61	815.7581
718.043	798.66591
718.475	786.61329
718.907	767.6326
719.339	768.4615
719.77	774.56935
720.202	705.52585
720.634	800.65976
721.065	733.46887
721.497	802.65578
721.928	721.51134
722.359	738.53714
722.79	714.46469
723.221	755.59869
723.652	714.56735
724.083	710.35357
724.514	746.44641
724.945	667.34568
725.375	748.48067
725.806	705.49532
726.236	756.65544
726.666	698.40863
727.096	705.48231
727.526	719.60443
727.956	734.41904
728.386	711.49626
728.816	718.59
729.246	675.44593
729.675	640.35937
730.105	681.43745
730.534	677.35275
730.964	637.38792
731.393	667.41402
731.822	664.48131
732.251	615.37444
732.68	622.247
733.109	615.33087
733.537	674.42794
733.966	627.37361
734.395	654.30219
734.823	575.1056
735.251	563.19379
735.68	615.3269
736.108	580.2804
736.536	612.24558
736.964	604.21755
737.392	571.26287
737.82	593.23834
738.247	554.1642
738.675	582.19572
739.102	512.14374
739.53	533.23008
739.957	563.30043
740.384	547.16385
740.811	509.13258
741.238	610.31245
741.665	564.16858
742.092	523.06102
742.519	482.07928
742.945	578.23978
743.372	537.19004
743.798	526.20547
744.225	479.01407
744.651	553.22759
745.077	510.13833
745.503	515.10611
745.929	553.18684
746.355	460.0075
746.781	454.00687
747.207	525.10873
747.632	476.068
748.058	500.13434
748.483	454.93837
748.908	455.02686
749.334	470.04588
749.759	486.03856
750.184	470.02078
750.609	461.01797
751.033	470.98188
751.458	435.87109
751.883	408.91646
752.307	436.92861
752.732	458.06491
753.156	419.9402
753.58	383.82478
754.005	393.90429
754.429	412.89084
754.853	394.9017
755.277	407.88173
755.7	418.947
756.124	347.79943
756.548	361.78342
756.971	394.87994
757.394	335.79573
757.818	376.8967
758.241	370.8692
758.664	302.71336
759.087	278.58595
759.51	336.76714
759.933	356.79542
760.356	378.90216
760.778	314.71836
761.201	308.69131
761.623	266.5919
762.046	306.66195
762.468	360.79106
762.89	309.70025
763.312	279.64049
763.734	311.69761
764.156	297.68508
764.578	289.61087
765	284.64713
765.421	270.64963
765.843	244.60438
766.264	233.5188
766.686	232.54315
767.107	243.55472
767.528	238.58023
767.949	219.52704
768.37	248.5806
768.791	226.51061
769.212	191.46001
769.632	214.47501
770.053	199.49554
770.473	176.40397
770.894	211.49079
771.314	199.44383
771.734	188.41574
772.154	188.45698
772.575	232.50146
772.994	151.32617
773.414	155.35156
773.834	178.42244
774.254	172.40001
774.673	231.53413
775.093	198.46936
775.512	154.36478
775.931	171.41496
776.351	170.40579
776.77	144.33991
777.189	166.37613
777.607	118.29091
778.026	160.38148
778.445	133.32565
778.864	90.22074
779.282	111.25442
779.701	103.24967
780.119	86.21179
780.537	86.20733
780.955	112.27276
781.373	112.26653
781.791	185.39876
782.209	110.23776
782.627	125.31771
783.045	113.24629
783.462	115.28325
783.88	81.20398
784.297	97.2361
784.715	84.21051
785.132	118.27258
785.549	110.26478
785.966	120.2906
786.383	108.2577
786.8	79.17715
787.217	110.2536
787.633	120.29148
788.05	128.28401
788.466	71.15954
788.883	107.26607
789.299	26.06025
789.715	154.35871
790.131	126.30076
790.547	56.13562
790.963	106.25273
791.379	73.17914
791.795	79.1716
792.21	102.22726
792.626	47.1073
793.041	84.19974
793.457	62.14749
793.872	26.05901
794.287	99.23147
794.702	22.05199
795.117	72.17423
795.532	81.19819
795.947	41.09435
796.362	67.15098
796.776	79.17423
797.191	44.10499
797.605	57.13154
798.02	48.11322
798.434	111.23576
798.848	111.26653
799.262	52.12531
799.676	122.28462
800.09	37.08847
800.504	35.08212
800.918	15.03351
801.331	-25.06298
801.745	52.11471
802.158	28.06753
802.572	61.14301
802.985	84.19319
803.398	61.13999
803.811	54.13161
804.224	30.07161
804.637	49.11362
805.05	50.11099
805.462	88.20652
805.875	18.04579
806.288	82.19191
806.7	24.0581
807.112	48.10646
807.525	24.05663
807.937	25.06037
808.349	12.0291
808.761	40.09592
809.173	76.17828
809.584	66.1564
809.996	-7.01675
810.408	17.04339
810.819	14.03212
811.231	77.19972
811.642	70.16837
812.053	63.1488
812.464	20.04605
812.875	45.11231
813.286	51.12866
813.697	36.07918
814.108	36.08478
814.519	102.21887
814.929	38.09375
815.34	6.01403
815.75	68.16857
816.16	38.09053
816.571	29.07303
816.981	35.0789
817.391	1.00233
817.801	6.01461
818.211	47.10786
818.62	41.09612
819.03	15.03565
819.44	-5.01254
819.849	33.07975
820.259	-13.0322
820.668	6.01446
821.077	44.10696
821.486	8.01848
821.895	0
822.304	30.07718
822.713	23.05246
823.122	15.03633
823.531	0
823.939	59.1393
824.348	24.05619
824.756	37.08922
825.164	38.0921
825.573	18.04397
825.981	39.09297
826.389	60.14503
826.797	84.20602
827.205	23.05155
827.612	62.14641
828.02	-33.07546
828.428	15.03712
828.835	19.04911
829.243	37.08447
829.65	39.09471
830.057	-15.03535
830.464	24.05749
830.871	73.16847
831.278	44.10273
831.685	60.12758
832.092	32.07498
832.499	38.08045
832.905	26.06339
833.312	-27.05887
833.718	44.1068
834.124	33.07296
834.531	2.00486
834.937	48.1196
835.343	5.01161
835.749	10.02227
836.155	4.01022
836.561	15.03588
836.966	30.07065
837.372	50.12222
837.777	32.07752
838.183	5.01069
838.588	60.14454
838.993	52.12203
839.399	-2.00479
839.804	13.03085
840.209	51.1271
840.613	50.10641
841.018	-2.00491
841.423	41.10192
841.828	16.03955
842.232	37.08688
842.637	61.13982
843.041	20.0501
843.445	-11.0267
843.849	10.02417
844.253	34.07767
844.657	33.08107
845.061	116.25406
845.465	8.01877
845.869	69.15339
846.272	24.05694
846.676	-15.03469
847.079	8.01998
847.483	67.16009
847.886	43.09979
848.289	37.09722
848.692	26.06334
849.095	-20.04662
849.498	5.01213
849.901	51.11111
850.304	50.11472
850.707	5.01236
851.109	68.16437
851.512	51.12111
851.914	1.00247
852.316	55.13577
852.718	20.05158
853.121	26.06171
853.523	24.05374
853.925	0
854.326	20.04887
854.728	9.02262
855.13	33.08343
855.531	10.02324
855.933	32.0733
856.334	16.03907
856.736	43.09348
857.137	55.12394
857.538	23.05653
857.939	5.0122
858.34	22.05127
858.741	14.03546
859.142	-6.01393
859.542	49.12609
859.943	18.04333
860.343	22.0532
860.744	65.15209
861.144	31.07379
861.544	20.04725
861.945	34.08373
862.345	5.0118
862.745	41.09916
863.145	12.02719
863.544	48.11747
863.944	28.06378
864.344	16.03797
864.743	68.16157
865.143	73.18206
865.542	-28.06241
865.941	42.10072
866.34	25.057
866.74	6.01573
867.139	60.13998
867.537	-11.02701
867.936	83.19177
868.335	-15.03715
868.734	34.08429
869.132	7.01552
869.531	8.0185
869.929	68.14887
870.327	13.03017
870.726	11.0263
871.124	5.01121
871.522	25.06146
871.92	48.11401
872.318	29.06791
872.715	0
873.113	-12.02828
873.511	24.05764
873.908	20.04985
874.306	61.1472
874.703	13.0312
875.1	-9.02209
875.497	33.07591
875.894	62.14885
876.291	2.00478
876.688	35.08751
877.085	39.08936
877.482	56.13475
877.878	58.13601
878.275	10.02475
878.671	-3.00624
879.068	58.1342
879.464	21.04902
879.86	45.10223
880.256	42.0981
880.652	11.02715
881.048	8.019
881.444	-3.00682
881.84	33.08095
882.236	10.02436
882.631	60.14224
883.027	7.01634
883.422	-29.07204
883.817	2.00493
884.213	13.03241
884.608	26.06311
885.003	1.00232
885.398	-17.04155
885.793	30.07243
886.188	4.00964
886.582	28.0688
886.977	35.07932
887.371	22.05346
887.766	-5.01218
888.16	-7.01668
888.554	17.04035
888.949	16.03889
889.343	29.06794
889.737	4.0105
890.131	6.01462
890.525	48.1193
890.918	38.0922
891.312	43.09773
891.706	11.02799
892.099	47.11487
892.492	56.11419
892.886	46.10795
893.279	-25.06205
893.672	53.13098
894.065	56.135
894.458	4.00966
894.851	21.04933
895.244	14.03467
895.637	63.14591
896.029	58.13707
896.422	12.028
896.814	8.01921
897.206	32.07454
897.599	51.12106
897.991	46.1077
898.383	34.07751
898.775	73.15897
899.167	58.13163
899.559	19.04613
899.951	32.07183
900.342	6.01466
900.734	22.0542
901.125	9.02279
901.517	12.02859
901.908	12.02736
902.299	5.0119
902.69	89.20187
903.082	85.19632
903.473	18.04237
903.863	24.05891
904.254	57.12829
904.645	-1.00238
905.036	39.09293
905.426	42.09059
905.817	18.04239
906.207	-29.06653
906.597	44.0999
906.987	5.01248
907.378	52.1274
907.768	24.06181
908.158	-1.00236
908.547	46.11649
908.937	-7.01725
909.327	70.16215
909.717	4.00969
910.106	4.00925
910.495	26.06192
910.885	22.0541
911.274	9.02177
911.663	4.00976
912.052	37.08681
912.441	17.04226
912.83	18.03947
913.219	46.11574
913.608	62.14624
913.997	27.06614
914.385	82.18671
914.774	25.05859
915.162	59.13637
915.55	5.01161
915.939	33.08116
916.327	4.0096
916.715	34.08515
917.103	3.00702
917.491	32.07603
917.878	13.03084
918.266	8.02006
918.654	59.14629
919.041	42.10749
919.429	21.04777
919.816	53.12905
920.203	14.03319
920.591	30.07197
920.978	53.12455
921.365	10.02562
921.752	35.07887
922.139	61.126
922.525	17.03962
922.912	22.05157
923.299	44.10547
923.685	2.00503
924.072	-8.01738
924.458	33.07927
924.844	48.11432
925.231	-3.00669
925.617	17.04241
926.003	19.04687
926.389	19.04637
926.774	2.0049
927.16	53.12615
927.546	62.15488
927.931	19.04552
928.317	49.10707
928.702	81.18141
929.088	74.17115
929.473	40.09909
929.858	69.16284
930.243	49.11421
930.628	69.16253
931.013	7.01685
931.398	34.07359
931.783	-5.01268
932.167	81.19131
932.552	18.04348
932.937	32.07606
933.321	34.08311
933.705	-32.07785
934.09	-4.0096
934.474	48.10805
934.858	25.06298
935.242	13.02895
935.626	43.10681
936.009	33.08601
936.393	54.13426
936.777	27.06736
937.16	69.17414
937.544	18.04014
937.927	19.04699
938.311	24.05606
938.694	68.17366
939.077	24.05538
939.46	6.01392
939.843	20.03885
940.226	-2.00496
940.609	44.09808
940.991	11.02696
941.374	23.05466
941.757	20.04745
942.139	14.03042
942.522	32.07215
942.904	25.05795
943.286	2.00491
943.668	76.19115
944.05	31.0737
944.432	-12.02866
944.814	-18.04265
945.196	11.02618
945.578	38.08848
945.959	17.03795
946.341	20.0464
946.722	35.07835
947.104	50.11463
947.485	31.06934
947.866	20.04922
948.247	33.08125
948.628	-12.02782
949.009	-1.00249
949.39	10.02393
949.771	-14.03074
950.152	42.0993
950.532	52.12669
950.913	47.10855
951.293	55.14501
951.674	31.0722
952.054	83.20059
952.434	25.06005
952.814	57.12803
953.194	-8.02011
953.574	73.17088
953.954	-4.00909
954.334	54.13063
954.714	-9.02142
955.093	56.13193
955.473	16.0392
955.853	10.02515
956.232	19.05057
956.611	28.06368
956.99	69.167
957.37	21.0514
957.749	-5.01135
958.128	4.00985
958.506	26.06546
958.885	-14.03425
959.264	27.06476
959.643	53.11606
960.021	20.04829
960.4	24.05214
960.778	-11.02588
961.156	-34.08287
961.535	18.03992
961.913	43.09706
962.291	14.03533
962.669	39.09585
963.047	50.12363
963.424	64.15923
963.802	19.04526
964.18	1.00241
964.557	24.05279
964.935	43.09753
965.312	28.07106
965.69	29.06932
966.067	-18.04206
966.444	20.04659
966.821	36.08977
967.198	40.09196
967.575	68.15858
967.952	57.12787
968.329	85.1985
968.705	97.19739
969.082	42.10552
969.458	-8.01891
969.835	21.04929
970.211	23.05782
970.587	1.00242
970.963	32.07851
971.339	5.01276
971.715	8.0194
972.091	34.08051
972.467	-19.04538
972.843	49.11842
973.219	2.00459
973.594	-3.00764
973.97	27.06
974.345	80.18333
974.721	3.00691
975.096	49.11479
975.471	72.16195
975.846	10.02301
976.221	12.02958
976.596	75.17473
976.971	84.19944
977.346	-8.01785
977.72	19.04658
978.095	16.04004
978.469	33.07528
978.844	85.20255
979.218	87.20189
979.593	27.06189
979.967	-8.01851
980.341	32.07106
980.715	10.02448
981.089	49.11775
981.463	53.1162
981.837	10.02395
982.21	-2.00436
982.584	-5.01176
982.957	8.01949
983.331	47.10457
983.704	53.12668
984.078	-9.02149
984.451	21.0495
984.824	22.05207
985.197	-4.00925
985.57	-33.07936
985.943	14.03273
986.316	15.03493
986.688	51.11751
987.061	74.16576
987.434	59.15012
987.806	-21.04869
988.179	-12.0273
988.551	38.09241
988.923	26.0613
989.295	50.11922
989.667	30.07013
990.039	37.08965
990.411	6.01308
990.783	57.12318
991.155	1.00234
991.527	-5.01168
991.898	48.11559
992.27	74.17691
992.641	38.09109
993.012	-13.02878
993.384	23.05249
993.755	16.03975
994.126	55.12789
994.497	6.01426
994.868	3.00656
995.239	41.09503
995.61	-27.06633
995.98	-2.0047
996.351	20.04822
996.722	52.11677
997.092	24.05502
997.462	-17.03904
997.833	0
998.203	-16.03702
998.573	34.08194
998.943	52.1173
999.313	24.05575
999.683	19.04413
1000.053	-3.00649
1000.423	-5.01167
1000.792	-13.03241
1001.162	2.00473
1001.531	35.08321
1001.901	-40.0968
1002.27	-8.01685
1002.639	9.02209
1003.009	12.02743
1003.378	34.08407
1003.747	14.03162
1004.116	-9.02081
1004.485	42.09613
1004.853	38.0913
1005.222	-41.09901
1005.591	19.04324
1005.959	34.07371
1006.328	47.10139
1006.696	-7.01627
1007.064	-32.07767
1007.433	22.05258
1007.801	-41.09631
1008.169	-12.0291
1008.537	76.15899
1008.905	53.11889
1009.273	29.06836
1009.64	26.06054
1010.008	47.10695
1010.375	29.06634
1010.743	-20.04317
1011.11	81.18618
1011.478	25.06012
1011.845	70.15558
1012.212	50.10937
1012.579	46.10858
1012.946	33.07436
1013.313	60.13485
1013.68	32.06831
1014.047	-23.05318
1014.414	34.07685
1014.78	53.12693
1015.147	12.0276
1015.513	-3.00699
1015.88	47.11461
1016.246	29.06791
1016.612	43.09304
1016.978	54.12767
1017.344	33.07867
1017.71	56.12957
1018.076	37.08256
1018.442	86.21218
1018.808	19.04635
1019.174	-26.06308
1019.539	18.03791
1019.905	-7.01606
1020.27	-30.07191
1020.636	18.0409
1021.001	82.18731
1021.366	75.17246
1021.731	88.2195
1022.096	9.02222
1022.461	90.2026
1022.826	70.1599
1023.191	4.0102
1023.556	7.0157
1023.92	8.0188
1024.285	24.05568
1024.649	-14.03303
1025.014	40.09391
1025.378	51.124
1025.742	30.07101
1026.107	59.1263
1026.471	63.13888
1026.835	22.05258
1027.199	26.06035
1027.562	4.00885
1027.926	66.15295
1028.29	14.0343
1028.654	68.1478
1029.017	51.1205
1029.381	18.04156
1029.744	42.1032
1030.107	78.17523
1030.471	42.09695
1030.834	32.06834
1031.197	66.15131
1031.56	21.0473
1031.923	3.00754
1032.286	92.20439
1032.648	35.07897
1033.011	58.12885
1033.374	37.08218
1033.736	13.03321
1034.099	10.02355
1034.461	19.0468
1034.823	59.14146
1035.185	1.00241
1035.548	62.14493
1035.91	23.05282
1036.272	97.20962
1036.634	68.15858
1036.995	2.00449
1037.357	-6.01422
1037.719	51.11896
1038.08	87.19781
1038.442	-8.01832
1038.803	29.06564
1039.165	0
1039.526	40.09277
1039.887	12.02762
1040.248	66.15839
1040.609	29.0681
1040.97	23.0539
1041.331	68.1661
1041.692	33.07534
1042.053	46.09909
1042.413	15.03333
1042.774	75.17418
1043.134	49.10979
1043.495	22.05332
1043.855	48.11287
1044.215	20.04754
1044.576	37.08552
1044.936	48.10415
1045.296	24.05768
1045.656	-42.09926
1046.016	18.04153
1046.375	-9.02113
1046.735	34.07522
1047.095	40.0896
1047.454	46.09111
1047.814	85.19428
1048.173	16.03617
1048.533	28.0614
1048.892	18.04181
1049.251	20.04802
1049.61	31.0735
1049.969	14.03162
1050.328	24.04965
1050.687	21.04881
1051.046	-26.06121
1051.405	18.04272
1051.763	54.11982
1052.122	19.04562
1052.48	10.02375
1052.839	68.15508
1053.197	23.05189
1053.555	10.02135
1053.914	31.07257
1054.272	-4.00912
1054.63	7.01658
1054.988	32.07372
1055.345	-24.04901
1055.703	37.08556
1056.061	29.07293
1056.419	68.17183
1056.776	-10.02303
1057.134	1.00219
1057.491	30.07238
1057.848	22.05241
1058.206	-15.03351
1058.563	49.10226
1058.92	27.05925
1059.277	51.12046
1059.634	37.08194
1059.991	121.27389
1060.348	5.01092
1060.704	49.11452
1061.061	16.03491
1061.418	0
1061.774	54.12767
1062.131	58.1501
1062.487	8.01788
1062.843	25.05998
1063.199	7.01684
1063.555	36.08064
1063.911	7.01698
1064.267	43.08335
1064.623	43.1014
1064.979	-14.03079
1065.335	32.07257
1065.691	-54.12415
1066.046	34.07097
1066.402	-21.04575
1066.757	31.07543
1067.112	6.01414
1067.468	61.13943
1067.823	-18.04097
1068.178	25.05765
1068.533	30.0698
1068.888	35.07961
1069.243	-10.02393
1069.598	8.01861
1069.952	38.08372
1070.307	40.09567
1070.662	70.16048
1071.016	63.1362
1071.371	62.13482
1071.725	14.03188
1072.079	29.06714
1072.434	-1.00236
1072.788	-12.02721
1073.142	55.1296
1073.496	9.0205
1073.85	52.11456
1074.203	60.13915
1074.557	75.19406
1074.911	42.09505
1075.265	15.03344
1075.618	50.11697
1075.971	17.03881
1076.325	37.09134
1076.678	1.0022
1077.031	-65.14011
1077.385	60.12452
1077.738	9.01943
1078.091	17.03748
1078.444	-5.01103
1078.796	60.14174
1079.149	58.1384
1079.502	17.03893
1079.855	15.03366
1080.207	35.08244
1080.56	27.0679
1080.912	5.01172
1081.264	79.18173
1081.617	38.08925
1081.969	42.10259
1082.321	36.08399
1082.673	9.0201
1083.025	4.00908
1083.377	13.02934
1083.728	21.04668
1084.08	13.0311
1084.432	22.05076
1084.783	-2.00442
1085.135	24.0583
1085.486	35.07709
1085.838	21.05002
1086.189	43.10101
1086.54	31.0706
1086.891	43.10677
1087.242	79.18666
1087.593	-28.06507
1087.944	99.2133
1088.295	24.05201
1088.646	108.25295
1088.996	-3.00704
1089.347	9.02116
1089.698	5.01154
1090.048	9.02249
1090.398	18.03972
1090.749	-2.00457
1091.099	33.08104
1091.449	15.03624
1091.799	18.04346
1092.149	-41.09905
1092.499	26.06102
1092.849	1.00247
1093.199	35.0835
1093.548	55.12784
1093.898	37.08857
1094.248	7.01723
1094.597	23.05755
1094.947	3.0078
1095.296	-4.00962
1095.645	40.09978
1095.994	39.08972
1096.343	50.12127
1096.692	51.13146
1097.041	39.104
1097.39	-1.00241
1097.739	58.14473
1098.088	3.00775
1098.437	41.10568
1098.785	7.01819
1099.134	0
1099.482	52.13887
1099.83	51.12917
1100.179	72.18401
1100.527	-28.07181
1100.875	31.07999
1101.223	32.08287
1101.571	-33.08911
1101.919	54.13927
1102.267	-19.05294
1102.615	-3.00964
1102.962	5.01603
1103.31	0
1103.658	-11.03531
