Data from N1R0 105C sample 6_Subt2__0__13-12-29-674.txt Node

Date: Tue Sep 16 13:12:29 PDT 2025
User: uwsun
Spectrometer: HDX01956
Trigger mode: 0
Integration Time (sec): 5.000000E-1
Scans to average: 1
Nonlinearity correction enabled: true
Boxcar width: 0
Storing dark spectrum: false
XAxis mode: Wavelengths
Number of Pixels in Spectrum: 2068
>>>>>Begin Spectral Data<<<<<
194.03	-7.02034
194.578	1.00325
195.127	-3.00962
195.676	3.00965
196.225	4.01068
196.773	-2.00559
197.321	-1.0028
197.87	33.08598
198.418	-4.01056
198.966	32.08583
199.513	31.08038
200.061	37.09577
200.609	13.03501
201.156	24.05392
201.704	12.03091
202.251	4.01087
202.798	-1.00265
203.345	41.10351
203.892	15.03879
204.438	15.03647
204.985	43.10423
205.532	-9.02425
206.078	23.05742
206.624	88.22332
207.17	67.15978
207.716	23.05776
208.262	12.02459
208.808	57.14565
209.354	17.04309
209.899	1.00258
210.445	1.00257
210.99	5.01254
211.535	67.16058
212.08	54.12772
212.625	-31.07985
213.17	34.08836
213.715	72.16732
214.259	42.10018
214.804	16.04013
215.348	75.17611
215.892	33.08188
216.436	-4.0094
216.98	42.09416
217.524	27.06606
218.068	58.14859
218.612	42.10873
219.155	50.12036
219.698	61.14731
220.242	32.08037
220.785	48.1148
221.328	34.08545
221.871	57.14718
222.414	48.12034
222.956	-10.02453
223.499	34.07723
224.041	17.03965
224.583	51.10917
225.126	31.06931
225.668	46.11328
226.21	56.14342
226.751	54.12216
227.293	47.10782
227.835	48.11921
228.376	33.07628
228.918	12.03041
229.459	22.05583
230	38.09272
230.541	8.0188
231.082	66.1623
231.622	7.01617
232.163	-28.06931
232.704	38.0965
233.244	36.09058
233.784	35.08599
234.324	53.12109
234.864	-4.00925
235.404	-6.01444
235.944	10.02401
236.484	59.14869
237.023	29.06945
237.563	75.1759
238.102	47.1126
238.641	18.04595
239.18	44.10479
239.719	34.08628
240.258	59.13409
240.797	27.0656
241.335	55.13507
241.874	81.15965
242.412	50.12309
242.95	62.1515
243.488	-19.04381
244.026	82.19228
244.564	31.06515
245.102	75.1717
245.64	46.11115
246.177	16.03627
246.715	82.19828
247.252	55.12627
247.789	96.1792
248.326	25.06133
248.863	47.10513
249.4	20.04624
249.936	73.15492
250.473	57.1365
251.009	35.08145
251.546	98.22025
252.082	4.00885
252.618	34.07745
253.154	52.12674
253.69	60.13617
254.226	86.20725
254.761	64.14531
255.297	38.08442
255.832	47.11337
256.367	18.04312
256.903	42.09505
257.438	35.08334
257.972	25.05677
258.507	44.10241
259.042	24.05332
259.576	78.17458
260.111	35.08167
260.645	27.05952
261.179	81.19131
261.713	18.0412
262.247	30.06969
262.781	22.04747
263.315	24.05917
263.849	7.01787
264.382	49.11412
264.915	71.16977
265.449	44.10888
265.982	24.0556
266.515	53.1316
267.048	1.00218
267.58	2.00442
268.113	48.10553
268.646	15.03737
269.178	-9.02065
269.71	69.1546
270.243	51.11999
270.775	63.16329
271.307	10.02424
271.838	32.0768
272.37	8.01999
272.902	24.05542
273.433	62.13946
273.965	77.18847
274.496	-4.01013
275.027	51.12857
275.558	57.14086
276.089	44.1115
276.62	35.08943
277.15	23.05751
277.681	22.04837
278.211	33.0817
278.741	34.07704
279.272	69.15981
279.802	36.09084
280.332	68.16238
280.861	7.01709
281.391	44.10168
281.921	39.09461
282.45	48.12047
282.98	53.13959
283.509	63.14539
284.038	70.16215
284.567	31.07359
285.096	65.15951
285.625	-13.03007
286.153	90.21681
286.682	22.05167
287.21	1.00243
287.739	36.08653
288.267	49.12109
288.795	40.1058
289.323	18.04321
289.851	43.10294
290.378	20.04558
290.906	32.07973
291.433	47.11878
291.961	18.04211
292.488	44.11067
293.015	63.15082
293.542	92.23809
294.069	92.22965
294.596	15.03738
295.122	62.15077
295.649	-10.02254
296.175	53.12929
296.702	104.25574
297.228	13.03196
297.754	16.03689
298.28	40.09391
298.806	56.13689
299.332	63.14336
299.857	39.09047
300.383	32.08181
300.908	37.09264
301.433	74.18351
301.958	68.15802
302.483	1.00254
303.008	83.20842
303.533	20.05251
304.058	67.15819
304.582	61.14631
305.107	45.11872
305.631	12.02791
306.155	1.00239
306.679	44.10547
307.203	65.15323
307.727	34.08222
308.251	58.14515
308.775	77.18973
309.298	63.15415
309.822	55.14004
310.345	58.14094
310.868	99.24079
311.391	75.18684
311.914	27.06899
312.437	61.14189
312.96	67.16027
313.482	16.03851
314.005	33.08385
314.527	21.05559
315.049	62.15906
315.571	43.09904
316.093	83.20775
316.615	15.03685
317.137	48.10704
317.659	80.19607
318.18	11.02686
318.702	100.23678
319.223	32.06712
319.744	54.12415
320.265	71.17552
320.786	69.17488
321.307	42.10567
321.828	63.14487
322.348	34.08187
322.869	78.18861
323.389	251.48401
323.909	60.13971
324.43	45.10965
324.95	39.09144
325.47	79.19852
325.989	65.15697
326.509	80.18245
327.029	60.13998
327.548	61.14111
328.067	49.12136
328.587	78.19829
329.106	39.09007
329.625	60.15832
330.144	85.20084
330.662	92.21919
331.181	74.17772
331.7	28.06679
332.218	21.04707
332.736	58.13866
333.255	60.14426
333.773	36.08708
334.291	86.21793
334.808	69.15892
335.326	27.06246
335.844	85.2034
336.361	84.21911
336.879	87.20827
337.396	92.22731
337.913	108.25295
338.43	45.10426
338.947	57.13915
339.464	86.18955
339.981	21.05123
340.497	30.07556
341.014	78.19329
341.53	47.1089
342.046	91.23056
342.562	80.20237
343.078	67.16106
343.594	28.06842
344.11	116.28102
344.626	90.23025
345.141	119.27582
345.657	142.32424
346.172	65.1601
346.687	72.16884
347.202	137.31628
347.717	61.1487
348.232	88.22236
348.747	102.23956
349.261	101.22629
349.776	116.27933
350.29	105.26612
350.805	101.25271
351.319	99.23392
351.833	121.28246
352.347	98.23527
352.861	96.22924
353.374	91.21092
353.888	130.32073
354.401	119.27462
354.915	85.19647
355.428	114.28714
355.941	100.23678
356.454	121.27311
356.967	74.17624
357.48	89.2058
357.993	129.31972
358.505	66.16367
359.018	146.35967
359.53	128.31545
360.042	100.22843
360.554	144.35475
361.066	82.2029
361.578	170.37814
362.09	76.18447
362.602	158.35538
363.113	119.28389
363.625	147.33707
364.136	103.23077
364.647	106.25525
365.158	117.27612
365.669	96.23292
366.18	139.32995
366.691	121.26943
367.201	133.32154
367.712	137.31729
368.222	139.32358
368.733	128.28283
369.243	120.27279
369.753	145.33715
370.263	131.31933
370.773	119.29246
371.282	169.40471
371.792	141.33005
372.301	132.32135
372.811	119.31395
373.32	221.47717
373.829	105.25117
374.338	181.40369
374.847	131.30592
375.356	101.24178
375.865	174.3761
376.373	166.37964
376.882	130.33095
377.39	155.37529
377.898	126.312
378.407	187.42517
378.915	250.54175
379.423	196.45456
379.93	267.61049
380.438	192.45935
380.946	184.42791
381.453	197.4705
381.96	201.47748
382.468	227.52863
382.975	254.61183
383.482	254.56121
383.989	256.64497
384.495	298.67902
385.002	310.63587
385.509	306.71075
386.015	371.73158
386.521	366.80087
387.028	382.83093
387.534	299.62397
388.04	417.95337
388.546	383.80883
389.051	388.81562
389.557	420.92017
390.063	408.87352
390.568	471.05612
391.073	501.03019
391.578	498.12705
392.084	581.20198
392.589	540.06986
393.093	638.371
393.598	661.35492
394.103	664.4098
394.607	796.6632
395.112	854.80258
395.616	882.8276
396.12	965.83931
396.624	1053.03782
397.128	1166.25756
397.632	1338.42624
398.136	1390.42848
398.639	1396.50257
399.143	1637.94937
399.646	1848.97518
400.15	2006.01494
400.653	2253.07094
401.156	2539.11627
401.659	2973.58338
402.162	3685.17918
402.664	4818.4484
403.167	6979.13306
403.67	13815.81996
404.172	43980.60668
404.674	61376.35304
405.176	63738.15102
405.678	63977.72923
406.18	64011.81569
406.682	63863.44694
407.184	63926.60148
407.686	50660.45444
408.187	20599.76524
408.688	12240.32045
409.19	8315.49741
409.691	6718.15725
410.192	5624.46383
410.693	4904.17528
411.194	4381.75266
411.694	4234.14122
412.195	3741.68158
412.696	3478.3151
413.196	3160.74863
413.696	3009.47155
414.196	3092.01315
414.696	3006.66447
415.196	2829.31416
415.696	2608.09718
416.196	2039.06095
416.695	1689.81
417.195	1420.59107
417.694	1362.13146
418.194	1239.03113
418.693	1231.21184
419.192	1143.1715
419.691	1061.02215
420.19	1091.1426
420.688	1084.17912
421.187	1017.68699
421.685	996.92003
422.184	914.82321
422.682	761.43798
423.18	670.36875
423.678	607.24856
424.176	522.09154
424.674	540.09482
425.172	484.0499
425.669	429.98395
426.167	450.97216
426.664	388.83034
427.161	409.88303
427.659	319.74079
428.156	327.66634
428.652	314.75919
429.149	272.63877
429.646	297.63823
430.143	271.62884
430.639	254.58485
431.135	251.60975
431.632	234.52243
432.128	231.54155
432.624	239.6001
433.12	207.46377
433.616	231.49534
434.111	160.37606
434.607	156.36966
435.103	175.36277
435.598	190.39008
436.093	155.35741
436.588	148.33071
437.083	170.37641
437.578	208.47186
438.073	166.40969
438.568	166.4029
439.062	143.30426
439.557	157.3626
440.051	115.25776
440.546	59.13513
441.04	132.31436
441.534	100.2507
442.028	154.36619
442.522	87.20875
443.015	26.05666
443.509	97.23513
444.002	100.24363
444.496	46.10088
444.989	106.25573
445.482	35.08722
445.975	114.26219
446.468	68.14818
446.961	108.23404
447.454	52.11749
447.947	62.14845
448.439	103.25117
448.931	86.1974
449.424	144.36113
449.916	151.36285
450.408	86.19653
450.9	41.10009
451.392	80.20237
451.884	96.21982
452.375	76.18764
452.867	58.13094
453.358	105.23922
453.849	80.17136
454.341	96.21602
454.832	75.16236
455.323	124.30525
455.814	59.13534
456.304	50.11619
456.795	61.13965
457.285	39.08655
457.776	3.00693
458.266	55.13076
458.756	12.02862
459.247	44.10559
459.737	136.32438
460.226	106.23999
460.716	72.17174
461.206	46.11031
461.695	68.16752
462.185	81.19154
462.674	55.12602
463.163	115.25564
463.653	99.20982
464.142	54.13087
464.63	68.16424
465.119	64.14873
465.608	113.26202
466.096	42.09168
466.585	68.15508
467.073	28.06638
467.561	68.16257
468.05	29.06714
468.538	51.12446
469.026	27.06431
469.513	-1.00214
470.001	86.19645
470.489	51.12125
470.976	110.25431
471.463	74.18311
471.951	85.20944
472.438	24.05665
472.925	44.10374
473.412	33.0802
473.899	134.30239
474.385	36.08823
474.872	16.03756
475.359	77.18812
475.845	58.12037
476.331	36.07708
476.817	69.16707
477.303	67.15524
477.789	-7.01683
478.275	30.07456
478.761	12.02867
479.247	45.10057
479.732	29.07248
480.218	81.21045
480.703	50.12291
481.188	56.12136
481.673	62.14225
482.158	35.07609
482.643	48.12233
483.128	30.07027
483.612	99.23364
484.097	71.17023
484.581	28.06507
485.066	50.12232
485.55	51.113
486.034	32.06979
486.518	85.20208
487.002	-1.00245
487.486	-8.01959
487.969	-12.02944
488.453	46.11424
488.936	3.00682
489.42	50.11076
489.903	42.10438
490.386	-28.05904
490.869	82.17884
491.352	38.09147
491.835	-7.01454
492.318	34.0767
492.8	49.1018
493.283	45.11466
493.765	-7.01731
494.247	16.03748
494.73	46.10202
495.212	-12.02874
495.694	42.09914
496.175	45.10818
496.657	64.15101
497.139	51.08797
497.62	27.06518
498.102	28.06987
498.583	-18.04465
499.064	5.01126
499.545	26.05956
500.026	39.08853
500.507	15.03477
500.988	71.17649
501.469	-34.08582
501.949	22.0545
502.43	35.08455
502.91	65.13788
503.39	18.04478
503.87	11.0262
504.35	-23.05453
504.83	-7.01551
505.31	-27.06594
505.79	-15.03587
506.269	-38.08872
506.749	-16.03705
507.228	-3.00714
507.707	53.11836
508.187	38.09099
508.666	-10.02503
509.145	-13.03078
509.623	-6.0142
510.102	14.03407
510.581	78.18712
511.059	10.02532
511.538	12.03108
512.016	32.07694
512.494	27.06513
512.972	20.04816
513.45	11.02587
513.928	6.01471
514.406	13.03209
514.884	-1.0026
515.361	-29.07046
515.839	24.05564
516.316	41.09983
516.793	31.07843
517.27	-3.00729
517.747	-7.01813
518.224	25.05792
518.701	-5.01119
519.178	3.00757
519.654	17.04053
520.131	5.01248
520.607	-7.01727
521.083	-36.08306
521.56	10.02376
522.036	3.00661
522.512	53.13079
522.987	5.01216
523.463	-14.03361
523.939	52.12905
524.414	-3.00695
524.89	53.12649
525.365	-13.02979
525.84	25.06042
526.315	8.01954
526.79	16.0364
527.265	25.05815
527.74	-21.05165
528.215	-55.13101
528.689	-89.20113
529.164	-10.02176
529.638	-30.07705
530.112	-7.01666
530.587	-16.03482
531.061	5.01221
531.534	36.08702
532.008	30.07328
532.482	16.03708
532.956	-6.01545
533.429	54.13215
533.903	17.03759
534.376	15.03347
534.849	-38.089
535.322	23.0546
535.795	-41.10073
536.268	-7.01714
536.741	-26.06266
537.213	-20.04668
537.686	7.01727
538.158	36.0823
538.631	-31.07627
539.103	8.01827
539.575	-59.12482
540.047	-14.03101
540.519	16.03851
540.991	-14.03457
541.463	-24.05858
541.934	-39.0899
542.406	-22.05366
542.877	-16.03668
543.348	-12.02936
543.82	-30.0741
544.291	41.09609
544.762	-25.06049
545.233	70.17694
545.703	9.02026
546.174	-25.05898
546.645	6.01467
547.115	26.06318
547.585	-34.07973
548.056	42.1037
548.526	-12.02892
548.996	0
549.466	3.00737
549.935	-9.02182
550.405	26.05769
550.875	-10.0241
551.344	-42.10217
551.814	-5.01163
552.283	15.03316
552.752	1.00238
553.221	39.08684
553.69	32.07301
554.159	15.03769
554.628	2.00461
555.096	16.04105
555.565	-20.04511
556.033	38.09123
556.502	19.04626
556.97	29.06519
557.438	-29.0694
557.906	-5.01197
558.374	47.10959
558.842	6.01455
559.31	56.12591
559.777	31.0763
560.245	-12.02799
560.712	5.0116
561.18	41.09145
561.647	23.05155
562.114	36.08313
562.581	37.0915
563.048	17.03937
563.514	78.19527
563.981	17.03937
564.448	94.21161
564.914	60.1396
565.381	77.17586
565.847	28.06574
566.313	7.01644
566.779	74.16652
567.245	19.04442
567.711	44.10575
568.176	67.15055
568.642	75.18833
569.108	53.1305
569.573	48.1115
570.038	85.17747
570.504	113.25328
570.969	64.15842
571.434	130.28544
571.899	126.29523
572.363	173.38872
572.828	208.46515
573.293	151.34054
573.757	207.46759
574.222	176.38628
574.686	226.50394
575.15	194.45579
575.614	230.52642
576.078	187.42879
576.542	237.52223
577.006	164.36388
577.469	222.52969
577.933	225.49725
578.396	188.43531
578.86	190.43663
579.323	245.57054
579.786	267.55621
580.249	255.57953
580.712	182.4326
581.175	191.45948
581.637	236.52057
582.1	217.45889
582.563	176.36607
583.025	144.34518
583.487	217.43354
583.95	129.27352
584.412	190.38973
584.874	201.47766
585.336	155.36154
585.797	180.38323
586.259	150.3454
586.721	143.33066
587.182	163.36881
587.643	126.28329
588.105	158.36672
588.566	99.20569
589.027	131.31694
589.488	148.33466
589.949	146.34917
590.41	125.24556
590.87	131.29653
591.331	158.33976
591.791	97.22358
592.252	114.26345
592.712	95.22638
593.172	111.25074
593.632	157.34349
594.092	81.18036
594.552	85.184
595.011	49.11276
595.471	126.28283
595.931	59.13371
596.39	35.08455
596.849	80.18598
597.308	44.09445
597.768	98.25107
598.227	54.13004
598.685	25.05753
599.144	54.12772
599.603	70.16363
600.062	54.11452
600.52	85.1917
600.978	51.12088
601.437	38.08701
601.895	72.15463
602.353	53.11699
602.811	105.23545
603.269	37.08847
603.727	55.13227
604.184	68.15514
604.642	51.12557
605.099	47.11028
605.557	64.15552
606.014	6.01312
606.471	24.06058
606.928	75.16679
607.385	65.16263
607.842	-4.00931
608.299	17.04012
608.755	34.08277
609.212	91.20229
609.668	44.09986
610.125	58.13983
610.581	50.11752
611.037	37.08345
611.493	32.07513
611.949	99.23943
612.405	34.06999
612.861	16.03714
613.316	32.07706
613.772	71.16241
614.227	47.11324
614.683	2.0043
615.138	44.1035
615.593	27.06308
616.048	42.09648
616.503	37.09009
616.958	40.10035
617.412	40.0953
617.867	57.12776
618.321	59.12203
618.776	-4.00893
619.23	51.11957
619.684	22.04946
620.138	30.069
620.592	39.09479
621.046	103.2411
621.5	6.01456
621.954	38.08435
622.407	51.1129
622.861	14.0342
623.314	56.12668
623.768	30.07115
624.221	25.04964
624.674	11.02562
625.127	8.01875
625.58	25.05643
626.033	88.19094
626.485	42.10053
626.938	62.1472
627.39	52.12151
627.843	28.06481
628.295	27.06251
628.747	68.16145
629.199	42.09575
629.651	43.09868
630.103	16.03693
630.555	-6.0128
631.006	6.01405
631.458	43.10117
631.909	19.04278
632.361	10.02322
632.812	43.09955
633.263	74.15975
633.714	24.05108
634.165	57.13614
634.616	60.14125
635.067	9.01997
635.518	81.19042
635.968	26.05135
636.419	115.24756
636.869	85.19944
637.319	85.19553
637.769	90.20044
638.219	84.19636
638.669	29.06903
639.119	66.15694
639.569	69.16442
640.019	101.23048
640.468	67.14943
640.918	87.20421
641.367	88.19509
641.816	106.23245
642.265	148.33793
642.714	98.22206
643.163	177.39803
643.612	166.397
644.061	128.26896
644.51	177.39477
644.958	128.27774
645.406	134.31422
645.855	120.28655
646.303	130.29492
646.751	138.3132
647.199	176.38791
647.647	124.28314
648.095	125.28006
648.543	155.30665
648.99	174.40705
649.438	170.38268
649.885	197.47643
650.333	205.38333
650.78	178.41853
651.227	169.40317
651.674	190.42052
652.121	190.45265
652.568	185.44049
653.015	138.33457
653.461	174.40258
653.908	184.40995
654.354	186.42983
654.801	156.35721
655.247	153.32327
655.693	192.48479
656.139	197.45516
656.585	173.40193
657.031	197.44845
657.477	203.42853
657.922	167.36938
658.368	190.45283
658.813	139.30925
659.259	219.51221
659.704	219.50075
660.149	200.44579
660.594	224.51187
661.039	204.44905
661.484	198.45373
661.929	215.48427
662.373	207.50231
662.818	184.44172
663.262	234.54396
663.707	244.59641
664.151	242.56611
664.595	207.48377
665.039	240.57198
665.483	209.514
665.927	261.58451
666.371	217.49218
666.814	248.56397
667.258	281.64482
667.701	284.57279
668.145	302.71308
668.588	313.73432
669.031	322.71382
669.474	264.60448
669.917	292.60463
670.36	249.59581
670.803	342.77675
671.245	233.45513
671.688	322.73933
672.13	320.68128
672.573	326.77749
673.015	326.74101
673.457	329.67072
673.899	323.73672
674.341	365.82175
674.783	326.73591
675.225	338.78289
675.666	375.85737
676.108	371.74327
676.549	322.70549
676.991	380.77205
677.432	340.62651
677.873	329.70455
678.314	349.77769
678.755	425.96892
679.196	358.76284
679.637	340.76312
680.078	421.90543
680.518	376.80119
680.959	399.87951
681.399	393.90429
681.839	333.75953
682.28	434.99521
682.72	340.727
683.16	358.83675
683.6	411.86035
684.039	411.77467
684.479	406.92953
684.919	424.91835
685.358	366.85108
685.798	392.95163
686.237	365.81098
686.676	377.78953
687.115	440.95015
687.554	453.99224
687.993	456.91589
688.432	461.95646
688.871	430.9035
689.309	482.04956
689.748	456.85592
690.186	443.947
690.625	431.92893
691.063	463.00533
691.501	460.03965
691.939	518.18094
692.377	503.10208
692.815	482.07174
693.253	466.00778
693.69	497.97591
694.128	504.1059
694.565	546.15492
695.003	537.23883
695.44	506.07998
695.877	541.13758
696.314	484.91206
696.751	545.09666
697.188	532.10217
697.625	586.15088
698.061	543.16234
698.498	554.16522
698.934	527.12901
699.371	526.10866
699.807	529.11719
700.243	566.21557
700.679	566.11153
701.115	576.18763
701.551	574.1782
701.987	606.15105
702.422	650.35425
702.858	629.31537
703.294	654.30038
703.729	637.35798
704.164	586.23642
704.599	706.34462
705.035	590.16039
705.47	592.27149
705.904	608.23349
706.339	676.3367
706.774	611.25455
707.209	720.43315
707.643	705.45239
708.078	702.47438
708.512	610.35344
708.946	705.43417
709.38	713.45441
709.814	683.32502
710.248	766.59764
710.682	764.56104
711.116	759.57847
711.549	670.49655
711.983	758.47951
712.416	799.59614
712.85	749.58804
713.283	735.47899
713.716	754.59761
714.149	780.51675
714.582	773.455
715.015	720.51754
715.448	778.67287
715.881	752.34581
716.313	778.52937
716.746	789.5725
717.178	795.61162
717.61	803.73663
718.043	762.60334
718.475	767.58098
718.907	811.70989
719.339	795.50308
719.77	787.59102
720.202	729.56978
720.634	809.6751
721.065	752.5004
721.497	782.62166
721.928	737.53947
722.359	772.59592
722.79	715.46642
723.221	716.5289
723.652	739.61377
724.083	747.41148
724.514	823.56673
724.945	755.49281
725.375	709.41613
725.806	781.62931
726.236	733.6128
726.666	712.43232
727.096	683.44294
727.526	714.59491
727.956	702.36745
728.386	728.52636
728.816	687.53108
729.246	706.50232
729.675	627.33548
730.105	671.41941
730.534	657.3188
730.964	666.44228
731.393	699.47162
731.822	654.46199
732.251	655.45189
732.68	659.31003
733.109	680.45133
733.537	658.39886
733.966	638.39451
734.395	657.30726
734.823	618.17617
735.251	609.27855
735.68	593.28539
736.108	589.29786
736.536	589.20495
736.964	609.22624
737.392	616.34977
737.82	598.24742
738.247	583.21743
738.675	585.20108
739.102	536.19152
739.53	583.33227
739.957	582.33931
740.384	513.09944
740.811	533.18019
741.238	614.31993
741.665	560.16131
742.092	421.87543
742.519	502.11952
742.945	568.22092
743.372	543.20186
743.798	496.14344
744.225	480.01597
744.651	513.1481
745.077	523.16426
745.503	448.97777
745.929	583.24326
746.355	492.07046
746.781	455.00888
747.207	464.99468
747.632	543.20186
748.058	513.16082
748.483	492.00642
748.908	489.0961
749.334	510.12566
749.759	454.9787
750.184	479.03838
750.609	449.99591
751.033	434.91391
751.458	473.93886
751.883	419.93904
752.307	397.85272
752.732	443.03301
753.156	383.86579
753.58	385.82873
754.005	401.92122
754.429	392.85123
754.853	426.96865
755.277	411.88963
755.7	409.92831
756.124	390.89076
756.548	373.80739
756.971	412.91671
757.394	325.77347
757.818	341.8187
758.241	345.81443
758.664	345.80811
759.087	370.76407
759.51	303.69641
759.933	366.81607
760.356	389.92645
760.778	342.77801
761.201	325.72691
761.623	292.64624
762.046	299.64778
762.468	322.71322
762.89	303.68749
763.312	299.68364
763.734	304.68289
764.156	250.58207
764.578	288.60889
765	253.58011
765.421	252.60839
765.843	254.628
766.264	212.4741
766.686	199.4689
767.107	220.50455
767.528	269.652
767.949	215.5178
768.37	248.5806
768.791	197.44773
769.212	190.45769
769.632	221.48984
770.053	169.42314
770.473	170.39067
770.894	186.43478
771.314	172.38576
771.734	122.27351
772.154	216.52228
772.575	202.43942
772.994	141.30523
773.414	183.41271
773.834	155.36949
774.254	149.34809
774.673	227.5253
775.093	146.34957
775.512	162.38314
775.931	141.34409
776.351	169.40348
776.77	105.24973
777.189	164.37175
777.607	140.34375
778.026	130.31174
778.445	155.37797
778.864	107.26161
779.282	150.34112
779.701	114.27576
780.119	128.31277
780.537	140.33405
780.955	105.25605
781.373	133.31522
781.791	153.33205
782.209	90.19537
782.627	76.19484
783.045	103.22497
783.462	106.26152
783.88	84.21142
784.297	79.19293
784.715	109.27193
785.132	117.27033
785.549	113.27185
785.966	91.22158
786.383	110.26237
786.8	139.30784
787.217	117.26936
787.633	114.27722
788.05	114.25368
788.466	84.18824
788.883	99.24654
789.299	58.13356
789.715	125.29283
790.131	131.3124
790.547	62.14998
790.963	72.17279
791.379	59.14516
791.795	71.15448
792.21	53.11929
792.626	27.06189
793.041	72.1716
793.457	78.18498
793.872	0
794.287	84.19697
794.702	21.04964
795.117	81.19568
795.532	70.17162
795.947	40.09207
796.362	47.10634
796.776	74.16337
797.191	87.20588
797.605	-4.00934
798.02	31.07336
798.434	91.19413
798.848	82.19798
799.262	24.05814
799.676	93.21821
800.09	78.18505
800.504	41.09609
800.918	0
801.331	7.01753
801.745	19.0422
802.158	38.09147
802.572	101.23494
802.985	57.1318
803.398	84.19188
803.811	28.06857
804.224	22.0526
804.637	68.15708
805.05	42.09338
805.462	26.06175
805.875	46.11644
806.288	-6.01428
806.7	0
807.112	79.17408
807.525	21.04958
807.937	42.1011
808.349	49.11802
808.761	64.15277
809.173	59.13887
809.584	36.0858
809.996	29.06892
810.408	54.13694
810.819	-4.00921
811.231	66.17151
811.642	86.20623
812.053	53.12542
812.464	-2.00463
812.875	11.02762
813.286	53.13366
813.697	8.0177
814.108	22.05195
814.519	106.22725
814.929	52.12796
815.34	-22.05171
815.75	59.1465
816.16	21.0502
816.571	-9.02282
816.981	49.11015
817.391	-22.05149
817.801	18.04374
818.211	39.08964
818.62	10.02359
819.03	29.06873
819.44	-4.01003
819.849	-19.04637
820.259	9.0222
820.668	43.1029
821.077	58.14062
821.486	7.01617
821.895	16.03781
822.304	20.05154
822.713	44.09994
823.122	20.0484
823.531	-42.09621
823.939	57.13463
824.348	29.06783
824.756	35.08443
825.164	23.0559
825.573	31.07554
825.981	30.07164
826.389	51.12349
826.797	81.19878
827.205	111.24429
827.612	11.02623
828.02	0
828.428	4.00992
828.835	40.10302
829.243	10.02295
829.65	2.00489
830.057	3.00704
830.464	77.18257
830.871	83.19116
831.278	41.09579
831.685	30.06421
832.092	25.05866
832.499	88.18426
832.905	4.00979
833.312	23.04962
833.718	61.14759
834.124	86.18804
834.531	-8.01947
834.937	52.12947
835.343	27.06243
835.749	-2.00447
836.155	64.16184
836.561	30.07156
836.966	38.08935
837.372	18.04426
837.777	15.03646
838.183	19.04051
838.588	21.05096
838.993	41.09642
839.399	22.05241
839.804	-21.05016
840.209	61.15174
840.613	13.02789
841.018	-5.01227
841.423	22.05488
841.828	38.09355
842.232	-3.0071
842.637	55.12622
843.041	5.01256
843.445	-18.04376
843.849	71.16964
844.253	61.13858
844.657	24.05906
845.061	95.20899
845.465	8.01877
845.869	75.16652
846.272	1.00238
846.676	-32.07425
847.079	52.12881
847.483	73.17422
847.886	60.13877
848.289	14.03693
848.692	18.04392
849.095	25.05776
849.498	39.094
849.901	5.011
850.304	50.11472
850.707	29.07135
851.109	4.00979
851.512	39.09283
851.914	-14.03474
852.316	70.17232
852.718	63.16126
853.121	-15.03588
853.523	2.0045
853.925	19.04875
854.326	-4.00982
854.728	50.12472
855.13	18.04563
855.531	-10.02333
855.933	37.08467
856.334	-16.0393
856.736	49.10639
857.137	26.05894
857.538	21.05163
857.939	50.12095
858.34	36.08366
858.741	48.12086
859.142	23.05308
859.542	40.10309
859.943	43.10302
860.343	-6.01459
860.744	37.08705
861.144	57.13499
861.544	37.08712
861.945	-3.00744
862.345	19.04474
862.745	41.09916
863.145	5.01135
863.544	40.09803
863.944	37.08413
864.344	-14.03342
864.743	68.16157
865.143	22.05537
865.542	-17.03781
865.941	33.07927
866.34	50.11343
866.74	30.07834
867.139	44.10298
867.537	-4.00981
867.936	51.11859
868.335	0
868.734	29.07196
869.132	10.02216
869.531	1.00232
869.929	16.03541
870.327	73.16739
870.726	66.15616
871.124	19.04248
871.522	20.04922
871.92	24.05727
872.318	21.04925
872.715	16.03774
873.113	45.10488
873.511	21.05046
873.908	18.04488
874.306	-7.01711
874.703	43.10262
875.1	-12.02948
875.497	14.03233
875.894	59.14173
876.291	28.06656
876.688	46.11478
877.085	4.00923
877.482	25.06051
877.878	42.0988
878.275	40.09847
878.671	-44.09238
879.068	21.04895
879.464	42.09764
879.86	32.07289
880.256	15.03522
880.652	3.00742
881.048	24.05683
881.444	6.01361
881.84	-22.05452
882.236	20.04864
882.631	22.05254
883.027	50.11573
883.422	9.0222
883.817	-40.09934
884.213	10.02494
884.608	63.15185
885.003	-9.02089
885.398	-6.01463
885.793	20.04838
886.188	-17.04112
886.582	10.02465
886.977	-16.03664
887.371	-8.01955
887.766	26.06297
888.16	19.04505
888.554	18.04272
888.949	37.08959
889.343	39.09118
889.737	6.01575
890.131	9.02191
890.525	69.17083
890.918	59.14259
891.312	28.06383
891.706	33.08364
892.099	46.11245
892.492	48.09806
892.886	19.04482
893.279	22.05414
893.672	60.14809
894.065	18.04371
894.458	-6.01452
894.851	49.11448
895.244	19.04701
895.637	80.18466
896.029	61.14408
896.422	13.03032
896.814	5.01202
897.206	18.04204
897.599	86.20277
897.991	42.09841
898.383	50.11362
898.775	67.14609
899.167	38.08659
899.559	28.06786
899.951	15.03379
900.342	34.08265
900.734	63.15403
901.125	23.05809
901.517	17.04046
901.908	-25.05742
902.299	21.04981
902.69	48.10978
903.082	97.22349
903.473	77.17918
903.863	5.01232
904.254	22.04987
904.645	22.05215
905.036	44.10475
905.426	45.097
905.817	1.00236
906.207	-59.13616
906.597	51.11563
906.987	11.02743
907.378	28.0689
907.768	54.13835
908.158	37.08664
908.547	29.07366
908.937	10.02457
909.327	30.07005
909.717	17.04107
910.106	-2.00463
910.495	25.05955
910.885	59.14409
911.274	64.15318
911.663	17.04138
912.052	13.03065
912.441	57.14066
912.83	6.01319
913.219	29.07319
913.608	75.17645
913.997	63.15329
914.385	15.03462
914.774	46.10736
915.162	36.08359
915.55	12.02783
915.939	5.01236
916.327	59.14011
916.715	30.07518
917.103	65.1503
917.491	18.04288
917.878	25.05916
918.266	4.01004
918.654	48.11925
919.041	53.13538
919.429	27.06134
919.816	21.05144
920.203	54.12702
920.591	27.06481
920.978	35.08254
921.365	51.12972
921.752	1.00227
922.139	82.16858
922.525	33.07667
922.912	9.02115
923.299	4.00966
923.685	-8.02014
924.072	-23.05013
924.458	59.14102
924.844	16.03834
925.231	-6.01339
925.617	63.15586
926.003	6.01484
926.389	-13.03191
926.774	-7.01718
927.16	70.16607
927.546	30.07537
927.931	34.08122
928.317	19.04178
928.702	62.1394
929.088	99.22783
929.473	49.12118
929.858	40.09493
930.243	58.13494
930.628	39.0924
931.013	11.02645
931.398	66.14186
931.783	31.0781
932.167	100.23532
932.552	61.14614
932.937	59.13951
933.321	13.0319
933.705	-28.06806
934.09	-9.02163
934.474	17.03851
934.858	6.01517
935.242	36.07978
935.626	43.10681
936.009	50.12993
936.393	105.25862
936.777	46.11437
937.16	15.03822
937.544	33.07336
937.927	0
938.311	44.10237
938.694	51.13064
939.077	36.08286
939.46	1.00232
939.843	18.03498
940.226	-11.02732
940.609	71.15737
940.991	8.01962
941.374	10.02382
941.757	15.03562
942.139	20.0434
942.522	57.12787
942.904	51.1176
943.286	-3.00738
943.668	54.13635
944.05	41.09729
944.432	-2.00477
944.814	-17.04028
945.196	27.06407
945.578	43.10002
945.959	25.05571
946.341	34.07867
946.722	5.01126
947.104	30.06905
947.485	19.04261
947.866	39.09564
948.247	39.09592
948.628	-29.06746
949.009	9.02237
949.39	49.11636
949.771	-30.06609
950.152	24.05694
950.532	40.09767
950.913	56.12911
951.293	30.07943
951.674	38.08838
952.054	65.15762
952.434	65.15495
952.814	10.02268
953.194	-6.01507
953.574	54.12687
953.954	-35.08003
954.334	77.18545
954.714	-19.04531
955.093	80.18759
955.473	42.1024
955.853	9.02264
956.232	21.05587
956.611	19.04329
956.99	34.08283
957.37	0
957.749	-5.01135
958.128	33.0808
958.506	31.07798
958.885	-19.04652
959.264	48.11467
959.643	89.1934
960.021	21.05069
960.4	46.09947
960.778	-5.01175
961.156	-42.10252
961.535	24.05316
961.913	55.12384
962.291	40.10046
962.669	17.04195
963.047	89.21849
963.424	77.19113
963.802	1.00239
964.18	21.05044
964.557	36.07898
964.935	85.19115
965.312	61.15389
965.69	17.04073
966.067	-40.09387
966.444	-4.00936
966.821	62.15387
967.198	58.13286
967.575	9.02123
967.952	38.08558
968.329	78.1824
968.705	65.13324
969.082	57.14282
969.458	45.10525
969.835	59.13746
970.211	76.18923
970.587	58.13887
970.963	15.03692
971.339	64.16166
971.715	46.11073
972.091	49.11569
972.467	9.02138
972.843	57.13755
973.219	50.11366
973.594	27.06843
973.97	-21.04713
974.345	41.09469
974.721	-21.0486
975.096	67.1564
975.471	60.13529
975.846	-12.02773
976.221	-19.04711
976.596	69.16095
976.971	45.10764
977.346	3.00668
977.72	-2.00492
978.095	37.09224
978.469	31.07074
978.844	3.00726
979.218	73.16987
979.593	67.15234
979.967	35.08029
980.341	39.08648
980.715	37.09013
981.089	15.03628
981.463	16.03535
981.837	56.13296
982.21	1.00218
982.584	17.03983
982.957	33.08002
983.331	8.01794
983.704	60.14322
984.078	-7.01671
984.451	-6.01422
984.824	34.08029
985.197	-27.06273
985.57	-5.01196
985.943	33.07685
986.316	-9.02106
986.688	58.13345
987.061	33.07455
987.434	80.2028
987.806	-15.03474
988.179	15.03394
988.551	42.10206
988.923	6.0142
989.295	55.13101
989.667	14.03283
990.039	70.16856
990.411	-6.01311
990.783	-16.03512
991.155	35.08129
991.527	-16.03745
991.898	3.00729
992.27	39.09386
992.641	8.01929
993.012	-17.03767
993.384	16.03656
993.755	19.04718
994.126	48.11176
994.497	-13.031
994.868	49.10603
995.239	-8.01872
995.61	14.03413
995.98	13.03043
996.351	7.01692
996.722	37.08334
997.092	21.04817
997.462	17.03878
997.833	11.02488
998.203	22.05052
998.573	23.05554
998.943	68.15289
999.313	14.03259
999.683	18.04181
1000.053	-48.10486
1000.423	12.02791
1000.792	-29.07251
1001.162	-3.0071
1001.531	48.11383
1001.901	20.04785
1002.27	5.0105
1002.639	2.00492
1003.009	35.07964
1003.378	41.10125
1003.747	35.07871
1004.116	-30.06966
1004.485	56.12782
1004.853	18.04341
1005.222	9.02153
1005.591	36.08164
1005.959	34.07371
1006.328	-3.00654
1006.696	14.03241
1007.064	-12.02902
1007.433	40.09526
1007.801	-18.04209
1008.169	0
1008.537	82.17132
1008.905	11.02489
1009.273	22.05193
1009.64	35.08135
1010.008	38.08663
1010.375	25.05723
1010.743	-21.04534
1011.11	49.11335
1011.478	36.08639
1011.845	50.11159
1012.212	34.07462
1012.579	11.02614
1012.946	48.10783
1013.313	61.13707
1013.68	21.04493
1014.047	-10.02306
1014.414	29.06562
1014.78	39.09365
1015.147	-19.04397
1015.513	42.09702
1015.88	-13.03206
1016.246	0
1016.612	36.07801
1016.978	91.2136
1017.344	16.03827
1017.71	25.0582
1018.076	49.10906
1018.442	76.18785
1018.808	67.16198
1019.174	2.00483
1019.539	15.03161
1019.905	20.04565
1020.27	23.05458
1020.636	10.02276
1021.001	20.04626
1021.366	-15.03511
1021.731	96.23911
1022.096	25.06153
1022.461	34.07742
1022.826	36.0828
1023.191	12.03056
1023.556	4.00898
1023.92	33.07716
1024.285	20.04644
1024.649	29.06786
1025.014	48.11251
1025.378	33.0805
1025.742	-20.0478
1026.107	67.14318
1026.471	30.06659
1026.835	-6.01442
1027.199	24.05573
1027.562	4.00885
1027.926	44.10241
1028.29	-6.01475
1028.654	26.05702
1029.017	106.24778
1029.381	20.04616
1029.744	8.01978
1030.107	52.11744
1030.471	47.10838
1030.834	21.04495
1031.197	12.02781
1031.56	15.03383
1031.923	23.05763
1032.286	36.08091
1032.648	-1.00227
1033.011	60.13324
1033.374	-14.03143
1033.736	2.00512
1034.099	12.02825
1034.461	5.01235
1034.823	22.05312
1035.185	8.01928
1035.548	45.10554
1035.91	11.02532
1036.272	62.13499
1036.634	85.19756
1036.995	35.07806
1037.357	36.08462
1037.719	17.03992
1038.08	93.2112
1038.442	26.05913
1038.803	-27.06181
1039.165	-5.01217
1039.526	46.10656
1039.887	29.06653
1040.248	53.12751
1040.609	13.03062
1040.97	3.00706
1041.331	43.10552
1041.692	86.19423
1042.053	8.01737
1042.413	18.03997
1042.774	62.14436
1043.134	43.09646
1043.495	46.11098
1043.855	60.14075
1044.215	27.06409
1044.576	30.06944
1044.936	40.08694
1045.296	6.01447
1045.656	-14.03291
1046.016	30.06905
1046.375	33.07685
1046.735	29.06423
1047.095	29.06511
1047.454	53.1048
1047.814	52.11964
1048.173	3.0068
1048.533	37.08099
1048.892	4.00932
1049.251	20.04802
1049.61	43.10172
1049.969	6.01357
1050.328	46.0947
1050.687	1.00233
1051.046	13.03037
1051.405	23.05453
1051.763	21.04692
1052.122	-4.00965
1052.48	17.04032
1052.839	51.11671
1053.197	16.03615
1053.555	50.10581
1053.914	45.10505
1054.272	-20.04576
1054.63	16.03783
1054.988	40.092
1055.345	17.03439
1055.703	42.09702
1056.061	52.13022
1056.419	57.14431
1056.776	-44.10201
1057.134	-21.0461
1057.491	27.06518
1057.848	43.10203
1058.206	-14.03127
1058.563	19.03992
1058.92	54.11782
1059.277	59.13914
1059.634	-9.02012
1059.991	97.22064
1060.348	10.02181
1060.704	95.22002
1061.061	29.0631
1061.418	28.06538
1061.774	41.09718
1062.131	13.0339
1062.487	14.03124
1062.843	5.01204
1063.199	58.13818
1063.555	83.18412
1063.911	-8.01946
1064.267	44.08527
1064.623	43.1014
1064.979	-62.13774
1065.335	35.07932
1065.691	9.02043
1066.046	-5.01053
1066.402	-59.12958
1066.757	47.11401
1067.112	25.0587
1067.468	22.05068
1067.823	-31.07074
1068.178	35.08055
1068.533	33.07673
1068.888	19.04336
1069.243	27.06414
1069.598	-3.00699
1069.952	35.07716
1070.307	50.11935
1070.662	30.06933
1071.016	11.02405
1071.371	22.04825
1071.725	8.01824
1072.079	61.14032
1072.434	28.06568
1072.788	-13.02949
1073.142	77.18067
1073.496	0
1073.85	44.0971
1074.203	3.00704
1074.557	54.14023
1074.911	13.02959
1075.265	45.0997
1075.618	63.14701
1075.971	34.07735
1076.325	12.02976
1076.678	1.0022
1077.031	-43.09225
1077.385	44.09164
1077.738	3.00649
1078.091	11.02428
1078.444	17.03734
1078.796	28.06656
1079.149	66.15724
1079.502	42.09571
1079.855	-18.04067
1080.207	24.05665
1080.56	39.09786
1080.912	8.01874
1081.264	77.1772
1081.617	65.15185
1081.969	21.0515
1082.321	22.05147
1082.673	63.13912
1083.025	-11.02504
1083.377	42.09424
1083.728	12.02673
1084.08	-12.02884
1084.432	-43.1005
1084.783	2.00441
1085.135	49.11846
1085.486	22.04859
1085.838	12.02863
1086.189	27.06362
1086.54	70.15816
1086.891	51.12645
1087.242	72.17035
1087.593	26.05977
1087.944	53.11532
1088.295	68.14597
1088.646	103.24148
1088.996	10.02339
1089.347	13.03054
1089.698	9.02075
1090.048	20.04989
1090.398	-8.01775
1090.749	-2.00457
1091.099	10.02466
1091.449	77.18384
1091.799	30.07227
1092.149	11.02631
1092.499	15.03528
1092.849	18.0443
1093.199	13.03114
1093.548	58.13473
1093.898	-22.05326
1094.248	28.06865
1094.597	22.05506
1094.947	11.02857
1095.296	38.09071
1095.645	-5.01257
1095.994	16.03698
1096.343	57.13806
1096.692	42.10843
1097.041	34.09074
1097.39	55.13131
1097.739	30.07524
1098.088	-12.0311
1098.437	3.00778
1098.785	-40.10477
1099.134	-10.0254
1099.482	19.05102
1099.83	51.12917
1100.179	51.13082
1100.527	-8.02045
1100.875	-23.0599
1101.223	44.11371
1101.571	-16.04308
1101.919	42.10854
1102.267	27.0747
1102.615	-4.01286
1102.962	-11.03534
1103.31	9.02889
1103.658	0
