Data from N1R0 105C sample 4_Subt2__5__13-39-59-137.txt Node

Date: Tue Sep 16 13:39:59 PDT 2025
User: uwsun
Spectrometer: HDX01956
Trigger mode: 0
Integration Time (sec): 5.000000E-1
Scans to average: 1
Nonlinearity correction enabled: true
Boxcar width: 0
Storing dark spectrum: false
XAxis mode: Wavelengths
Number of Pixels in Spectrum: 2068
>>>>>Begin Spectral Data<<<<<
194.03	3.00871
194.578	10.03247
195.127	-3.00962
195.676	12.03856
196.225	-3.00802
196.773	5.01396
197.321	-2.0056
197.87	9.02354
198.418	21.05522
198.966	57.15225
199.513	42.10869
200.061	3.00781
200.609	25.0672
201.156	-10.02262
201.704	15.03861
202.251	23.06231
202.798	29.07659
203.345	13.03298
203.892	-18.04681
204.438	21.051
204.985	33.08014
205.532	-10.02695
206.078	14.03501
206.624	49.12521
207.17	18.04333
207.716	30.07524
208.262	21.04295
208.808	51.13045
209.354	46.11599
209.899	-5.01292
210.445	-17.04381
210.99	14.03505
211.535	47.11307
212.08	18.04287
212.625	-2.00513
213.17	35.09094
213.715	48.11207
214.259	37.08834
214.804	23.05761
215.348	72.16917
215.892	39.09666
216.436	-21.0495
216.98	-13.02947
217.524	45.10974
218.068	37.09514
218.612	78.20067
219.155	37.08928
219.698	35.08494
220.242	17.04281
220.785	41.09819
221.328	-6.01519
221.871	52.13439
222.414	42.10541
222.956	15.03662
223.499	-1.00229
224.041	0
224.583	1.00216
225.126	4.00899
225.668	7.01736
226.21	27.0695
226.751	35.07948
227.293	0
227.835	21.05241
228.376	-11.02565
228.918	16.04052
229.459	29.0735
230	65.1578
230.541	49.11421
231.082	59.14527
231.622	-22.05112
232.163	7.01722
232.704	64.16178
233.244	30.07556
233.784	20.04927
234.324	77.17508
234.864	-10.02316
235.404	19.04552
235.944	7.01681
236.484	75.18847
237.023	9.02164
237.563	19.04505
238.102	21.05056
238.641	-2.00512
239.18	16.03831
239.719	60.15156
240.258	45.10257
240.797	37.08972
241.335	35.08627
241.874	76.14997
242.412	75.18378
242.95	35.08595
243.488	7.01606
244.026	29.06871
244.564	23.04843
245.102	24.05551
245.64	16.03888
246.177	6.01363
246.715	67.16247
247.252	-1.00232
247.789	7.01336
248.326	28.06865
248.863	22.04946
249.4	22.05084
249.936	110.23155
250.473	52.12465
251.009	5.0117
251.546	63.14261
252.082	-30.06681
252.618	19.04341
253.154	66.16044
253.69	13.02979
254.226	60.1453
254.761	24.05493
255.297	14.03126
255.832	43.1038
256.367	87.20564
256.903	60.13529
257.438	2.00479
257.972	30.06806
258.507	-5.01175
259.042	29.06436
259.576	96.21407
260.111	22.05147
260.645	-1.00222
261.179	54.12821
261.713	49.11146
262.247	22.05119
262.781	13.02811
263.315	0
263.849	14.0357
264.382	49.11412
264.915	36.08666
265.449	-26.06516
265.982	70.16067
266.515	66.16349
267.048	-10.02184
267.58	11.02428
268.113	28.06182
268.646	-14.03506
269.178	0
269.71	107.23786
270.243	77.18024
270.775	43.11184
271.307	27.06525
271.838	58.1385
272.37	26.06476
272.902	29.0669
273.433	38.08589
273.965	59.1449
274.496	46.11541
275.027	33.08346
275.558	64.15796
276.089	24.06103
276.62	-5.01287
277.15	39.09723
277.681	3.00662
278.211	15.03726
278.741	23.05223
279.272	50.11624
279.802	20.05061
280.332	42.10079
280.861	11.02683
281.391	7.0163
281.921	31.07531
282.45	24.06049
282.98	20.05297
283.509	91.20883
284.038	38.08859
284.567	55.12995
285.096	59.14495
285.625	-8.01849
286.153	55.13337
286.682	52.12141
287.21	17.04127
287.739	38.0913
288.267	21.05216
288.795	5.0133
289.323	15.03603
289.851	91.21585
290.378	-9.02063
290.906	46.11433
291.433	28.07101
291.961	44.10241
292.488	17.04296
293.015	62.14845
293.542	95.24572
294.069	58.14567
294.596	15.03738
295.122	58.14115
295.649	13.02916
296.175	66.16062
296.702	107.26297
297.228	35.0857
297.754	39.0895
298.28	87.20237
298.806	4.00987
299.332	12.02759
299.857	21.04889
300.383	63.16019
300.908	70.17423
301.433	27.06753
301.958	52.12122
302.483	23.05809
303.008	64.16126
303.533	37.09686
304.058	-21.05043
304.582	43.10349
305.107	-1.00266
305.631	39.09022
306.155	37.08797
306.679	27.06493
307.203	6.01431
307.727	45.10859
308.251	48.12034
308.775	83.20429
309.298	40.09829
309.822	-21.05419
310.345	46.11203
310.868	35.08615
311.391	74.18438
311.914	34.08677
312.437	44.10269
312.96	17.04105
313.482	18.04331
314.005	15.03823
314.527	38.10031
315.049	44.11324
315.571	25.05779
316.093	24.06071
316.615	17.04175
317.137	43.09599
317.659	45.111
318.18	-12.02943
318.702	86.20418
319.223	-4.00846
319.744	46.10592
320.265	25.06233
320.786	75.18989
321.307	26.06561
321.828	108.24611
322.348	63.15087
322.869	52.12636
323.389	112.22319
323.909	40.0935
324.43	65.1578
324.95	64.14931
325.47	101.2528
325.989	44.10668
326.509	53.12153
327.029	87.20189
327.548	48.11132
328.067	57.14097
328.587	104.26317
329.106	34.0786
329.625	36.09538
330.144	89.21013
330.662	89.21216
331.181	77.18482
331.7	37.0881
332.218	69.15313
332.736	88.20917
333.255	107.25497
333.773	34.08228
334.291	67.17036
334.808	79.18159
335.326	77.17635
335.844	51.12283
336.361	119.30854
336.879	77.18468
337.396	99.2443
337.913	38.09022
338.43	75.17274
338.947	52.12707
339.464	25.05581
339.981	26.06337
340.497	63.15774
341.014	84.20793
341.53	46.1066
342.046	149.3736
342.562	68.17238
343.078	114.2716
343.594	82.19836
344.11	122.29522
344.626	105.26792
345.141	85.19834
345.657	48.11168
346.172	86.21101
346.687	70.16421
347.202	129.29829
347.717	72.17515
348.232	106.26699
348.747	141.32863
349.261	101.22629
349.776	113.27226
350.29	98.24869
350.805	88.2207
351.319	110.25935
351.833	92.21599
352.347	48.11633
352.861	97.23159
353.374	107.24722
353.888	124.30626
354.401	62.1447
354.915	119.2732
355.428	110.27726
355.941	98.23214
356.454	97.22001
356.967	72.17154
357.48	88.20353
357.993	118.29305
358.505	73.1808
359.018	127.31396
359.53	163.39911
360.042	134.30399
360.554	155.38107
361.066	104.2563
361.578	134.30029
362.09	86.20835
362.602	170.38143
363.113	144.34189
363.625	126.29014
364.136	129.28748
364.647	155.36977
365.158	141.33121
365.669	128.30869
366.18	139.32995
366.691	130.28893
367.201	156.3755
367.712	181.41553
368.222	143.33263
368.733	128.28283
369.243	163.3673
369.753	148.34392
370.263	189.45571
370.773	134.32841
371.282	153.36752
371.792	162.37764
372.301	114.27846
372.811	140.36804
373.32	205.44414
373.829	141.33496
374.338	137.30834
374.847	177.4096
375.356	121.28855
375.865	161.34897
376.373	167.38185
376.882	195.49069
377.39	185.44539
377.898	187.45786
378.407	220.49685
378.915	223.48603
379.423	196.45456
379.93	257.58881
380.438	179.42931
380.946	256.58687
381.453	245.57975
381.96	320.74267
382.468	257.59495
382.975	321.76337
383.482	278.61116
383.989	305.76165
384.495	364.81832
385.002	340.69267
385.509	401.91385
386.015	433.8414
386.521	414.8967
387.028	467.99744
387.534	460.92563
388.04	495.11185
388.546	447.93073
389.051	465.96089
389.557	502.07884
390.063	535.1121
390.568	583.27764
391.073	579.17002
391.578	649.42425
392.084	706.42023
392.589	721.36892
393.093	805.66829
393.598	774.5465
394.103	870.76503
394.607	1020.02492
395.112	1068.14788
395.616	1158.2516
396.12	1175.1259
396.624	1393.4813
397.128	1464.637
397.632	1591.70461
398.136	1741.7707
398.639	1838.93425
399.143	2033.30598
399.646	2355.28153
400.15	2657.27989
400.653	2874.20884
401.156	3202.13108
401.659	3925.41251
402.162	4726.68458
402.664	6309.55475
403.167	9170.86745
403.67	18951.84366
404.172	58506.4746
404.674	63281.00114
405.176	63738.15102
405.678	63977.72923
406.18	64011.81569
406.682	63863.44694
407.184	63926.60148
407.686	63132.16007
408.187	26417.5822
408.688	15763.05485
409.19	10802.51318
409.691	8621.03876
410.192	7240.07107
410.693	6227.5695
411.194	5445.16337
411.694	5302.55807
412.195	4878.16599
412.696	4317.9877
413.196	4074.40254
413.696	3853.3074
414.196	3901.76946
414.696	3807.54656
415.196	3466.25653
415.696	3150.10129
416.196	2678.31507
416.695	2108.12293
417.195	1836.00906
417.694	1739.43701
418.194	1609.376
418.693	1451.46384
419.192	1457.56138
419.691	1390.4424
420.19	1309.44105
420.688	1294.47753
421.187	1202.89449
421.685	1161.14938
422.184	1125.13412
422.682	939.69813
423.18	814.60925
423.678	707.42192
424.176	675.36433
424.674	626.24462
425.172	627.31929
425.669	576.28004
426.167	549.159
426.664	474.9955
427.161	503.06219
427.659	418.95162
428.156	380.765
428.652	341.82025
429.149	380.87351
429.646	317.67827
430.143	332.76106
430.639	324.73557
431.135	315.756
431.632	320.7017
432.128	290.67199
432.624	295.73321
433.12	260.57615
433.616	282.59803
434.111	173.40558
434.607	220.51485
435.103	207.42604
435.598	254.51394
436.093	211.4811
436.588	191.42299
437.083	185.40834
437.578	174.39746
438.073	172.42403
438.568	202.48696
439.062	190.40012
439.557	159.36707
440.051	112.2512
440.546	107.24269
441.04	121.28877
441.534	143.35572
442.028	151.35926
442.522	126.30007
443.015	60.1298
443.509	132.31786
444.002	89.21727
444.496	107.23163
444.989	74.17961
445.482	120.29442
445.975	137.31364
446.468	111.23967
446.961	112.2425
447.454	69.15536
447.947	77.18384
448.439	148.35787
448.931	143.32448
449.424	127.31948
449.916	126.30421
450.408	93.21223
450.9	100.24144
451.392	96.24215
451.884	50.11555
452.375	106.26027
452.867	69.15542
453.358	66.15155
453.849	106.22578
454.341	90.20277
454.832	42.09156
455.323	168.4102
455.814	68.15571
456.304	69.15974
456.795	78.17796
457.285	56.12384
457.776	117.26419
458.266	57.13546
458.756	25.05948
459.247	96.2281
459.737	99.23781
460.226	84.19103
460.716	97.23026
461.206	50.11981
461.695	60.14803
462.185	66.15652
462.674	83.1891
463.163	98.21862
463.653	144.30218
464.142	39.09479
464.63	63.15231
465.119	97.22394
465.608	104.24158
466.096	36.07868
466.585	68.15508
467.073	30.07109
467.561	22.05306
468.05	53.12212
468.538	49.11962
469.026	15.03581
469.513	40.08494
470.001	70.16042
470.489	56.13301
470.976	84.1952
471.463	60.14885
471.951	66.16319
472.438	71.16607
472.925	37.08736
473.412	47.11393
473.899	53.12158
474.385	43.10525
474.872	41.09579
475.359	37.09107
475.845	34.07094
476.331	44.09405
476.817	38.09255
477.303	37.08624
477.789	12.02875
478.275	24.05971
478.761	21.05008
479.247	2.00451
479.732	0
480.218	79.20533
480.703	35.08627
481.188	70.15124
481.673	33.07616
482.158	59.12761
482.643	42.10715
483.128	88.20377
483.612	83.19649
484.097	40.09647
484.581	46.10652
485.066	69.1682
485.55	79.17401
486.034	20.04373
486.518	60.14333
487.002	20.0488
487.486	57.13791
487.969	33.08029
488.453	-19.04775
488.936	35.0791
489.42	62.13699
489.903	-10.02509
490.386	-72.15329
490.869	59.1293
491.352	9.02178
491.835	6.01243
492.318	20.04524
492.8	23.04806
493.283	19.04863
493.765	7.01727
494.247	-2.0047
494.73	28.06233
495.212	-30.07211
495.694	26.06156
496.175	6.01453
496.657	65.15334
497.139	4.00699
497.62	55.13207
498.102	-10.02512
498.583	-34.08459
499.064	-12.02712
499.545	0
500.026	34.07726
500.507	19.044
500.988	80.19854
501.469	-8.0201
501.949	7.01739
502.43	53.1276
502.91	42.08954
503.39	29.07201
503.87	8.01907
504.35	16.03765
504.83	-6.01329
505.31	-30.07331
505.79	-50.12036
506.269	-60.1407
506.749	-36.08369
507.228	26.06149
507.707	56.12498
508.187	45.1076
508.666	25.06217
509.145	40.09372
509.623	-3.0071
510.102	35.08484
510.581	72.17292
511.059	32.08072
511.538	-5.01299
512.016	-7.01696
512.494	6.01453
512.972	19.04576
513.45	-23.05445
513.928	-21.05173
514.406	-27.06714
514.884	22.05694
515.361	-12.02906
515.839	55.12672
516.316	25.06106
516.793	-9.02293
517.27	-9.02188
517.747	28.07206
518.224	-28.06556
518.701	-1.00224
519.178	-17.04304
519.654	26.06187
520.131	14.0349
520.607	-40.0993
521.083	-59.13675
521.56	-27.06461
522.036	-8.01766
522.512	7.01742
522.987	41.09901
523.463	-2.00479
523.939	44.10935
524.414	-4.00926
524.89	37.08857
525.365	-9.0206
525.84	6.01455
526.315	14.03416
526.79	-24.05504
527.265	69.15911
527.74	-27.06648
528.215	-8.01888
528.689	-50.1121
529.164	-17.03705
529.638	-13.03329
530.112	-18.04292
530.587	20.04319
531.061	-11.02694
531.534	27.06537
532.008	86.20788
532.482	18.0417
532.956	10.02567
533.429	13.03206
533.903	-7.01555
534.376	4.00895
534.849	-7.0163
535.322	19.04514
535.795	-44.10816
536.268	-1.00245
536.741	-48.11616
537.213	-25.05841
537.686	-9.02227
538.158	35.08003
538.631	32.07782
539.103	-5.01145
539.575	-56.1184
540.047	3.00662
540.519	13.03131
540.991	26.06372
541.463	-25.06103
541.934	-47.10851
542.406	5.01213
542.877	-8.01831
543.348	-9.022
543.82	-2.00491
544.291	37.08678
544.762	-24.05806
545.233	29.07384
545.703	-43.09785
546.174	-42.09941
546.645	-14.03435
547.115	-47.11577
547.585	-55.1295
548.056	-10.02493
548.526	-18.04343
548.996	-23.05588
549.466	15.03677
549.935	-58.14189
550.405	-15.03357
550.875	-27.06528
551.344	-36.08748
551.814	-61.14346
552.283	35.07706
552.752	-17.04054
553.221	-14.03152
553.69	1.0023
554.159	-6.01513
554.628	10.02299
555.096	-19.04904
555.565	-55.12495
556.033	45.10789
556.502	-42.10343
556.97	10.02257
557.438	-24.05738
557.906	-26.06249
558.374	7.01645
558.842	-15.03651
559.31	-2.00455
559.777	-31.07717
560.245	-1.00233
560.712	-41.09601
561.18	-30.06789
561.647	-67.15296
562.114	-17.03967
562.581	-26.06504
563.048	-28.06543
563.514	15.03798
563.981	-6.01396
564.448	24.0548
564.914	1.00235
565.381	10.02315
565.847	-24.05692
566.313	-53.12591
566.779	-24.05509
567.245	-43.10176
567.711	-29.07067
568.176	-15.03427
568.642	-29.07418
569.108	-20.04991
569.573	-64.15195
570.038	-8.01705
570.504	-22.05068
570.969	-36.09074
571.434	0
571.899	-28.06758
572.363	-4.00931
572.828	20.04646
573.293	-51.11976
573.757	9.02115
574.222	-25.05719
574.686	10.02329
575.15	-8.01953
575.614	47.11153
576.078	-24.05736
576.542	28.0644
577.006	-16.03683
577.469	-19.04742
577.933	23.05297
578.396	-40.0968
578.86	-19.04548
579.323	-18.04408
579.786	0
580.249	67.15806
580.712	-12.02958
581.175	18.04472
581.637	-15.03482
582.1	-29.06463
582.563	3.00648
583.025	-18.04448
583.487	-7.01471
583.95	-47.10348
584.412	-31.06676
584.874	2.00493
585.336	-16.03857
585.797	-62.13894
586.259	-47.11247
586.721	-48.11519
587.182	5.01168
587.643	-33.07661
588.105	-12.02879
588.566	20.04229
589.027	49.12038
589.488	-26.06087
589.949	55.13382
590.41	36.07221
590.87	37.08535
591.331	64.14041
591.791	31.07239
592.252	15.03535
592.712	16.0387
593.172	73.16618
593.632	72.16035
594.092	38.08537
594.552	69.14988
595.011	13.03013
595.471	72.16341
595.931	60.13595
596.39	60.14426
596.849	33.07743
597.308	33.07101
597.768	84.21573
598.227	25.06053
598.685	68.15514
599.144	82.19289
599.603	53.12431
600.062	80.1687
600.52	107.24023
600.978	119.27834
601.437	81.18387
601.895	104.22181
602.353	46.10168
602.811	195.42915
603.269	122.28697
603.727	147.34733
604.184	187.41638
604.642	177.42565
605.099	207.47045
605.557	218.51437
606.014	225.46934
606.471	216.52641
606.928	286.60811
607.385	288.69135
607.842	281.6171
608.299	333.73743
608.755	312.71981
609.212	346.7283
609.668	328.70135
610.125	335.76501
610.581	326.72479
611.037	322.68375
611.493	331.73148
611.949	408.92886
612.405	426.7996
612.861	372.8023
613.316	415.92625
613.772	427.90649
614.227	458.01491
614.683	412.80804
615.138	390.85517
615.593	419.90307
616.048	501.04269
616.503	404.91566
616.958	419.9787
617.412	426.93921
617.867	398.82927
618.321	401.76584
618.776	418.85196
619.23	394.8614
619.684	395.81991
620.138	424.89796
620.592	406.91833
621.046	425.93171
621.5	397.89194
621.954	322.67242
622.407	380.78332
622.861	364.83072
623.314	316.67686
623.768	350.77846
624.221	344.6323
624.674	344.74828
625.127	281.62333
625.58	306.65091
626.033	382.77682
626.485	290.66107
626.938	307.6943
627.39	315.69787
627.843	335.72793
628.295	301.65879
628.747	348.7814
629.199	297.64208
629.651	294.64062
630.103	282.6163
630.555	222.45022
631.006	284.6288
631.458	263.59214
631.909	270.57659
632.361	258.56957
632.812	288.6342
633.263	310.63529
633.714	305.60935
634.165	272.62279
634.616	289.64987
635.067	291.60755
635.518	320.71706
635.968	332.6087
636.419	348.71155
636.869	373.82565
637.319	391.84418
637.769	348.73348
638.219	354.78344
638.669	323.72512
639.119	331.74674
639.569	373.83666
640.019	412.88094
640.468	369.77141
640.918	402.88519
641.367	409.84593
641.816	442.90046
642.265	473.00702
642.714	446.93877
643.163	499.0459
643.612	533.18264
644.061	548.04321
644.51	546.12265
644.958	560.10128
645.406	580.23872
645.855	503.11042
646.303	587.20574
646.751	691.3897
647.199	619.23554
647.647	665.35023
648.095	654.3034
648.543	668.16202
648.99	671.41384
649.438	694.39222
649.885	778.67143
650.333	714.16709
650.78	710.49317
651.227	743.57394
651.674	702.3856
652.121	731.55725
652.568	727.54739
653.015	676.46956
653.461	699.44582
653.908	623.25966
654.354	689.4302
654.801	658.3521
655.247	661.23956
655.693	643.48893
656.139	674.4068
656.585	656.37585
657.031	679.39249
657.477	651.23759
657.922	576.16315
658.368	679.46327
658.813	630.25666
659.259	633.35762
659.704	683.41332
660.149	593.21205
660.594	655.36438
661.039	586.18446
661.484	572.21
661.929	575.19751
662.373	532.20949
662.818	580.28467
663.262	553.20213
663.707	582.33025
664.151	617.33463
664.595	585.26317
665.039	565.25998
665.483	608.38194
665.927	566.1858
666.371	577.21074
666.814	578.22431
667.258	580.24889
667.701	561.05791
668.145	569.27152
668.588	636.3954
669.031	539.13885
669.474	592.26384
669.917	635.2124
670.36	617.36984
670.803	603.29486
671.245	527.9578
671.688	618.33253
672.13	607.20987
672.573	604.3612
673.015	665.40548
673.457	624.18531
673.899	598.28604
674.341	629.33743
674.783	639.34811
675.225	632.37614
675.666	635.37362
676.108	625.17711
676.549	587.21224
676.991	611.17439
677.432	672.13449
677.873	585.18162
678.314	655.36498
678.755	689.48484
679.196	592.19551
679.637	561.1999
680.078	653.33247
680.518	586.18987
680.959	619.29958
681.399	625.36923
681.839	642.37073
682.28	558.24563
682.72	552.12429
683.16	613.3587
683.6	620.23611
684.039	529.96828
684.479	628.37147
684.919	637.31507
685.358	552.23424
685.798	576.3476
686.237	497.07197
686.676	534.0777
687.115	608.26382
687.554	629.32466
687.993	597.15846
688.432	638.2697
688.871	633.26879
689.309	583.24272
689.748	608.09711
690.186	541.13009
690.625	591.22816
691.063	568.20625
691.501	605.32759
691.939	626.39646
692.377	542.17794
692.815	646.38821
693.253	614.28651
693.69	629.19511
694.128	617.32212
694.565	558.17725
695.003	649.4642
695.44	630.30903
695.877	592.23106
696.314	622.13102
696.751	624.23314
697.188	645.30301
697.625	591.15936
698.061	595.25955
698.498	601.25119
698.934	587.24151
699.371	578.20457
699.807	586.22235
700.243	592.26439
700.679	569.11665
701.115	592.2163
701.551	601.22621
701.987	555.06707
702.422	626.31111
702.858	611.28276
703.294	594.19736
703.729	592.27421
704.164	545.16009
704.599	578.13461
705.035	573.1314
705.47	547.18605
705.904	565.15734
706.339	561.13877
706.774	605.24389
707.209	605.23606
707.643	581.22987
708.078	591.27124
708.512	539.21331
708.946	562.18
709.38	603.26037
709.814	565.12654
710.248	583.26476
710.682	588.24878
711.116	582.25749
711.549	523.20314
711.983	565.15265
712.416	619.28758
712.85	531.17868
713.283	592.22997
713.716	569.25373
714.149	491.01957
714.582	535.06513
715.015	524.15131
715.448	549.23786
715.881	550.03483
716.313	518.07981
716.746	548.15258
717.178	517.11375
717.61	518.18759
718.043	534.17921
718.475	519.12859
718.907	543.21135
719.339	472.96376
719.77	510.09559
720.202	472.07158
720.634	544.19231
721.065	469.99824
721.497	471.04356
721.928	441.98264
722.359	479.05426
722.79	481.03784
723.221	483.08263
723.652	429.9993
724.083	446.90572
724.514	463.95933
724.945	455.96381
725.375	471.99378
725.806	406.91833
726.236	460.06915
726.666	485.0259
727.096	455.00846
727.526	499.16337
727.956	457.94309
728.386	434.97005
728.816	443.03625
729.246	448.00589
729.675	396.88696
730.105	427.95264
730.534	448.9438
730.964	460.03922
731.393	466.03053
731.822	445.03687
732.251	470.08125
732.68	396.83647
733.109	436.98095
733.537	445.99114
733.966	432.98666
734.395	446.93216
734.823	384.77341
735.251	408.89577
735.68	445.99647
736.108	400.91764
736.536	391.83694
736.964	412.86835
737.392	425.97009
737.82	410.8922
738.247	406.88237
738.675	344.74574
739.102	358.82657
739.53	385.91622
739.957	400.95537
740.384	349.77576
740.811	384.87812
741.238	431.96434
741.665	424.90737
742.092	326.69224
742.519	354.81506
742.945	397.88609
743.372	380.87107
743.798	395.93062
744.225	354.77134
744.651	336.78072
745.077	323.75008
745.503	305.68584
745.929	360.80601
746.355	348.78172
746.781	329.7501
747.207	325.71762
747.632	357.82213
748.058	400.92755
748.483	311.66342
748.908	350.80843
749.334	302.69675
749.759	334.73857
750.184	349.77898
750.609	305.6968
751.033	312.67464
751.458	333.68258
751.883	304.69745
752.307	250.55399
752.732	296.71163
753.156	281.64843
753.58	323.70455
754.005	264.62313
754.429	356.77899
754.853	280.6555
755.277	305.67515
755.7	290.67412
756.124	278.64929
756.548	245.54484
756.971	262.6011
757.394	219.53182
757.818	261.63618
758.241	255.61249
758.664	244.58285
759.087	245.52014
759.51	255.59172
759.933	275.62473
760.356	315.76089
760.778	214.49944
761.201	259.58719
761.623	210.47272
762.046	264.57623
762.468	258.5791
762.89	190.44099
763.312	241.55747
763.734	204.46767
764.156	246.57321
764.578	230.49245
765	191.4434
765.421	200.4876
765.843	218.54255
766.264	132.30007
766.686	179.42342
767.107	168.38931
767.528	218.53346
767.949	167.40586
768.37	218.51337
768.791	139.31962
769.212	143.34754
769.632	128.2892
770.053	170.42556
770.473	153.3528
770.894	130.30722
771.314	170.38143
771.734	177.39232
772.154	174.42406
772.575	185.40389
772.994	133.2884
773.414	152.34497
773.834	150.35791
774.254	153.35715
774.673	209.48537
775.093	191.45338
775.512	127.3024
775.931	149.36307
776.351	124.29859
776.77	122.28921
777.189	145.32995
777.607	111.27401
778.026	119.28596
778.445	127.31131
778.864	99.24241
779.282	87.20037
779.701	111.26866
780.119	89.21905
780.537	131.31312
780.955	171.41184
781.373	124.2944
781.791	120.26227
782.209	114.2462
782.627	142.35983
783.045	56.12353
783.462	130.31931
783.88	90.22628
784.297	143.34506
784.715	130.32309
785.132	112.25903
785.549	94.22696
785.966	77.18798
786.383	117.27869
786.8	119.26464
787.217	143.32751
787.633	122.29622
788.05	134.29695
788.466	54.12176
788.883	121.30012
789.299	72.16533
789.715	70.16575
790.131	97.23283
790.547	117.28008
790.963	111.2644
791.379	96.23458
791.795	106.22892
792.21	106.23598
792.626	47.1073
793.041	61.14569
793.457	39.09318
793.872	27.06127
794.287	71.16691
794.702	60.14075
795.117	67.16229
795.532	79.19337
795.947	45.10348
796.362	32.07263
796.776	97.21312
797.191	72.17088
797.605	91.20858
798.02	43.10152
798.434	85.18156
798.848	99.23826
799.262	32.07741
799.676	61.14402
800.09	43.1027
800.504	68.15852
800.918	28.06239
801.331	3.00752
801.745	41.09065
802.158	2.00485
802.572	98.22809
802.985	70.16145
803.398	32.07386
803.811	35.08561
804.224	1.0024
804.637	72.16619
805.05	69.15256
805.462	68.1602
805.875	39.09885
806.288	58.13638
806.7	42.10133
807.112	56.124
807.525	50.11738
807.937	46.11064
808.349	23.05567
808.761	96.22775
809.173	64.15049
809.584	62.14703
809.996	17.04049
810.408	31.07893
810.819	16.0367
811.231	82.2125
811.642	78.18733
812.053	77.18137
812.464	28.06437
812.875	48.11973
813.286	60.15113
813.697	-17.03781
814.108	48.11278
814.519	97.20836
814.929	32.07904
815.34	-18.04228
815.75	98.24161
816.16	7.01678
816.571	3.00759
816.981	11.02492
817.391	36.08329
817.801	71.17081
818.211	39.08964
818.62	8.01888
819.03	57.13437
819.44	-12.03014
819.849	-12.02925
820.259	7.01727
820.668	36.08626
821.077	27.06584
821.486	22.05068
821.895	21.04958
822.304	11.02839
822.713	-32.0738
823.122	0
823.531	41.09235
823.939	40.09479
824.348	49.11416
824.756	36.08682
825.164	24.05832
825.573	7.01713
825.981	21.05023
826.389	48.11629
826.797	47.11607
827.205	49.10924
827.612	45.10661
828.02	-19.04332
828.428	39.0961
828.835	48.12345
829.243	25.05721
829.65	30.07298
830.057	-4.00941
830.464	79.18724
830.871	74.17074
831.278	44.10273
831.685	45.096
832.092	12.02823
832.499	56.11809
832.905	27.06582
833.312	-37.08085
833.718	46.11161
834.124	71.15573
834.531	-17.04144
834.937	29.07251
835.343	49.11281
835.749	32.07094
836.155	45.11418
836.561	33.07867
836.966	17.04014
837.372	0
837.777	-3.00732
838.183	19.04051
838.588	19.04613
838.993	48.11273
839.399	34.08082
839.804	31.0733
840.209	55.13697
840.613	36.07685
841.018	-21.05171
841.423	10.025
841.828	9.02227
842.232	29.0682
842.637	72.16467
843.041	3.00754
843.445	-15.03644
843.849	21.05066
844.253	18.04125
844.657	3.00741
845.061	48.10664
845.465	0
845.869	28.06277
846.272	-11.02627
846.676	21.04821
847.079	9.02247
847.483	44.10559
847.886	16.03733
848.289	5.01321
848.692	-2.0049
849.095	-26.06068
849.498	29.07003
849.901	12.02636
850.304	-16.0372
850.707	24.0591
851.109	6.01467
851.512	11.02632
851.914	36.08853
852.316	39.09656
852.718	25.06442
853.121	31.0735
853.523	-10.02255
853.925	20.05131
854.326	42.10221
854.728	11.02763
855.13	24.06078
855.531	27.06253
855.933	24.05507
856.334	-3.00735
856.736	33.07189
857.137	43.09714
857.538	15.03692
857.939	29.07043
858.34	-12.02815
858.741	24.06069
859.142	13.03006
859.542	28.07231
859.943	7.01689
860.343	22.0532
860.744	20.04721
861.144	61.14435
861.544	18.04254
861.945	14.0346
862.345	-19.04507
862.745	18.04372
863.145	-30.06856
863.544	46.11261
863.944	27.06151
864.344	15.03561
864.743	39.09318
865.143	34.08539
865.542	-23.05121
865.941	58.13866
866.34	18.0411
866.74	-14.03683
867.139	82.19048
867.537	-25.06156
867.936	7.01642
868.335	-1.00247
868.734	10.0249
869.132	-39.08731
869.531	-20.04651
869.929	7.01552
870.327	12.02785
870.726	-1.0024
871.124	10.0224
871.522	-7.01731
871.92	28.06676
872.318	9.02116
872.715	-5.01184
873.113	-33.07809
873.511	16.03849
873.908	31.07712
874.306	15.03651
874.703	-32.07747
875.1	24.05856
875.497	-13.03018
875.894	4.00971
876.291	46.10896
876.688	-2.00503
877.085	10.02305
877.482	23.05569
877.878	69.16145
878.275	33.08134
878.671	-38.07967
879.068	40.09288
879.464	23.05367
879.86	-23.05297
880.256	-2.00471
880.652	-2.00495
881.048	7.01663
881.444	-13.02959
881.84	40.098
882.236	11.02679
882.631	9.02155
883.027	21.04889
883.422	-22.05458
883.817	2.00493
884.213	19.04732
884.608	47.11363
885.003	8.01851
885.398	21.05096
885.793	26.06282
886.188	-10.02415
886.582	0
886.977	-20.04583
887.371	8.01949
887.766	42.10141
888.16	-41.09834
888.554	63.14822
888.949	22.05342
889.343	18.04226
889.737	8.02099
890.131	-3.00732
890.525	76.18792
890.918	0
891.312	-10.02297
891.706	22.05587
892.099	-21.05197
892.492	28.05746
892.886	5.01183
893.279	28.06883
893.672	7.01744
894.065	45.10871
894.458	-36.08761
894.851	43.10058
895.244	0
895.637	69.15962
896.029	31.07364
896.422	-5.0117
896.814	17.04076
897.206	22.05135
897.599	68.16089
897.991	22.05175
898.383	-1.0023
898.775	81.17609
899.167	7.01605
899.559	12.02917
899.951	36.08074
900.342	31.0754
900.734	60.14678
901.125	18.0455
901.517	18.04284
901.908	33.07491
902.299	4.00952
902.69	64.1459
903.082	48.11168
903.473	35.08212
903.863	-5.01234
904.254	35.07913
904.645	16.03797
905.036	69.16348
905.426	6.01304
905.817	-1.00236
906.207	-65.15018
906.597	38.08638
906.987	-7.01751
907.378	23.05665
907.768	26.06694
908.158	28.06568
908.547	33.08376
908.937	1.00246
909.327	27.06308
909.717	9.02178
910.106	-6.01391
910.495	12.02866
910.885	59.14409
911.274	-7.01698
911.663	11.0268
912.052	27.06347
912.441	57.14066
912.83	31.0678
913.219	9.02279
913.608	58.13691
913.997	-2.00493
914.385	84.19118
914.774	22.05159
915.162	57.1318
915.55	-1.00233
915.939	-7.01734
916.327	-25.06033
916.715	47.11743
917.103	11.02571
917.491	43.10196
917.878	17.04029
918.266	-21.05294
918.654	-17.04273
919.041	36.09223
919.429	-13.02977
919.816	13.03189
920.203	33.07794
920.591	16.03849
920.978	38.08956
921.365	9.02306
921.752	-29.0662
922.139	81.16656
922.525	23.05354
922.912	24.05623
923.299	4.00966
923.685	-4.01006
924.072	-12.02609
924.458	2.00483
924.844	-5.01203
925.231	-32.07177
925.617	3.0075
926.003	19.04687
926.389	24.05852
926.774	-18.04428
927.16	48.11436
927.546	51.12765
927.931	44.10491
928.317	35.07671
928.702	29.06564
929.088	63.14603
929.473	40.09909
929.858	11.02625
930.243	41.09571
930.628	16.03808
931.013	-10.02414
931.398	43.09289
931.783	-5.01268
932.167	59.13995
932.552	-6.01456
932.937	15.03577
933.321	17.04169
933.705	-16.03881
934.09	17.04065
934.474	32.07227
934.858	-10.02535
935.242	28.06215
935.626	36.08954
936.009	8.02094
936.393	44.10959
936.777	3.00752
937.16	22.05599
937.544	14.03124
937.927	26.06422
938.311	40.09314
938.694	56.14332
939.077	-5.0116
939.46	17.03936
939.843	-9.0176
940.226	12.02968
940.609	49.10911
940.991	-17.04189
941.374	17.04045
941.757	25.05925
942.139	19.04124
942.522	32.07215
942.904	57.13128
943.286	40.0976
943.668	77.19363
944.05	34.08079
944.432	17.04037
944.814	57.13311
945.196	-21.05029
945.578	12.02808
945.959	-24.05403
946.341	19.04409
946.722	21.04715
947.104	-15.03484
947.485	38.08488
947.866	46.11266
948.247	76.18564
948.628	-24.05577
949.009	9.02237
949.39	-9.02161
949.771	-24.05281
950.152	28.06638
950.532	42.10252
950.913	45.10397
951.293	25.06625
951.674	37.08607
952.054	46.11194
952.434	6.01446
952.814	14.03172
953.194	-4.01005
953.574	31.07316
953.954	-15.03416
954.334	61.14736
954.714	33.07791
955.093	66.15519
955.473	40.09756
955.853	6.0151
956.232	19.05057
956.611	37.08399
956.99	24.05858
957.37	-7.01722
957.749	-4.00908
958.128	32.07837
958.506	12.03029
958.885	19.04619
959.264	41.09808
959.643	58.12687
960.021	19.04588
960.4	38.08231
960.778	-11.02588
961.156	-16.03886
961.535	42.09269
961.913	42.09482
962.291	7.01769
962.669	44.10804
963.047	58.1432
963.424	51.12719
963.802	50.11839
964.18	9.02167
964.557	33.07244
964.935	7.01599
965.312	35.08871
965.69	21.05027
966.067	-52.12232
966.444	-38.08953
966.821	31.07737
967.198	36.08283
967.575	-7.01657
967.952	71.15881
968.329	38.08956
968.705	48.09877
969.082	35.08805
969.458	0
969.835	36.08425
970.211	55.13746
970.587	46.11039
970.963	34.08339
971.339	-19.0487
971.715	57.13692
972.091	12.02854
972.467	4.00951
972.843	39.09443
973.219	6.01376
973.594	-28.07166
973.97	13.02897
974.345	31.07174
974.721	20.04591
975.096	40.09387
975.471	19.0432
975.846	5.01152
976.221	-8.0198
976.596	95.22046
976.971	43.1029
977.346	-1.00223
977.72	-12.02958
978.095	-6.01507
978.469	29.0662
978.844	38.09137
979.218	26.06106
979.593	11.02529
979.967	-13.03011
980.341	35.07768
980.715	54.13112
981.089	23.05554
981.463	2.00443
981.837	55.13061
982.21	-48.10571
982.584	16.03749
982.957	-21.05144
983.331	9.02018
983.704	91.21593
984.078	-6.01432
984.451	-21.04991
984.824	-5.0119
985.197	-27.06273
985.57	15.03574
985.943	-20.04706
986.316	33.07658
986.688	31.07171
987.061	35.07903
987.434	64.1627
987.806	3.00692
988.179	28.06319
988.551	48.11651
988.923	3.0071
989.295	9.02163
989.667	24.05617
990.039	65.15667
990.411	-59.13039
990.783	-27.0594
991.155	4.00935
991.527	29.06727
991.898	54.12989
992.27	47.11294
992.641	33.07918
993.012	-28.06218
993.384	14.03201
993.755	18.0447
994.126	61.14167
994.497	26.06154
994.868	34.07381
995.239	16.03727
995.61	-9.02204
995.98	-1.00235
996.351	49.11748
996.722	64.14336
997.092	-23.05323
997.462	48.10881
997.833	29.06535
998.203	-48.11176
998.573	9.02179
998.943	41.09269
999.313	33.07652
999.683	4.00932
1000.053	-33.07186
1000.423	13.03023
1000.792	-10.02492
1001.162	-12.02845
1001.531	53.12557
1001.901	23.055
1002.27	-21.04437
1002.639	-15.03699
1003.009	-5.01147
1003.378	36.08898
1003.747	-1.00227
1004.116	18.0414
1004.485	45.10294
1004.853	-2.00484
1005.222	-30.0723
1005.591	62.13986
1005.959	28.06078
1006.328	39.08428
1006.696	-14.03259
1007.064	-32.07767
1007.433	-11.02645
1007.801	33.0764
1008.169	4.00967
1008.537	58.12182
1008.905	34.07657
1009.273	41.09642
1009.64	27.06286
1010.008	22.05032
1010.375	37.0845
1010.743	-20.04317
1011.11	46.10647
1011.478	55.13151
1011.845	26.05831
1012.212	23.0506
1012.579	9.0214
1012.946	12.02716
1013.313	61.13707
1013.68	24.05132
1014.047	26.05954
1014.414	-16.03653
1014.78	7.01691
1015.147	4.00921
1015.513	13.0302
1015.88	15.0368
1016.246	-5.01179
1016.612	21.04565
1016.978	21.04997
1017.344	20.0478
1017.71	48.11124
1018.076	12.02691
1018.442	48.11925
1018.808	20.04878
1019.174	-5.01208
1019.539	-3.00635
1019.905	0
1020.27	-14.03346
1020.636	26.05898
1021.001	54.12405
1021.366	7.01632
1021.731	96.23911
1022.096	23.05663
1022.461	16.03656
1022.826	38.08736
1023.191	13.0331
1023.556	18.04029
1023.92	31.07251
1024.285	-16.03742
1024.649	12.02817
1025.014	10.02361
1025.378	30.07323
1025.742	-9.02146
1026.107	17.03672
1026.471	-4.00894
1026.835	9.02156
1027.199	-26.06097
1027.562	-19.04224
1027.926	4.00938
1028.29	24.05869
1028.654	21.0461
1029.017	45.10645
1029.381	-3.00696
1029.744	16.0395
1030.107	81.18186
1030.471	51.11751
1030.834	-36.07801
1031.197	59.13545
1031.56	-3.00679
1031.923	-14.03531
1032.286	87.19348
1032.648	41.09239
1033.011	43.09583
1033.374	-15.03368
1033.736	10.02556
1034.099	-7.01654
1034.461	-8.0198
1034.823	8.01937
1035.185	0
1035.548	57.13337
1035.91	3.00692
1036.272	51.1113
1036.634	46.10774
1036.995	28.06254
1037.357	-14.03323
1037.719	39.09118
1038.08	66.1507
1038.442	45.10194
1038.803	-50.115
1039.165	10.02427
1039.526	24.05584
1039.887	12.02762
1040.248	32.07729
1040.609	0
1040.97	16.03755
1041.331	21.05174
1041.692	41.09345
1042.053	50.10761
1042.413	32.07085
1042.774	34.0796
1043.134	-10.02268
1043.495	33.07981
1043.855	51.11985
1044.215	13.03094
1044.576	23.05331
1044.936	18.03931
1045.296	56.13378
1045.656	9.02106
1046.016	29.06677
1046.375	-1.00234
1046.735	16.03553
1047.095	29.06511
1047.454	28.05569
1047.814	16.03708
1048.173	20.04517
1048.533	-8.01768
1048.892	-33.07743
1049.251	59.14059
1049.61	12.02856
1049.969	32.07201
1050.328	24.04965
1050.687	34.07882
1051.046	15.03503
1051.405	-29.06945
1051.763	26.05803
1052.122	-7.01689
1052.48	44.10382
1052.839	60.13706
1053.197	42.09439
1053.555	42.08903
1053.914	-2.00471
1054.272	-48.11044
1054.63	-8.019
1054.988	32.07372
1055.345	-32.06546
1055.703	46.10618
1056.061	29.07293
1056.419	64.16184
1056.776	-34.07867
1057.134	-73.16201
1057.491	31.07478
1057.848	23.05479
1058.206	-38.0853
1058.563	17.03573
1058.92	40.08753
1059.277	18.04279
1059.634	11.02449
1059.991	30.06916
1060.348	40.08668
1060.704	77.17897
1061.061	20.0436
1061.418	-21.0495
1061.774	48.11361
1062.131	19.0495
1062.487	-28.06303
1062.843	21.05043
1063.199	20.048
1063.555	48.10726
1063.911	0
1064.267	28.05447
1064.623	7.01662
1064.979	-44.09738
1065.335	37.08382
1065.691	-27.06174
1066.046	0
1066.402	4.00867
1066.757	29.07059
1067.112	-17.04025
1067.468	40.09181
1067.823	-27.06156
1068.178	7.0162
1068.533	12.02802
1068.888	26.05925
1069.243	5.01193
1069.598	-22.05147
1069.952	58.12725
1070.307	16.03844
1070.662	-6.01397
1071.016	34.07396
1071.371	27.05915
1071.725	11.02506
1072.079	15.03482
1072.434	-17.04023
1072.788	-53.12119
1073.142	86.20143
1073.496	-1.00228
1073.85	24.05319
1074.203	23.05373
1074.557	42.10929
1074.911	34.07707
1075.265	9.02009
1075.618	-9.0213
1075.971	14.03198
1076.325	18.04459
1076.678	-14.03095
1077.031	-21.04484
1077.385	20.04188
1077.738	-25.05437
1078.091	4.00884
1078.444	-13.02873
1078.796	2.00478
1079.149	29.06958
1079.502	-2.0046
1079.855	18.04037
1080.207	-16.03806
1080.56	2.00505
1080.912	17.03975
1081.264	71.16359
1081.617	-20.0475
1081.969	9.02212
1082.321	-16.03771
1082.673	13.02901
1083.025	-7.01592
1083.377	41.09201
1083.728	22.0489
1084.08	-20.04814
1084.432	-18.04186
1084.783	-13.02877
1085.135	2.00488
1085.486	-3.00666
1085.838	-17.04079
1086.189	-33.07867
1086.54	35.07964
1086.891	68.16808
1087.242	56.13291
1087.593	17.03915
1087.944	45.09808
1088.295	14.0304
1088.646	74.17447
1088.996	17.03972
1089.347	-17.04017
1089.698	14.03225
1090.048	27.06726
1090.398	13.02872
1090.749	-19.04357
1091.099	33.08104
1091.449	17.04105
1091.799	51.12237
1092.149	-9.02161
1092.499	9.02119
1092.849	43.10533
1093.199	9.02158
1093.548	26.06078
1093.898	31.0743
1094.248	3.00739
1094.597	1.00251
1094.947	-21.05484
1095.296	28.06697
1095.645	12.03008
1095.994	23.05308
1096.343	15.03662
1096.692	9.02337
1097.041	21.05617
1097.39	12.02889
1097.739	21.05275
1098.088	-25.06493
1098.437	19.04916
1098.785	3.0078
1099.134	-14.03559
1099.482	19.05102
1099.83	2.00511
1100.179	68.17391
1100.527	-27.06923
1100.875	-2.00519
1101.223	21.05449
1101.571	-34.09182
1101.919	27.06996
1102.267	-2.00556
1102.615	2.00642
1102.962	-2.00642
1103.31	4.01285
1103.658	-12.03853
