Data from N1R0 105C sample 8_Subt2__4__13-13-33-673.txt Node

Date: Tue Sep 16 13:13:33 PDT 2025
User: uwsun
Spectrometer: HDX01956
Trigger mode: 0
Integration Time (sec): 5.000000E-1
Scans to average: 1
Nonlinearity correction enabled: true
Boxcar width: 0
Storing dark spectrum: false
XAxis mode: Wavelengths
Number of Pixels in Spectrum: 2068
>>>>>Begin Spectral Data<<<<<
194.03	-4.01162
194.578	4.013
195.127	-7.02246
195.676	-2.00644
196.225	6.01601
196.773	-27.07577
197.321	-18.05054
197.87	23.06003
198.418	18.04735
198.966	28.07515
199.513	29.07522
200.061	-2.00521
200.609	38.10192
201.156	12.02702
201.704	12.03091
202.251	46.12415
202.798	9.02385
203.345	34.08595
203.892	8.02071
204.438	24.05825
204.985	22.05354
205.532	-11.02965
206.078	19.04747
206.624	56.14292
207.17	61.14564
207.716	27.06775
208.262	-8.01647
208.808	36.09233
209.354	53.13347
209.899	47.12031
210.445	47.11976
210.99	46.11449
211.535	72.17239
212.08	16.03812
212.625	9.02302
213.17	59.15266
213.715	68.15815
214.259	52.12379
214.804	13.03262
215.348	78.18305
215.892	44.10896
216.436	8.01875
216.98	33.07412
217.524	42.10248
218.068	64.16379
218.612	87.22347
219.155	33.07969
219.698	41.09938
220.242	25.06287
220.785	54.129
221.328	21.0529
221.871	94.24116
222.414	33.08296
222.956	2.00489
223.499	-11.02521
224.041	5.01169
224.583	46.09858
225.126	15.03365
225.668	30.0741
226.21	24.06181
226.751	89.1999
227.293	29.06677
227.835	46.11428
228.376	29.06709
228.918	-13.03309
229.459	20.05077
230	53.12896
230.541	29.06786
231.082	36.08902
231.622	-2.00463
232.163	2.00492
232.704	62.15678
233.244	32.08057
233.784	33.0811
234.324	86.19518
234.864	-14.03246
235.404	28.06697
235.944	-5.01204
236.484	78.1959
237.023	21.05037
237.563	8.01901
238.102	30.07211
238.641	32.08149
239.18	35.0835
239.719	24.06101
240.258	69.1565
240.797	34.08249
241.335	51.12534
241.874	48.09534
242.412	78.19102
242.95	-9.02228
243.488	-10.02302
244.026	30.07106
244.564	56.11705
245.102	81.18521
245.64	24.05823
246.177	-11.02507
246.715	31.07568
247.252	-17.03959
247.789	36.0682
248.326	12.02951
248.863	52.1162
249.4	48.11035
249.936	78.16535
250.473	42.10087
251.009	7.01638
251.546	81.18268
252.082	-39.08702
252.618	53.12026
253.154	31.07585
253.69	59.13393
254.226	20.0488
254.761	33.0754
255.297	33.07339
255.832	64.15388
256.367	15.03595
256.903	48.1085
257.438	52.12341
257.972	48.1085
258.507	37.08624
259.042	59.13012
259.576	54.12146
260.111	-16.03771
260.645	85.1851
261.179	43.10231
261.713	41.09341
262.247	28.06507
262.781	28.06034
263.315	28.06898
263.849	33.08388
264.382	19.04451
264.915	47.1129
265.449	-18.04505
265.982	27.06251
266.515	50.12422
267.048	28.06065
267.58	4.00884
268.113	67.14671
268.646	16.03985
269.178	-3.00688
269.71	80.17884
270.243	86.20095
270.775	67.17354
271.307	-7.01703
271.838	70.16677
272.37	29.07219
272.902	19.04392
273.433	68.15276
273.965	52.12787
274.496	34.08549
275.027	38.09602
275.558	39.0967
276.089	75.18901
276.62	16.04102
277.15	37.09228
277.681	30.06584
278.211	55.13562
278.741	25.05675
279.272	48.11163
279.802	31.07829
280.332	73.17415
280.861	41.09946
281.391	-5.01167
281.921	69.16644
282.45	31.07804
282.98	51.13437
283.509	98.22458
284.038	69.15987
284.567	55.12995
285.096	47.11572
285.625	-3.00693
286.153	106.25457
286.682	35.08199
287.21	-10.0244
287.739	8.01933
288.267	65.16016
288.795	28.07421
289.323	46.10985
289.851	79.18782
290.378	5.01143
290.906	51.12664
291.433	53.13381
291.961	44.10241
292.488	14.0354
293.015	36.08662
293.542	92.23809
294.069	60.15064
294.596	15.03738
295.122	62.15077
295.649	12.02693
296.175	38.09296
296.702	70.17321
297.228	-2.00493
297.754	17.03919
298.28	68.15877
298.806	25.06146
299.332	34.07782
299.857	25.05815
300.383	35.08943
300.908	90.22319
301.433	80.19817
301.958	18.04224
302.483	-4.01015
303.008	62.15628
303.533	46.12024
304.058	17.04053
304.582	38.09154
305.107	5.01328
305.631	63.14504
306.155	2.00479
306.679	13.03135
307.203	62.14624
307.727	46.11098
308.251	43.1079
308.775	131.31957
309.298	27.0665
309.822	6.01541
310.345	67.16253
310.868	42.10324
311.391	21.05283
311.914	43.10957
312.437	57.13269
312.96	69.16499
313.482	17.04091
314.005	1.00256
314.527	13.03446
315.049	41.10557
315.571	43.09904
316.093	10.02536
316.615	33.0808
317.137	41.09156
317.659	51.12567
318.18	-30.07383
318.702	53.12664
319.223	14.02948
319.744	68.1559
320.265	37.09204
320.786	58.14729
321.307	21.05304
321.828	19.04407
322.348	24.0579
322.869	51.12395
323.389	379.70838
323.909	3.00706
324.43	18.04408
324.95	54.12623
325.47	108.26998
325.989	71.17126
326.509	63.14417
327.029	61.14229
327.548	1.00234
328.067	40.09923
328.587	61.15554
329.106	29.06711
329.625	32.08484
330.144	57.13541
330.662	70.16748
331.181	85.20371
331.7	27.06441
332.218	35.07822
332.736	62.14811
333.255	38.09175
333.773	8.01945
334.291	78.19794
334.808	53.12246
335.326	54.12425
335.844	35.08455
336.361	74.19336
336.879	69.16575
337.396	84.20785
337.913	54.12781
338.43	63.14545
338.947	48.11738
339.464	17.03801
339.981	12.02932
340.497	51.12797
341.014	27.06753
341.53	44.10201
342.046	78.19808
342.562	111.27923
343.078	48.11581
343.594	43.10478
344.11	80.19512
344.626	74.18985
345.141	68.15921
345.657	81.18723
346.172	91.22307
346.687	52.12241
347.202	138.31853
347.717	80.19432
348.232	70.17745
348.747	58.13739
349.261	102.22849
349.776	107.2581
350.29	92.23371
350.805	56.14125
351.319	77.18271
351.833	50.11835
352.347	98.23527
352.861	99.23627
353.374	19.04467
353.888	87.21634
354.401	49.11466
354.915	84.1942
355.428	93.23512
355.941	68.16201
356.454	81.18432
356.967	27.06488
357.48	55.12804
357.993	109.27114
358.505	88.21735
359.018	124.30671
359.53	126.31063
360.042	117.26635
360.554	135.33313
361.066	68.16869
361.578	133.29811
362.09	102.24636
362.602	66.15125
363.113	128.30484
363.625	155.35484
364.136	116.2592
364.647	117.28115
365.158	94.22283
365.669	107.25907
366.18	110.26257
366.691	59.13306
367.201	106.25757
367.712	109.25385
368.222	129.3009
368.733	104.23095
369.243	145.32795
369.753	117.27355
370.263	132.32171
370.773	69.17114
371.282	140.33712
371.792	136.31866
372.301	84.20633
372.811	128.33718
373.32	145.31818
373.829	56.13521
374.338	97.2201
374.847	113.26482
375.356	112.26755
375.865	165.35733
376.373	131.30171
376.882	132.33592
377.39	126.30674
377.898	107.26588
378.407	117.26979
378.915	168.37043
379.423	105.2479
379.93	186.43222
380.438	146.35237
380.946	175.4077
381.453	160.38484
381.96	168.40163
382.468	180.42307
382.975	238.57503
383.482	182.40819
383.989	244.61607
384.495	234.5401
385.002	253.52564
385.509	288.67133
386.015	323.64411
386.521	271.6049
387.028	358.7827
387.534	264.55522
388.04	308.71963
388.546	321.68712
389.051	307.65687
389.557	332.74088
390.063	307.67164
390.568	364.83574
391.073	385.81377
391.578	398.92073
392.084	479.01319
392.589	416.84943
393.093	475.05593
393.598	545.14601
394.103	555.20598
394.607	661.422
395.112	631.39632
395.616	756.61021
396.12	745.49501
396.624	846.71863
397.128	921.88768
397.632	1012.98631
398.136	1116.08782
398.639	1193.24816
399.143	1321.56864
399.646	1490.63526
400.15	1648.73455
400.653	1840.83084
401.156	1999.89829
401.659	2386.43876
402.162	2940.30765
402.664	3853.89025
403.167	5621.56238
403.67	11336.94015
404.172	36020.09604
404.674	60508.14437
405.176	63738.15102
405.678	63977.72923
406.18	64011.81569
406.682	63863.44694
407.184	63926.60148
407.686	39979.06956
408.187	16379.55865
408.688	9669.8883
409.19	6734.78348
409.691	5266.75565
410.192	4453.10943
410.693	3911.70463
411.194	3417.14691
411.694	3291.4512
412.195	2940.75734
412.696	2739.35693
413.196	2542.78256
413.696	2385.34319
414.196	2421.97522
414.696	2366.49567
415.196	2208.13918
415.696	2025.88699
416.196	1701.80411
416.695	1325.42013
417.195	1115.1888
417.694	1159.91934
418.194	1007.75679
418.693	956.83841
419.192	904.81741
419.691	862.72255
420.19	914.87038
420.688	886.86282
421.187	790.39147
421.685	812.63376
422.184	711.48445
422.682	593.16603
423.18	530.11662
423.678	416.89372
424.176	454.96527
424.674	420.87627
425.172	416.91717
425.669	385.89084
426.167	351.77437
426.664	365.78501
427.161	301.66491
427.659	274.64196
428.156	292.59976
428.652	219.53899
429.149	202.48087
429.646	218.47644
430.143	237.55366
430.639	234.54096
431.135	209.51173
431.632	178.40201
432.128	162.38491
432.624	176.44693
433.12	179.40336
433.616	151.32939
434.111	116.27499
434.607	123.29332
435.103	119.24978
435.598	155.32074
436.093	151.34847
436.588	120.26969
437.083	125.27937
437.578	134.30856
438.073	133.33024
438.568	170.4123
439.062	105.22526
439.557	86.20143
440.051	60.13601
440.546	64.14643
441.04	132.31436
441.534	82.20624
442.028	111.26613
442.522	105.25107
443.015	29.06315
443.509	126.30376
444.002	49.12051
444.496	85.18487
444.989	74.17961
445.482	36.0897
445.975	102.23516
446.468	53.11586
446.961	88.19151
447.454	57.12866
447.947	44.10571
448.439	83.20316
448.931	119.27134
449.424	113.28497
449.916	65.15874
450.408	49.11281
450.9	57.13874
451.392	47.11959
451.884	62.14294
452.375	43.10681
452.867	53.11977
453.358	59.13567
453.849	60.12908
454.341	46.10457
454.832	21.04598
455.323	77.19119
455.814	17.03933
456.304	67.15517
456.795	56.12833
457.285	57.12603
457.776	99.22437
458.266	60.14251
458.756	-15.03596
459.247	38.0913
459.737	71.17146
460.226	105.23777
460.716	37.08885
461.206	39.09365
461.695	28.06949
462.185	99.23328
462.674	49.1124
463.163	61.13712
463.653	103.2181
464.142	76.18343
464.63	53.12838
465.119	56.13034
465.608	85.19819
466.096	6.0132
466.585	3.00693
467.073	13.03091
467.561	52.1247
468.05	63.14487
468.538	64.15581
469.026	-3.00719
469.513	12.02564
470.001	80.18296
470.489	73.17282
470.976	108.24978
471.463	45.11194
471.951	71.1754
472.438	15.03547
472.925	42.09907
473.412	46.11153
473.899	57.13065
474.385	91.22075
474.872	33.07722
475.359	40.0984
475.845	41.08541
476.331	31.06645
476.817	40.09738
477.303	40.09317
477.789	10.02397
478.275	13.03241
478.761	29.06905
479.247	44.09836
479.732	39.0973
480.218	69.17965
480.703	18.04451
481.188	60.12991
481.673	3.00696
482.158	19.04145
482.643	37.09448
483.128	97.22421
483.612	92.21742
484.097	47.1132
484.581	-8.01872
485.066	80.19461
485.55	79.17401
486.034	36.07845
486.518	86.20442
487.002	4.00979
487.486	-5.01224
487.969	11.02687
488.453	16.03995
488.936	14.03177
489.42	19.04236
489.903	-17.0427
490.386	-57.12096
490.869	85.18526
491.352	11.02661
491.835	16.03307
492.318	27.06099
492.8	47.09769
493.283	33.08426
493.765	-15.03715
494.247	32.07472
494.73	14.03126
495.212	8.01909
495.694	13.03086
496.175	29.06993
496.657	54.12767
497.139	20.03478
497.62	10.02422
498.102	26.0649
498.583	-29.07209
499.064	-1.00226
499.545	26.05956
500.026	53.11997
500.507	9.02089
500.988	67.16667
501.469	-18.04531
501.949	-7.01743
502.43	60.14426
502.91	86.18159
503.39	17.0423
503.87	39.0924
504.35	21.04937
504.83	0
505.31	21.05083
505.79	10.0238
506.269	-25.05822
506.749	-32.07433
507.228	38.08967
507.707	57.12718
508.187	24.05762
508.666	36.08934
509.145	-10.02366
509.623	-31.07373
510.102	33.08002
510.581	73.17529
511.059	8.02027
511.538	9.02332
512.016	28.06737
512.494	11.02661
512.972	-15.03636
513.45	-39.09261
513.928	-12.02951
514.406	11.02716
514.884	23.05951
515.361	15.03614
515.839	33.07637
516.316	35.08532
516.793	-2.00509
517.27	-32.07814
517.747	15.03869
518.224	-15.03503
518.701	-8.01792
519.178	10.0252
519.654	-27.06491
520.131	-12.03005
520.607	-58.14446
521.083	-25.05756
521.56	-26.06221
522.036	9.0198
522.512	50.12345
522.987	21.0509
523.463	-15.03602
523.939	77.19022
524.414	-5.01158
524.89	-5.01207
525.365	-40.09215
525.84	-15.03652
526.315	22.0536
526.79	15.03413
527.265	38.08817
527.74	-26.06401
528.215	-38.09022
528.689	-20.04456
529.164	-58.12751
529.638	-43.11069
530.112	-8.01904
530.587	-27.0589
531.061	-2.00489
531.534	-8.0195
532.008	31.07571
532.482	-11.02563
532.956	-32.08276
533.429	52.1273
533.903	5.01108
534.376	-19.04269
534.849	-26.06075
535.322	15.03566
535.795	-34.08342
536.268	24.05843
536.741	-32.0772
537.213	-12.02796
537.686	8.01974
538.158	16.03673
538.631	10.02442
539.103	-4.00916
539.575	-14.02933
540.047	-23.05104
540.519	-4.00967
540.991	-15.03704
541.463	-20.04878
541.934	-29.06671
542.406	-9.0219
542.877	35.07942
543.348	-17.04163
543.82	-13.03201
544.291	9.02122
544.762	6.01443
545.233	12.03065
545.703	-6.01355
546.174	-3.00705
546.645	9.02199
547.115	-21.05148
547.585	-3.00699
548.056	14.03474
548.526	-8.01926
548.996	-18.04369
549.466	-14.0345
549.935	-5.01211
550.405	-28.06283
550.875	14.03359
551.344	-28.06794
551.814	-13.03029
552.283	5.01108
552.752	-9.02143
553.221	-21.04734
553.69	25.05712
554.159	28.0702
554.628	-22.0509
555.096	-5.01287
555.565	-30.06781
556.033	30.07213
556.502	-23.05644
556.97	-64.14661
557.438	-53.12741
557.906	4.00956
558.374	-11.02594
558.842	10.02423
559.31	-6.01366
559.777	55.13477
560.245	-16.03734
560.712	-36.08422
561.18	-22.04971
561.647	-47.10686
562.114	-27.06313
562.581	4.00995
563.048	42.09679
563.514	19.04807
563.981	-3.00698
564.448	-32.07389
564.914	-30.07104
565.381	-8.01858
565.847	-44.10475
566.313	-10.02356
566.779	-89.20694
567.245	-107.25634
567.711	-50.12232
568.176	-66.15234
568.642	-47.1206
569.108	-77.19412
569.573	-52.12318
570.038	-32.06855
570.504	-69.16044
570.969	-75.19036
571.434	-7.01581
571.899	-34.08215
572.363	-4.00931
572.828	-10.02337
573.293	-70.16498
573.757	-19.04489
574.222	6.01364
574.686	-30.07043
575.15	-27.06616
575.614	26.06194
576.078	-48.11524
576.542	-47.10972
577.006	1.00229
577.469	-16.03991
577.933	-17.03947
578.396	-24.0579
578.86	-33.07921
579.323	9.02193
579.786	-33.07333
580.249	25.05946
580.712	-12.02958
581.175	-36.09032
581.637	-16.03715
582.1	-12.02665
582.563	-43.0938
583.025	-34.08425
583.487	47.09761
583.95	-48.10571
584.412	-26.05593
584.874	-27.06697
585.336	-66.16062
585.797	4.00884
586.259	-55.13182
586.721	-10.02382
587.182	-13.03047
587.643	-26.06028
588.105	-15.036
588.566	-12.02555
589.027	-5.01241
589.488	-27.06323
589.949	-1.00246
590.41	-35.07135
590.87	24.05551
591.331	56.12306
591.791	16.03748
592.252	28.06581
592.712	-7.01701
593.172	-22.05104
593.632	56.12513
594.092	-40.0913
594.552	-8.01766
595.011	-59.1387
595.471	40.09137
595.931	50.11352
596.39	-32.07828
596.849	-32.07603
597.308	-52.11394
597.768	38.09838
598.227	-7.01705
598.685	5.01155
599.144	41.09721
599.603	21.04956
600.062	-14.03013
600.52	7.01604
600.978	25.05955
601.437	34.07792
601.895	56.12068
602.353	27.05992
602.811	50.11339
603.269	64.15224
603.727	64.15365
604.184	89.2022
604.642	37.09134
605.099	87.20253
605.557	86.20811
606.014	68.14679
606.471	82.20483
606.928	126.27724
607.385	73.18239
607.842	90.20559
608.299	114.26397
608.755	83.20021
609.212	119.26299
609.668	110.2463
610.125	111.26491
610.581	182.41674
611.037	117.25955
611.493	106.24525
611.949	164.39177
612.405	218.43018
612.861	109.24833
613.316	160.37592
613.772	156.35074
614.227	250.57909
614.683	137.28616
615.138	156.35893
615.593	134.30646
616.048	159.35668
616.503	171.40591
616.958	181.44252
617.412	170.39489
617.867	163.35737
618.321	209.41775
618.776	169.36396
619.23	197.44863
619.684	129.28366
620.138	169.37786
620.592	181.42815
621.046	194.446
621.5	167.3929
621.954	142.30838
622.407	194.41663
622.861	158.37556
623.314	198.43493
623.768	190.43663
624.221	151.29103
624.674	166.37475
625.127	129.29521
625.58	185.40389
626.033	200.42359
626.485	140.3288
626.938	177.4109
627.39	211.4776
627.843	190.4256
628.295	187.41914
628.747	187.43377
629.199	166.36893
629.651	166.37154
630.103	172.38465
630.555	195.3979
631.006	174.39409
631.458	190.43418
631.909	134.2946
632.361	130.29468
632.812	201.4507
633.263	247.5134
633.714	157.32444
634.165	151.35415
634.616	191.43813
635.067	277.58012
635.518	247.56181
635.968	243.45552
636.419	244.51067
636.869	248.56328
637.319	277.61267
637.769	311.66083
638.219	277.62289
638.669	231.52839
639.119	287.6533
639.569	318.72137
640.019	325.70801
640.468	363.75988
640.918	385.85079
641.367	390.81007
641.816	400.82269
642.265	429.92383
642.714	394.83881
643.163	488.02528
643.612	500.11689
644.061	453.88363
644.51	498.03483
644.958	567.11324
645.406	542.16695
645.855	556.21404
646.303	602.23243
646.751	653.32463
647.199	610.22008
647.647	648.32076
648.095	584.18257
648.543	643.12581
648.99	751.55489
649.438	729.45075
649.885	739.60086
650.333	745.20739
650.78	698.47177
651.227	720.5328
651.674	709.39714
652.121	762.61247
652.568	730.55277
653.015	711.53426
653.461	689.42829
653.908	718.42054
654.354	720.48433
654.801	713.44717
655.247	694.291
655.693	686.57508
656.139	633.3331
656.585	656.37585
657.031	637.3186
657.477	668.26473
657.922	606.21543
658.368	634.37933
658.813	640.27368
659.259	678.44018
659.704	646.34769
660.149	562.15664
660.594	586.23912
661.039	559.13677
661.484	588.23956
661.929	588.2211
662.373	538.22167
662.818	533.19195
663.262	554.20406
663.707	580.3262
664.151	578.26055
664.595	539.17513
665.039	564.258
665.483	492.1441
665.927	517.09467
666.371	477.0226
666.814	482.042
667.258	504.10265
667.701	549.03827
668.145	515.16346
668.588	520.16833
669.031	464.99811
669.474	443.9777
669.917	475.94327
670.36	454.04147
670.803	509.11478
671.245	417.77903
671.688	463.03091
672.13	447.92535
672.573	473.09401
673.015	458.01112
673.457	448.88861
673.899	476.05006
674.341	415.92472
674.783	419.92784
675.225	448.01289
675.666	456.02347
676.108	445.87627
676.549	434.92837
676.991	426.85642
677.432	441.79209
677.873	412.86645
678.314	447.9758
678.755	456.03101
679.196	401.84647
679.637	411.90899
680.078	412.8878
680.518	381.81096
680.959	404.8896
681.399	414.9486
681.839	370.8376
682.28	412.94894
682.72	368.7821
683.16	384.89293
683.6	370.78155
684.039	338.64849
684.479	344.79741
684.919	340.74964
685.358	308.72443
685.798	338.82888
686.237	310.69666
686.676	281.60099
687.115	349.76835
687.554	350.78331
687.993	331.684
688.432	333.71065
688.871	326.70069
689.309	292.66267
689.748	280.54837
690.186	304.66943
690.625	324.71436
691.063	263.5965
691.501	259.6105
691.939	314.74658
692.377	289.66291
692.815	317.73033
693.253	261.59028
693.69	327.66785
694.128	247.57225
694.565	263.59165
695.003	308.74412
695.44	295.65955
695.877	270.60254
696.314	222.44528
696.751	286.61075
697.188	296.64662
697.625	250.53064
698.061	225.5155
698.498	256.57461
698.934	226.51644
699.371	238.53421
699.807	229.51623
700.243	238.54802
700.679	215.45785
701.115	243.53927
701.551	211.46923
701.987	192.40202
702.422	218.49836
702.858	249.56521
703.294	281.60801
703.729	271.62436
704.164	177.40749
704.599	237.50338
705.035	231.49341
705.47	155.36467
705.904	214.47383
706.339	168.37214
706.774	205.46005
707.209	214.47659
707.643	211.48343
708.078	186.43546
708.512	157.38156
708.946	179.40814
709.38	167.38324
709.814	187.40618
710.248	205.48116
710.682	218.50097
711.116	195.4568
711.549	110.27428
711.983	154.34397
712.416	269.60391
712.85	182.43393
713.283	157.35827
713.716	163.3902
714.149	132.29654
714.582	131.28576
715.015	162.38358
715.448	158.38521
715.881	173.35622
716.313	141.31903
716.746	191.43391
717.178	146.34008
717.61	179.43893
718.043	128.30706
718.475	136.32028
718.907	140.33878
719.339	168.3667
719.77	166.38361
720.202	122.29711
720.634	134.31949
721.065	143.32593
721.497	109.26014
721.928	114.27118
722.359	108.25661
722.79	112.26119
723.221	78.18968
723.652	143.35183
724.083	109.23838
724.514	138.30671
724.945	105.23942
725.375	113.25714
725.806	120.28721
726.236	153.37782
726.666	140.31902
727.096	125.29661
727.526	116.29123
727.956	115.25554
728.386	126.2995
728.816	114.28435
729.246	138.33016
729.675	118.2794
730.105	114.27077
730.534	149.33452
730.964	75.18303
731.393	130.30817
731.822	153.37768
732.251	107.26442
732.68	95.2139
733.109	105.25222
733.537	128.30378
733.966	126.30548
734.395	140.31244
734.823	112.2397
735.251	91.2131
735.68	100.2398
736.108	74.18082
736.536	83.18948
736.964	80.1809
737.392	118.28598
737.82	86.20001
738.247	113.26088
738.675	117.26591
739.102	80.1949
739.53	117.29274
739.957	92.23264
740.384	38.08991
740.811	60.14612
741.238	117.27869
741.665	136.30916
742.092	17.03853
742.519	105.25375
742.945	94.22292
743.372	106.25631
743.798	61.15301
744.225	65.1503
744.651	94.22884
745.077	125.30163
745.503	62.14635
745.929	126.29569
746.355	98.23142
746.781	98.23384
747.207	82.19025
747.632	135.32465
748.058	147.35793
748.483	118.26226
748.908	91.221
749.334	84.2022
749.759	80.18627
750.184	108.25305
750.609	87.20747
751.033	100.22603
751.458	103.22211
751.883	42.10141
752.307	80.18355
752.732	120.29813
753.156	81.19435
753.58	108.24631
754.005	93.22679
754.429	96.22159
754.853	109.26372
755.277	122.28037
755.7	74.17934
756.124	75.18214
756.548	70.16132
756.971	103.24384
757.394	68.1698
757.818	71.17918
758.241	84.20831
758.664	46.11403
759.087	72.15862
759.51	67.16125
759.933	62.14692
760.356	77.19433
760.778	98.23393
761.201	101.23633
761.623	39.09086
762.046	55.12536
762.468	90.20898
762.89	48.11453
763.312	98.23312
763.734	42.09941
764.156	87.20906
764.578	75.16596
765	87.20612
765.421	54.13523
765.843	68.17385
766.264	47.10868
766.686	76.18336
767.107	56.13265
767.528	106.26478
767.949	81.20003
768.37	86.20772
768.791	49.1147
769.212	29.07198
769.632	64.14649
770.053	5.01289
770.473	51.11999
770.894	21.05067
771.314	66.15125
771.734	8.01836
772.154	66.16409
772.575	43.0967
772.994	21.04662
773.414	75.17287
773.834	55.13362
774.254	27.06459
774.673	75.17879
775.093	59.14361
775.512	30.07276
775.931	38.09451
776.351	34.08327
776.77	68.16288
777.189	69.15943
777.607	61.15196
778.026	58.14099
778.445	44.10951
778.864	26.06452
779.282	16.03737
779.701	1.00247
780.119	42.10427
780.537	37.09003
780.955	40.09872
781.373	23.05567
781.791	38.08449
782.209	56.12244
782.627	19.0492
783.045	25.05551
783.462	26.06509
783.88	24.06106
784.297	17.042
784.715	13.033
785.132	11.02595
785.549	-14.03449
785.966	38.09344
786.383	55.13257
786.8	44.09937
787.217	53.12358
787.633	50.12304
788.05	16.03633
788.466	24.05445
788.883	43.10817
789.299	-5.01166
789.715	52.12356
790.131	28.06809
790.547	19.04633
790.963	29.07016
791.379	23.05696
791.795	23.05056
792.21	34.07682
792.626	32.07327
793.041	42.10068
793.457	15.036
793.872	38.08603
794.287	42.0993
794.702	-30.07161
795.117	22.05374
795.532	41.10106
795.947	19.04392
796.362	29.06586
796.776	25.05576
797.191	32.07653
797.605	14.03259
798.02	-2.00476
798.434	52.11187
798.848	55.13347
799.262	23.05573
799.676	60.14169
800.09	50.11926
800.504	43.10073
800.918	-12.02696
801.331	-29.07311
801.745	30.06648
802.158	0
802.572	64.14996
802.985	33.07667
803.398	30.06927
803.811	7.01721
804.224	16.0383
804.637	68.15708
805.05	26.058
805.462	68.1602
805.875	6.0153
806.288	36.08501
806.7	23.05569
807.112	66.14583
807.525	-39.09315
807.937	4.0097
808.349	35.08452
808.761	57.13624
809.173	43.10152
809.584	37.08817
809.996	-11.02634
810.408	1.00256
810.819	-7.01613
811.231	52.13546
811.642	41.09916
812.053	60.1418
812.464	-12.02781
812.875	18.04514
813.286	56.14115
813.697	28.06169
814.108	64.1499
814.519	95.20415
814.929	42.10355
815.34	-1.00234
815.75	41.10214
816.16	-33.07969
816.571	42.10552
816.981	-12.02731
817.391	-2.00466
817.801	13.03162
818.211	29.06679
818.62	41.09612
819.03	18.04275
819.44	-3.00752
819.849	-5.01217
820.259	-4.00989
820.668	28.0672
821.077	29.07069
821.486	19.0438
821.895	-16.03805
822.304	23.05925
822.713	38.08642
823.122	33.07966
823.531	-16.03646
823.939	46.10888
824.348	41.09567
824.756	17.04115
825.164	54.13048
825.573	9.02202
825.981	23.055
826.389	37.08982
826.797	91.2229
827.205	78.17285
827.612	8.01909
828.02	-12.02732
828.428	-7.01739
828.835	41.10557
829.243	-9.02074
829.65	46.11157
830.057	30.07007
830.464	48.11445
830.871	50.11592
831.278	34.07954
831.685	24.05143
832.092	38.08893
832.499	66.13887
832.905	-7.01717
833.312	-9.01955
833.718	70.16907
834.124	65.14275
834.531	-13.03167
834.937	62.15409
835.343	56.12875
835.749	24.0533
836.155	23.05858
836.561	25.05969
836.966	11.026
837.372	-5.01235
837.777	53.12789
838.183	37.07859
838.588	53.12784
838.993	18.04252
839.399	41.09733
839.804	10.02374
840.209	58.14436
840.613	-6.01292
841.018	28.06832
841.423	23.05736
841.828	43.10576
842.232	-41.09774
842.637	84.19165
843.041	8.02009
843.445	33.07945
843.849	67.16021
844.253	63.14307
844.657	37.09083
845.061	106.23265
845.465	44.10253
845.869	72.15996
846.272	18.04275
846.676	6.01382
847.079	34.0845
847.483	53.12697
847.886	74.17067
848.289	38.09983
848.692	44.10684
849.095	50.11495
849.498	41.09879
849.901	21.04604
850.304	26.05994
850.707	49.12011
851.109	76.18343
851.512	44.10463
851.914	10.02471
852.316	65.16016
852.718	41.10535
853.121	34.08057
853.523	4.00899
853.925	54.13772
854.326	41.0998
854.728	56.13953
855.13	24.06078
855.531	48.11071
855.933	30.06875
856.334	28.06822
856.736	27.0589
857.137	50.11279
857.538	61.14886
857.939	69.16631
858.34	31.07211
858.741	51.12834
859.142	2.00463
859.542	5.01296
859.943	33.07921
860.343	15.03632
860.744	12.02837
861.144	64.15137
861.544	20.04725
861.945	6.01485
862.345	32.07516
862.745	44.10636
863.145	54.12131
863.544	48.11747
863.944	36.08187
864.344	14.03324
864.743	85.2013
865.143	90.22376
865.542	-18.04004
865.941	36.08643
866.34	51.11568
866.74	24.06273
867.139	25.05873
867.537	-11.02701
867.936	16.03746
868.335	30.07369
868.734	47.11624
869.132	-26.05805
869.531	56.12828
869.929	46.10117
870.327	36.08316
870.726	41.09748
871.124	43.09567
871.522	5.01234
871.92	34.08097
872.318	8.01881
872.715	-4.00947
873.113	-7.01648
873.511	35.08388
873.908	5.0125
874.306	13.03165
874.703	30.07178
875.1	12.02934
875.497	35.08048
875.894	64.15359
876.291	39.09251
876.688	28.0701
877.085	17.03912
877.482	44.10612
877.878	48.11278
878.275	47.11555
878.671	6.01246
879.068	0
879.464	53.12294
879.86	45.10223
880.256	-19.04491
880.652	1.00247
881.048	33.078
881.444	21.04748
881.84	40.098
882.236	38.0921
882.631	52.12346
883.027	34.07895
883.422	-8.0198
883.817	-24.05943
884.213	16.03987
884.608	64.15423
885.003	-49.11466
885.398	11.02674
885.793	18.04356
886.188	-11.02657
886.582	40.09807
886.977	65.14641
887.371	11.02678
887.766	43.1038
888.16	-28.06699
888.554	48.11326
888.949	40.0968
889.343	7.01647
889.737	-39.10314
890.131	-12.02933
890.525	56.13898
890.918	6.01465
891.312	19.04339
891.706	14.0356
892.099	49.11971
892.492	32.06561
892.886	19.04482
893.279	6.01481
893.672	78.19187
894.065	23.05579
894.458	-8.01937
894.851	34.07967
895.244	11.02725
895.637	74.17101
896.029	46.10896
896.422	-12.02813
896.814	15.03598
897.206	51.11835
897.599	64.15154
897.991	87.20205
898.383	39.08882
898.775	148.31716
899.167	-6.01379
899.559	47.1135
899.951	13.02929
900.342	34.08265
900.734	67.16369
901.125	16.04046
901.517	4.00954
901.908	29.06588
902.299	38.08984
902.69	90.20409
903.082	48.11168
903.473	69.16082
903.863	19.04668
904.254	29.06564
904.645	27.06394
905.036	51.12125
905.426	18.03902
905.817	10.02359
906.207	-42.0966
906.597	58.13131
906.987	25.06219
907.378	29.07135
907.768	31.07974
908.158	0
908.547	22.05595
908.937	-30.07426
909.327	38.08859
909.717	13.03143
910.106	12.02772
910.495	-8.01918
910.885	44.10776
911.274	17.04105
911.663	2.00488
912.052	16.0377
912.441	61.15042
912.83	2.0044
913.219	31.07821
913.608	51.12055
913.997	29.07101
914.385	58.1327
914.774	31.07257
915.162	25.05818
915.55	40.09226
915.939	41.10069
916.327	87.20548
916.715	18.04521
917.103	10.02338
917.491	78.18369
917.878	40.09438
918.266	-15.03777
918.654	47.11679
919.041	34.08714
919.429	6.01369
919.816	26.06363
920.203	69.16183
920.591	57.13604
920.978	32.07551
921.365	19.0486
921.752	21.04746
922.139	95.19473
922.525	56.12952
922.912	42.09806
923.299	34.08166
923.685	-19.04793
924.072	4.00867
924.458	11.02653
924.844	51.12139
925.231	-3.00669
925.617	22.05484
926.003	17.04195
926.389	26.06337
926.774	8.01959
927.16	32.07647
927.546	79.19673
927.931	36.08597
928.317	54.11787
928.702	59.13274
929.088	68.15746
929.473	60.14809
929.858	50.11844
930.243	50.11651
930.628	60.14158
931.013	33.07903
931.398	20.04342
931.783	2.00506
932.167	70.16568
932.552	34.08187
932.937	16.03815
933.321	-3.00738
933.705	-15.03637
934.09	-5.01201
934.474	29.06554
934.858	13.03282
935.242	29.06436
935.626	22.05486
936.009	22.05745
936.393	46.11453
936.777	-8.02009
937.16	49.1241
937.544	-3.00672
937.927	39.0961
938.311	71.16431
938.694	57.14585
939.077	1.00232
939.46	-16.03728
939.843	38.0735
940.226	4.00991
940.609	73.16174
940.991	2.00491
941.374	42.09945
941.757	24.05689
942.139	44.09498
942.522	67.14999
942.904	35.08096
943.286	24.05873
943.668	35.08868
944.05	23.05477
944.432	3.00714
944.814	0
945.196	25.05935
945.578	34.07923
945.959	-9.0202
946.341	5.01164
946.722	42.09389
947.104	51.1169
947.485	68.15094
947.866	41.1005
948.247	35.08615
948.628	15.03459
949.009	30.07429
949.39	59.13984
949.771	8.01748
950.152	53.12503
950.532	42.10252
950.913	10.02327
951.293	5.01329
951.674	-26.06123
952.054	59.14323
952.434	12.0289
952.814	55.12358
953.194	6.01504
953.574	23.05437
953.954	33.07442
954.334	32.07773
954.714	8.01898
955.093	40.09453
955.473	52.12655
955.853	32.08017
956.232	41.10872
956.611	-1.00229
956.99	26.06344
957.37	-27.06668
957.749	-13.02956
958.128	15.03685
958.506	11.02777
958.885	1.00244
959.264	53.12649
959.643	78.1699
960.021	20.04829
960.4	27.05862
960.778	15.03511
961.156	14.03382
961.535	-27.06044
961.913	27.06114
962.291	-3.00759
962.669	36.08853
963.047	8.01993
963.424	60.14939
963.802	-14.03356
964.18	12.02887
964.557	65.14173
964.935	24.05465
965.312	16.04069
965.69	24.05742
966.067	-32.07498
966.444	-11.02578
966.821	28.06992
967.198	10.02313
967.575	28.06581
967.952	30.06767
968.329	53.12455
968.705	100.20336
969.082	98.24374
969.458	45.10525
969.835	48.11207
970.211	11.02771
970.587	23.05544
970.963	19.04673
971.339	18.04584
971.715	25.06042
972.091	65.15299
972.467	-6.01429
972.843	30.07276
973.219	84.18964
973.594	-19.04855
973.97	-42.09466
974.345	26.06023
974.721	-8.01847
975.096	49.11479
975.471	22.04999
975.846	20.04593
976.221	15.03696
976.596	63.14712
976.971	73.17369
977.346	43.09491
977.72	-10.02464
978.095	5.01254
978.469	26.05939
978.844	32.07703
979.218	57.13306
979.593	36.08237
979.967	11.02536
980.341	63.139
980.715	44.10704
981.089	22.05314
981.463	23.05075
981.837	28.06684
982.21	22.04774
982.584	39.09097
982.957	-1.00244
983.331	16.03583
983.704	70.16677
984.078	8.01904
984.451	36.08462
984.824	44.1037
985.197	7.01615
985.57	5.01194
985.943	33.07685
986.316	42.09729
986.688	49.11295
987.061	84.18778
987.434	53.135
987.806	7.01614
988.179	-21.04786
988.551	42.10206
988.923	-2.00474
989.295	26.06228
989.667	32.07477
990.039	83.19938
990.411	0
990.783	14.03053
991.155	-3.00702
991.527	52.12008
991.898	44.10603
992.27	60.14383
992.641	13.03131
993.012	10.02203
993.384	-10.02297
993.755	23.05707
994.126	52.12098
994.497	18.04267
994.868	26.05654
995.239	5.01167
995.61	-13.03186
995.98	0
996.351	58.13882
996.722	58.13008
997.092	17.03903
997.462	26.0592
997.833	46.1033
998.203	14.0322
998.573	-1.00243
998.943	34.07698
999.313	25.05806
999.683	5.01164
1000.053	4.00864
1000.423	2.00466
1000.792	-22.05494
1001.162	2.00473
1001.531	56.1326
1001.901	2.0048
1002.27	-53.11277
1002.639	-21.05184
1003.009	52.11792
1003.378	29.07177
1003.747	54.12096
1004.116	-12.02776
1004.485	24.05513
1004.853	7.01692
1005.222	-47.11363
1005.591	7.01597
1005.959	55.1187
1006.328	7.01523
1006.696	15.03471
1007.064	-18.04357
1007.433	16.03828
1007.801	2.00466
1008.169	20.04822
1008.537	51.10728
1008.905	60.1344
1009.273	27.06367
1009.64	14.03268
1010.008	51.11596
1010.375	19.04355
1010.743	-27.05837
1011.11	29.06735
1011.478	58.13861
1011.845	39.08724
1012.212	90.1952
1012.579	26.06161
1012.946	-7.0159
1013.313	84.18785
1013.68	20.0428
1014.047	33.07546
1014.414	-8.01824
1014.78	34.08172
1015.147	21.04821
1015.513	56.129
1015.88	52.12669
1016.246	19.04458
1016.612	50.10803
1016.978	47.11127
1017.344	73.17269
1017.71	55.12728
1018.076	24.0537
1018.442	50.12418
1018.808	14.03418
1019.174	-2.00483
1019.539	20.0421
1019.905	33.07512
1020.27	2.00476
1020.636	16.03637
1021.001	92.20973
1021.366	44.1018
1021.731	86.21459
1022.096	17.0419
1022.461	19.04339
1022.826	51.11695
1023.191	26.06605
1023.556	51.11337
1023.92	46.10728
1024.285	11.02559
1024.649	15.03519
1025.014	-27.06422
1025.378	44.10712
1025.742	16.03797
1026.107	51.10936
1026.471	24.05334
1026.835	34.08107
1027.199	9.02096
1027.562	-17.03778
1027.926	27.06305
1028.29	9.02207
1028.654	26.05702
1029.017	67.15782
1029.381	37.08512
1029.744	20.04934
1030.107	73.16416
1030.471	15.03481
1030.834	8.01717
1031.197	79.18064
1031.56	15.03383
1031.923	37.09248
1032.286	28.06303
1032.648	9.02041
1033.011	86.18995
1033.374	28.06231
1033.736	-15.0385
1034.099	4.00943
1034.461	41.10058
1034.823	19.0459
1035.185	9.02168
1035.548	34.07992
1035.91	16.0368
1036.272	57.12423
1036.634	69.16088
1036.995	25.05587
1037.357	23.0542
1037.719	54.12588
1038.08	114.25778
1038.442	31.07043
1038.803	10.02272
1039.165	15.03637
1039.526	66.15228
1039.887	37.08474
1040.248	55.13227
1040.609	19.0447
1040.97	32.07486
1041.331	74.18056
1041.692	18.04122
1042.053	65.13944
1042.413	15.03333
1042.774	28.06563
1043.134	4.00905
1043.495	65.15626
1043.855	88.2053
1044.215	19.04517
1044.576	31.07174
1044.936	26.05668
1045.296	70.16677
1045.656	31.07222
1046.016	22.05072
1046.375	10.02339
1046.735	39.08619
1047.095	44.09848
1047.454	77.15141
1047.814	72.165
1048.173	48.10779
1048.533	21.04612
1048.892	-16.03742
1049.251	25.05996
1049.61	32.07586
1049.969	-4.00907
1050.328	56.11502
1050.687	-5.01168
1051.046	38.08834
1051.405	-3.00715
1051.763	35.07797
1052.122	27.06473
1052.48	59.13881
1052.839	34.07807
1053.197	17.0384
1053.555	-19.04081
1053.914	58.13505
1054.272	-33.0757
1054.63	19.04489
1054.988	38.08743
1055.345	-20.0408
1055.703	33.07637
1056.061	77.19196
1056.419	49.12424
1056.776	-5.0115
1057.134	-4.00875
1057.491	24.05797
1057.848	41.09733
1058.206	-19.04248
1058.563	41.08572
1058.92	54.11782
1059.277	67.15776
1059.634	-27.06059
1059.991	89.20277
1060.348	48.10384
1060.704	31.07271
1061.061	43.09328
1061.418	4.00938
1061.774	11.02622
1062.131	27.07025
1062.487	0
1062.843	19.04564
1063.199	33.079
1063.555	41.09175
1063.911	-21.05121
1064.267	82.15747
1064.623	33.07797
1064.979	-19.04183
1065.335	13.02959
1065.691	-44.10095
1066.046	44.09164
1066.402	-48.10517
1066.757	11.02686
1067.112	5.01179
1067.468	35.08042
1067.823	-35.07993
1068.178	25.05765
1068.533	9.02103
1068.888	-6.01376
1069.243	21.04995
1069.598	-9.021
1069.952	27.05962
1070.307	-7.01689
1070.662	68.15596
1071.016	34.07396
1071.371	9.01979
1071.725	23.05227
1072.079	28.06484
1072.434	-24.05687
1072.788	-7.01586
1073.142	65.15287
1073.496	-24.05502
1073.85	-1.00223
1074.203	52.12079
1074.557	56.14538
1074.911	35.07932
1075.265	37.08211
1075.618	41.09609
1075.971	15.03426
1076.325	34.08398
1076.678	-46.10236
1077.031	-35.07496
1077.385	55.11427
1077.738	1.00216
1078.091	35.07687
1078.444	28.06135
1078.796	16.03812
1079.149	79.18775
1079.502	46.10474
1079.855	33.07379
1080.207	82.19138
1080.56	59.14752
1080.912	34.07923
1081.264	17.03959
1081.617	13.03068
1081.969	47.1147
1082.321	18.04214
1082.673	26.05786
1083.025	29.06548
1083.377	272.58136
1083.728	56.12358
1084.08	-7.01681
1084.432	9.02082
1084.783	-8.01768
1085.135	40.09687
1085.486	13.02877
1085.838	54.12781
1086.189	51.11962
1086.54	41.09318
1086.891	40.09938
1087.242	32.0763
1087.593	36.0826
1087.944	79.17094
1088.295	38.0821
1088.646	69.16284
1088.996	-5.01173
1089.347	-2.00471
1089.698	-4.00925
1090.048	7.0175
1090.398	73.15924
1090.749	-23.05278
1091.099	22.05414
1091.449	33.07945
1091.799	44.10571
1092.149	-1.0024
1092.499	12.02824
1092.849	9.02218
1093.199	22.05262
1093.548	11.02579
1093.898	2.00482
1094.248	5.01231
1094.597	-22.05549
1094.947	44.11363
1095.296	52.12379
1095.645	37.09234
1095.994	24.05538
1096.343	48.11646
1096.692	33.08533
1097.041	31.08278
1097.39	31.07435
1097.739	32.08023
1098.088	43.11038
1098.437	60.15415
1098.785	38.09821
1099.134	8.02026
1099.482	46.12297
1099.83	25.06361
1100.179	49.12573
1100.527	-18.04608
1100.875	10.0259
1101.223	26.0674
1101.571	-19.05119
1101.919	19.0493
1102.267	-8.02225
1102.615	-5.01607
1102.962	6.01924
1103.31	3.00964
1103.658	-3.00962
