Data from N1R0 105C sample 9_Subt2__5__12-54-05-683.txt Node

Date: Tue Sep 16 12:54:05 PDT 2025
User: uwsun
Spectrometer: HDX01956
Trigger mode: 0
Integration Time (sec): 5.000000E-1
Scans to average: 1
Nonlinearity correction enabled: true
Boxcar width: 0
Storing dark spectrum: false
XAxis mode: Wavelengths
Number of Pixels in Spectrum: 2068
>>>>>Begin Spectral Data<<<<<
194.03	-6.01743
194.578	11.03572
195.127	-6.01925
195.676	11.03535
196.225	-4.01069
196.773	1.00279
197.321	20.05583
197.87	30.0782
198.418	14.03686
198.966	25.06713
199.513	27.07006
200.061	-1.00261
200.609	19.05112
201.156	10.02253
201.704	22.05656
202.251	65.17488
202.798	11.02914
203.345	60.15096
203.892	-9.02337
204.438	-1.00244
204.985	37.08979
205.532	-20.05399
206.078	-4.01004
206.624	53.13533
207.17	77.18327
207.716	29.07274
208.262	43.0875
208.808	24.06168
209.354	27.06831
209.899	41.10506
210.445	-7.01801
210.99	17.04254
211.535	53.12736
212.08	19.04524
212.625	-22.05658
213.17	48.12444
213.715	74.1719
214.259	57.13557
214.804	21.05262
215.348	65.15293
215.892	77.18952
216.436	-17.04004
216.98	52.11634
217.524	48.11699
218.068	42.1079
218.612	52.13439
219.155	60.14415
219.698	27.06562
220.242	27.06787
220.785	31.07438
221.328	36.09045
221.871	97.24873
222.414	46.11537
222.956	-12.02944
223.499	19.04329
224.041	22.05127
224.583	-5.01083
225.126	47.10474
225.668	65.15951
226.21	55.14088
226.751	77.17337
227.293	48.11009
227.835	50.12413
228.376	7.01626
228.918	2.00508
229.459	58.14625
230	74.17934
230.541	26.06087
231.082	66.1623
231.622	9.02079
232.163	-39.09673
232.704	94.23634
233.244	43.10806
233.784	18.04436
234.324	66.1504
234.864	16.03687
235.404	39.09308
235.944	-2.00481
236.484	61.15367
237.023	34.08135
237.563	62.14578
238.102	42.10072
238.641	7.01791
239.18	-6.01443
239.719	17.04327
240.258	16.03668
240.797	52.12574
241.335	20.04943
241.874	74.14609
242.412	62.15229
242.95	11.02713
243.488	3.00689
244.026	18.04274
244.564	56.11705
245.102	70.16042
245.64	14.03403
246.177	-8.01822
246.715	73.17682
247.252	18.04163
247.789	122.22626
248.326	89.21574
248.863	41.09182
249.4	65.14893
249.936	82.17367
250.473	78.18605
251.009	8.01872
251.546	65.14707
252.082	24.05285
252.618	46.10453
253.154	33.08071
253.69	30.0685
254.226	46.11169
254.761	42.09579
255.297	-21.04723
255.832	30.0726
256.367	15.03595
256.903	72.16195
257.438	33.07861
257.972	11.02505
258.507	9.02109
259.042	47.10392
259.576	97.21626
260.111	45.1048
260.645	63.13784
261.179	46.10938
261.713	63.1429
262.247	44.10193
262.781	50.10724
263.315	17.04197
263.849	48.12168
264.382	41.09564
264.915	35.08427
265.449	1.00249
265.982	13.03018
266.515	38.09461
267.048	-17.03718
267.58	12.02648
268.113	35.07716
268.646	17.04234
269.178	50.11339
269.71	74.16563
270.243	32.07557
270.775	64.16586
271.307	34.08206
271.838	65.15501
272.37	29.07219
272.902	21.04852
273.433	79.17707
273.965	30.07407
274.496	33.08299
275.027	14.03553
275.558	62.15308
276.089	37.09388
276.62	12.03079
277.15	10.02506
277.681	27.0593
278.211	29.07185
278.741	60.13523
279.272	31.07234
279.802	38.09585
280.332	26.06259
280.861	52.12588
281.391	29.06722
281.921	52.12584
282.45	36.09055
282.98	63.16565
283.509	84.19304
284.038	46.10707
284.567	72.16956
285.096	73.17888
285.625	1.00231
286.153	91.21917
286.682	52.12141
287.21	15.03643
287.739	13.03138
288.267	35.08672
288.795	29.07685
289.323	18.04321
289.851	80.19016
290.378	33.075
290.906	86.21218
291.433	35.08865
291.961	71.16437
292.488	29.07314
293.015	57.13661
293.542	103.26605
294.069	28.0707
294.596	26.06467
295.122	58.14115
295.649	18.04034
296.175	23.05642
296.702	56.13892
297.228	45.10998
297.754	22.05066
298.28	66.15416
298.806	29.07125
299.332	35.0801
299.857	35.08125
300.383	29.07418
300.908	50.1249
301.433	47.11713
301.958	29.06791
302.483	22.05557
303.008	105.26262
303.533	5.01316
304.058	22.05239
304.582	39.09393
305.107	35.0925
305.631	15.03486
306.155	21.05008
306.679	38.09119
307.203	51.12055
307.727	51.12293
308.251	32.08046
308.775	85.20913
309.298	41.10073
309.822	31.07927
310.345	78.18882
310.868	26.0641
311.391	24.06034
311.914	22.05626
312.437	32.07486
312.96	29.06987
313.482	34.08156
314.005	-11.02817
314.527	1.00266
315.049	54.13873
315.571	46.10588
316.093	23.05819
316.615	-33.08179
317.137	27.06047
317.659	54.13298
318.18	17.04147
318.702	29.06961
319.223	18.03787
319.744	60.13778
320.265	32.07968
320.786	58.14729
321.307	14.0354
321.828	25.05792
322.348	32.07709
322.869	54.13117
323.389	366.68628
323.909	56.13049
324.43	12.02942
324.95	58.13547
325.47	69.1737
325.989	56.13546
326.509	41.09424
327.029	78.18133
327.548	37.086
328.067	43.10662
328.587	97.24576
329.106	4.0093
329.625	41.10853
330.144	61.1448
330.662	38.09147
331.181	62.14924
331.7	-1.0024
332.218	55.12242
332.736	43.1031
333.255	44.10612
333.773	71.17062
334.291	71.1804
334.808	76.1748
335.326	28.06476
335.844	97.23159
336.361	77.20109
336.879	67.161
337.396	54.13435
337.913	60.14185
338.43	45.10426
338.947	20.04916
339.464	50.11103
339.981	40.09723
340.497	49.123
341.014	82.20305
341.53	29.06743
342.046	99.25047
342.562	39.09937
343.078	46.11102
343.594	35.08541
344.11	66.1614
344.626	39.10067
345.141	70.16382
345.657	79.18268
346.172	78.19166
346.687	55.1294
347.202	103.2394
347.717	60.14629
348.232	73.18496
348.747	98.23034
349.261	66.14894
349.776	85.20588
350.29	65.16591
350.805	72.18109
351.319	51.12162
351.833	68.16039
352.347	49.11873
352.861	49.11806
353.374	58.13531
353.888	58.14499
354.401	57.13317
354.915	106.24399
355.428	60.15259
355.941	45.10768
356.454	80.18208
356.967	6.01448
357.48	69.16019
357.993	68.17042
358.505	55.13667
359.018	106.26306
359.53	78.194
360.042	64.14726
360.554	124.3066
361.066	18.04506
361.578	126.28283
362.09	71.17249
362.602	78.17832
363.113	99.23709
363.625	48.11225
364.136	100.22419
364.647	104.25053
365.158	98.23214
365.669	69.16826
366.18	67.16125
366.691	66.14864
367.201	96.23371
367.712	114.26523
368.222	111.25983
368.733	105.23312
369.243	108.24611
369.753	70.16517
370.263	140.34069
370.773	74.18338
371.282	104.25214
371.792	86.20348
372.301	96.23528
372.811	110.29065
373.32	163.35632
373.829	83.19938
374.338	118.26661
374.847	100.23495
375.356	83.19938
375.865	82.18073
376.373	97.22492
376.882	98.25089
377.39	107.26141
377.898	72.18005
378.407	71.16522
378.915	115.25638
379.423	116.27329
379.93	151.35332
380.438	51.12529
380.946	113.26648
381.453	151.36381
381.96	174.41549
382.468	67.16094
382.975	175.42785
383.482	161.36265
383.989	157.40257
384.495	165.38607
385.002	125.26712
385.509	147.35216
386.015	200.41024
386.521	213.48114
387.028	213.47997
387.534	227.4813
388.04	247.58403
388.546	204.44773
389.051	247.53536
389.557	238.54145
390.063	274.60363
390.568	283.66032
391.073	252.54818
391.578	313.73633
392.084	334.73024
392.589	299.62674
393.093	352.80399
393.598	438.94422
394.103	399.89717
394.607	460.03162
395.112	494.12388
395.616	522.16755
396.12	573.19493
396.624	576.24132
397.128	633.38094
397.632	717.50427
398.136	743.51774
398.639	803.65748
399.143	892.91074
399.646	1053.07072
400.15	1090.08207
400.653	1261.26365
401.156	1405.40184
401.659	1670.92516
402.162	1960.98518
402.664	2577.5713
403.167	3798.48933
403.67	7515.78338
404.172	24010.31262
404.674	59193.98875
405.176	63738.15102
405.678	63977.72923
406.18	64011.81569
406.682	63863.44694
407.184	63926.60148
407.686	26763.12695
408.187	11377.58336
408.688	6644.94378
409.19	4599.6961
409.691	3720.51399
410.192	3131.53243
410.693	2670.97177
411.194	2436.13786
411.694	2320.31283
412.195	2092.40974
412.696	1865.96371
413.196	1761.48696
413.696	1614.80019
414.196	1685.59022
414.696	1665.96837
415.196	1539.63514
415.696	1386.36226
416.196	1179.21954
416.695	934.87348
417.195	773.63968
417.694	762.3988
418.194	742.38389
418.693	682.39708
419.192	644.37144
419.691	605.28019
420.19	602.31795
420.688	617.37324
421.187	591.09442
421.685	518.11185
422.184	483.05863
422.682	378.782
423.18	348.76374
423.678	359.78074
424.176	295.64893
424.674	273.58817
425.172	257.5855
425.669	229.54629
426.167	244.55038
426.664	221.49004
427.161	212.47703
427.659	184.4387
428.156	231.481
428.652	160.39807
429.149	200.47629
429.646	192.42193
430.143	159.37713
430.639	196.45654
431.135	125.31083
431.632	101.23169
432.128	133.31778
432.624	171.43462
433.12	107.24466
433.616	153.33361
434.111	133.31425
434.607	85.20418
435.103	108.22724
435.598	128.26647
436.093	132.30577
436.588	95.2146
437.083	97.21805
437.578	96.22273
438.073	70.17581
438.568	139.33908
439.062	86.18525
439.557	60.14125
440.051	38.08652
440.546	85.19366
441.04	93.22314
441.534	37.09381
442.028	86.20717
442.522	68.16375
443.015	-14.03077
443.509	49.11985
444.002	52.12782
444.496	36.07911
444.989	21.05148
445.482	27.06739
445.975	96.22159
446.468	31.06808
446.961	56.1227
447.454	36.08161
447.947	31.07466
448.439	58.14262
448.931	68.15665
449.424	63.1603
449.916	52.1273
450.408	47.10825
450.9	55.13392
451.392	39.09937
451.884	42.09722
452.375	33.08212
452.867	53.11977
453.358	66.15155
453.849	41.08856
454.341	38.08652
454.832	47.10235
455.323	106.26181
455.814	60.13761
456.304	49.11389
456.795	12.02774
457.285	5.01117
457.776	68.15508
458.266	37.08827
458.756	2.00478
459.247	40.09607
459.737	69.16669
460.226	106.23999
460.716	24.05777
461.206	-4.00968
461.695	15.03731
462.185	42.10006
462.674	59.13507
463.163	95.21206
463.653	34.07308
464.142	76.18343
464.63	29.07056
465.119	37.08644
465.608	52.12203
466.096	29.06348
466.585	48.10991
467.073	-28.06709
467.561	40.09614
468.05	46.10614
468.538	33.0808
469.026	23.05483
469.513	15.03203
470.001	59.13551
470.489	27.06449
470.976	80.18605
471.463	51.12673
471.951	30.07467
472.438	44.10346
472.925	33.07797
473.412	6.01466
473.899	75.17129
474.385	45.1101
474.872	26.06092
475.359	54.13249
475.845	75.15506
476.331	15.03226
476.817	65.1575
477.303	28.06538
477.789	20.04785
478.275	39.09677
478.761	20.0477
479.247	70.15564
479.732	25.06253
480.218	40.10466
480.703	43.10584
481.188	71.15337
481.673	63.14452
482.158	51.1105
482.643	62.15762
483.128	57.1328
483.612	51.12148
484.097	-18.04389
484.581	40.09273
485.066	73.17782
485.55	16.03571
486.034	31.06762
486.518	83.1974
487.002	-32.07883
487.486	0
487.969	6.01467
488.453	53.13146
488.936	33.07461
489.42	41.09099
489.903	9.0225
490.386	-43.09097
490.869	73.15951
491.352	24.05792
491.835	18.03719
492.318	-34.07776
492.8	77.15898
493.283	33.08426
493.765	-2.00494
494.247	48.11172
494.73	35.0778
495.212	8.01909
495.694	24.05685
496.175	9.02178
496.657	44.10423
497.139	48.08286
497.62	46.11064
498.102	9.02253
498.583	-11.02725
499.064	39.08724
499.545	27.06184
500.026	56.12668
500.507	-19.04434
500.988	68.16912
501.469	11.02754
501.949	20.04956
502.43	48.11567
502.91	73.15458
503.39	9.02243
503.87	58.13691
504.35	21.04937
504.83	26.05721
505.31	0
505.79	-24.05749
506.269	-18.04186
506.749	-9.02081
507.228	9.02136
507.707	28.06285
508.187	27.06478
508.666	-4.01
509.145	-10.02366
509.623	-9.02131
510.102	10.02435
510.581	45.10863
511.059	20.05056
511.538	15.03883
512.016	33.07933
512.494	8.01937
512.972	41.09834
513.45	-26.06159
513.928	19.04645
514.406	-30.07464
514.884	12.03111
515.361	46.11018
515.839	17.03947
516.316	-11.02704
516.793	12.03046
517.27	14.03389
517.747	14.03612
518.224	-18.04206
518.701	12.02677
519.178	5.01261
519.654	14.03339
520.131	11.02743
520.607	-32.07933
521.083	-32.07377
521.56	19.04507
522.036	-41.09114
522.512	25.06201
522.987	43.1038
523.463	-12.0288
523.939	12.03
524.414	3.00694
524.89	36.0862
525.365	27.06137
525.84	16.03873
526.315	-38.09362
526.79	31.07031
527.265	74.17047
527.74	-30.07391
528.215	-20.04732
528.689	-28.06249
529.164	-11.02394
529.638	-7.01791
530.112	-18.04292
530.587	6.013
531.061	-29.07127
531.534	6.01459
532.008	30.07328
532.482	30.06933
532.956	-9.02318
533.429	10.02467
533.903	-10.02223
534.376	-46.10393
534.849	-28.06545
535.322	-20.04787
535.795	-46.11312
536.268	18.04387
536.741	-25.06024
537.213	12.02783
537.686	5.01234
538.158	10.02298
538.631	-26.06391
539.103	-18.04132
539.575	16.03329
540.047	56.12224
540.519	3.00724
540.991	9.02213
541.463	-10.02434
541.934	-29.06671
542.406	-14.0341
542.877	2.00457
543.348	24.05832
543.82	-3.00737
544.291	10.02358
544.762	-8.01929
545.233	31.07891
545.703	-29.0658
546.174	-46.10896
546.645	-8.01961
547.115	38.09213
547.585	-25.05852
548.056	-4.00996
548.526	12.02879
548.996	-8.01938
549.466	6.01473
549.935	-15.0364
550.405	-33.07412
550.875	3.00721
551.344	-36.08748
551.814	1.00232
552.283	25.05516
552.752	3.00713
553.221	9.02016
553.69	25.05712
554.159	24.06021
554.628	-32.07419
555.096	-31.08019
555.565	-37.08375
556.033	53.12688
556.502	-35.08608
556.97	34.07635
557.438	-32.07662
557.906	-11.02636
558.374	55.12804
558.842	45.1083
559.31	-26.05944
559.777	1.00247
560.245	21.04866
560.712	25.05779
561.18	-1.00225
561.647	9.02023
562.114	29.06706
562.581	31.07675
563.048	33.07619
563.514	87.21744
563.981	17.03937
564.448	95.21381
564.914	58.135
565.381	58.13297
565.847	68.1584
566.313	47.1095
566.779	90.20185
567.245	79.18253
567.711	85.2027
568.176	44.09933
568.642	87.21799
569.108	89.21768
569.573	95.21862
570.038	133.27472
570.504	152.33796
570.969	138.33696
571.434	157.34277
571.899	152.35433
572.363	160.36047
572.828	216.48224
573.293	158.35582
573.757	224.50423
574.222	190.41578
574.686	210.46982
575.15	222.51872
575.614	251.57206
576.078	191.43761
576.542	223.49283
577.006	192.42352
577.469	197.4723
577.933	246.54127
578.396	200.46199
578.86	163.37661
579.323	248.57719
579.786	218.45908
580.249	278.62885
580.712	220.51909
581.175	199.478
581.637	229.50587
582.1	207.4387
582.563	228.46873
583.025	245.57594
583.487	243.48255
583.95	191.39948
584.412	269.54192
584.874	273.63974
585.336	208.48009
585.797	197.41787
586.259	182.4164
586.721	155.35755
587.182	193.43401
587.643	194.43008
588.105	196.45149
588.566	195.39646
589.027	207.49362
589.488	170.38268
589.949	221.52094
590.41	197.38042
590.87	161.3622
591.331	196.41802
591.791	181.4102
592.252	176.4017
592.712	161.37878
593.172	183.4073
593.632	214.46255
594.092	147.32284
594.552	147.314
595.011	87.19869
595.471	162.36094
595.931	161.3573
596.39	121.28756
596.849	102.23609
597.308	95.20169
597.768	85.21826
598.227	94.22464
598.685	108.24441
599.144	99.2321
599.603	70.16363
600.062	70.14793
600.52	92.20719
600.978	55.13026
601.437	107.24161
601.895	98.20929
602.353	50.11043
602.811	102.22886
603.269	64.15224
603.727	52.12512
604.184	93.21111
604.642	94.22961
605.099	111.25718
605.557	64.15552
606.014	41.08902
606.471	33.08316
606.928	124.27296
607.385	113.28027
607.842	39.09
608.299	84.19566
608.755	87.2097
609.212	53.11875
609.668	65.14689
610.125	73.17549
610.581	43.10121
611.037	67.15018
611.493	32.07513
611.949	92.2228
612.405	32.06591
612.861	-15.03503
613.316	63.15082
613.772	78.17818
614.227	81.19391
614.683	15.03218
615.138	35.08247
615.593	17.03979
616.048	27.06221
616.503	22.05372
616.958	18.04534
617.412	42.10003
617.867	63.14104
618.321	36.07485
618.776	17.03781
619.23	-6.01422
619.684	29.06511
620.138	4.00925
620.592	29.07061
621.046	69.16259
621.5	15.03633
621.954	-25.05622
622.407	49.10852
622.861	10.02445
623.314	20.04558
623.768	77.18095
624.221	28.05556
624.674	-10.02339
625.127	39.09086
625.58	29.0654
626.033	83.18029
626.485	39.0934
626.938	41.09774
627.39	41.09601
627.843	28.06481
628.295	41.09466
628.747	60.14267
629.199	-14.03228
629.651	23.05299
630.103	35.08048
630.555	53.11164
631.006	25.05834
631.458	37.08715
631.909	5.01129
632.361	-7.01631
632.812	29.06732
633.263	62.13419
633.714	11.02348
634.165	-2.00483
634.616	7.01665
635.067	27.05967
635.518	19.04521
635.968	-10.01992
636.419	65.14143
636.869	30.07115
637.319	34.07901
637.769	82.18293
638.219	32.07557
638.669	56.1326
639.119	-1.00241
639.569	15.03611
640.019	18.04176
640.468	34.07635
640.918	-14.03351
641.367	58.12939
641.816	32.07127
642.265	83.192
642.714	26.05977
643.163	60.13816
643.612	89.21598
644.061	39.08356
644.51	59.1348
644.958	46.10156
645.406	41.09789
645.855	22.05352
646.303	73.16753
646.751	55.12693
647.199	64.14437
647.647	68.15702
648.095	38.08666
648.543	55.11136
648.99	60.1435
649.438	41.09473
649.885	64.15865
650.333	53.10284
650.78	41.09897
651.227	64.15575
651.674	50.11389
652.121	7.01726
652.568	34.0833
653.015	13.03226
653.461	28.06666
653.908	62.14163
654.354	34.08094
654.801	-10.02366
655.247	43.09304
655.693	42.10888
656.139	72.17048
656.585	1.0024
657.031	62.14499
657.477	59.12848
657.922	-3.00687
658.368	41.1005
658.813	51.11554
659.259	96.22994
659.704	86.2019
660.149	18.04163
660.594	68.16027
661.039	47.10686
661.484	46.10863
661.929	51.11873
662.373	18.04522
662.818	67.16442
663.262	65.15614
663.707	47.11908
664.151	96.231
664.595	48.11567
665.039	35.08669
665.483	70.17657
665.927	67.15604
666.371	48.1126
666.814	69.16259
667.258	110.26106
667.701	75.15854
668.145	62.15319
668.588	109.2659
669.031	53.12406
669.474	47.1123
669.917	74.1607
670.36	115.28221
670.803	113.26855
671.245	10.02057
671.688	97.23274
672.13	58.13051
672.573	102.25369
673.015	127.30031
673.457	102.21868
673.899	130.30805
674.341	99.235
674.783	68.16157
675.225	92.22347
675.666	121.29076
676.108	97.20666
676.549	116.26519
676.991	117.25197
677.432	76.14933
677.873	107.24013
678.314	99.23201
678.755	149.35859
679.196	70.15848
679.637	89.21004
680.078	97.22314
680.518	137.30707
680.959	57.13463
681.399	142.3431
681.839	119.28313
682.28	140.33993
682.72	122.27317
683.16	144.35069
683.6	161.35566
684.039	177.3528
684.479	133.32118
684.919	182.41456
685.358	97.23751
685.798	164.41513
686.237	147.3414
686.676	162.3554
687.115	194.441
687.554	222.50995
687.993	224.474
688.432	183.40325
688.871	234.51292
689.309	207.47788
689.748	216.42943
690.186	174.39361
690.625	224.50423
691.063	225.51426
691.501	244.57682
691.939	264.63375
692.377	221.51385
692.815	296.68481
693.253	268.60525
693.69	237.49393
694.128	256.59204
694.565	274.61501
695.003	330.79395
695.44	358.78998
695.877	301.66741
696.314	298.58721
696.751	339.71561
697.188	342.73982
697.625	333.694
698.061	383.84955
698.498	355.78057
698.934	331.74033
699.371	331.72873
699.807	374.81802
700.243	380.85008
700.679	398.81378
701.115	424.90541
701.551	428.90881
701.987	396.79171
702.422	461.00013
702.858	447.97373
703.294	562.14106
703.729	497.0912
704.164	448.97529
704.599	506.00986
705.035	485.97885
705.47	488.07118
705.904	572.16986
706.339	560.13699
706.774	550.1446
707.209	532.10463
707.643	556.18329
708.078	571.23343
708.512	526.18714
708.946	593.2367
709.38	612.27667
709.814	579.15076
710.248	628.34949
710.682	648.35845
711.116	622.33256
711.549	605.36928
711.983	626.25966
712.416	651.34461
712.85	669.44293
713.283	604.25159
713.716	640.38945
714.149	616.24406
714.582	664.28289
715.015	591.2805
715.448	640.41655
715.881	613.13581
716.313	574.18191
716.746	614.27291
717.178	606.28091
717.61	645.44155
718.043	592.29167
718.475	666.4036
718.907	631.38238
719.339	582.157
719.77	629.31712
720.202	563.25499
720.634	584.26935
721.065	540.12974
721.497	584.26397
721.928	518.13381
722.359	518.13095
722.79	529.12989
723.221	500.11689
723.652	478.10056
724.083	515.02762
724.514	494.01463
724.945	498.04311
725.375	480.00888
725.806	410.92662
726.236	499.15105
726.666	498.05046
727.096	494.0862
727.526	475.11254
727.956	475.97627
728.386	445.99237
728.816	431.01049
729.246	471.05265
729.675	341.77244
730.105	390.87676
730.534	422.89412
730.964	382.87846
731.393	372.84041
731.822	398.93787
732.251	355.83706
732.68	375.79576
733.109	348.79709
733.537	425.95053
733.966	407.93425
734.395	357.76087
734.823	334.68045
735.251	350.77782
735.68	341.77997
736.108	290.67997
736.536	308.67112
736.964	346.73983
737.392	307.71744
737.82	313.69517
738.247	301.6688
738.675	316.68914
739.102	268.62987
739.53	325.78237
739.957	337.81463
740.384	304.68205
740.811	227.5355
741.238	309.70877
741.665	332.72464
742.092	184.40282
742.519	271.63431
742.945	333.75309
743.372	254.59697
743.798	242.58712
744.225	237.52923
744.651	283.66447
745.077	266.62468
745.503	240.54688
745.929	301.68212
746.355	227.52259
746.781	208.48582
747.207	255.57131
747.632	240.56561
748.058	285.67595
748.483	265.57094
748.908	208.49401
749.334	254.59162
749.759	234.52825
750.184	195.4491
750.609	202.47107
751.033	295.64021
751.458	264.54959
751.883	222.5177
752.307	218.48631
752.732	227.5529
753.156	186.43734
753.58	182.40886
754.005	214.51002
754.429	259.57836
754.853	214.50748
755.277	193.43721
755.7	172.40915
756.124	201.47656
756.548	157.35552
756.971	250.57495
757.394	169.41426
757.818	202.4978
758.241	176.42909
758.664	136.33158
759.087	177.38135
759.51	164.38742
759.933	171.39666
760.356	183.45305
760.778	148.34989
761.201	186.42795
761.623	118.27063
762.046	118.26552
762.468	166.37964
762.89	118.27778
763.312	165.38743
763.734	166.38346
764.156	141.33534
764.578	99.21797
765	161.37598
765.421	125.30902
765.843	109.27665
766.264	116.26455
766.686	71.17146
767.107	150.34884
767.528	158.39095
767.949	137.33483
768.37	175.41556
768.791	126.29048
769.212	82.20156
769.632	126.2848
770.053	72.18343
770.473	102.23759
770.894	98.23303
771.314	108.24541
771.734	71.16084
772.154	130.31943
772.575	102.2266
772.994	141.30523
773.414	80.18422
773.834	58.14083
774.254	73.17309
774.673	161.37745
775.093	114.27462
775.512	75.18036
775.931	80.19745
776.351	85.20619
776.77	84.20059
777.189	91.20934
777.607	99.24492
778.026	135.32342
778.445	58.14399
778.864	51.12599
779.282	57.13207
779.701	45.11027
780.119	52.12886
780.537	37.09003
780.955	51.12562
781.373	68.16319
781.791	144.31312
782.209	39.08558
782.627	50.12877
783.045	65.14311
783.462	88.21783
783.88	32.08129
784.297	68.16641
784.715	35.08849
785.132	45.10546
785.549	45.10965
785.966	104.25262
786.383	87.20843
786.8	113.25161
787.217	110.2536
787.633	74.1813
788.05	47.10604
788.466	65.14623
788.883	87.21713
789.299	3.00698
789.715	49.1165
790.131	72.17364
790.547	66.15953
790.963	55.13242
791.379	50.12322
791.795	51.11144
792.21	30.06784
792.626	19.04362
793.041	38.09116
793.457	40.09556
793.872	33.07479
794.287	75.17618
794.702	55.12915
795.117	32.07802
795.532	87.21263
795.947	25.05772
796.362	38.08614
796.776	96.21097
797.191	77.18257
797.605	33.07652
798.02	41.09684
798.434	114.24198
798.848	94.22644
799.262	21.0509
799.676	70.16498
800.09	18.0432
800.504	37.08678
800.918	10.02236
801.331	9.02253
801.745	3.00669
802.158	37.08908
802.572	36.08481
802.985	20.04659
803.398	65.14905
803.811	-1.00246
804.224	13.03113
804.637	80.18436
805.05	41.09118
805.462	57.13458
805.875	17.04326
806.288	35.08267
806.7	21.05087
807.112	57.12618
807.525	-1.00237
807.937	32.07717
808.349	12.0291
808.761	28.0673
809.173	73.17135
809.584	37.08817
809.996	9.02147
810.408	37.09411
810.819	40.0913
811.231	83.21506
811.642	35.08474
812.053	60.1418
812.464	22.05064
812.875	76.18861
813.286	33.08352
813.697	30.06607
814.108	50.11743
814.519	70.15124
814.929	67.16442
815.34	3.00702
815.75	22.055
816.16	34.08107
816.571	33.08305
816.981	26.05872
817.391	35.081
817.801	29.07032
818.211	18.04155
818.62	57.13322
819.03	13.03091
819.44	0
819.849	25.06051
820.259	4.00988
820.668	20.04807
821.077	46.11178
821.486	16.0369
821.895	-16.03805
822.304	46.11802
822.713	47.10669
823.122	-11.02677
823.531	-30.06856
823.939	74.1742
824.348	76.17612
824.756	30.07243
825.164	24.05832
825.573	13.03178
825.981	4.0096
826.389	44.10668
826.797	65.15998
827.205	89.19678
827.612	42.09957
828.02	8.01814
828.428	2.00496
828.835	13.03364
829.243	33.0754
829.65	61.14753
830.057	10.02345
830.464	59.14038
830.871	77.17756
831.278	58.13505
831.685	10.02149
832.092	10.02353
832.499	55.116
832.905	42.1021
833.312	3.0065
833.718	66.15953
834.124	85.18589
834.531	-14.03411
834.937	27.06753
835.343	49.11281
835.749	17.03781
836.155	15.03826
836.561	-3.0072
836.966	37.08702
837.372	17.04181
837.777	31.07512
838.183	-12.02576
838.588	29.07027
838.993	21.04958
839.399	45.10674
839.804	1.00238
840.209	37.09244
840.613	83.17537
841.018	21.05131
841.423	45.11178
841.828	28.06906
842.232	43.10085
842.637	79.18042
843.041	12.03011
843.445	7.01694
843.849	49.11757
844.253	51.1161
844.657	-4.00989
845.061	72.15916
845.465	-6.01412
845.869	35.07835
846.272	12.02854
846.676	-4.00923
847.079	8.01998
847.483	48.1151
847.886	41.09518
848.289	15.03956
848.692	5.01223
849.095	38.08757
849.498	41.09879
849.901	25.05477
850.304	24.05535
850.707	31.07624
851.109	13.03175
851.512	37.0881
851.914	1.00247
852.316	25.06205
852.718	45.11555
853.121	79.18558
853.523	30.06709
853.925	2.00515
854.326	7.01715
854.728	37.09251
855.13	62.15594
855.531	34.07864
855.933	58.13217
856.334	29.07064
856.736	63.13638
857.137	28.06344
857.538	32.07851
857.939	67.16155
858.34	80.18429
858.741	20.05061
859.142	-1.00232
859.542	43.11076
859.943	-1.00242
860.343	0
860.744	42.09872
861.144	32.07615
861.544	3.00711
861.945	29.07148
862.345	48.11238
862.745	50.12072
863.145	36.08117
863.544	5.01233
863.944	59.13355
864.344	36.08511
864.743	70.16626
865.143	76.18943
865.542	-17.03781
865.941	37.08881
866.34	19.04338
866.74	39.10168
867.139	49.11457
867.537	6.01469
867.936	75.17356
868.335	14.03449
868.734	25.06208
869.132	-14.03118
869.531	30.06908
869.929	3.00666
870.327	44.10148
870.726	65.15382
871.124	34.07579
871.522	17.04186
871.92	23.05489
872.318	-3.00707
872.715	26.06121
873.113	14.03283
873.511	9.02168
873.908	8.01998
874.306	44.10652
874.703	16.03838
875.1	-12.02948
875.497	42.09644
875.894	52.12508
876.291	57.13473
876.688	65.16163
877.085	41.0939
877.482	53.1276
877.878	83.19368
878.275	7.01734
878.671	-37.07756
879.068	85.19561
879.464	58.13441
879.86	13.02973
880.256	4.00941
880.652	27.06646
881.048	33.078
881.444	1.00227
881.84	4.00987
882.236	23.0559
882.631	74.17495
883.027	50.11573
883.422	7.01727
883.817	-8.01975
884.213	43.10662
884.608	19.04618
885.003	-14.03253
885.398	-22.05382
885.793	51.12265
886.188	-19.04597
886.582	19.04676
886.977	9.0205
887.371	30.07279
887.766	-22.05376
888.16	15.03559
888.554	46.10858
888.949	44.1064
889.343	48.11203
889.737	38.09919
890.131	34.0824
890.525	54.13406
890.918	-12.02939
891.312	19.04339
891.706	18.04574
892.099	26.06379
892.492	41.08389
892.886	66.15428
893.279	11.02712
893.672	46.11383
894.065	56.135
894.458	13.03135
894.851	34.07967
895.244	12.02973
895.637	96.22088
896.029	66.15573
896.422	38.0882
896.814	0
897.206	76.17549
897.599	80.18884
897.991	38.08911
898.383	50.11362
898.775	65.14179
899.167	42.09563
899.559	9.02189
899.951	46.10296
900.342	49.11878
900.734	56.1371
901.125	50.12567
901.517	39.09244
901.908	60.13546
902.299	21.04981
902.69	54.12335
903.082	38.08859
903.473	77.17918
903.863	-9.02223
904.254	92.20558
904.645	0
905.036	63.14943
905.426	68.14585
905.817	-33.07849
906.207	-52.11984
906.597	64.14472
906.987	36.08937
907.378	36.08846
907.768	46.11802
908.158	-13.03074
908.547	52.13154
908.937	-19.04694
909.327	64.14843
909.717	39.09383
910.106	2.00463
910.495	-9.02158
910.885	66.16098
911.274	36.08662
911.663	19.04623
912.052	-5.01183
912.441	45.11129
912.83	-1.0022
913.219	59.1481
913.608	73.17182
913.997	56.13643
914.385	69.15752
914.774	40.09347
915.162	53.12265
915.55	68.15596
915.939	42.10313
916.327	18.04308
916.715	63.15695
917.103	13.03037
917.491	32.07603
917.878	45.10608
918.266	-13.03273
918.654	82.20246
919.041	23.05906
919.429	34.07713
919.816	40.09763
920.203	69.16183
920.591	47.11238
920.978	50.11757
921.365	46.11711
921.752	-11.02502
922.139	64.13211
922.525	60.13866
922.912	42.09806
923.299	27.06493
923.685	-31.07838
924.072	-12.02609
924.458	21.05056
924.844	19.0455
925.231	-19.0425
925.617	36.0895
926.003	28.06895
926.389	8.01956
926.774	30.07314
927.16	32.07647
927.546	59.14746
927.931	17.04074
928.317	35.07671
928.702	49.11046
929.088	83.19162
929.473	45.11137
929.858	31.0737
930.243	26.06087
930.628	51.12055
931.013	25.05996
931.398	36.07788
931.783	5.01265
932.167	102.23993
932.552	42.10099
932.937	27.06424
933.321	11.027
933.705	-8.01937
934.09	-11.02644
934.474	50.11251
934.858	30.07551
935.242	28.06215
935.626	34.08459
936.009	14.03661
936.393	90.22229
936.777	-2.00502
937.16	57.14416
937.544	8.01788
937.927	35.0863
938.311	90.20749
938.694	24.06177
939.077	50.11477
939.46	8.01855
939.843	48.09262
940.226	12.02968
940.609	71.15737
940.991	10.02452
941.374	55.1299
941.757	42.09922
942.139	58.12483
942.522	54.12121
942.904	39.09015
943.286	37.09033
943.668	48.12133
944.05	32.07606
944.432	16.038
944.814	47.10998
945.196	36.08528
945.578	43.10002
945.959	21.04684
946.341	53.12217
946.722	22.04938
947.104	76.17333
947.485	83.18366
947.866	60.14656
948.247	44.10812
948.628	-28.06512
949.009	2.00498
949.39	20.04776
949.771	10.02185
950.152	5.01191
950.532	64.15557
950.913	42.0971
951.293	57.15023
951.674	47.10911
952.054	71.17198
952.434	72.17141
952.814	13.02946
953.194	29.0724
953.574	57.13384
953.954	28.06321
954.334	86.20678
954.714	41.09665
955.093	45.10624
955.473	59.14339
955.853	21.05271
956.232	23.06117
956.611	29.06594
956.99	40.09734
957.37	-6.01476
957.749	25.05641
958.128	53.12929
958.506	48.12038
958.885	20.04862
959.264	53.12649
959.643	77.16775
960.021	54.12954
960.4	63.13574
960.778	29.0677
961.156	25.06026
961.535	2.00445
961.913	88.1968
962.291	29.07298
962.669	7.01731
963.047	40.09909
963.424	36.09003
963.802	20.04763
964.18	21.05044
964.557	105.22701
964.935	72.16235
965.312	49.12388
965.69	18.04312
966.067	3.00698
966.444	-8.01874
966.821	100.24645
967.198	26.05994
967.575	21.04943
967.952	31.06991
968.329	76.1778
968.705	88.17945
969.082	54.13538
969.458	37.08668
969.835	47.10976
970.211	68.16956
970.587	64.15306
970.963	12.02955
971.339	0
971.715	66.15827
972.091	60.14136
972.467	36.08508
972.843	64.15423
973.219	73.16517
973.594	19.04822
973.97	-18.04037
974.345	37.08552
974.721	-3.00692
975.096	44.10318
975.471	48.1085
975.846	0
976.221	37.0908
976.596	63.14712
976.971	68.16195
977.346	55.1211
977.72	28.06852
978.095	1.00251
978.469	24.05485
978.844	53.12707
979.218	45.1053
979.593	31.071
979.967	7.01615
980.341	27.06002
980.715	45.10945
981.089	53.12726
981.463	-14.03113
981.837	44.10471
982.21	3.00654
982.584	35.0817
982.957	15.0365
983.331	19.04252
983.704	66.15736
984.078	26.06166
984.451	-33.07861
984.824	18.04264
985.197	-5.01157
985.57	-7.01675
985.943	7.01639
986.316	27.06273
986.688	32.07401
987.061	73.16356
987.434	67.17024
987.806	6.01384
988.179	-7.01591
988.551	53.12852
988.923	8.01893
989.295	63.14984
989.667	76.17605
990.039	55.13282
990.411	-8.01749
990.783	38.08245
991.155	3.00701
991.527	36.08339
991.898	54.12989
992.27	-5.01213
992.641	47.11247
993.012	-15.03322
993.384	30.06836
993.755	52.12834
994.126	43.10022
994.497	24.05683
994.868	-1.00219
995.239	25.05813
995.61	52.12588
995.98	-1.00235
996.351	24.05782
996.722	81.18081
997.092	31.07097
997.462	23.0524
997.833	19.0429
998.203	39.08925
998.573	52.12489
998.943	41.09269
999.313	19.04418
999.683	45.10397
1000.053	5.0108
1000.423	14.03255
1000.792	-7.01743
1001.162	28.06586
1001.531	68.16064
1001.901	30.07164
1002.27	3.00631
1002.639	19.04656
1003.009	68.1537
1003.378	13.03227
1003.747	25.05634
1004.116	19.04369
1004.485	-3.00693
1004.853	-20.04858
1005.222	-39.09415
1005.591	64.14431
1005.959	36.07801
1006.328	62.13332
1006.696	16.03702
1007.064	-14.03387
1007.433	5.01199
1007.801	8.01861
1008.169	18.04341
1008.537	53.11144
1008.905	55.12333
1009.273	13.03074
1009.64	57.13191
1010.008	19.04348
1010.375	46.10487
1010.743	43.09157
1011.11	84.19296
1011.478	61.14569
1011.845	31.06946
1012.212	62.13528
1012.579	31.07339
1012.946	23.05194
1013.313	45.10145
1013.68	79.16692
1014.047	7.01609
1014.414	15.03404
1014.78	18.04339
1015.147	63.14342
1015.513	39.09015
1015.88	31.07582
1016.246	-5.01179
1016.612	64.13786
1016.978	73.17195
1017.344	42.09995
1017.71	48.11124
1018.076	20.04478
1018.442	29.0723
1018.808	65.15721
1019.174	-29.0704
1019.539	12.0253
1019.905	21.04792
1020.27	29.06873
1020.636	22.04995
1021.001	100.2276
1021.366	40.09262
1021.731	89.22196
1022.096	37.09087
1022.461	88.19818
1022.826	69.15765
1023.191	31.07868
1023.556	2.00449
1023.92	10.02349
1024.285	37.08563
1024.649	34.07948
1025.014	-11.02608
1025.378	62.15043
1025.742	7.01664
1026.107	30.06462
1026.471	53.11708
1026.835	63.14938
1027.199	14.03257
1027.562	43.09436
1027.926	21.0491
1028.29	37.09026
1028.654	59.12848
1029.017	29.06881
1029.381	11.02544
1029.744	50.12268
1030.107	49.11073
1030.471	59.13572
1030.834	-3.00646
1031.197	3.00696
1031.56	1.00226
1031.923	14.03514
1032.286	72.16062
1032.648	43.09686
1033.011	55.12226
1033.374	58.12826
1033.736	-31.0798
1034.099	25.0587
1034.461	31.07619
1034.823	28.06753
1035.185	1.00241
1035.548	50.11716
1035.91	35.08019
1036.272	78.16925
1036.634	39.09147
1036.995	51.11337
1037.357	28.06592
1037.719	27.06328
1038.08	99.22455
1038.442	6.0137
1038.803	9.02046
1039.165	-6.01461
1039.526	42.09737
1039.887	17.03909
1040.248	62.1489
1040.609	21.04939
1040.97	20.0469
1041.331	64.15645
1041.692	45.10248
1042.053	12.02604
1042.413	20.0444
1042.774	54.12593
1043.134	47.10535
1043.495	18.04366
1043.855	102.23731
1044.215	17.04043
1044.576	14.03251
1044.936	48.10415
1045.296	63.1503
1045.656	35.08148
1046.016	32.07363
1046.375	37.0861
1046.735	53.11679
1047.095	55.12282
1047.454	18.03589
1047.814	50.11509
1048.173	42.09443
1048.533	40.0875
1048.892	18.04181
1049.251	12.02885
1049.61	45.10641
1049.969	-4.00907
1050.328	36.07428
1050.687	2.00467
1051.046	29.06754
1051.405	42.09922
1051.763	55.12201
1052.122	-18.04353
1052.48	36.08508
1052.839	40.09174
1053.197	17.0384
1053.555	25.05319
1053.914	13.03054
1054.272	-34.07801
1054.63	-19.04522
1054.988	76.17354
1055.345	11.02228
1055.703	31.07177
1056.061	32.08043
1056.419	48.12172
1056.776	9.02065
1057.134	-31.0682
1057.491	58.13919
1057.848	11.02626
1058.206	38.08396
1058.563	37.07742
1058.92	51.11135
1059.277	49.11578
1059.634	-5.01117
1059.991	77.17586
1060.348	26.05651
1060.704	68.15833
1061.061	67.1446
1061.418	30.07002
1061.774	47.11127
1062.131	68.17568
1062.487	24.05345
1062.843	46.10993
1063.199	8.01924
1063.555	-2.00452
1063.911	4.00971
1064.267	93.17812
1064.623	64.15031
1064.979	-18.03962
1065.335	12.02732
1065.691	-14.03193
1066.046	17.03562
1066.402	6.013
1066.757	46.11161
1067.112	60.13993
1067.468	38.08726
1067.823	6.01359
1068.178	34.07826
1068.533	46.10669
1068.888	43.09765
1069.243	15.03572
1069.598	7.01628
1069.952	99.21532
1070.307	13.03125
1070.662	66.15143
1071.016	58.12553
1071.371	87.18817
1071.725	25.0568
1072.079	47.10842
1072.434	31.07268
1072.788	-2.00453
1073.142	67.15751
1073.496	32.07254
1073.85	46.10147
1074.203	60.13915
1074.557	66.17104
1074.911	62.13974
1075.265	44.09751
1075.618	49.11466
1075.971	51.11563
1076.325	44.10848
1076.678	3.00661
1077.031	-45.09658
1077.385	70.14495
1077.738	-25.05437
1078.091	-9.01995
1078.444	21.04608
1078.796	73.17202
1079.149	18.04328
1079.502	54.12276
1079.855	37.08266
1080.207	59.13832
1080.56	8.02019
1080.912	55.12763
1081.264	49.1134
1081.617	46.10787
1081.969	24.05882
1082.321	5.01174
1082.673	41.09095
1083.025	35.07894
1083.377	61.13633
1083.728	57.12576
1084.08	28.06679
1084.432	9.02082
1084.783	9.01982
1085.135	43.10408
1085.486	37.08146
1085.838	52.12313
1086.189	20.04719
1086.54	21.04792
1086.891	64.15831
1087.242	54.12821
1087.593	21.04833
1087.944	73.15816
1088.295	52.11201
1088.646	69.16284
1088.996	11.02573
1089.347	-14.03306
1089.698	61.1392
1090.048	-2.00501
1090.398	49.10743
1090.749	28.0636
1091.099	65.15868
1091.449	39.09379
1091.799	47.11286
1092.149	30.0715
1092.499	26.06102
1092.849	13.03202
1093.199	45.10715
1093.548	67.15536
1093.898	3.00723
1094.248	-3.0074
1094.597	-3.00754
1094.947	49.12644
1095.296	43.10255
1095.645	16.04008
1095.994	43.09884
1096.343	83.20006
1096.692	59.15187
1097.041	50.13309
1097.39	10.02408
1097.739	3.00756
1098.088	34.08741
1098.437	32.08261
1098.785	2.0052
1099.134	-5.01269
1099.482	29.07774
1099.83	30.07627
1100.179	70.17896
1100.527	-53.13652
1100.875	7.01814
1101.223	20.0519
1101.571	-10.0269
1101.919	33.08542
1102.267	-8.02225
1102.615	6.01926
1102.962	-4.01284
1103.31	8.02568
1103.658	-6.01925
