Data from N1R0 105C sample 3_Subt2__2__13-39-11-638.txt Node

Date: Tue Sep 16 13:39:11 PDT 2025
User: uwsun
Spectrometer: HDX01956
Trigger mode: 0
Integration Time (sec): 5.000000E-1
Scans to average: 1
Nonlinearity correction enabled: true
Boxcar width: 0
Storing dark spectrum: false
XAxis mode: Wavelengths
Number of Pixels in Spectrum: 2068
>>>>>Begin Spectral Data<<<<<
194.03	-3.00871
194.578	7.02274
195.127	-1.00321
195.676	-6.01932
196.225	15.03996
196.773	-25.07014
197.321	9.02516
197.87	2.00524
198.418	3.00791
198.966	31.08316
199.513	59.15224
200.061	-3.00782
200.609	46.12321
201.156	-22.04989
201.704	-1.00258
202.251	-14.03815
202.798	10.02649
203.345	44.11102
203.892	16.04136
204.438	-10.02443
204.985	31.07531
205.532	-31.08384
206.078	-31.07815
206.624	48.12267
207.17	47.11251
207.716	16.04023
208.262	25.05108
208.808	-5.01292
209.354	43.10848
209.899	-6.0155
210.445	31.07921
210.99	36.08977
211.535	39.09397
212.08	-15.03595
212.625	21.0536
213.17	14.03651
213.715	35.08193
214.259	42.10018
214.804	-8.02015
215.348	26.06164
215.892	12.02989
216.436	-22.05187
216.98	-2.00452
217.524	79.19142
218.068	33.08492
218.612	41.10616
219.155	24.05806
219.698	-18.04412
220.242	0
220.785	42.10056
221.328	60.1501
221.871	69.1778
222.414	19.04788
222.956	2.00489
223.499	6.01371
224.041	-15.03521
224.583	6.01297
225.126	17.03812
225.668	-14.03486
226.21	57.14596
226.751	36.08174
227.293	17.03923
227.835	35.08713
228.376	-12.02799
228.918	8.02029
229.459	10.02543
230	16.0392
230.541	37.08644
231.082	29.0718
231.622	-27.06281
232.163	-6.01479
232.704	36.09145
233.244	10.02528
233.784	22.05418
234.324	44.10071
234.864	2.00462
235.404	-6.01444
235.944	-23.05556
236.484	52.13121
237.023	7.01683
237.563	78.18283
238.102	14.03375
238.641	-9.02309
239.18	6.01439
239.719	-14.03583
240.258	8.01837
240.797	16.03895
241.335	16.03958
241.874	10.02004
242.412	52.12796
242.95	38.09327
243.488	-6.0138
244.026	39.09222
244.564	25.05261
245.102	84.19196
245.64	-11.02686
246.177	-50.11486
246.715	48.11681
247.252	28.06463
247.789	71.13335
248.326	5.01231
248.863	56.12503
249.4	-11.02559
249.936	74.157
250.473	69.16486
251.009	-5.01173
251.546	39.08871
252.082	-48.1073
252.618	5.01146
253.154	-5.01232
253.69	33.07531
254.226	32.0779
254.761	25.05721
255.297	32.07118
255.832	29.07019
256.367	5.01201
256.903	51.11521
257.438	32.07624
257.972	19.0432
258.507	11.02577
259.042	-9.02013
259.576	54.12146
260.111	-23.05428
260.645	8.01771
261.179	27.06444
261.713	53.12046
262.247	-2.00468
262.781	33.07104
263.315	5.01237
263.849	28.07123
264.382	26.06083
264.915	31.07469
265.449	-18.04505
265.982	15.03481
266.515	61.15125
267.048	35.0757
267.58	-20.04443
268.113	-6.01334
268.646	-20.05014
269.178	25.05698
269.71	66.14797
270.243	45.106
270.775	55.14275
271.307	-22.05366
271.838	26.06247
272.37	27.06724
272.902	8.01853
273.433	98.2188
273.965	46.11324
274.496	20.05041
275.027	56.14105
275.558	49.12127
276.089	6.01531
276.62	10.02566
277.15	6.01505
277.681	-6.01327
278.211	22.05458
278.741	18.04092
279.272	32.07466
279.802	-1.00254
280.332	6.0145
280.861	3.00733
281.391	13.03023
281.921	10.02439
282.45	23.05798
282.98	39.10296
283.509	39.09043
284.038	-7.01646
284.567	56.13229
285.096	60.14738
285.625	-49.11416
286.153	73.17642
286.682	17.03997
287.21	15.03643
287.739	59.14119
288.267	26.06452
288.795	18.04778
289.323	10.02404
289.851	17.0409
290.378	-24.05518
290.906	25.06237
291.433	58.1463
291.961	50.11624
292.488	22.05555
293.015	23.05548
293.542	54.14067
294.069	81.20259
294.596	21.05228
295.122	36.08797
295.649	38.08481
296.175	26.06375
296.702	40.09952
297.228	32.0784
297.754	22.05066
298.28	41.09624
298.806	31.07613
299.332	6.01381
299.857	34.07895
300.383	43.10972
300.908	47.11747
301.433	94.23226
301.958	18.04224
302.483	-10.0254
303.008	46.11628
303.533	-23.06082
304.058	25.05951
304.582	18.04353
305.107	-14.0373
305.631	56.12911
306.155	10.0239
306.679	19.04576
307.203	65.15323
307.727	22.05332
308.251	62.15504
308.775	90.22123
309.298	19.04687
309.822	-5.01287
310.345	40.09753
310.868	64.15668
311.391	61.15235
311.914	21.05372
312.437	51.11887
312.96	22.05308
313.482	33.07918
314.005	35.0889
314.527	-16.04262
315.049	76.1945
315.571	11.0255
316.093	56.14085
316.615	-18.04449
317.137	13.0292
317.659	26.06436
318.18	-4.0098
318.702	65.15495
319.223	-39.08309
319.744	8.01856
320.265	6.01501
320.786	77.19488
321.307	28.07063
321.828	-2.00466
322.348	55.13192
322.869	41.09983
323.389	334.63122
323.909	12.02821
324.43	8.01963
324.95	60.14009
325.47	67.16873
325.989	23.05598
326.509	74.16897
327.029	35.08206
327.548	2.00468
328.067	30.07456
328.587	55.14039
329.106	-6.01398
329.625	49.12954
330.144	69.16354
330.662	51.12246
331.181	84.20136
331.7	-20.04814
332.218	28.06267
332.736	67.1599
333.255	39.09415
333.773	17.04127
334.291	69.17538
334.808	56.12931
335.326	-14.03265
335.844	25.06051
336.361	113.29329
336.879	86.20591
337.396	58.1442
337.913	45.1067
338.43	77.17727
338.947	21.05161
339.464	30.0669
339.981	25.06094
340.497	31.07807
341.014	81.20061
341.53	40.09281
342.046	108.2728
342.562	28.07148
343.078	49.1182
343.594	43.10478
344.11	89.21671
344.626	61.15685
345.141	80.18686
345.657	59.13697
346.172	56.13816
346.687	31.07328
347.202	86.20056
347.717	52.12697
348.232	60.15237
348.747	91.21418
349.261	35.07948
349.776	96.23205
350.29	51.1305
350.805	73.18357
351.319	59.14049
351.833	100.2344
352.347	74.17847
352.861	67.16088
353.374	82.1904
353.888	98.2432
354.401	57.13317
354.915	71.16457
355.428	56.14251
355.941	49.11717
356.454	10.02308
356.967	14.03373
357.48	75.17391
357.993	85.21237
358.505	21.05251
359.018	69.17239
359.53	82.2038
360.042	85.19475
360.554	148.36433
361.066	51.12691
361.578	115.25872
362.09	46.11228
362.602	111.25207
363.113	111.26521
363.625	70.16299
364.136	50.11325
364.647	78.18882
365.158	89.21119
365.669	69.16826
366.18	58.13983
366.691	86.19288
367.201	87.21216
367.712	68.15964
368.222	62.14652
368.733	60.13446
369.243	97.22153
369.753	48.11374
370.263	101.24758
370.773	51.12691
371.282	63.15392
371.792	72.17081
372.301	39.09659
372.811	106.28027
373.32	105.23235
373.829	34.08243
374.338	55.12586
374.847	79.18637
375.356	25.06071
375.865	118.25811
376.373	83.19299
376.882	91.23326
377.39	95.23261
377.898	47.11806
378.407	67.15604
378.915	134.29757
379.423	71.16873
379.93	197.45678
380.438	82.2003
380.946	77.18285
381.453	122.29556
381.96	138.3318
382.468	121.28767
382.975	121.2988
383.482	87.19893
383.989	164.42
384.495	203.47144
385.002	159.33727
385.509	180.4285
386.015	165.34113
386.521	258.57743
387.028	173.39302
387.534	157.33797
388.04	249.58853
388.546	185.40766
389.051	211.46085
389.557	206.47169
390.063	257.5682
390.568	260.6094
391.073	188.41453
391.578	299.70532
392.084	302.66475
392.589	285.59925
393.093	405.91513
393.598	393.8554
394.103	390.87856
394.607	461.03365
395.112	462.05774
395.616	513.14951
396.12	486.03273
396.624	604.29395
397.128	658.42797
397.632	723.51487
398.136	730.49553
398.639	802.65578
399.143	890.90727
399.646	1059.07963
400.15	1121.12549
400.653	1256.25751
401.156	1412.40939
401.659	1695.95007
402.162	2080.0605
402.664	2669.53024
403.167	3892.45663
403.67	7828.96767
404.172	25271.12977
404.674	59346.9559
405.176	63738.15102
405.678	63977.72923
406.18	64011.81569
406.682	63863.44694
407.184	63926.60148
407.686	28591.91478
408.187	11638.78288
408.688	6857.92265
409.19	4754.60944
409.691	3739.5082
410.192	3156.53126
410.693	2740.9766
411.194	2534.16432
411.694	2347.32495
412.195	2069.39294
412.696	1953.02822
413.196	1761.48696
413.696	1681.86631
414.196	1736.63015
414.696	1764.06604
415.196	1553.64942
415.696	1445.42478
416.196	1195.24099
416.695	924.85766
417.195	772.63791
417.694	794.44597
418.194	682.29065
418.693	687.40575
419.192	619.32527
419.691	588.24878
420.19	596.30644
420.688	609.35766
421.187	544.019
421.685	574.21742
422.184	523.13682
422.682	378.782
423.18	383.83434
423.678	289.63787
424.176	316.69206
424.674	330.70226
425.172	284.64347
425.669	260.61655
426.167	249.56108
426.664	242.53425
427.161	228.51135
427.659	193.45936
428.156	237.49284
428.652	166.41255
429.149	184.43954
429.646	200.43877
430.143	146.34717
430.639	167.39121
431.135	151.3737
431.632	149.3385
432.128	164.38952
432.624	139.35529
433.12	100.22898
433.616	83.18366
434.111	101.24012
434.607	79.18998
435.103	79.16728
435.598	111.23196
436.093	83.19413
436.588	139.31117
437.083	102.22905
437.578	127.29285
438.073	82.2055
438.568	105.25777
439.062	69.14918
439.557	100.23358
440.051	60.13601
440.546	22.05076
441.04	84.20189
441.534	19.04833
442.028	91.21901
442.522	44.10644
443.015	23.05015
443.509	42.10286
444.002	22.05438
444.496	52.11389
444.989	43.10498
445.482	-10.02512
445.975	53.12338
446.468	34.07462
446.961	49.10752
447.454	38.0861
447.947	29.06987
448.439	69.16933
448.931	64.14755
449.424	97.24532
449.916	42.10301
450.408	70.16048
450.9	40.09767
451.392	19.04858
451.884	-5.01168
452.375	25.0623
452.867	60.1354
453.358	16.03711
453.849	51.10993
454.341	52.11807
454.832	15.03289
455.323	42.10495
455.814	-17.03959
456.304	9.02108
456.795	21.04846
457.285	37.08215
457.776	40.09174
458.266	13.03116
458.756	-2.00478
459.247	5.01209
459.737	26.06332
460.226	86.1955
460.716	3.00725
461.206	29.06977
461.695	1.00249
462.185	36.08587
462.674	-15.03485
463.163	61.13712
463.653	68.14509
464.142	44.10684
464.63	16.03902
465.119	-5.01178
465.608	11.02602
466.096	1.0022
466.585	37.08491
467.073	-22.05266
467.561	7.01693
468.05	9.02092
468.538	0
469.026	-11.02639
469.513	27.0575
470.001	1.00232
470.489	10.02396
470.976	96.22256
471.463	42.10454
471.951	2.005
472.438	30.07073
472.925	15.03557
473.412	8.01953
473.899	61.13971
474.385	6.01479
474.872	-9.02123
475.359	-12.0298
475.845	4.0084
476.331	4.00862
476.817	35.08529
477.303	55.12774
477.789	-29.07003
478.275	6.01498
478.761	30.07142
479.247	5.01127
479.732	9.02258
480.218	36.09426
480.703	-22.0548
481.188	39.08482
481.673	17.03936
482.158	45.09762
482.643	65.16515
483.128	36.08422
483.612	62.14737
484.097	27.06528
484.581	27.06276
485.066	47.11504
485.55	35.0778
486.034	47.10218
486.518	71.16925
487.002	-62.15358
487.486	-8.01959
487.969	4.00979
488.453	-11.0276
488.936	11.02498
489.42	26.05788
489.903	-10.02509
490.386	-29.06117
490.869	18.03979
491.352	-19.04623
491.835	-36.07528
492.318	11.02493
492.8	16.03349
493.283	30.07664
493.765	-17.04212
494.247	-3.00705
494.73	3.00671
495.212	-44.10603
495.694	49.11551
496.175	23.05552
496.657	19.04522
497.139	3.00524
497.62	27.06518
498.102	18.045
498.583	-40.09963
499.064	18.04044
499.545	3.0069
500.026	46.10427
500.507	-5.01164
500.988	90.22294
501.469	-17.04278
501.949	25.0619
502.43	6.01457
502.91	63.1337
503.39	-13.03253
503.87	20.04756
504.35	-47.11196
504.83	1.00221
505.31	-14.03411
505.79	-58.13983
506.269	-29.06759
506.749	9.02074
507.228	-5.0119
507.707	31.06954
508.187	33.07909
508.666	23.05721
509.145	-44.10479
509.623	32.07519
510.102	-6.01466
510.581	30.07262
511.059	19.04804
511.538	-23.05992
512.016	18.04339
512.494	-15.03647
512.972	-13.0315
513.45	-14.03309
513.928	4.00981
514.406	-30.07464
514.884	-8.02081
515.361	0
515.839	-14.0327
516.316	20.04889
516.793	-1.00254
517.27	-38.09289
517.747	12.03097
518.224	3.00698
518.701	-21.04717
519.178	-6.01516
519.654	-21.05043
520.131	-26.06528
520.607	-72.17979
521.083	-68.1579
521.56	-31.07424
522.036	-38.08442
522.512	17.04223
522.987	-3.0073
523.463	-39.09407
523.939	45.11182
524.414	-22.05112
524.89	8.01926
525.365	-12.02749
525.84	2.00485
526.315	-4.00979
526.79	-27.06196
527.265	18.04193
527.74	-14.03439
528.215	-22.05207
528.689	-39.08724
529.164	-72.15876
529.638	2.00511
530.112	-58.13935
530.587	-27.0589
531.061	-14.03431
531.534	-32.07834
532.008	-7.01722
532.482	-31.07251
532.956	-70.18222
533.429	3.00741
533.903	-22.04904
534.376	-42.09482
534.849	-18.04199
535.322	-27.06471
535.795	-59.14543
536.268	17.04144
536.741	-46.11127
537.213	9.02089
537.686	-10.02475
538.158	0
538.631	-41.10106
539.103	-56.12952
539.575	-26.05461
540.047	-13.02879
540.519	-12.02904
540.991	19.04663
541.463	-39.09546
541.934	-3.00687
542.406	-36.08803
542.877	-19.04359
543.348	-19.04654
543.82	-20.04931
544.291	-10.02367
544.762	-19.04592
545.233	23.05863
545.703	-59.13469
546.174	-20.04714
546.645	-42.10358
547.115	-18.0441
547.585	-28.06558
548.056	-4.00996
548.526	-17.04101
548.996	-47.1147
549.466	-37.09157
549.935	-16.03884
550.405	-95.21609
550.875	-20.04829
551.344	-100.2459
551.814	-23.05369
552.283	25.05516
552.752	-43.10306
553.221	-23.05187
553.69	-31.07163
554.159	-19.04804
554.628	-5.01153
555.096	-55.14285
555.565	-33.07464
556.033	41.09838
556.502	-47.11585
556.97	-19.04313
557.438	-74.1786
557.906	-2.00479
558.374	-36.08531
558.842	-42.10275
559.31	-33.07555
559.777	-30.07467
560.245	-58.13649
560.712	-24.05601
561.18	-56.12741
561.647	-62.1414
562.114	-10.0233
562.581	-31.07762
563.048	4.00929
563.514	2.00508
563.981	-30.07013
564.448	-23.05302
564.914	-21.04964
565.381	-7.01626
565.847	-51.12158
566.313	-53.12591
566.779	9.02052
567.245	-80.19067
567.711	-74.18183
568.176	-36.0826
568.642	-23.05877
569.108	-27.06746
569.573	-57.13515
570.038	-68.14679
570.504	-12.02759
570.969	-82.20838
571.434	-14.03167
571.899	-16.03853
572.363	-30.07021
572.828	-30.07038
573.293	-48.11265
573.757	-14.03305
574.222	-57.13123
574.686	8.01864
575.15	-32.07849
575.614	4.00957
576.078	-38.09106
576.542	-65.15227
577.006	-58.13462
577.469	1.00249
577.933	-11.02551
578.396	-56.13592
578.86	-26.06232
579.323	-35.08599
579.786	1.00221
580.249	40.09486
580.712	-77.1921
581.175	-52.13084
581.637	-90.21203
582.1	-62.13911
582.563	-64.14023
583.025	-38.09424
583.487	-15.03158
583.95	-55.1213
584.412	-29.06243
584.874	-44.10947
585.336	-15.03616
585.797	-29.06455
586.259	-31.07396
586.721	-9.02144
587.182	-51.12041
587.643	-36.08363
588.105	-37.08918
588.566	-41.08784
589.027	-12.02981
589.488	-5.01166
589.949	46.11211
590.41	9.01816
590.87	-12.02795
591.331	41.09039
591.791	-23.05428
592.252	6.01416
592.712	-43.10517
593.172	-56.1308
593.632	56.12513
594.092	-29.06604
594.552	0
595.011	-10.02328
595.471	58.13201
595.931	43.09777
596.39	26.06292
596.849	-22.05217
597.308	-5.01085
597.768	75.19292
598.227	17.04122
598.685	26.05982
599.144	33.07837
599.603	14.03309
600.062	-1.00215
600.52	78.17616
600.978	34.08085
601.437	68.15477
601.895	88.18834
602.353	95.20785
602.811	116.25952
603.269	103.24318
603.727	104.24778
604.184	140.31477
604.642	133.32251
605.099	165.37819
605.557	146.3493
606.014	117.24992
606.471	181.444
606.928	192.4166
607.385	185.4528
607.842	139.31438
608.299	196.44645
608.755	214.50336
609.212	273.58388
609.668	243.52916
610.125	299.68776
610.581	292.65379
611.037	267.57377
611.493	299.66518
611.949	311.72193
612.405	337.64641
612.861	292.64058
613.316	338.76642
613.772	329.71338
614.227	401.90093
614.683	379.74911
615.138	355.78418
615.593	403.87157
616.048	394.841
616.503	399.90525
616.958	369.8704
617.412	441.96922
617.867	359.7545
618.321	431.81716
618.776	398.81489
619.23	390.85337
619.684	375.78187
620.138	416.88256
620.592	383.87037
621.046	444.96946
621.5	398.89401
621.954	372.7682
622.407	335.69754
622.861	387.8791
623.314	380.80268
623.768	411.90254
624.221	339.62389
624.674	412.88322
625.127	389.84346
625.58	364.7645
626.033	364.74325
626.485	422.93623
626.938	429.94602
627.39	421.91205
627.843	413.8825
628.295	427.90965
628.747	424.93715
629.199	442.92585
629.651	424.89835
630.103	442.93321
630.555	476.90932
631.006	473.00397
631.458	473.01706
631.909	451.92527
632.361	420.89571
632.812	518.08364
633.263	549.06261
633.714	540.01847
634.165	555.19626
634.616	558.18343
635.067	639.22949
635.518	675.39986
635.968	697.15991
636.419	743.38199
636.869	718.47291
637.319	787.55326
637.769	788.4989
638.219	875.72395
638.669	850.69933
639.119	906.80139
639.569	931.84644
640.019	1071.96299
640.468	1066.88492
640.918	1069.02173
641.367	1142.97588
641.816	1277.11116
642.265	1280.25293
642.714	1356.28623
643.163	1473.43477
643.612	1472.63406
644.061	1493.20806
644.51	1620.54355
644.958	1701.47449
645.406	1753.81198
645.855	1698.82586
646.303	1827.73348
646.751	1821.73729
647.199	1947.73258
647.647	2029.88393
648.095	2059.8179
648.543	2145.36998
648.99	2244.15461
649.438	2102.9011
649.885	2204.32434
650.333	2292.22888
650.78	2291.20563
651.227	2298.27457
651.674	2306.92704
652.121	2331.30366
652.568	2328.29424
653.015	2264.3117
653.461	2300.12407
653.908	2347.9661
654.354	2271.11782
654.801	2268.04209
655.247	2249.66393
655.693	2174.52792
656.139	2246.11655
656.585	2196.09682
657.031	2159.0048
657.477	2135.66886
657.922	2053.79699
658.368	2110.1891
658.813	2000.76925
659.259	2091.11471
659.704	2045.9843
660.149	1946.7986
660.594	1982.94738
661.039	1940.74722
661.484	1896.8795
661.929	1907.82977
662.373	1754.01056
662.818	1804.99253
663.262	1838.92604
663.707	1838.14933
664.151	1785.91505
664.595	1721.82809
665.039	1723.9338
665.483	1718.03362
665.927	1762.73914
666.371	1702.70417
666.814	1743.77235
667.258	1712.80624
667.701	1732.36392
668.145	1721.94278
668.588	1704.90966
669.031	1675.6766
669.474	1646.72527
669.917	1765.48028
670.36	1714.94852
670.803	1797.88654
671.245	1636.16478
671.688	1701.83013
672.13	1701.55299
672.573	1725.00477
673.015	1730.82048
673.457	1794.47372
673.899	1725.82697
674.341	1772.84992
674.783	1730.79409
675.225	1715.88915
675.666	1678.83314
676.108	1734.4093
676.549	1687.64459
676.991	1658.40885
677.432	1699.10601
677.873	1649.53867
678.314	1732.76475
678.755	1728.90733
679.196	1663.55453
679.637	1564.63083
680.078	1660.6308
680.518	1574.4918
680.959	1596.64183
681.399	1567.75865
681.839	1600.71784
682.28	1498.69988
682.72	1508.41758
683.16	1556.77803
683.6	1538.42738
684.039	1459.05999
684.479	1454.62553
684.919	1507.51453
685.358	1384.56682
685.798	1407.7555
686.237	1407.45002
686.676	1331.2034
687.115	1414.41924
687.554	1365.41504
687.993	1379.18746
688.432	1301.19594
688.871	1385.30215
689.309	1330.38013
689.748	1341.97958
690.186	1292.2553
690.625	1306.28699
691.063	1292.31539
691.501	1333.47985
691.939	1290.48402
692.377	1240.29781
692.815	1368.4871
693.253	1250.25467
693.69	1268.04166
694.128	1242.30494
694.565	1216.19868
695.003	1265.49546
695.44	1276.27379
695.877	1240.21052
696.314	1150.81729
696.751	1234.09517
697.188	1209.1302
697.625	1111.91648
698.061	1207.21603
698.498	1200.16855
698.934	1103.07102
699.371	1127.06456
699.807	1141.08924
700.243	1130.13378
700.679	1049.82933
701.115	1137.0517
701.551	1029.89813
701.987	1036.7654
702.422	1135.11151
702.858	1062.00894
703.294	1087.94655
703.729	1036.0177
704.164	985.89834
704.599	964.72266
705.035	1033.82309
705.47	973.91997
705.904	924.74104
706.339	986.81004
706.774	924.76486
707.209	987.84408
707.643	908.78613
708.078	926.84974
708.512	879.84202
708.946	871.70562
709.38	940.81971
709.814	885.63525
710.248	903.82663
710.682	879.74967
711.116	884.78775
711.549	815.76635
711.983	831.59424
712.416	885.73308
712.85	819.71017
713.283	780.55346
713.716	809.69374
714.149	744.45901
714.582	783.47025
715.015	720.51754
715.448	748.61864
715.881	673.2286
716.313	683.37233
716.746	728.47127
717.178	695.44075
717.61	711.56763
718.043	731.5485
718.475	699.46259
718.907	665.44654
719.339	645.26369
719.77	687.42034
720.202	623.37172
720.634	630.35611
721.065	606.24958
721.497	689.45817
721.928	558.21122
722.359	605.29693
722.79	601.26395
723.221	557.22982
723.652	611.36998
724.083	549.08697
724.514	607.21548
724.945	581.195
725.375	580.19268
725.806	535.17625
726.236	563.28238
726.666	576.19455
727.096	512.1216
727.526	551.27167
727.956	539.09005
728.386	538.17468
728.816	510.17763
729.246	565.23867
729.675	486.06634
730.105	489.07496
730.534	491.02275
730.964	476.07194
731.393	518.13333
731.822	531.2167
732.251	467.07498
732.68	448.93551
733.109	471.05006
733.537	516.13038
733.966	496.11615
734.395	456.95095
734.823	459.90852
735.251	439.95753
735.68	449.00257
736.108	418.95546
736.536	455.96044
736.964	400.84529
737.392	480.0814
737.82	497.05959
738.247	441.95129
738.675	452.95725
739.102	413.94309
739.53	486.13191
739.957	468.10103
740.384	456.99102
740.811	416.94515
741.238	452.00492
741.665	489.02987
742.092	371.78006
742.519	445.00384
742.945	458.00733
743.372	503.12245
743.798	431.00616
744.225	437.93539
744.651	438.99713
745.077	440.99804
745.503	401.88392
745.929	441.97085
746.355	394.87667
746.781	443.98669
747.207	388.84541
747.632	454.02314
748.058	449.02895
748.483	465.95873
748.908	430.97734
749.334	461.02772
749.759	475.01742
750.184	456.99523
750.609	410.9168
751.033	409.86601
751.458	482.95471
751.883	411.92263
752.307	427.91123
752.732	478.10713
753.156	406.91347
753.58	422.90114
754.005	393.90429
754.429	473.00746
754.853	444.00383
755.277	453.97173
755.7	397.90327
756.124	405.92222
756.548	374.80938
756.971	413.91875
757.394	370.87292
757.818	391.92978
758.241	395.92339
758.664	378.87967
759.087	364.7527
759.51	378.85571
759.933	392.86933
760.356	409.97032
760.778	388.87441
761.201	371.82191
761.623	327.71841
762.046	357.76385
762.468	406.8835
762.89	355.79695
763.312	386.86706
763.734	389.85855
764.156	338.77326
764.578	375.7777
765	348.78268
765.421	311.74243
765.843	335.81589
766.264	306.67101
766.686	319.73405
767.107	322.72332
767.528	364.86643
767.949	317.74864
768.37	380.86653
768.791	319.70702
769.212	320.75177
769.632	292.63761
770.053	301.73557
770.473	319.71114
770.894	303.69195
771.314	319.69376
771.734	294.63573
772.154	275.65751
772.575	327.6924
772.994	265.55843
773.414	291.64175
773.834	247.57837
774.254	250.57243
774.673	319.72467
775.093	270.63111
775.512	219.51221
775.931	228.54734
776.351	253.59427
776.77	249.57574
777.189	239.53348
777.607	222.53678
778.026	245.57459
778.445	225.54147
778.864	239.56992
779.282	157.35653
779.701	203.48279
780.119	220.52834
780.537	168.39871
780.955	185.44438
781.373	196.45887
781.791	191.41116
782.209	227.47835
782.627	167.4213
783.045	188.40322
783.462	190.46149
783.88	174.43085
784.297	133.32154
784.715	180.44326
785.132	159.36429
785.549	139.33275
785.966	172.41245
786.383	132.31352
786.8	194.42471
787.217	204.46147
787.633	159.38338
788.05	155.34198
788.466	130.28857
788.883	195.4771
789.299	127.28841
789.715	162.37675
790.131	164.38862
790.547	152.36143
790.963	145.34313
791.379	141.34165
791.795	107.23103
792.21	182.39877
792.626	95.21478
793.041	114.26951
793.457	107.25233
793.872	77.17295
794.287	142.3292
794.702	104.24187
795.117	130.31114
795.532	75.18371
795.947	116.26295
796.362	108.24133
796.776	167.36151
797.191	130.30508
797.605	111.2534
798.02	98.2289
798.434	109.23162
798.848	141.33663
799.262	112.26684
799.676	98.22971
800.09	121.28468
800.504	86.19977
800.918	51.11309
801.331	20.04998
801.745	85.1862
802.158	38.09147
802.572	135.31192
802.985	65.15006
803.398	59.13545
803.811	42.10259
804.224	28.06686
804.637	56.12967
805.05	23.05134
805.462	96.22494
805.875	47.11895
806.288	53.12474
806.7	53.1276
807.112	58.12837
807.525	16.03781
807.937	33.07957
808.349	58.13946
808.761	84.19974
809.173	94.21973
809.584	88.20764
809.996	32.07601
810.408	22.05611
810.819	62.14088
811.231	62.16123
811.642	99.23681
812.053	93.21838
812.464	27.06209
812.875	46.11478
813.286	55.13866
813.697	36.07918
814.108	30.07073
814.519	83.17883
814.929	66.162
815.34	51.11816
815.75	3.00753
816.16	46.10943
816.571	18.04542
816.981	52.11682
817.391	-40.09394
817.801	44.1064
818.211	36.0828
818.62	29.06815
819.03	50.11803
819.44	7.01752
819.849	18.04362
820.259	56.13694
820.668	57.13604
821.077	40.09731
821.486	8.01848
821.895	24.05663
822.304	20.05154
822.713	56.12689
823.122	31.07486
823.531	-7.01592
823.939	20.04758
824.348	19.04453
824.756	-21.05119
825.164	19.04621
825.573	5.01224
825.981	67.15886
826.389	54.13068
826.797	63.15512
827.205	36.08048
827.612	3.00717
828.02	-25.05707
828.428	35.0863
828.835	11.02847
829.243	12.02753
829.65	-4.00979
830.057	-26.0614
830.464	11.02641
830.871	109.24974
831.278	8.01881
831.685	43.09177
832.092	28.06566
832.499	39.08255
832.905	22.05368
833.312	-12.02608
833.718	71.17146
834.124	22.04875
834.531	43.10364
834.937	72.17862
835.343	22.05092
835.749	47.10387
836.155	20.05097
836.561	8.01916
836.966	51.11962
837.372	-15.03711
837.777	21.05098
838.183	64.13514
838.588	30.07268
838.993	34.08007
839.399	42.09968
839.804	24.05683
840.209	29.07256
840.613	23.04924
841.018	20.04887
841.423	57.14128
841.828	30.07396
842.232	13.03067
842.637	68.15565
843.041	9.02259
843.445	-8.01941
843.849	32.07703
844.253	25.05721
844.657	30.07374
845.061	61.13515
845.465	8.01877
845.869	45.10053
846.272	-15.03585
846.676	-4.00923
847.079	27.06719
847.483	2.00484
847.886	44.10209
848.289	50.13109
848.692	11.02687
849.095	23.05316
849.498	27.06523
849.901	8.01759
850.304	13.03005
850.707	-9.0223
851.109	57.13806
851.512	22.05254
851.914	-27.06717
852.316	60.14798
852.718	42.1079
853.121	-30.07197
853.523	-3.00675
853.925	40.10226
854.326	8.01959
854.728	20.05016
855.13	35.08846
855.531	14.03251
855.933	17.03906
856.334	30.07306
856.736	16.03498
857.137	-2.00456
857.538	34.08339
857.939	73.17582
858.34	4.00935
858.741	3.00761
859.142	11.02545
859.542	34.08772
859.943	27.06488
860.343	-8.01945
860.744	56.13127
861.144	36.0856
861.544	-1.00237
861.945	1.00248
862.345	9.02123
862.745	61.14697
863.145	7.01588
863.544	53.12958
863.944	-17.03908
864.344	-9.02146
864.743	43.10266
865.143	56.14009
865.542	-25.05569
865.941	21.05056
866.34	30.06834
866.74	20.05231
867.139	19.04468
867.537	16.0391
867.936	73.169
868.335	-9.02227
868.734	18.04475
869.132	14.031
869.531	13.03004
869.929	16.03541
870.327	-3.00698
870.726	10.02392
871.124	29.06471
871.522	11.02711
871.92	43.10223
872.318	-12.02833
872.715	-16.03797
873.113	12.02815
873.511	-8.01933
873.908	11.02746
874.306	38.0921
874.703	-36.08722
875.1	-3.00736
875.497	3.00694
875.894	24.05803
876.291	46.10896
876.688	14.03514
877.085	41.0939
877.482	39.09415
877.878	32.07542
878.275	-12.02982
878.671	-36.07545
879.068	28.06517
879.464	16.03739
879.86	4.00916
880.256	17.0399
880.652	-3.00742
881.048	-4.00952
881.444	-5.01136
881.84	33.08095
882.236	18.04379
882.631	13.0311
883.027	28.06509
883.422	-45.1121
883.817	43.10517
884.213	2.005
884.608	26.06311
885.003	-36.08402
885.398	-11.02685
885.793	22.0532
886.188	-12.029
886.582	17.04186
886.977	14.03186
887.371	-2.00488
887.766	-5.01218
888.16	16.03796
888.554	15.03562
888.949	35.08478
889.343	19.0446
889.737	-7.01841
890.131	17.04133
890.525	26.06488
890.918	24.05838
891.312	46.10448
891.706	37.09371
892.099	31.07599
892.492	21.04316
892.886	-20.04754
893.279	-8.0198
893.672	42.104
894.065	42.10152
894.458	-8.01937
894.851	32.07501
895.244	-41.10255
895.637	75.17329
896.029	47.11131
896.422	-2.00468
896.814	22.0527
897.206	-2.00469
897.599	41.09751
897.991	24.05643
898.383	-1.0023
898.775	68.14824
899.167	41.09337
899.559	-12.0293
899.951	-13.02945
900.342	4.00978
900.734	-6.01486
901.125	22.05557
901.517	43.10184
901.908	43.09741
902.299	42.09922
902.69	61.13915
903.082	49.11398
903.473	66.15392
903.863	-34.08435
904.254	42.09482
904.645	-21.0502
905.036	56.13301
905.426	30.06487
905.817	31.07282
906.207	-52.11984
906.597	36.08187
906.987	11.02743
907.378	17.04192
907.768	39.10018
908.158	29.06802
908.547	27.0686
908.937	7.01721
909.327	35.08164
909.717	19.04588
910.106	37.08505
910.495	-18.04323
910.885	35.08586
911.274	9.02177
911.663	32.07767
912.052	22.05177
912.441	44.10884
912.83	46.10028
913.219	17.043
913.608	70.16485
913.997	46.11228
914.385	32.0736
914.774	41.09579
915.162	53.12265
915.55	40.09226
915.939	18.04439
916.327	9.02158
916.715	51.12733
917.103	7.01637
917.491	40.0949
917.878	46.10842
918.266	35.08735
918.654	70.17321
919.041	9.02317
919.429	21.04777
919.816	9.02209
920.203	44.1037
920.591	35.08388
920.978	39.0919
921.365	19.0486
921.752	-40.09152
922.139	53.10967
922.525	42.09741
922.912	5.01176
923.299	52.12446
923.685	-28.07075
924.072	-18.03919
924.458	-3.00726
924.844	3.00721
925.231	5.01113
925.617	20.04987
926.003	15.03703
926.389	3.00734
926.774	25.06101
927.16	44.10491
927.546	36.09035
927.931	14.03357
928.317	-9.01991
928.702	66.14827
929.088	61.14145
929.473	41.10155
929.858	7.01672
930.243	45.10497
930.628	65.15323
931.013	9.02165
931.398	47.10144
931.783	22.05551
932.167	40.09523
932.552	52.12479
932.937	31.0737
933.321	32.07825
933.705	-46.1122
934.09	20.0478
934.474	5.01135
934.858	30.07551
935.242	13.02895
935.626	25.0623
936.009	32.08341
936.393	80.19796
936.777	49.12176
937.16	62.15667
937.544	2.00447
937.927	10.02477
938.311	27.06303
938.694	70.17871
939.077	5.01158
939.46	2.00464
939.843	6.01169
940.226	22.05432
940.609	33.07372
940.991	10.02452
941.374	31.07356
941.757	53.12494
942.139	30.06496
942.522	58.13008
942.904	24.05564
943.286	36.0879
943.668	81.20354
944.05	29.06897
944.432	4.00952
944.814	17.04001
945.196	17.04042
945.578	27.063
945.959	-24.05403
946.341	21.04871
946.722	9.02026
947.104	43.09872
947.485	9.02022
947.866	36.08833
948.247	36.08859
948.628	-1.00231
949.009	26.06443
949.39	-4.0096
949.771	-26.05723
950.152	16.03802
950.532	38.09282
950.913	21.04875
951.293	-7.01865
951.674	41.0953
952.054	34.08293
952.434	26.06244
952.814	11.02494
953.194	15.03754
953.574	36.08488
953.954	21.04748
954.334	80.19257
954.714	35.0826
955.093	22.05217
955.473	18.04408
955.853	20.05021
956.232	29.07705
956.611	-10.02292
956.99	14.03424
957.37	24.05871
957.749	0
958.128	8.01968
958.506	23.05794
958.885	12.02921
959.264	7.01685
959.643	20.0441
960.021	12.02902
960.4	42.0909
960.778	24.05608
961.156	-5.01212
961.535	-16.03574
961.913	42.09482
962.291	7.01769
962.669	31.0763
963.047	25.0621
963.424	61.15185
963.802	51.12074
964.18	-13.03143
964.557	50.10937
964.935	64.14454
965.312	7.01783
965.69	33.07882
966.067	-31.07262
966.444	-38.08953
966.821	42.10461
967.198	12.02774
967.575	-3.00709
967.952	82.183
968.329	34.0802
968.705	69.14131
969.082	33.08305
969.458	16.03764
969.835	12.02822
970.211	54.13499
970.587	48.11515
970.963	6.01479
971.339	1.00255
971.715	39.094
972.091	41.09695
972.467	13.03086
972.843	59.14232
973.219	38.08659
973.594	1.00255
973.97	-28.06293
974.345	36.08323
974.721	9.0207
975.096	46.10783
975.471	34.07707
975.846	3.00691
976.221	3.00741
976.596	58.13558
976.971	53.12659
977.346	26.05759
977.72	-7.01724
978.095	33.08233
978.469	60.13612
978.844	45.10805
979.218	9.02121
979.593	23.05276
979.967	-8.01851
980.341	43.09527
980.715	34.08287
981.089	11.02662
981.463	16.03535
981.837	24.05733
982.21	-31.06802
982.584	43.10022
982.957	6.01462
983.331	-36.08147
983.704	58.1385
984.078	-8.0191
984.451	-9.02134
984.824	-10.02382
985.197	-26.0604
985.57	-31.07452
985.943	-2.00469
986.316	3.007
986.688	-4.00932
987.061	54.12146
987.434	22.05634
987.806	0
988.179	9.02039
988.551	21.05123
988.923	-25.05953
989.295	37.08844
989.667	26.06083
990.039	43.10408
990.411	-2.00437
990.783	-41.09046
991.155	-23.05403
991.527	2.00466
991.898	42.10125
992.27	32.07712
992.641	14.03371
993.012	-16.03544
993.384	-31.07151
993.755	62.15274
994.126	30.0701
994.497	-27.06456
994.868	13.02835
995.239	29.06738
995.61	50.12109
995.98	-28.06607
996.351	0
996.722	28.06319
997.092	6.01381
997.462	20.04559
997.833	10.02262
998.203	-52.12117
998.573	15.03628
998.943	39.08821
999.313	26.06037
999.683	7.0163
1000.053	-39.08504
1000.423	45.10397
1000.792	5.01242
1001.162	0
1001.531	83.1955
1001.901	18.04308
1002.27	-17.03589
1002.639	-24.05928
1003.009	17.03883
1003.378	13.03227
1003.747	11.02486
1004.116	-26.06032
1004.485	-7.01618
1004.853	-6.01454
1005.222	-58.14051
1005.591	29.06586
1005.959	-19.04166
1006.328	50.1078
1006.696	-25.05831
1007.064	-67.16369
1007.433	5.01199
1007.801	8.01861
1008.169	-4.00969
1008.537	27.0571
1008.905	44.09889
1009.273	7.01657
1009.64	47.10898
1010.008	3.00689
1010.375	0
1010.743	-28.06055
1011.11	15.03493
1011.478	57.13624
1011.845	11.02475
1012.212	50.10937
1012.579	56.13193
1012.946	25.05643
1013.313	18.0408
1013.68	36.07678
1014.047	-38.08813
1014.414	-5.01139
1014.78	47.11269
1015.147	4.00921
1015.513	36.08326
1015.88	47.11461
1016.246	15.03522
1016.612	24.05214
1016.978	31.07362
1017.344	28.06681
1017.71	75.17287
1018.076	0
1018.442	35.08716
1018.808	30.07303
1019.174	-54.13171
1019.539	-28.05956
1019.905	-12.02757
1020.27	-7.01671
1020.636	22.04995
1021.001	14.03242
1021.366	14.03259
1021.731	80.19984
1022.096	18.04436
1022.461	31.07063
1022.826	57.13055
1023.191	18.04579
1023.556	-5.01124
1023.92	-5.01178
1024.285	9.02094
1024.649	17.03987
1025.014	-10.02371
1025.378	-5.01228
1025.742	-28.06702
1026.107	12.02595
1026.471	32.071
1026.835	22.05258
1027.199	7.01631
1027.562	40.08783
1027.926	-23.05424
1028.29	-9.02214
1028.654	2.00441
1029.017	40.09471
1029.381	5.01158
1029.744	-11.02729
1030.107	35.07932
1030.471	39.09007
1030.834	-17.03669
1031.197	44.10132
1031.56	-4.00906
1031.923	18.04514
1032.286	45.10095
1032.648	15.03398
1033.011	66.14638
1033.374	6.01341
1033.736	-16.04108
1034.099	-10.02364
1034.461	-7.01732
1034.823	-3.00728
1035.185	13.0313
1035.548	37.08692
1035.91	8.01843
1036.272	23.05049
1036.634	41.09612
1036.995	56.12436
1037.357	17.04011
1037.719	27.06328
1038.08	81.18439
1038.442	14.03192
1038.803	-42.09644
1039.165	-25.06108
1039.526	25.05815
1039.887	20.04596
1040.248	41.09886
1040.609	31.07276
1040.97	7.01646
1041.331	69.16851
1041.692	17.03893
1042.053	-1.00218
1042.413	9.02002
1042.774	27.0633
1043.134	-26.05915
1043.495	15.0364
1043.855	62.14539
1044.215	-4.00955
1044.576	11.02556
1044.936	37.08047
1045.296	45.10773
1045.656	1.00234
1046.016	25.0576
1046.375	-1.00234
1046.735	38.084
1047.095	-14.03171
1047.454	89.17451
1047.814	20.04631
1048.173	6.01359
1048.533	13.0286
1048.892	-28.06563
1049.251	12.02885
1049.61	58.1368
1049.969	9.02035
1050.328	-3.00624
1050.687	-24.05628
1051.046	-8.01877
1051.405	-29.06945
1051.763	44.09783
1052.122	-15.03625
1052.48	-6.01429
1052.839	60.13706
1053.197	49.10997
1053.555	19.04048
1053.914	3.00706
1054.272	6.01366
1054.63	13.03075
1054.988	16.03698
1055.345	-7.01424
1055.703	19.04409
1056.061	22.05539
1056.419	40.10158
1056.776	14.03208
1057.134	-71.1575
1057.491	-2.00485
1057.848	10.02388
1058.206	-24.05372
1058.563	-20.04238
1058.92	21.04614
1059.277	51.12046
1059.634	-6.01341
1059.991	44.10116
1060.348	10.02181
1060.704	56.1307
1061.061	4.00875
1061.418	48.11163
1061.774	19.04522
1062.131	15.03911
1062.487	-22.04946
1062.843	44.10519
1063.199	28.06709
1063.555	58.12933
1063.911	17.04116
1064.267	-9.01766
1064.623	36.08501
1064.979	-44.09738
1065.335	18.04094
1065.691	12.02722
1066.046	-19.04013
1066.402	-19.04138
1066.757	34.08268
1067.112	23.05403
1067.468	-5.01158
1067.823	-55.12612
1068.178	-39.09108
1068.533	24.0559
1068.888	35.07961
1069.243	28.0665
1069.598	0
1069.952	50.10988
1070.307	-2.00482
1070.662	-15.03497
1071.016	52.11269
1071.371	13.02856
1071.725	3.00685
1072.079	19.04407
1072.434	9.02119
1072.788	-16.03631
1073.142	47.11092
1073.496	-2.00456
1073.85	-33.074
1074.203	49.11389
1074.557	43.11188
1074.911	49.11073
1075.265	-10.02241
1075.618	25.05877
1075.971	35.07961
1076.325	22.05446
1076.678	-9.01987
1077.031	-59.12701
1077.385	70.14495
1077.738	-7.01517
1078.091	11.02428
1078.444	61.13273
1078.796	14.03337
1079.149	38.09102
1079.502	-27.06238
1079.855	16.0359
1080.207	5.01185
1080.56	4.0101
1080.912	20.04673
1081.264	21.04887
1081.617	31.07291
1081.969	42.10259
1082.321	56.13013
1082.673	40.08875
1083.025	23.052
1083.377	237.5104
1083.728	-4.00894
1084.08	6.01437
1084.432	11.02544
1084.783	-20.04432
1085.135	26.06313
1085.486	25.05518
1085.838	5.01195
1086.189	17.04014
1086.54	17.03883
1086.891	31.07714
1087.242	72.17035
1087.593	-15.03477
1087.944	33.07211
1088.295	56.12053
1088.646	99.23228
1088.996	-20.04706
1089.347	9.02116
1089.698	-11.02547
1090.048	28.06974
1090.398	-37.08259
1090.749	-7.01601
1091.099	2.00494
1091.449	42.10095
1091.799	15.03624
1092.149	-1.0024
1092.499	3.00707
1092.849	27.06633
1093.199	-9.02165
1093.548	37.0863
1093.898	2.00482
1094.248	-48.11934
1094.597	-25.06309
1094.947	-10.02607
1095.296	53.12615
1095.645	-2.00503
1095.994	26.05997
1096.343	20.04878
1096.692	-12.03127
1097.041	33.08809
1097.39	3.00723
1097.739	26.06525
1098.088	19.04898
1098.437	13.03367
1098.785	-58.15238
1099.134	-21.05345
1099.482	38.10172
1099.83	7.01787
1100.179	32.08236
1100.527	-40.1028
1100.875	29.07486
1101.223	24.06224
1101.571	-41.11085
1101.919	16.04154
1102.267	-9.02504
1102.615	-5.01607
1102.962	-1.00321
1103.31	-4.01286
1103.658	-19.06105
