Data from N1R0 105C sample 9_Subt2__4__12-54-04-698.txt Node

Date: Tue Sep 16 12:54:04 PDT 2025
User: uwsun
Spectrometer: HDX01956
Trigger mode: 0
Integration Time (sec): 5.000000E-1
Scans to average: 1
Nonlinearity correction enabled: true
Boxcar width: 0
Storing dark spectrum: false
XAxis mode: Wavelengths
Number of Pixels in Spectrum: 2068
>>>>>Begin Spectral Data<<<<<
194.03	-5.01453
194.578	-2.0065
195.127	0
195.676	0
196.225	48.12717
196.773	8.02233
197.321	-17.04772
197.87	24.06263
198.418	14.03686
198.966	9.02423
199.513	24.0623
200.061	1.0026
200.609	5.01348
201.156	32.07177
201.704	-10.02585
202.251	41.11074
202.798	-6.01594
203.345	29.07337
203.892	42.10809
204.438	-9.02198
204.985	5.01221
205.532	-35.09472
206.078	1.00251
206.624	66.16814
207.17	64.15271
207.716	26.06525
208.262	28.05717
208.808	37.09488
209.354	64.16085
209.899	39.09997
210.445	-4.01028
210.99	9.02255
211.535	63.1511
212.08	31.07364
212.625	19.04852
213.17	65.16801
213.715	64.14896
214.259	75.17776
214.804	17.04263
215.348	38.08987
215.892	42.10404
216.436	-41.09703
216.98	7.01581
217.524	48.11699
218.068	54.13844
218.612	35.09072
219.155	31.07489
219.698	-21.0515
220.242	15.03779
220.785	84.19951
221.328	17.04286
221.871	71.18289
222.414	34.08545
222.956	-21.05161
223.499	15.0342
224.041	0
224.583	17.03666
225.126	17.03812
225.668	44.1084
226.21	43.11038
226.751	42.09524
227.293	38.08733
227.835	33.08218
228.376	26.06018
228.918	10.02535
229.459	29.0735
230	74.17934
230.541	5.01175
231.082	47.11598
231.622	3.00694
232.163	19.04663
232.704	47.11917
233.244	2.00506
233.784	-1.00247
234.324	101.22853
234.864	5.01155
235.404	19.04552
235.944	11.0264
236.484	35.08858
237.023	58.13813
237.563	50.11784
238.102	56.13393
238.641	21.05358
239.18	39.09297
239.719	31.07871
240.258	-17.03923
240.797	39.09454
241.335	22.05436
241.874	77.15191
242.412	79.19344
242.95	34.08351
243.488	12.0275
244.026	40.09457
244.564	64.13353
245.102	83.18971
245.64	-22.05384
246.177	9.02043
246.715	52.12645
247.252	18.04163
247.789	94.17555
248.326	-9.02222
248.863	60.13385
249.4	57.13081
249.936	55.11718
250.473	71.16958
251.009	-2.00469
251.546	66.1493
252.082	14.0309
252.618	66.14937
253.154	29.07098
253.69	16.03664
254.226	38.09241
254.761	46.10482
255.297	3.00671
255.832	61.14675
256.367	21.05027
256.903	46.10402
257.438	23.05489
257.972	25.05677
258.507	17.03978
259.042	34.07538
259.576	80.17898
260.111	22.05147
260.645	19.04196
261.179	56.13291
261.713	80.18083
262.247	27.06276
262.781	50.10724
263.315	1.00248
263.849	46.11665
264.382	0
264.915	55.13192
265.449	-11.02749
265.982	27.06251
266.515	65.16105
267.048	-59.13018
267.58	33.0725
268.113	6.01331
268.646	-8.02001
269.178	-12.02756
269.71	76.17003
270.243	68.15946
270.775	37.09633
271.307	-7.01703
271.838	31.07441
272.37	36.0895
272.902	18.04161
273.433	55.12389
273.965	42.10347
274.496	15.03784
275.027	35.08849
275.558	64.15796
276.089	29.07368
276.62	3.00771
277.15	-25.06305
277.681	34.07456
278.211	48.11851
278.741	39.08828
279.272	33.07697
279.802	3.00761
280.332	4.00967
280.861	45.10908
281.391	60.13822
281.921	1.00244
282.45	48.12047
282.98	65.17085
283.509	102.23356
284.038	69.15987
284.567	53.12528
285.096	55.13522
285.625	-8.01849
286.153	111.26633
286.682	54.12603
287.21	-2.00487
287.739	11.02656
288.267	60.14798
288.795	38.10054
289.323	33.079
289.851	96.22749
290.378	13.02967
290.906	10.02502
291.433	15.03813
291.961	48.11163
292.488	43.10817
293.015	60.14372
293.542	102.26351
294.069	86.2149
294.596	7.01747
295.122	48.11703
295.649	1.00225
296.175	23.05642
296.702	68.16832
297.228	52.12692
297.754	32.07354
298.28	82.19093
298.806	11.02711
299.332	17.03904
299.857	38.08817
300.383	-5.01287
300.908	49.12242
301.433	31.07748
301.958	87.20141
302.483	2.00507
303.008	64.16126
303.533	41.10726
304.058	23.05477
304.582	64.15341
305.107	27.07145
305.631	58.13366
306.155	-3.00719
306.679	33.07927
307.203	46.10884
307.727	38.09182
308.251	35.08795
308.775	85.20913
309.298	29.0714
309.822	-6.01544
310.345	45.10961
310.868	55.13487
311.391	17.0428
311.914	37.09438
312.437	56.13039
312.96	36.08662
313.482	40.09585
314.005	13.03315
314.527	19.05031
315.049	71.18187
315.571	83.18963
316.093	63.15826
316.615	17.04175
317.137	54.12027
317.659	81.19848
318.18	-7.01715
318.702	59.14081
319.223	29.06087
319.744	16.03706
320.265	55.13637
320.786	54.13723
321.307	11.02783
321.828	54.1244
322.348	32.07709
322.869	77.18623
323.389	327.61905
323.909	22.05161
324.43	26.06358
324.95	-18.04267
325.47	73.18364
325.989	60.14503
326.509	47.1079
327.029	41.09601
327.548	30.06983
328.067	70.1727
328.587	92.2333
329.106	36.0832
329.625	71.187
330.144	18.04308
330.662	45.10818
331.181	67.16113
331.7	52.12346
332.218	70.15532
332.736	41.09834
333.255	82.19634
333.773	32.07747
334.291	60.15275
334.808	62.143
335.326	25.05785
335.844	66.15851
336.361	119.30854
336.879	90.21533
337.396	64.15894
337.913	43.10199
338.43	21.04889
338.947	51.12465
339.464	7.01568
339.981	9.022
340.497	64.16022
341.014	75.18596
341.53	27.06281
342.046	112.2827
342.562	84.21233
343.078	42.10145
343.594	41.09994
344.11	62.15173
344.626	66.16956
345.141	74.17305
345.657	89.20539
346.172	81.19892
346.687	53.12474
347.202	117.27119
347.717	86.20866
348.232	19.0486
348.747	79.18637
349.261	101.22629
349.776	115.27698
350.29	72.18356
350.805	94.23549
351.319	64.15224
351.833	52.12303
352.347	89.21403
352.861	52.12522
353.374	66.15374
353.888	68.16968
354.401	43.10073
354.915	64.14855
355.428	56.14251
355.941	59.14081
356.454	64.14614
356.967	-5.01209
357.48	71.16476
357.993	57.14313
358.505	12.03005
359.018	104.25819
359.53	99.24528
360.042	71.16313
360.554	88.21903
361.066	78.19315
361.578	95.2146
362.09	95.22976
362.602	116.26316
363.113	131.3118
363.625	125.28789
364.136	56.12668
364.647	74.17928
365.158	68.16201
365.669	79.19229
366.18	91.21801
366.691	90.20169
367.201	101.24565
367.712	120.27886
368.222	111.25983
368.733	75.16755
369.243	107.24388
369.753	61.14419
370.263	120.29312
370.773	51.12691
371.282	110.26639
371.792	113.26596
372.301	49.12114
372.811	65.17304
373.32	114.25179
373.829	45.10888
374.338	88.20005
374.847	93.2188
375.356	59.14237
375.865	141.30692
376.373	103.23855
376.882	112.28603
377.39	99.24223
377.898	90.22433
378.407	102.23591
378.915	131.29109
379.423	92.21776
379.93	211.48789
380.438	90.21951
380.946	115.27109
381.453	111.26947
381.96	162.38773
382.468	105.2504
382.975	142.3493
383.482	137.31011
383.989	172.43987
384.495	242.55767
385.002	136.28993
385.509	183.43539
386.015	259.52417
386.521	221.4984
387.028	240.53781
387.534	225.47726
388.04	238.56373
388.546	214.46869
389.051	232.50446
389.557	205.46949
390.063	183.41085
390.568	282.65812
391.073	244.53168
391.578	301.70976
392.084	353.76867
392.589	309.64627
393.093	370.84203
393.598	389.84741
394.103	376.84945
394.607	460.03162
395.112	472.07851
395.616	519.16155
396.12	552.15642
396.624	542.17644
397.128	645.40359
397.632	716.5025
398.136	781.58176
398.639	785.62681
399.143	897.91939
399.646	1048.06328
400.15	1131.13931
400.653	1242.24019
401.156	1386.38114
401.659	1632.8863
402.162	1980.9986
402.664	2637.54478
403.167	3758.50227
403.67	7416.7408
404.172	23800.29609
404.674	59192.97572
405.176	63738.15102
405.678	63977.72923
406.18	64011.81569
406.682	63863.44694
407.184	63926.60148
407.686	26949.5501
408.187	11289.19812
408.688	6686.93776
409.19	4523.73783
409.691	3690.52284
410.192	3100.53341
410.693	2656.97045
411.194	2367.11536
411.694	2252.27996
412.195	2088.40684
412.696	1881.97602
413.196	1758.48498
413.696	1702.88626
414.196	1696.59901
414.696	1642.94427
415.196	1528.6238
415.696	1373.34809
416.196	1206.2556
416.695	865.76245
417.195	762.62019
417.694	822.48648
418.194	660.25565
418.693	705.43677
419.192	618.32341
419.691	619.30586
420.19	561.23866
420.688	620.37907
421.187	552.03198
421.685	572.2137
422.184	534.15806
422.682	409.84025
423.18	359.78605
423.678	313.68737
424.176	271.59915
424.674	322.68643
425.172	253.57685
425.669	249.59172
426.167	283.63325
426.664	208.46246
427.161	238.53267
427.659	210.49819
428.156	198.41532
428.652	172.42699
429.149	194.46254
429.646	149.3304
430.143	199.46836
430.639	145.34114
431.135	159.39292
431.632	141.32085
432.128	162.38491
432.624	193.48862
433.12	125.28479
433.616	148.32305
434.111	95.22612
434.607	107.25595
435.103	104.21902
435.598	121.25229
436.093	81.18953
436.588	121.27188
437.083	85.19154
437.578	125.28835
438.073	82.2055
438.568	101.24813
439.062	74.15981
439.557	28.06633
440.051	26.05934
440.546	56.12833
441.04	69.16631
441.534	68.17146
442.028	92.22137
442.522	48.11602
443.015	20.04364
443.509	82.19933
444.002	67.16424
444.496	52.11389
444.989	69.16763
445.482	32.07979
445.975	69.16012
446.468	53.11586
446.961	72.15723
447.454	63.14202
447.947	43.10333
448.439	73.17901
448.931	46.10643
449.424	87.22043
449.916	62.1515
450.408	89.20326
450.9	28.06852
451.392	44.11202
451.884	28.06499
452.375	40.09941
452.867	42.09513
453.358	64.14702
453.849	58.12483
454.341	44.10006
454.832	46.1002
455.323	80.19854
455.814	54.124
456.304	55.12768
456.795	13.03005
457.285	27.06007
457.776	72.16407
458.266	63.14955
458.756	5.01194
459.247	39.09368
459.737	63.15237
460.226	102.23112
460.716	42.10076
461.206	26.06259
461.695	17.04227
462.185	71.16821
462.674	14.03234
463.163	64.14378
463.653	81.17234
464.142	66.15959
464.63	64.1547
465.119	35.0818
465.608	88.20506
466.096	12.02636
466.585	24.05522
467.073	0
467.561	20.04825
468.05	34.07864
468.538	45.10994
469.026	17.04057
469.513	35.0744
470.001	76.17396
470.489	30.07161
470.976	27.06345
471.463	22.05496
471.951	61.15097
472.438	89.20743
472.925	60.14103
473.412	25.06085
473.899	71.16228
474.385	60.1464
474.872	-14.03306
475.359	3.00743
475.845	12.02516
476.331	23.04938
476.817	44.10704
477.303	23.05375
477.789	7.01679
478.275	3.00749
478.761	10.0239
479.247	88.19493
479.732	24.06004
480.218	38.09946
480.703	-13.03233
481.188	39.08482
481.673	15.03474
482.158	55.11906
482.643	69.17519
483.128	66.15349
483.612	77.1825
484.097	1.00243
484.581	32.0743
485.066	43.10533
485.55	37.08222
486.034	18.03937
486.518	78.18569
487.002	19.04637
487.486	1.00244
487.969	-21.05161
488.453	-6.01504
488.936	37.08358
489.42	49.10856
489.903	-12.03012
490.386	-50.10595
490.869	72.15736
491.352	2.00485
491.835	69.14093
492.318	35.07894
492.8	1.0021
493.283	45.11466
493.765	18.04431
494.247	13.03047
494.73	70.15448
495.212	-16.03835
495.694	35.08273
496.175	25.06033
496.657	20.04759
497.139	4.00699
497.62	50.12017
498.102	80.19774
498.583	-51.12728
499.064	3.00676
499.545	43.09817
500.026	25.05691
500.507	23.05323
500.988	68.16912
501.469	-20.05036
501.949	49.12078
502.43	59.14189
502.91	80.16914
503.39	19.04726
503.87	48.11352
504.35	-8.01891
504.83	33.0725
505.31	-23.05613
505.79	7.01667
506.269	-18.04186
506.749	6.01383
507.228	-5.0119
507.707	57.12718
508.187	55.13126
508.666	17.04234
509.145	-1.00236
509.623	7.01653
510.102	13.03164
510.581	23.05575
511.059	52.13069
511.538	14.03624
512.016	52.12455
512.494	48.11532
512.972	27.06493
513.45	-40.09501
513.928	-11.02704
514.406	14.03455
514.884	16.04145
515.361	-13.03149
515.839	32.07407
516.316	57.13838
516.793	35.08849
517.27	28.0676
517.747	-7.01813
518.224	1.00233
518.701	-6.01343
519.178	30.07532
519.654	-18.0432
520.131	-16.0401
520.607	4.00985
521.083	-34.07842
521.56	-26.06221
522.036	-5.01103
522.512	33.08173
522.987	77.18468
523.463	-12.0288
523.939	47.11675
524.414	-33.07685
524.89	17.04085
525.365	9.02053
525.84	-11.02676
526.315	8.01954
526.79	11.02505
527.265	38.08817
527.74	-38.09375
528.215	-27.06397
528.689	-32.07148
529.164	-69.15205
529.638	-23.059
530.112	-35.08372
530.587	2.00434
531.061	10.0244
531.534	-17.0415
532.008	33.08056
532.482	-21.04902
532.956	-23.05939
533.429	26.06396
533.903	-25.05576
534.376	0
534.849	-7.0163
535.322	18.04277
535.795	-22.05386
536.268	-6.01469
536.741	-45.10883
537.213	15.03477
537.686	6.01481
538.158	10.02298
538.631	-9.02205
539.103	-15.03441
539.575	-38.08003
540.047	-3.00663
540.519	19.04571
540.991	10.02458
541.463	-5.01216
541.934	-32.07366
542.406	-22.05366
542.877	6.01369
543.348	16.03894
543.82	-41.10147
544.291	12.02828
544.762	17.04081
545.233	41.10417
545.703	24.05387
546.174	-16.03768
546.645	6.01467
547.115	13.03167
547.585	17.03947
548.056	31.07669
548.526	4.00961
548.996	-68.1666
549.466	-14.0345
549.935	2.00484
550.405	-61.1378
550.875	2.00481
551.344	-51.12427
551.814	-9.02095
552.283	11.02434
552.752	14.03319
553.221	46.10228
553.69	64.14508
554.159	31.07768
554.628	20.04589
555.096	39.09965
555.565	-43.09745
556.033	17.04098
556.502	16.03898
556.97	33.07412
557.438	-3.00714
557.906	2.00478
558.374	53.12343
558.842	-6.01458
559.31	23.05206
559.777	53.12992
560.245	8.01858
560.712	7.01624
561.18	31.06928
561.647	12.02696
562.114	25.05785
562.581	49.12092
563.048	50.11504
563.514	92.22973
563.981	40.09222
564.448	75.16949
564.914	69.16025
565.381	65.14881
565.847	64.1492
566.313	59.13713
566.779	75.16873
567.245	74.17115
567.711	63.15087
568.176	81.18148
568.642	90.22539
569.108	86.21046
569.573	119.27254
570.038	100.20809
570.504	149.3315
570.969	123.30117
571.434	126.27689
571.899	152.35433
572.363	175.39305
572.828	207.46301
573.293	177.39705
573.757	209.47192
574.222	180.39473
574.686	215.48051
575.15	188.44221
575.614	234.53515
576.078	181.41553
576.542	195.43347
577.006	222.48662
577.469	189.45381
577.933	264.57867
578.396	231.53031
578.86	220.50253
579.323	253.58824
579.786	264.55032
580.249	284.64164
580.712	186.44176
581.175	193.46412
581.637	199.44236
582.1	246.51691
582.563	151.31582
583.025	205.48567
583.487	248.4919
583.95	179.37538
584.412	217.44239
584.874	207.49135
585.336	226.51976
585.797	179.38119
586.259	208.47339
586.721	182.41757
587.182	154.34908
587.643	202.44707
588.105	178.41151
588.566	167.3417
589.027	215.51191
589.488	155.34999
589.949	200.47337
590.41	192.37121
590.87	186.4163
591.331	176.377
591.791	198.44717
592.252	171.39069
592.712	120.28458
593.172	180.40088
593.632	215.46461
594.092	150.32922
594.552	138.29535
595.011	98.22332
595.471	145.3242
595.931	156.34656
596.39	168.39563
596.849	110.25421
597.308	45.09658
597.768	82.21067
598.227	116.27605
598.685	92.20888
599.144	138.32106
599.603	56.13127
600.062	82.17284
600.52	99.22263
600.978	60.14196
601.437	62.14128
601.895	144.30445
602.353	44.0973
602.811	142.31599
603.269	87.20604
603.727	21.05083
604.184	95.21556
604.642	94.22961
605.099	71.16581
605.557	44.10732
606.014	53.11478
606.471	64.16039
606.928	67.14925
607.385	92.22906
607.842	51.11741
608.299	54.12653
608.755	46.11174
609.212	43.09654
609.668	67.15135
610.125	59.14221
610.581	33.07782
611.037	-5.01137
611.493	-4.00946
611.949	38.09296
612.405	120.24225
612.861	41.09469
613.316	33.07945
613.772	39.08979
614.227	85.20333
614.683	37.079
615.138	15.03548
615.593	61.14156
616.048	21.04844
616.503	27.06587
616.958	41.10284
617.412	58.13771
617.867	34.07657
618.321	63.13019
618.776	26.05771
619.23	48.1126
619.684	33.07403
620.138	74.1687
620.592	29.07061
621.046	77.18116
621.5	-13.03165
621.954	-28.06301
622.407	37.08215
622.861	21.05123
623.314	27.06144
623.768	71.16704
624.221	14.02787
624.674	7.01632
625.127	8.01875
625.58	47.10561
626.033	42.09203
626.485	9.02168
626.938	48.11427
627.39	33.0774
627.843	53.12207
628.295	78.17875
628.747	74.17549
629.199	27.06174
629.651	24.05529
630.103	18.04153
630.555	76.15928
631.006	37.08614
631.458	2.00474
631.909	-12.02719
632.361	-18.04203
632.812	27.06271
633.263	52.11278
633.714	37.07852
634.165	21.0505
634.616	11.02614
635.067	80.17484
635.518	42.09949
635.968	32.06312
636.419	64.13928
636.869	11.02618
637.319	41.09515
637.769	69.15434
638.219	20.04734
638.669	26.06192
639.119	17.04081
639.569	12.02891
640.019	54.1244
640.468	65.14503
640.918	26.06175
641.367	45.10066
641.816	43.09555
642.265	73.1692
642.714	66.15052
643.163	53.12221
643.612	70.17048
644.061	4.00863
644.51	29.06666
644.958	48.10593
645.406	6.01442
645.855	38.09216
646.303	70.16074
646.751	90.20625
647.199	42.09517
647.647	51.11816
648.095	25.05717
648.543	76.15314
648.99	84.19997
649.438	51.1176
649.885	53.13165
650.333	45.08748
650.78	35.08459
651.227	91.22033
651.674	44.10035
652.121	73.17782
652.568	69.16795
653.015	34.08404
653.461	61.1443
653.908	58.1326
654.354	58.13744
654.801	-9.02129
655.247	29.06294
655.693	23.05982
656.139	36.08584
656.585	39.09301
657.031	57.13343
657.477	48.10477
657.922	5.01143
658.368	19.04676
658.813	37.08406
659.259	39.09443
659.704	90.21113
660.149	16.03702
660.594	83.19505
661.039	61.1383
661.484	74.1738
661.929	79.18289
662.373	32.0802
662.818	46.11332
663.262	56.13475
663.707	95.23864
664.151	108.25928
664.595	9.02185
665.039	43.10634
665.483	64.16161
665.927	70.16293
666.371	59.13811
666.814	82.19274
667.258	116.27499
667.701	123.25726
668.145	115.28137
668.588	73.17928
669.031	76.1771
669.474	105.24809
669.917	81.17564
670.36	107.26297
670.803	89.21249
671.245	24.04921
671.688	127.30298
672.13	100.22308
672.573	73.18252
673.015	104.24702
673.457	75.16173
673.899	63.15122
674.341	84.19997
674.783	62.14749
675.225	96.23301
675.666	98.23652
676.108	83.17737
676.549	110.25178
676.991	117.25197
677.432	66.12999
677.873	71.16052
678.314	127.296
678.755	169.40518
679.196	106.23823
679.637	89.21004
680.078	159.36122
680.518	129.28962
680.959	124.28906
681.399	129.31246
681.839	128.30402
682.28	164.3964
682.72	121.27099
683.16	170.41199
683.6	172.37909
684.039	134.26976
684.479	168.40301
684.919	169.38596
685.358	136.33059
685.798	145.36828
686.237	163.37735
686.676	112.2483
687.115	255.57248
687.554	203.46808
687.993	215.45585
688.432	187.41172
688.871	240.5254
689.309	206.47566
689.748	198.3953
690.186	182.41104
690.625	227.51067
691.063	217.49677
691.501	260.61274
691.939	256.61548
692.377	254.58672
692.815	351.80316
693.253	267.60311
693.69	271.56052
694.128	277.63793
694.565	247.55748
695.003	307.74185
695.44	309.68885
695.877	302.66949
696.314	297.58538
696.751	383.80068
697.188	374.8035
697.625	338.70363
698.061	332.74425
698.498	350.77039
698.934	427.93609
699.371	399.86587
699.807	374.81802
700.243	392.87475
700.679	425.86367
701.115	448.95168
701.551	378.81139
701.987	380.76254
702.422	508.09129
702.858	452.98358
703.294	554.12684
703.729	459.01565
704.164	454.98709
704.599	527.04674
705.035	502.00743
705.47	516.1261
705.904	529.09228
706.339	557.13166
706.774	608.24922
707.209	617.2572
707.643	577.22246
708.078	579.2486
708.512	564.26318
708.946	620.28536
709.38	630.30903
709.814	642.2575
710.248	649.38838
710.682	688.42971
711.116	713.49784
711.549	569.29711
711.983	644.29058
712.416	744.50502
712.85	623.35681
713.283	679.38372
713.716	660.42684
714.149	579.17911
714.582	670.29264
715.015	636.36494
715.448	689.50958
715.881	658.20571
716.313	608.24248
716.746	665.36313
717.178	620.30654
717.61	625.40255
718.043	631.36553
718.475	622.32339
718.907	606.33453
719.339	569.13453
719.77	619.299
720.202	583.29427
720.634	598.29596
721.065	560.16648
721.497	596.28668
721.928	539.17464
722.359	552.19665
722.79	506.08605
723.221	549.21415
723.652	547.24238
724.083	521.03817
724.514	536.09066
724.945	470.99232
725.375	519.08166
725.806	427.96169
726.236	509.17182
726.666	495.04481
727.096	454.00645
727.526	478.11892
727.956	499.01823
728.386	444.99035
728.816	467.08737
729.246	434.97924
729.675	397.88902
730.105	419.93634
730.534	440.92858
730.964	399.91443
731.393	390.87784
731.822	414.97253
732.251	408.95208
732.68	320.6872
733.109	401.90868
733.537	371.83901
733.966	389.89616
734.395	357.76087
734.823	320.654
735.251	350.77782
735.68	350.7991
736.108	340.78939
736.536	325.70561
736.964	303.65392
737.392	312.7284
737.82	341.75294
738.247	324.71646
738.675	318.6932
739.102	249.58739
739.53	293.70963
739.957	317.76918
740.384	277.62493
740.811	248.58265
741.238	297.68289
741.665	295.64893
742.092	210.45721
742.519	294.68504
742.945	310.70437
743.372	272.63703
743.798	275.66303
744.225	221.49514
744.651	260.61322
745.077	285.66682
745.503	244.55555
745.929	295.66934
746.355	236.54233
746.781	205.4791
747.207	237.53295
747.632	302.70312
748.058	224.53753
748.483	224.48686
748.908	264.62023
749.334	230.53825
749.759	229.51749
750.184	259.58886
750.609	239.55328
751.033	212.46822
751.458	275.57109
751.883	198.46392
752.307	233.51815
752.732	219.53422
753.156	193.45318
753.58	222.49461
754.005	146.3525
754.429	272.60575
754.853	203.48242
755.277	207.46759
755.7	236.55446
756.124	170.40548
756.548	160.36209
756.971	226.52226
757.394	118.29198
757.818	153.38045
758.241	170.41493
758.664	141.34345
759.087	188.40409
759.51	147.3484
759.933	168.38993
760.356	186.46023
760.778	182.42743
761.201	153.35435
761.623	175.39676
762.046	108.24352
762.468	156.35749
762.89	150.35091
763.312	176.41237
763.734	125.29111
764.156	178.42032
764.578	158.34356
765	93.22008
765.421	115.28482
765.843	125.31636
766.264	117.26678
766.686	114.27306
767.107	112.26243
767.528	151.37411
767.949	118.28941
768.37	150.35791
768.791	109.25214
769.212	136.33096
769.632	125.2826
770.053	64.16328
770.473	74.17332
770.894	81.19324
771.314	94.2142
771.734	132.29532
772.154	98.24223
772.575	138.30428
772.994	77.16896
773.414	77.17741
773.834	100.24089
774.254	114.26816
774.673	115.27204
775.093	73.17722
775.512	89.21346
775.931	117.2868
776.351	147.35243
776.77	31.07478
777.189	89.20482
777.607	99.24492
778.026	72.17456
778.445	88.21727
778.864	43.10638
779.282	36.08376
779.701	18.04433
780.119	55.13622
780.537	49.11896
780.955	77.18875
781.373	69.16556
781.791	110.24092
782.209	56.12244
782.627	75.19231
783.045	52.1148
783.462	72.17875
783.88	54.13665
784.297	65.15916
784.715	32.08095
785.132	30.07051
785.549	25.06115
785.966	38.09344
786.383	72.17299
786.8	47.10609
787.217	93.21513
787.633	80.19578
788.05	48.10828
788.466	48.10836
788.883	78.19498
789.299	22.05102
789.715	71.16808
790.131	38.09223
790.547	21.05119
790.963	73.17515
791.379	40.09876
791.795	65.14161
792.21	89.19883
792.626	80.18142
793.041	67.15984
793.457	51.12158
793.872	12.02731
794.287	41.09695
794.702	49.11519
795.117	33.08044
795.532	40.09862
795.947	13.03008
796.362	-1.00228
796.776	59.13067
797.191	69.16385
797.605	72.16566
798.02	4.00952
798.434	48.10335
798.848	57.13827
799.262	7.01701
799.676	50.1183
800.09	44.10507
800.504	26.06111
800.918	27.06017
801.331	-3.00753
801.745	7.01559
802.158	-9.02186
802.572	38.08949
802.985	34.07898
803.398	16.03705
803.811	-34.08422
804.224	43.10239
804.637	36.08369
805.05	21.0469
805.462	55.1299
805.875	-3.00766
806.288	69.1619
806.7	-21.05127
807.112	6.01342
807.525	-11.02613
807.937	40.09632
808.349	-10.02435
808.761	68.1622
809.173	76.17828
809.584	68.16108
809.996	-19.04557
810.408	54.13694
810.819	38.08677
811.231	48.12512
811.642	67.16125
812.053	57.13478
812.464	-4.00925
812.875	50.12467
813.286	36.09107
813.697	55.12049
814.108	18.04254
814.519	49.10634
814.929	29.07167
815.34	12.02802
815.75	40.09967
816.16	-8.01923
816.571	59.14778
816.981	10.02266
817.391	16.03717
817.801	-28.06862
818.211	62.14185
818.62	28.06581
819.03	67.15763
819.44	3.00751
819.849	11.02669
820.259	46.1127
820.668	5.01205
821.077	51.12381
821.486	15.0346
821.895	12.02838
822.304	22.05668
822.713	21.04792
823.122	16.03875
823.531	8.01814
823.939	33.07831
824.348	53.12338
824.756	29.07003
825.164	59.14243
825.573	27.06584
825.981	47.11187
826.389	58.14025
826.797	76.18668
827.205	67.14882
827.612	30.07128
828.02	-13.02961
828.428	26.06422
828.835	45.11579
829.243	39.089
829.65	10.02442
830.057	35.08167
830.464	74.17556
830.871	39.09061
831.278	45.10505
831.685	52.11076
832.092	16.03761
832.499	66.13887
832.905	35.08519
833.312	10.02163
833.718	56.13562
834.124	82.17944
834.531	55.13227
834.937	77.19085
835.343	28.06473
835.749	40.08853
836.155	45.11418
836.561	48.1141
836.966	32.07533
837.372	-24.05947
837.777	26.06306
838.183	72.15176
838.588	43.10392
838.993	72.16831
839.399	23.05479
839.804	27.06389
840.209	14.03512
840.613	60.12741
841.018	23.05617
841.423	15.03746
841.828	68.16647
842.232	12.02832
842.637	87.19837
843.041	23.05759
843.445	14.03383
843.849	17.04104
844.253	49.11159
844.657	5.01235
845.061	61.13515
845.465	37.08634
845.869	66.14681
846.272	46.10867
846.676	-29.06724
847.079	43.10669
847.483	34.08175
847.886	72.16613
848.289	25.06582
848.692	28.06819
849.095	16.03703
849.498	23.05561
849.901	-12.02649
850.304	39.08968
850.707	23.05665
851.109	27.06577
851.512	51.12111
851.914	-33.08218
852.316	62.15285
852.718	84.21422
853.121	83.19482
853.523	-2.0045
853.925	48.12254
854.326	47.11427
854.728	20.05016
855.13	27.06834
855.531	6.01395
855.933	2.00461
856.334	36.08758
856.736	40.08702
857.137	60.13507
857.538	37.0907
857.939	27.0656
858.34	30.0698
858.741	10.02535
859.142	4.00927
859.542	24.06203
859.943	25.0601
860.343	18.04356
860.744	28.06599
861.144	49.11623
861.544	16.03783
861.945	8.0198
862.345	47.11006
862.745	69.166
863.145	45.10128
863.544	8.01972
863.944	0
864.344	20.04743
864.743	70.16626
865.143	61.15246
865.542	-29.06465
865.941	42.10072
866.34	43.09769
866.74	31.08093
867.139	68.1584
867.537	-17.0418
867.936	6.01408
868.335	64.15621
868.734	1.00249
869.132	20.04423
869.531	17.03925
869.929	30.0662
870.327	21.04866
870.726	48.11396
871.124	53.11767
871.522	11.02711
871.92	45.10694
872.318	12.02819
872.715	2.00473
873.113	27.06315
873.511	61.14547
873.908	25.06226
874.306	23.0559
874.703	-11.02652
875.1	16.0391
875.497	57.13049
875.894	49.11793
876.291	3.00717
876.688	19.04764
877.085	40.09163
877.482	28.06773
877.878	58.13601
878.275	43.1058
878.671	-18.03757
879.068	41.09518
879.464	55.12753
879.86	23.05249
880.256	2.00471
880.652	48.11768
881.048	-3.00714
881.444	-3.00682
881.84	48.11742
882.236	49.11851
882.631	59.13989
883.027	54.12489
883.422	16.03942
883.817	46.11245
884.213	24.05971
884.608	79.18984
885.003	-3.00696
885.398	38.09192
885.793	19.04597
886.188	-19.04597
886.582	12.02957
886.977	72.16195
887.371	22.05346
887.766	11.02671
888.16	32.07568
888.554	-4.00953
888.949	49.11837
889.343	53.12358
889.737	-6.01578
890.131	3.00731
890.525	57.14143
890.918	18.04384
891.312	-2.00459
891.706	23.0584
892.099	47.11487
892.492	77.15626
892.886	37.08698
893.279	14.0345
893.672	44.10892
894.065	39.09432
894.458	27.06493
894.851	47.10985
895.244	4.00992
895.637	75.17329
896.029	86.20214
896.422	-30.07057
896.814	20.04792
897.206	51.11835
897.599	97.22821
897.991	66.15392
898.383	57.12934
898.775	94.20379
899.167	77.17408
899.559	9.02189
899.951	-1.00226
900.342	9.02198
900.734	71.17333
901.125	38.09571
901.517	51.1206
901.908	45.1019
902.299	55.1296
902.69	49.11204
903.082	77.17812
903.473	53.12392
903.863	3.00739
904.254	55.12384
904.645	6.01427
905.036	68.16114
905.426	70.15007
905.817	28.06581
906.207	21.04769
906.597	71.16032
906.987	9.02245
907.378	43.10552
907.768	29.07462
908.158	46.10753
908.547	66.16654
908.937	-13.03208
909.327	38.08859
909.717	22.0531
910.106	40.09189
910.495	32.07612
910.885	38.09317
911.274	22.05308
911.663	45.10896
912.052	50.11702
912.441	64.15773
912.83	15.03292
913.219	33.08322
913.608	43.1018
913.997	21.0515
914.385	27.06216
914.774	64.14884
915.162	61.14094
915.55	36.0831
915.939	64.15651
916.327	9.02158
916.715	79.19623
917.103	21.04898
917.491	45.10666
917.878	47.11075
918.266	1.00251
918.654	18.04496
919.041	25.06417
919.429	18.04097
919.816	73.17709
920.203	107.24909
920.591	16.03849
920.978	60.14081
921.365	18.04605
921.752	3.0068
922.139	69.14227
922.525	66.15234
922.912	5.01176
923.299	-8.01937
923.685	1.00251
924.072	-2.00434
924.458	41.09834
924.844	23.05504
925.231	-10.02233
925.617	40.09938
926.003	53.12992
926.389	44.10688
926.774	18.04398
927.16	76.18009
927.546	61.15241
927.931	35.0836
928.317	49.10707
928.702	33.07464
929.088	63.14603
929.473	77.18945
929.858	56.1325
930.243	88.20353
930.628	79.18572
931.013	36.08616
931.398	41.0886
931.783	28.07058
932.167	57.13525
932.552	37.08905
932.937	21.05002
933.321	52.12669
933.705	-25.06074
934.09	12.02872
934.474	3.00682
934.858	43.10798
935.242	45.09954
935.626	26.06478
936.009	63.16335
936.393	71.17598
936.777	76.18792
937.16	38.09643
937.544	24.05345
937.927	33.0814
938.311	50.11619
938.694	41.10521
939.077	2.00463
939.46	8.01855
939.843	54.10405
940.226	26.06415
940.609	83.18351
940.991	13.03186
941.374	20.04756
941.757	39.09219
942.139	40.08642
942.522	61.13673
942.904	33.07637
943.286	15.03677
943.668	77.19363
944.05	36.08551
944.432	33.07812
944.814	-2.00472
945.196	19.04515
945.578	9.02108
945.959	23.05128
946.341	35.08096
946.722	79.17525
947.104	23.05302
947.485	13.02919
947.866	55.13447
948.247	53.13002
948.628	16.03689
949.009	35.08659
949.39	63.1492
949.771	20.0436
950.152	42.0993
950.532	85.20581
950.913	50.11541
951.293	39.1031
951.674	39.09068
952.054	75.18153
952.434	40.09581
952.814	11.02494
953.194	13.03255
953.574	25.05907
953.954	6.01361
954.334	75.18071
954.714	18.04262
955.093	50.11793
955.473	70.16978
955.853	10.02515
956.232	29.07705
956.611	56.12663
956.99	15.03667
957.37	14.03431
957.749	13.0294
958.128	54.13171
958.506	54.13528
958.885	44.10648
959.264	53.12649
959.643	45.0987
960.021	42.10099
960.4	20.04349
960.778	29.0677
961.156	3.00726
961.535	45.09924
961.913	60.13496
962.291	56.14024
962.669	16.03949
963.047	29.07198
963.424	86.21311
963.802	5.01194
964.18	-3.00724
964.557	19.04183
964.935	53.11997
965.312	20.05083
965.69	46.10959
966.067	33.07634
966.444	-6.01405
966.821	33.08233
967.198	19.04387
967.575	20.04708
967.952	46.10342
968.329	41.09657
968.705	87.17745
969.082	71.17745
969.458	13.0306
969.835	30.07029
970.211	48.12012
970.587	83.19778
970.963	41.10043
971.339	10.0255
971.715	50.12027
972.091	76.17849
972.467	29.06863
972.843	39.09443
973.219	47.10691
973.594	24.06086
973.97	-2.00447
974.345	22.051
974.721	34.07782
975.096	57.13332
975.471	21.04773
975.846	19.04364
976.221	-24.05956
976.596	58.13558
976.971	81.19242
977.346	14.03109
977.72	-5.01231
978.095	35.08729
978.469	38.08659
978.844	41.09852
979.218	49.11457
979.593	69.15682
979.967	15.03455
980.341	39.08648
980.715	61.14792
981.089	30.07235
981.463	57.12487
981.837	66.1564
982.21	3.00654
982.584	56.13019
982.957	36.08725
983.331	24.05365
983.704	81.19257
984.078	-12.02867
984.451	44.10326
984.824	25.05914
985.197	16.03686
985.57	9.02147
985.943	-11.02584
986.316	34.07889
986.688	75.17198
987.061	90.20094
987.434	78.1978
987.806	-5.01156
988.179	14.03168
988.551	36.08758
988.923	-22.05235
989.295	54.12865
989.667	28.06548
990.039	48.11607
990.411	4.00872
990.783	9.01965
991.155	-10.02343
991.527	13.03025
991.898	22.05324
992.27	43.10341
992.641	20.04811
993.012	-1.00221
993.384	30.06836
993.755	80.19643
994.126	91.21009
994.497	12.02848
994.868	29.06302
995.239	1.00234
995.61	33.08017
995.98	16.03743
996.351	47.11273
996.722	78.17422
997.092	-2.00461
997.462	39.08857
997.833	38.08547
998.203	20.04594
998.573	68.16282
998.943	38.08596
999.313	59.1361
999.683	7.0163
1000.053	34.07299
1000.423	10.02327
1000.792	13.03226
1001.162	5.01181
1001.531	21.05006
1001.901	-4.00961
1002.27	2.0042
1002.639	-23.0568
1003.009	1.00229
1003.378	34.08407
1003.747	27.06082
1004.116	45.10294
1004.485	50.11426
1004.853	-2.00484
1005.222	-51.12339
1005.591	9.02052
1005.959	65.13999
1006.328	23.04987
1006.696	12.02779
1007.064	26.06242
1007.433	-4.00961
1007.801	22.05104
1008.169	-30.07301
1008.537	46.09687
1008.905	6.01359
1009.273	24.05663
1009.64	86.19787
1010.008	16.03664
1010.375	22.0504
1010.743	1.00215
1011.11	27.06273
1011.478	81.19272
1011.845	49.10938
1012.212	41.08985
1012.579	60.14125
1012.946	-7.0159
1013.313	27.06109
1013.68	11.02359
1014.047	33.07546
1014.414	13.02951
1014.78	35.08411
1015.147	13.02989
1015.513	7.01628
1015.88	-9.02218
1016.246	45.10505
1016.612	53.11444
1016.978	50.1183
1017.344	39.09286
1017.71	35.08132
1018.076	26.05815
1018.442	56.13892
1018.808	50.12127
1019.174	-6.0145
1019.539	-30.06385
1019.905	63.14255
1020.27	26.06166
1020.636	-10.02285
1021.001	48.1104
1021.366	-1.00233
1021.731	87.21705
1022.096	23.05663
1022.461	30.06836
1022.826	44.10104
1023.191	23.05846
1023.556	3.00674
1023.92	-4.00942
1024.285	4.00932
1024.649	17.03987
1025.014	-2.00473
1025.378	38.09261
1025.742	-7.01669
1026.107	42.09024
1026.471	61.13453
1026.835	33.0787
1027.199	10.02328
1027.562	-20.04447
1027.926	16.03745
1028.29	36.08784
1028.654	22.04829
1029.017	55.12985
1029.381	26.05994
1029.744	24.05917
1030.107	52.11744
1030.471	32.07401
1030.834	19.04069
1031.197	46.10588
1031.56	48.10752
1031.923	29.07259
1032.286	56.12534
1032.648	23.05202
1033.011	47.10465
1033.374	13.02902
1033.736	-17.04365
1034.099	7.01649
1034.461	20.04925
1034.823	31.07472
1035.185	-12.02903
1035.548	47.11019
1035.91	16.0368
1036.272	28.0614
1036.634	75.17467
1036.995	25.05587
1037.357	34.07995
1037.719	38.08886
1038.08	76.17319
1038.442	-10.02291
1038.803	7.01592
1039.165	17.04121
1039.526	39.09047
1039.887	56.12777
1040.248	54.12989
1040.609	35.08209
1040.97	34.07951
1041.331	47.11525
1041.692	61.13847
1042.053	-10.0218
1042.413	67.14727
1042.774	74.1719
1043.134	46.10313
1043.495	41.09901
1043.855	88.2053
1044.215	12.02857
1044.576	54.1244
1044.936	18.03931
1045.296	63.1503
1045.656	13.03039
1046.016	31.07134
1046.375	39.09072
1046.735	57.1255
1047.095	1.00226
1047.454	74.14561
1047.814	53.12192
1048.173	46.10334
1048.533	-3.00662
1048.892	18.04181
1049.251	31.07427
1049.61	36.08528
1049.969	26.05858
1050.328	46.0947
1050.687	16.03723
1051.046	30.06985
1051.405	13.03088
1051.763	27.06025
1052.122	-1.00241
1052.48	69.16202
1052.839	63.14382
1053.197	40.08993
1053.555	43.09113
1053.914	29.06791
1054.272	-20.04576
1054.63	33.07776
1054.988	19.04388
1055.345	7.01419
1055.703	60.13811
1056.061	41.10288
1056.419	56.14181
1056.776	5.01148
1057.134	-19.04169
1057.491	39.09393
1057.848	38.09026
1058.206	2.00445
1058.563	37.07742
1058.92	58.12644
1059.277	38.08998
1059.634	-11.02461
1059.991	43.09888
1060.348	51.11026
1060.704	67.15604
1061.061	36.07821
1061.418	14.03278
1061.774	-1.00239
1062.131	19.0495
1062.487	18.04014
1062.843	10.02406
1063.199	40.09563
1063.555	40.08953
1063.911	-26.06346
1064.267	58.11203
1064.623	25.05916
1064.979	16.03497
1065.335	6.01368
1065.691	10.0227
1066.046	32.06683
1066.402	24.05179
1066.757	38.09234
1067.112	75.17439
1067.468	44.10091
1067.823	-13.02956
1068.178	32.07369
1068.533	73.1684
1068.888	77.17366
1069.243	18.04284
1069.598	-7.01633
1069.952	65.14239
1070.307	13.03125
1070.662	44.1014
1071.016	60.1298
1071.371	36.07871
1071.725	55.12419
1072.079	18.04176
1072.434	11.02589
1072.788	14.03158
1073.142	70.16447
1073.496	49.11069
1073.85	2.00445
1074.203	81.18708
1074.557	32.08341
1074.911	81.18186
1075.265	59.13034
1075.618	67.15622
1075.971	34.07735
1076.325	32.07907
1076.678	-17.0376
1077.031	19.04022
1077.385	16.03353
1077.738	10.02159
1078.091	10.02208
1078.444	-34.07547
1078.796	75.17666
1079.149	52.12422
1079.502	5.01148
1079.855	43.09595
1080.207	19.04489
1080.56	39.09786
1080.912	45.10463
1081.264	32.0743
1081.617	54.12643
1081.969	5.0123
1082.321	5.01174
1082.673	41.09095
1083.025	-21.0479
1083.377	22.04957
1083.728	34.07538
1084.08	-17.0409
1084.432	5.01158
1084.783	-27.05992
1085.135	11.02678
1085.486	42.09238
1085.838	51.12078
1086.189	7.01656
1086.54	41.09318
1086.891	81.19973
1087.242	56.13291
1087.593	30.06892
1087.944	39.08511
1088.295	81.17339
1088.646	77.18144
1088.996	6.01405
1089.347	-3.00707
1089.698	23.05289
1090.048	22.05486
1090.398	6.01327
1090.749	29.06586
1091.099	12.02958
1091.449	49.11761
1091.799	8.01935
1092.149	47.11165
1092.499	0
1092.849	50.12232
1093.199	11.02636
1093.548	40.09325
1093.898	-55.13397
1094.248	-23.05692
1094.597	-9.02265
1094.947	-1.0026
1095.296	41.09781
1095.645	12.03008
1095.994	12.02775
1096.343	33.08029
1096.692	67.17222
1097.041	25.06682
1097.39	16.03849
1097.739	6.01511
1098.088	34.08741
1098.437	12.03109
1098.785	21.05443
1099.134	-10.0254
1099.482	35.09374
1099.83	66.16671
1100.179	51.13082
1100.527	-29.07439
1100.875	-8.02078
1101.223	46.11884
1101.571	-20.05389
1101.919	17.04412
1102.267	27.0747
1102.615	0
1102.962	-8.02569
1103.31	0
1103.658	-8.02567
