Data from N1R0 105C sample 3_Subt2__0__13-39-09-638.txt Node

Date: Tue Sep 16 13:39:09 PDT 2025
User: uwsun
Spectrometer: HDX01956
Trigger mode: 0
Integration Time (sec): 5.000000E-1
Scans to average: 1
Nonlinearity correction enabled: true
Boxcar width: 0
Storing dark spectrum: false
XAxis mode: Wavelengths
Number of Pixels in Spectrum: 2068
>>>>>Begin Spectral Data<<<<<
194.03	-4.01162
194.578	7.02274
195.127	3.00961
195.676	10.03214
196.225	-8.02139
196.773	-10.02799
197.321	1.0028
197.87	-15.0394
198.418	0
198.966	5.01347
199.513	31.08038
200.061	3.00781
200.609	13.03501
201.156	-7.01583
201.704	-24.0622
202.251	18.0488
202.798	-28.07465
203.345	26.06582
203.892	38.09787
204.438	25.06067
204.985	-14.0343
205.532	-21.0567
206.078	-15.03771
206.624	46.1176
207.17	70.16684
207.716	1.00252
208.262	-8.01647
208.808	80.20359
209.354	-3.00763
209.899	-13.03363
210.445	-6.01543
210.99	44.10955
211.535	30.07241
212.08	17.04049
212.625	31.07899
213.17	21.05469
213.715	57.13285
214.259	42.10018
214.804	41.10236
215.348	19.0451
215.892	31.07695
216.436	-9.02117
216.98	-26.0591
217.524	19.04656
218.068	61.1562
218.612	32.08299
219.155	31.07489
219.698	1.00244
220.242	6.01514
220.785	46.11006
221.328	15.03783
221.871	65.16761
222.414	1.00253
222.956	-39.09617
223.499	25.05689
224.041	-10.02345
224.583	-51.11158
225.126	12.02694
225.668	19.04702
226.21	49.12565
226.751	33.07497
227.293	33.07591
227.835	25.06235
228.376	-13.03032
228.918	13.03294
229.459	23.05836
230	45.10965
230.541	24.05621
231.082	47.11598
231.622	-15.03481
232.163	-1.00246
232.704	57.14426
233.244	22.05549
233.784	25.06153
234.324	96.21744
234.864	29.06666
235.404	-9.02168
235.944	18.04315
236.484	64.16114
237.023	23.05514
237.563	13.03086
238.102	38.09119
238.641	-20.0514
239.18	1.0024
239.719	27.0686
240.258	-4.00921
240.797	15.03652
241.335	9.02229
241.874	69.13638
242.412	58.14257
242.95	34.08351
243.488	-38.08796
244.026	62.14595
244.564	24.05052
245.102	48.11049
245.64	-7.01708
246.177	-21.04796
246.715	49.11922
247.252	-15.03492
247.789	79.14809
248.326	39.09542
248.863	27.06064
249.4	32.0738
249.936	43.09185
250.473	52.12465
251.009	11.02572
251.546	55.1247
252.082	-5.01108
252.618	36.08197
253.154	29.07098
253.69	16.03664
254.226	51.12372
254.761	40.09126
255.297	-33.07439
255.832	29.07019
256.367	51.12139
256.903	99.22145
257.438	40.09515
257.972	15.03413
258.507	-2.0047
259.042	34.07538
259.576	46.10364
260.111	-12.02826
260.645	80.1744
261.179	92.21683
261.713	14.03207
262.247	16.03727
262.781	53.1136
263.315	-10.02481
263.849	27.0687
264.382	-1.00235
264.915	36.08666
265.449	-2.00499
265.982	31.07171
266.515	41.10203
267.048	18.03907
267.58	27.0594
268.113	-29.06479
268.646	15.03737
269.178	-23.05293
269.71	55.12358
270.243	61.14324
270.775	41.10667
271.307	-19.04632
271.838	41.09823
272.37	-3.00751
272.902	60.13756
273.433	48.10828
273.965	28.06916
274.496	5.01264
275.027	32.08095
275.558	2.00499
276.089	28.07116
276.62	-18.04642
277.15	21.05252
277.681	7.01544
278.211	27.06692
278.741	-14.03203
279.272	43.1001
279.802	20.05061
280.332	26.06259
280.861	16.039
281.391	4.00932
281.921	38.0922
282.45	40.10053
282.98	10.02653
283.509	63.14539
284.038	61.14156
284.567	23.05468
285.096	8.01984
285.625	-16.03703
286.153	72.17404
286.682	52.12141
287.21	-21.05134
287.739	33.07936
288.267	-7.01748
288.795	21.05572
289.323	-11.02655
289.851	54.129
290.378	-49.11322
290.906	14.035
291.433	16.04066
291.961	17.03978
292.488	22.05555
293.015	23.05548
293.542	74.1921
294.069	78.1952
294.596	18.04483
295.122	39.09525
295.649	-33.07473
296.175	15.03685
296.702	94.23157
297.228	6.01477
297.754	10.02308
298.28	36.08458
298.806	-23.05705
299.332	16.03676
299.857	1.00234
300.383	33.08435
300.908	3.00756
301.433	46.11466
301.958	-1.00236
302.483	11.02784
303.008	53.13381
303.533	21.05512
304.058	-12.02877
304.582	-31.07565
305.107	-10.02663
305.631	45.10397
306.155	14.03343
306.679	42.10072
307.203	64.1509
307.727	18.04366
308.251	64.15999
308.775	76.1873
309.298	28.06895
309.822	3.00771
310.345	27.06599
310.868	59.14457
311.391	33.08284
311.914	6.01539
312.437	28.06556
312.96	38.0914
313.482	13.03131
314.005	-7.01791
314.527	-15.03995
315.049	28.07226
315.571	82.18739
316.093	16.04053
316.615	-18.04449
317.137	43.09599
317.659	19.04709
318.18	-6.0147
318.702	74.1761
319.223	-13.02754
319.744	70.16042
320.265	41.10192
320.786	47.11959
321.307	18.04548
321.828	5.01163
322.348	25.0603
322.869	54.13117
323.389	373.6982
323.909	-21.04968
324.43	40.09756
324.95	23.05409
325.47	62.15628
325.989	22.05356
326.509	19.04387
327.029	30.0704
327.548	-9.02111
328.067	17.04235
328.587	72.18323
329.106	25.0579
329.625	32.08484
330.144	77.18222
330.662	35.0843
331.181	82.19664
331.7	3.00719
332.218	39.08709
332.736	16.03856
333.255	65.15614
333.773	7.01703
334.291	48.12246
334.808	45.10414
335.326	46.10601
335.844	51.12283
336.361	67.17528
336.879	46.11098
337.396	58.1442
337.913	43.10199
338.43	21.04889
338.947	55.13432
339.464	-4.00898
339.981	-4.0098
340.497	44.11055
341.014	42.10476
341.53	24.05586
342.046	99.25047
342.562	46.11707
343.078	52.12536
343.594	11.02696
344.11	53.12992
344.626	37.09554
345.141	44.1035
345.657	45.10476
346.172	92.22548
346.687	32.07562
347.202	71.16607
347.717	71.17275
348.232	42.107
348.747	33.07855
349.261	70.15784
349.776	77.18679
350.29	62.15834
350.805	53.13376
351.319	60.14284
351.833	65.1534
352.347	80.19272
352.861	38.09175
353.374	54.12608
353.888	70.17461
354.401	31.07279
354.915	83.19192
355.428	49.12485
355.941	47.11243
356.454	20.04607
356.967	12.02892
357.48	-16.03777
357.993	50.12571
358.505	35.08729
359.018	110.27278
359.53	106.26229
360.042	50.11537
360.554	112.27754
361.066	44.10963
361.578	70.15893
362.09	86.20835
362.602	54.12405
363.113	111.26521
363.625	59.13768
364.136	77.17344
364.647	76.18405
365.158	103.24374
365.669	33.08101
366.18	75.18023
366.691	84.18847
367.201	72.17607
367.712	65.15269
368.222	98.22998
368.733	60.13446
369.243	89.20359
369.753	71.1675
370.263	100.24517
370.773	27.06748
371.282	84.20442
371.792	56.13327
372.301	65.16022
372.811	70.1862
373.32	110.24316
373.829	36.08725
374.338	37.08498
374.847	63.14909
375.356	19.04619
375.865	77.16989
376.373	51.11933
376.882	91.23326
377.39	114.27815
377.898	25.06305
378.407	88.20409
378.915	170.37468
379.423	95.22473
379.93	182.42326
380.438	90.21951
380.946	82.19454
381.453	143.34506
381.96	150.35983
382.468	114.27139
382.975	147.36127
383.482	109.24813
383.989	176.44978
384.495	182.42443
385.002	168.35566
385.509	196.46516
386.015	198.40632
386.521	221.4984
387.028	213.47997
387.534	200.42655
388.04	250.59078
388.546	197.433
389.051	203.44413
389.557	194.44528
390.063	233.51772
390.568	272.63603
391.073	248.53994
391.578	284.67189
392.084	321.70375
392.589	287.60319
393.093	327.75066
393.598	409.88719
394.103	377.85153
394.607	450.01122
395.112	461.05565
395.616	500.12332
396.12	505.06875
396.624	630.34217
397.128	645.40359
397.632	707.48652
398.136	756.53979
398.639	793.64047
399.143	909.94006
399.646	1015.01357
400.15	1133.14206
400.653	1269.27343
401.156	1383.37784
401.659	1710.96475
402.162	2008.01623
402.664	2687.52195
403.167	3893.45627
403.67	7987.09107
404.172	25210.2839
404.674	59321.63012
405.176	63738.15102
405.678	63977.72923
406.18	64011.81569
406.682	63863.44694
407.184	63926.60148
407.686	28320.67865
408.187	11518.21782
408.688	6871.9221
409.19	4641.6728
409.691	3767.49941
410.192	3156.53126
410.693	2797.97843
411.194	2466.14664
411.694	2289.29826
412.195	2188.47537
412.696	1895.98663
413.196	1770.49288
413.696	1687.87204
414.196	1812.68581
414.696	1710.01322
415.196	1504.5987
415.696	1431.41022
416.196	1235.2936
416.695	930.86716
417.195	802.69053
417.694	780.42545
418.194	734.37165
418.693	672.37967
419.192	619.32527
419.691	575.22458
420.19	623.35796
420.688	633.40424
421.187	535.00433
421.685	507.09077
422.184	527.14456
422.682	434.88658
423.18	333.73313
423.678	338.73836
424.176	299.65718
424.674	304.6506
425.172	254.57901
425.669	305.71695
426.167	272.61002
426.664	219.48581
427.161	207.46626
427.659	218.51636
428.156	248.51444
428.652	164.40773
429.149	207.4923
429.646	130.28941
430.143	171.40465
430.639	139.32741
431.135	138.34234
431.632	157.3561
432.128	135.32243
432.624	166.42229
433.12	105.24019
433.616	122.26776
434.111	96.22845
434.607	102.24422
435.103	64.13597
435.598	117.24417
436.093	82.19183
436.588	95.2146
437.083	90.2026
437.578	118.27258
438.073	102.2547
438.568	107.26258
439.062	107.22945
439.557	52.1226
440.051	44.10006
440.546	19.04387
441.04	103.24666
441.534	38.09633
442.028	92.22137
442.522	57.13755
443.015	-13.02856
443.509	78.18975
444.002	73.17875
444.496	37.08129
444.989	26.06368
445.482	34.08475
445.975	47.10954
446.468	25.05497
446.961	73.15938
447.454	39.08835
447.947	41.09856
448.439	45.11092
448.931	68.15665
449.424	127.31948
449.916	61.14909
450.408	27.06243
450.9	17.04169
451.392	34.08671
451.884	20.0465
452.375	-44.11102
452.867	49.11083
453.358	68.15608
453.849	62.13332
454.341	53.12031
454.832	9.01976
455.323	66.16421
455.814	13.0301
456.304	3.00704
456.795	53.12153
457.285	18.04012
457.776	27.06209
458.266	40.09537
458.756	-44.10608
459.247	40.09607
459.737	56.13562
460.226	80.18208
460.716	50.11976
461.206	27.06498
461.695	21.05218
462.185	60.14246
462.674	55.12602
463.163	67.15042
463.653	63.13457
464.142	47.11406
464.63	10.02442
465.119	30.07018
465.608	83.1936
466.096	11.02417
466.585	32.07351
467.073	8.01904
467.561	47.11281
468.05	23.05331
468.538	41.10024
469.026	-14.03361
469.513	-19.04087
470.001	41.09451
470.489	42.10003
470.976	54.12623
471.463	43.10701
471.951	43.10677
472.438	38.08946
472.925	37.08736
473.412	14.03415
473.899	12.02775
474.385	25.0614
474.872	45.10505
475.359	22.0543
475.845	9.01888
476.331	-10.02162
476.817	20.04887
477.303	66.15295
477.789	-41.09924
478.275	-15.03759
478.761	-26.06256
479.247	45.10057
479.732	28.06999
480.218	53.13837
480.703	2.00496
481.188	36.07835
481.673	69.15809
482.158	26.05663
482.643	24.06142
483.128	43.10046
483.612	103.2429
484.097	20.04842
484.581	36.08353
485.066	34.08342
485.55	82.1805
486.034	10.02191
486.518	85.20208
487.002	-8.01962
487.486	-25.06142
487.969	17.04149
488.453	-10.02509
488.936	-24.05489
489.42	27.0601
489.903	22.05488
490.386	-71.15113
490.869	77.16811
491.352	-2.00485
491.835	-11.02287
492.318	-21.0479
492.8	35.07294
493.283	17.04353
493.765	-7.01731
494.247	51.11863
494.73	10.02235
495.212	-17.04076
495.694	29.06863
496.175	-12.02916
496.657	38.09012
497.139	-62.11017
497.62	23.05556
498.102	50.12427
498.583	-47.11721
499.064	-5.01129
499.545	17.03901
500.026	7.01599
500.507	4.00929
500.988	43.10743
501.469	7.01754
501.949	25.0619
502.43	47.11329
502.91	52.11062
503.39	-1.0025
503.87	59.13924
504.35	3.00708
504.83	3.00663
505.31	-33.08068
505.79	-24.05749
506.269	-59.13832
506.749	-26.06032
507.228	7.01662
507.707	38.08512
508.187	39.09336
508.666	-7.01751
509.145	-17.04028
509.623	-25.05939
510.102	10.02435
510.581	36.08705
511.059	-23.05858
511.538	-15.03903
512.016	16.03859
512.494	14.03385
512.972	30.07211
513.45	-10.02361
513.928	3.00736
514.406	8.01977
514.884	3.00779
515.361	-15.03635
515.839	15.03484
516.316	-35.08643
516.793	4.01017
517.27	2.00485
517.747	-16.04149
518.224	-13.03035
518.701	-41.09247
519.178	21.05281
519.654	-34.08184
520.131	-18.04513
520.607	-44.10931
521.083	-5.01147
521.56	-32.07665
522.036	-41.09114
522.512	46.11366
522.987	41.09901
523.463	-2.00479
523.939	46.11428
524.414	-21.04879
524.89	8.01926
525.365	-25.05742
525.84	5.01213
526.315	15.03659
526.79	28.06355
527.265	32.07433
527.74	-45.11117
528.215	-31.0735
528.689	-42.09401
529.164	-32.06997
529.638	-60.1549
530.112	-44.10543
530.587	-10.02174
531.061	-8.01959
531.534	-20.04885
532.008	57.13853
532.482	21.04862
532.956	-25.06458
533.429	61.14909
533.903	-40.08949
534.376	-22.04946
534.849	-53.1245
535.322	-13.03107
535.795	-31.07602
536.268	26.06327
536.741	-41.09909
537.213	-22.05137
537.686	-4.00989
538.158	-2.00461
538.631	3.00733
539.103	-19.04362
539.575	-54.11412
540.047	-34.07563
540.519	26.06247
540.991	3.00738
541.463	-59.14495
541.934	-69.16
542.406	-23.05611
542.877	-11.02519
543.348	-14.03426
543.82	-50.12395
544.291	-20.04743
544.762	-6.01446
545.233	38.0966
545.703	-25.05668
546.174	-44.10419
546.645	-34.08373
547.115	-44.10832
547.585	-22.05147
548.056	1.00249
548.526	15.03596
548.996	-74.1815
549.466	0
549.935	-26.06323
550.405	-4.00893
550.875	-23.05556
551.344	-67.16375
551.814	-52.12208
552.283	-7.01555
552.752	-14.03337
553.221	-8.01799
553.69	-33.07628
554.159	-38.0964
554.628	-30.06952
555.096	-20.05163
555.565	-42.09517
556.033	-11.02665
556.502	-71.17578
556.97	-35.07971
557.438	-45.10801
557.906	-31.07458
558.374	-5.01178
558.842	-13.03163
559.31	-8.01822
559.777	-35.08719
560.245	-46.10799
560.712	-60.14103
561.18	-22.04971
561.647	-71.16222
562.114	-50.11743
562.581	-7.01745
563.048	-32.07483
563.514	33.08328
563.981	-21.049
564.448	4.00917
564.914	-51.12125
565.381	-54.12658
565.847	-18.04264
566.313	-57.13551
566.779	-29.06663
567.245	-89.21249
567.711	-59.14457
568.176	-43.0988
568.642	-54.13873
569.108	-47.11785
569.573	-104.24882
570.038	-42.09016
570.504	-51.11816
570.969	-62.157
571.434	-30.06809
571.899	-58.14078
572.363	-26.0608
572.828	-35.08219
573.293	-56.13162
573.757	-26.06152
574.222	-41.09409
574.686	2.00467
575.15	-21.0514
575.614	10.0239
576.078	-62.14924
576.542	-45.10501
577.006	-70.16286
577.469	-44.11031
577.933	-16.03714
578.396	-57.13838
578.86	-4.00955
579.323	-5.01222
579.786	-18.03987
580.249	0
580.712	-59.14671
581.175	-61.15373
581.637	-34.07923
582.1	-62.13911
582.563	-51.11144
583.025	-75.18725
583.487	33.06875
583.95	-95.21127
584.412	-21.04513
584.874	-45.11198
585.336	-67.16308
585.797	-27.06007
586.259	-49.1173
586.721	-55.13217
587.182	-59.13951
587.643	-38.08831
588.105	-41.0989
588.566	-33.07058
589.027	-1.00248
589.488	-10.02334
589.949	-16.03945
590.41	27.05427
590.87	-6.01396
591.331	12.02661
591.791	-9.02118
592.252	29.06815
592.712	-20.04871
593.172	0
593.632	74.16474
594.092	-3.0068
594.552	-1.0022
595.011	-53.12445
595.471	43.09817
595.931	-2.00459
596.39	17.04121
596.849	4.00944
597.308	-18.03916
597.768	25.06487
598.227	33.07978
598.685	54.12355
599.144	24.05709
599.603	65.15209
600.062	41.0872
600.52	88.19834
600.978	33.07849
601.437	51.11648
601.895	114.24261
602.353	48.10606
602.811	97.21787
603.269	104.24549
603.727	71.17023
604.184	116.26209
604.642	97.2368
605.099	96.22309
605.557	193.45759
606.014	145.30784
606.471	134.33157
606.928	212.45803
607.385	223.54194
607.842	165.3712
608.299	206.46827
608.755	198.46718
609.212	248.53328
609.668	246.53535
610.125	260.60273
610.581	311.6936
611.037	252.54328
611.493	230.51901
611.949	288.67159
612.405	360.6867
612.861	338.7343
613.316	336.76219
613.772	346.74751
614.227	415.9297
614.683	369.73106
615.138	332.7369
615.593	344.75337
616.048	420.89143
616.503	364.83172
616.958	382.89878
617.412	439.96523
617.867	388.81023
618.321	435.82394
618.776	410.83717
619.23	394.8614
619.684	384.79903
620.138	423.89604
620.592	415.93696
621.046	455.99116
621.5	375.84633
621.954	343.71293
622.407	411.84131
622.861	412.93114
623.314	431.90021
623.768	413.90655
624.221	410.74113
624.674	377.8143
625.127	382.82952
625.58	333.70418
626.033	358.732
626.485	381.85249
626.938	435.95804
627.39	462.9921
627.843	407.87081
628.295	375.8079
628.747	437.96325
629.199	419.88214
629.651	379.81091
630.103	439.92749
630.555	457.87704
631.006	438.93855
631.458	444.96248
631.909	465.95098
632.361	433.92082
632.812	520.08735
633.263	589.12931
633.714	524.99376
634.165	511.11164
634.616	561.18903
635.067	643.23601
635.518	653.36081
635.968	660.10935
636.419	730.36214
636.869	705.45044
637.319	769.52407
637.769	821.54929
638.219	860.70031
638.669	812.6375
639.119	891.77769
639.569	978.91859
640.019	1078.97239
640.468	1070.89005
640.918	1131.10715
641.367	1154.99039
641.816	1257.08931
642.265	1364.34934
642.714	1341.26992
643.163	1451.41259
643.612	1537.70556
644.061	1558.26031
644.51	1592.51914
644.958	1657.44192
645.406	1685.75325
645.855	1821.93204
646.303	1801.71479
646.751	1953.82518
647.199	1971.74629
647.647	1989.86079
648.095	2021.79811
648.543	2125.36466
648.99	2167.11634
649.438	2180.9379
649.885	2327.38892
650.333	2286.22823
650.78	2286.20339
651.227	2284.268
651.674	2321.93197
652.121	2321.29917
652.568	2316.28885
653.015	2245.3019
653.461	2323.13328
653.908	2376.97493
654.354	2329.14164
654.801	2245.03255
655.247	2264.66814
655.693	2216.55588
656.139	2176.08307
656.585	2160.07868
657.031	2168.00917
657.477	2162.67885
657.922	2056.7985
658.368	2059.15698
658.813	2026.78312
659.259	2112.12712
659.704	1998.95574
660.149	2006.83386
660.594	1983.94802
661.039	1921.7358
661.484	1945.9129
661.929	1813.76374
662.373	1799.052
662.818	1868.04537
663.262	1828.9181
663.707	1776.09185
664.151	1783.91335
664.595	1862.94476
665.039	1771.9779
665.483	1721.03662
665.927	1731.71435
666.371	1760.7517
666.814	1747.77566
667.258	1766.85283
667.701	1764.38371
668.145	1739.95968
668.588	1723.92758
669.031	1687.68689
669.474	1733.80287
669.917	1711.44387
670.36	1727.96091
670.803	1805.89308
671.245	1663.18158
671.688	1750.87383
672.13	1773.60595
672.573	1769.04688
673.015	1867.93196
673.457	1760.45225
673.899	1787.87991
674.341	1754.83482
674.783	1779.83503
675.225	1788.9545
675.666	1791.93459
676.108	1754.42218
676.549	1783.72057
676.991	1756.47746
677.432	1694.10333
677.873	1687.56926
678.314	1668.70948
678.755	1785.95831
679.196	1704.58712
679.637	1698.75562
680.078	1705.66855
680.518	1567.48554
680.959	1594.63993
681.399	1603.79623
681.839	1645.76142
682.28	1590.80009
682.72	1489.39961
683.16	1547.76821
683.6	1488.38123
684.039	1442.04656
684.479	1453.62438
684.919	1455.46144
685.358	1394.57906
685.798	1375.71284
686.237	1430.47534
686.676	1305.17548
687.115	1419.42463
687.554	1404.45945
687.993	1365.17369
688.432	1375.27546
688.871	1387.30424
689.309	1371.4282
689.748	1316.95707
690.186	1310.27613
690.625	1319.30205
691.063	1313.3406
691.501	1335.48236
691.939	1345.55635
692.377	1309.38482
692.815	1392.51567
693.253	1275.28539
693.69	1275.04897
694.128	1290.36599
694.565	1244.23358
695.003	1249.473
695.44	1259.25315
695.877	1251.22392
696.314	1213.88292
696.751	1221.0802
697.188	1172.08455
697.625	1223.04693
698.061	1144.13302
698.498	1153.10812
698.934	1186.18223
699.371	1164.11285
699.807	1199.164
700.243	1109.10471
700.679	1092.8831
701.115	1146.06328
701.551	1081.96847
701.987	1015.73923
702.422	1083.04032
702.858	1084.03973
703.294	1112.97871
703.729	1011.98202
704.164	988.90277
704.599	1014.789
705.035	992.76918
705.47	1004.96689
705.904	964.79881
706.339	1009.8417
706.774	990.86108
707.209	964.81123
707.643	945.8429
708.078	961.90423
708.512	918.90732
708.946	909.76422
709.38	919.78789
709.814	924.6909
710.248	965.92461
710.682	958.87225
711.116	907.8247
711.549	817.76993
711.983	865.64602
712.416	868.70654
712.85	831.73065
713.283	825.62608
713.716	852.76696
714.149	747.46386
714.582	802.49897
715.015	754.57745
715.448	821.74914
715.881	729.31227
716.313	751.48558
716.746	728.47127
717.178	747.53075
717.61	781.69693
718.043	667.43247
718.475	711.48379
718.907	688.48934
719.339	627.23358
719.77	648.35127
720.202	582.29232
720.634	649.39138
721.065	651.32898
721.497	667.41833
721.928	617.32269
722.359	599.28571
722.79	582.22904
723.221	583.28033
723.652	588.32456
724.083	553.09388
724.514	599.20164
724.945	504.0543
725.375	549.13669
725.806	531.16842
726.236	566.28845
726.666	535.11951
727.096	544.18379
727.526	572.3147
727.956	536.08471
728.386	501.10231
728.816	510.17763
729.246	565.23867
729.675	470.03463
730.105	456.00921
730.534	474.99287
730.964	502.1246
731.393	486.07037
731.822	474.09828
732.251	524.19272
732.68	460.95801
733.109	506.12008
733.537	545.18673
733.966	528.18051
734.395	511.05079
734.823	481.94716
735.251	437.95357
735.68	470.04501
736.108	423.96591
736.536	480.00578
736.964	438.91787
737.392	438.99713
737.82	448.96701
738.247	461.99016
738.675	489.02535
739.102	432.98268
739.53	489.13823
739.957	463.0903
740.384	429.9377
740.811	414.94099
741.238	435.97249
741.665	475.00339
742.092	313.66652
742.519	435.9853
742.945	449.99135
743.372	447.00878
743.798	395.93062
744.225	436.93345
744.651	430.98051
745.077	448.01248
745.503	405.89198
745.929	507.09872
746.355	421.93149
746.781	453.00485
747.207	445.95786
747.632	440.99642
748.058	479.09124
748.483	425.88414
748.908	398.91049
749.334	401.90684
749.759	422.91597
750.184	429.94166
750.609	447.99189
751.033	443.93102
751.458	470.93355
751.883	428.95743
752.307	339.73725
752.732	462.07339
753.156	409.91965
753.58	449.95318
754.005	379.87452
754.429	391.84924
754.853	406.92692
755.277	413.89358
755.7	427.96562
756.124	372.85274
756.548	371.8034
756.971	431.9552
757.394	397.9317
757.818	427.00616
758.241	447.03214
758.664	378.87967
759.087	377.77731
759.51	367.83267
759.933	352.78713
760.356	411.97469
760.778	340.77377
761.201	335.74773
761.623	321.70612
762.046	349.74802
762.468	373.81739
762.89	405.89983
763.312	397.88975
763.734	379.83823
764.156	321.73688
764.578	342.7145
765	357.80144
765.421	340.80714
765.843	346.84094
766.264	322.70371
766.686	316.72759
767.107	342.76509
767.528	387.91709
767.949	317.74864
768.37	364.83273
768.791	340.75026
769.212	333.78032
769.632	315.68448
770.053	276.67762
770.473	322.71738
770.894	232.5374
771.314	295.64484
771.734	280.60727
772.154	289.68913
772.575	269.57682
772.994	198.42339
773.414	286.63138
773.834	207.48851
774.254	285.64796
774.673	287.65621
775.093	313.72542
775.512	268.62078
775.931	284.67449
776.351	241.56742
776.77	249.57574
777.189	289.6384
777.607	229.55298
778.026	230.54099
778.445	235.56446
778.864	176.42477
779.282	208.46745
779.701	200.47593
780.119	199.47982
780.537	165.39182
780.955	207.49514
781.373	183.42953
781.791	237.50513
782.209	183.38936
782.627	204.51122
783.045	178.3826
783.462	151.36945
783.88	202.49761
784.297	152.36615
784.715	146.36179
785.132	122.2816
785.549	161.38379
785.966	190.45404
786.383	189.44396
786.8	188.41209
787.217	200.45279
787.633	203.48538
788.05	104.23191
788.466	146.323
788.883	175.42976
789.299	83.19017
789.715	155.36097
790.131	130.31007
790.547	155.36835
790.963	152.35921
791.379	146.35343
791.795	83.18013
792.21	101.22508
792.626	96.21699
793.041	117.27645
793.457	100.23614
793.872	109.24321
794.287	143.33145
794.702	84.19613
795.117	93.22416
795.532	102.24859
795.947	112.25409
796.362	108.24133
796.776	141.30692
797.191	125.29363
797.605	99.22655
798.02	110.25633
798.434	166.34835
798.848	168.39902
799.262	106.25283
799.676	142.32998
800.09	88.20837
800.504	76.17689
800.918	59.13061
801.331	53.13165
801.745	63.13865
802.158	41.09864
802.572	100.23266
802.985	96.22026
803.398	63.14452
803.811	50.12195
804.224	38.09057
804.637	77.17756
805.05	69.15256
805.462	64.1509
805.875	40.10136
806.288	62.14567
806.7	18.04362
807.112	28.06236
807.525	35.08241
807.937	52.12493
808.349	33.07972
808.761	49.1173
809.173	76.17828
809.584	75.17742
809.996	51.12069
810.408	32.08147
810.819	43.09809
811.231	60.15608
811.642	82.19679
812.053	70.16511
812.464	34.07807
812.875	33.08254
813.286	74.18592
813.697	43.09444
814.108	55.12905
814.519	88.1894
814.929	31.07658
815.34	25.05822
815.75	49.12189
816.16	18.04305
816.571	12.03031
816.981	21.04748
817.391	0
817.801	46.11119
818.211	116.26252
818.62	62.14476
819.03	32.0758
819.44	5.01252
819.849	20.04845
820.259	55.13452
820.668	2.00482
821.077	27.06584
821.486	7.01617
821.895	25.05898
822.304	59.15102
822.713	33.07512
823.122	34.08206
823.531	4.00908
823.939	58.13696
824.348	37.08641
824.756	20.04838
825.164	33.08005
825.573	64.15499
825.981	16.03831
826.389	33.08017
826.797	60.14781
827.205	70.15538
827.612	28.06656
828.02	-22.05019
828.428	2.00496
828.835	44.11324
829.243	-4.00921
829.65	-3.00734
830.057	6.01408
830.464	63.14978
830.871	78.17983
831.278	66.15343
831.685	30.06421
832.092	-15.03547
832.499	65.13679
832.905	-12.02946
833.312	-48.10513
833.718	41.09957
834.124	59.12974
834.531	2.00486
834.937	53.13194
835.343	-2.00465
835.749	-5.01117
836.155	22.05605
836.561	43.10231
836.966	17.04014
837.372	7.01725
837.777	43.10396
838.183	38.08069
838.588	53.12784
838.993	25.05898
839.399	49.11614
839.804	1.00238
840.209	38.09492
840.613	2.0043
841.018	4.0098
841.423	58.14373
841.828	17.04201
842.232	27.06352
842.637	95.21626
843.041	57.14184
843.445	-2.00485
843.849	12.029
844.253	37.08447
844.657	-10.02476
845.061	66.14608
845.465	32.07474
845.869	17.0382
846.272	24.05694
846.676	-8.01847
847.079	15.03741
847.483	37.08891
847.886	0
848.289	32.08416
848.692	-7.01716
849.095	-2.00465
849.498	41.09879
849.901	44.096
850.304	14.03235
850.707	8.01976
851.109	26.06334
851.512	-1.0024
851.914	17.04195
852.316	64.15773
852.718	51.13082
853.121	12.02856
853.523	21.04705
853.925	8.02057
854.326	10.02448
854.728	48.11977
855.13	-17.04336
855.531	23.05331
855.933	42.09602
856.334	32.0779
856.736	0
857.137	66.14839
857.538	48.11742
857.939	38.09213
858.34	5.01169
858.741	16.04052
859.142	32.07372
859.542	23.05945
859.943	13.03132
860.343	14.0339
860.744	7.01657
861.144	105.24636
861.544	15.03547
861.945	25.06167
862.345	38.08914
862.745	45.10875
863.145	37.08341
863.544	22.0541
863.944	25.05698
864.344	-13.03103
864.743	91.21526
865.143	58.14504
865.542	-54.12101
865.941	18.04336
866.34	57.12913
866.74	11.02882
867.139	117.2699
867.537	-7.01718
867.936	9.0211
868.335	-3.00741
868.734	28.06949
869.132	-48.10766
869.531	64.14637
869.929	20.04423
870.327	23.05327
870.726	15.03584
871.124	44.09787
871.522	-42.10454
871.92	34.08097
872.318	13.03054
872.715	-8.01896
873.113	-9.0212
873.511	28.0672
873.908	21.05233
874.306	4.00976
874.703	4.00962
875.1	-26.06403
875.497	18.04153
875.894	26.06285
876.291	33.07837
876.688	18.04514
877.085	-6.01387
877.482	-20.04882
877.878	34.0801
878.275	13.03216
878.671	-34.07122
879.068	31.07211
879.464	57.13212
879.86	-6.01377
880.256	-11.02596
880.652	-21.05214
881.048	-6.01429
881.444	-13.02959
881.84	20.04918
882.236	29.0704
882.631	59.13989
883.027	47.10885
883.422	-32.07953
883.817	12.02952
884.213	32.0795
884.608	54.13038
885.003	10.02313
885.398	-17.04155
885.793	-7.01702
886.188	-25.06055
886.582	44.1078
886.977	30.06806
887.371	16.03892
887.766	-7.01706
888.16	-26.06218
888.554	20.04745
888.949	47.11359
889.343	36.08422
889.737	1.00263
890.131	14.03406
890.525	55.13652
890.918	-4.00978
891.312	8.01831
891.706	12.03053
892.099	16.03933
892.492	24.0493
892.886	20.04717
893.279	17.04187
893.672	31.07692
894.065	28.06786
894.458	15.03616
894.851	13.03059
895.244	-2.00497
895.637	39.09076
896.029	39.09251
896.422	-15.03518
896.814	2.00481
897.206	22.05135
897.599	47.11165
897.991	32.07513
898.383	22.05028
898.775	65.14179
899.167	27.06166
899.559	6.0146
899.951	78.17343
900.342	-8.0196
900.734	24.0591
901.125	0
901.517	40.09479
901.908	38.08617
902.299	-2.00476
902.69	5.01153
903.082	52.12089
903.473	40.09376
903.863	9.02215
904.254	33.07464
904.645	28.0663
905.036	62.14709
905.426	21.0455
905.817	21.04943
906.207	-21.0481
906.597	14.03198
906.987	9.02245
907.378	51.12497
907.768	43.11038
908.158	4.00943
908.547	22.05595
908.937	4.00984
909.327	23.05378
909.717	38.09144
910.106	37.08505
910.495	-12.02879
910.885	45.11019
911.274	27.06508
911.663	3.00732
912.052	36.08448
912.441	45.11129
912.83	9.01977
913.219	26.06565
913.608	51.12055
913.997	-8.01972
914.385	52.11912
914.774	24.05626
915.162	46.1066
915.55	62.14237
915.939	16.03948
916.327	26.06213
916.715	71.17662
917.103	17.03968
917.491	56.13245
917.878	-4.00952
918.266	42.10469
918.654	55.13647
919.041	59.15055
919.429	21.04777
919.816	-24.05928
920.203	61.14329
920.591	47.11238
920.978	32.07551
921.365	4.01026
921.752	-19.04329
922.139	78.1605
922.525	5.01168
922.912	34.07951
923.299	15.03616
923.685	-26.06568
924.072	-25.05451
924.458	39.09358
924.844	-28.06766
925.231	-33.07403
925.617	27.06724
926.003	9.02224
926.389	-10.02454
926.774	-19.04675
927.16	50.11908
927.546	67.16721
927.931	31.0741
928.317	24.05272
928.702	36.08137
929.088	63.14603
929.473	45.11137
929.858	61.14419
930.243	36.08412
930.628	33.07828
931.013	25.05996
931.398	61.13126
931.783	-28.07128
932.167	42.09995
932.552	17.04107
932.937	-17.04079
933.321	35.08554
933.705	-19.04611
934.09	-1.0024
934.474	-1.00227
934.858	9.02274
935.242	-13.0291
935.626	51.1265
936.009	42.10929
936.393	42.10465
936.777	17.04249
937.16	31.07877
937.544	-9.02018
937.927	8.01982
938.311	65.1506
938.694	44.11285
939.077	21.04848
939.46	39.0899
939.843	-42.0828
940.226	10.02474
940.609	32.0715
940.991	-36.08902
941.374	17.04045
941.757	1.00238
942.139	13.02825
942.522	10.02265
942.904	52.11988
943.286	0
943.668	70.17625
944.05	28.06661
944.432	10.02378
944.814	59.13773
945.196	14.0333
945.578	9.02108
945.959	-42.0949
946.341	-29.06794
946.722	17.0382
947.104	16.03693
947.485	3.00675
947.866	51.12479
948.247	56.1373
948.628	-29.06746
949.009	3.00747
949.39	-1.0024
949.771	-3.00657
950.152	16.03802
950.532	29.07096
950.913	28.06491
951.293	15.03981
951.674	-5.01173
952.054	60.14563
952.434	15.0361
952.814	-6.01365
953.194	5.01254
953.574	23.05437
953.954	-29.06623
954.334	56.13541
954.714	10.02372
955.093	39.09219
955.473	38.09272
955.853	27.0677
956.232	19.05057
956.611	-4.00916
956.99	14.03424
957.37	4.00982
957.749	-61.14004
958.128	-3.00739
958.506	6.01516
958.885	-28.06868
959.264	62.14771
959.643	91.19766
960.021	40.09621
960.4	13.02831
960.778	-12.02824
961.156	-22.0535
961.535	18.03992
961.913	22.04987
962.291	18.04539
962.669	-12.02977
963.047	36.08924
963.424	92.22773
963.802	-34.08181
964.18	-8.01932
964.557	44.09637
964.935	10.02283
965.312	25.06348
965.69	12.02878
966.067	-30.07027
966.444	-4.00936
966.821	15.03754
967.198	16.03696
967.575	0
967.952	18.0407
968.329	52.12222
968.705	42.08654
969.082	39.09804
969.458	-17.04025
969.835	1.00236
970.211	51.12756
970.587	31.07461
970.963	-24.0595
971.339	3.00766
971.715	46.11073
972.091	11.02616
972.467	-36.08626
972.843	51.12321
973.219	17.0389
973.594	-55.14143
973.97	-6.01342
974.345	9.02092
974.721	-27.06256
975.096	24.0565
975.471	12.02732
975.846	-1.00231
976.221	-5.01237
976.596	73.17014
976.971	33.07912
977.346	26.05759
977.72	26.06365
978.095	0
978.469	26.05939
978.844	61.14603
979.218	42.09833
979.593	27.06189
979.967	-40.09314
980.341	52.11499
980.715	25.06103
981.089	29.06995
981.463	21.04635
981.837	37.08817
982.21	19.04125
982.584	27.06313
982.957	13.03164
983.331	-24.05418
983.704	38.09109
984.078	8.01904
984.451	-9.02134
984.824	16.03791
985.197	5.01154
985.57	-12.02874
985.943	-9.02113
986.316	-14.03279
986.688	28.06481
987.061	57.12813
987.434	39.09958
987.806	-24.05568
988.179	-16.03643
988.551	25.06094
988.923	1.00237
989.295	-20.04833
989.667	10.02347
990.039	44.10648
990.411	-55.12145
990.783	-30.06604
991.155	-28.06584
991.527	20.04648
991.898	3.00729
992.27	-22.05356
992.641	26.06247
993.012	-37.08232
993.384	6.01374
993.755	21.05213
994.126	37.08634
994.497	-6.01429
994.868	14.03052
995.239	7.01633
995.61	3.00733
995.98	-8.0188
996.351	30.07219
996.722	51.11455
997.092	8.0184
997.462	-10.02294
997.833	29.06535
998.203	11.02531
998.573	19.04592
998.943	10.02275
999.313	21.04881
999.683	62.14277
1000.053	-19.04125
1000.423	14.03255
1000.792	-43.10778
1001.162	-14.0332
1001.531	61.1443
1001.901	-13.0313
1002.27	-15.03165
1002.639	-26.06424
1003.009	-1.00229
1003.378	17.04217
1003.747	16.03612
1004.116	-9.02081
1004.485	36.0825
1004.853	-10.02424
1005.222	-45.10875
1005.591	44.09962
1005.959	4.00873
1006.328	46.09926
1006.696	4.00928
1007.064	-8.01933
1007.433	16.03828
1007.801	6.01397
1008.169	-11.02667
1008.537	50.1052
1008.905	3.0068
1009.273	13.03074
1009.64	20.04662
1010.008	2.00459
1010.375	24.05496
1010.743	-22.04751
1011.11	75.1726
1011.478	31.07447
1011.845	26.05831
1012.212	53.11586
1012.579	10.02377
1012.946	45.10116
1013.313	49.11037
1013.68	-5.01076
1014.047	-15.03463
1014.414	6.01364
1014.78	26.06259
1015.147	18.04135
1015.513	8.01861
1015.88	34.08311
1016.246	13.03054
1016.612	33.07156
1016.978	57.13468
1017.344	28.06681
1017.71	41.09515
1018.076	18.04032
1018.442	42.10446
1018.808	44.10684
1019.174	-24.05821
1019.539	-48.10255
1019.905	28.06381
1020.27	-29.0695
1020.636	-9.02056
1021.001	55.12632
1021.366	10.02329
1021.731	82.20476
1022.096	-25.0621
1022.461	50.11348
1022.826	33.07594
1023.191	31.07868
1023.556	-4.00899
1023.92	8.0188
1024.285	29.06722
1024.649	33.07716
1025.014	-15.03559
1025.378	25.06108
1025.742	-14.03342
1026.107	30.06462
1026.471	73.16059
1026.835	29.06921
1027.199	-14.03275
1027.562	37.08129
1027.926	16.03745
1028.29	7.01717
1028.654	10.022
1029.017	67.15782
1029.381	27.06224
1029.744	-13.03227
1030.107	38.08607
1030.471	43.09923
1030.834	0
1031.197	45.1036
1031.56	11.02483
1031.923	-11.02773
1032.286	32.07198
1032.648	-27.06169
1033.011	57.12666
1033.374	-3.00672
1033.736	-2.00512
1034.099	-13.03075
1034.461	34.08351
1034.823	21.05071
1035.185	-35.08503
1035.548	43.10089
1035.91	7.01613
1036.272	42.09183
1036.634	23.05411
1036.995	21.04697
1037.357	18.04246
1037.719	16.03758
1038.08	59.13491
1038.442	6.0137
1038.803	5.01137
1039.165	-1.00243
1039.526	23.05352
1039.887	-15.03471
1040.248	29.07009
1040.609	-18.04265
1040.97	-1.00235
1041.331	51.12497
1041.692	44.10023
1042.053	53.114
1042.413	4.00891
1042.774	38.0889
1043.134	-11.02495
1043.495	29.07019
1043.855	50.11752
1044.215	20.04754
1044.576	28.06484
1044.936	17.03713
1045.296	34.08156
1045.656	-3.00704
1046.016	0
1046.375	15.03506
1046.735	10.02223
1047.095	15.03377
1047.454	29.05767
1047.814	53.12192
1048.173	45.10111
1048.533	-15.03319
1048.892	13.03023
1049.251	32.07665
1049.61	-27.06473
1049.969	-24.05462
1050.328	8.01661
1050.687	-30.07043
1051.046	-23.05411
1051.405	-16.03822
1051.763	37.08239
1052.122	-33.08002
1052.48	6.01426
1052.839	94.21325
1053.197	15.0339
1053.555	-5.01071
1053.914	16.03756
1054.272	-21.04806
1054.63	-27.06436
1054.988	47.10795
1055.345	-26.05311
1055.703	65.14947
1056.061	48.12029
1056.419	34.08643
1056.776	-24.05542
1057.134	-42.09261
1057.491	21.05075
1057.848	-21.05044
1058.206	19.04215
1058.563	-21.04451
1058.92	73.15863
1059.277	26.06171
1059.634	-12.02685
1059.991	42.0966
1060.348	8.01745
1060.704	81.18812
1061.061	15.03273
1061.418	-21.0495
1061.774	27.06417
1062.131	17.04431
1062.487	-32.0721
1062.843	-25.06055
1063.199	26.06232
1063.555	14.0315
1063.911	4.00971
1064.267	13.02538
1064.623	43.1014
1064.979	-30.0662
1065.335	-7.016
1065.691	-50.11486
1066.046	48.09988
1066.402	-7.01521
1066.757	24.05847
1067.112	39.09133
1067.468	19.0438
1067.823	-53.12148
1068.178	35.08055
1068.533	62.14334
1068.888	16.03653
1069.243	20.04758
1069.598	-22.05147
1069.952	39.0859
1070.307	-6.01448
1070.662	16.03708
1071.016	20.04364
1071.371	63.13696
1071.725	9.02051
1072.079	35.08093
1072.434	29.06802
1072.788	-23.05227
1073.142	63.14822
1073.496	-29.06655
1073.85	37.08177
1074.203	8.01874
1074.557	48.12478
1074.911	56.12637
1075.265	27.06005
1075.618	73.17001
1075.971	16.03653
1076.325	29.07169
1076.678	-8.01766
1077.031	-83.1796
1077.385	66.13679
1077.738	23.04951
1078.091	37.08123
1078.444	-23.05094
1078.796	14.03337
1079.149	46.11001
1079.502	17.03893
1079.855	1.00225
1080.207	27.0637
1080.56	39.09786
1080.912	13.03042
1081.264	35.08122
1081.617	32.07524
1081.969	24.05882
1082.321	19.04448
1082.673	37.08215
1083.025	-18.04103
1083.377	275.58739
1083.728	42.09296
1084.08	5.01198
1084.432	-14.03253
1084.783	12.02642
1085.135	-5.01221
1085.486	1.00222
1085.838	36.08551
1086.189	3.0071
1086.54	-22.05064
1086.891	56.13872
1087.242	62.14698
1087.593	26.05977
1087.944	56.12177
1088.295	61.13115
1088.646	67.15819
1088.996	-3.00704
1089.347	-2.00471
1089.698	53.12114
1090.048	-8.02006
1090.398	19.04192
1090.749	1.00228
1091.099	24.05904
1091.449	13.03142
1091.799	32.07706
1092.149	6.01437
1092.499	25.05868
1092.849	1.00247
1093.199	6.01439
1093.548	12.02813
1093.898	31.0743
1094.248	-5.01233
1094.597	10.02508
1094.947	30.07767
1095.296	35.0836
1095.645	42.10473
1095.994	22.05078
1096.343	41.09961
1096.692	38.09817
1097.041	25.06682
1097.39	24.05764
1097.739	5.0126
1098.088	-22.05711
1098.437	3.00778
1098.785	-18.04697
1099.134	-15.03814
1099.482	-5.01348
1099.83	31.07879
1100.179	52.13336
1100.527	-33.08471
1100.875	-18.04684
1101.223	16.04155
1101.571	-30.08097
1101.919	29.07512
1102.267	19.05263
1102.615	3.00964
1102.962	7.02244
1103.31	11.0353
1103.658	2.00641
