Data from N1R0 105C sample 3_Subt2__1__13-39-10-638.txt Node

Date: Tue Sep 16 13:39:10 PDT 2025
User: uwsun
Spectrometer: HDX01956
Trigger mode: 0
Integration Time (sec): 5.000000E-1
Scans to average: 1
Nonlinearity correction enabled: true
Boxcar width: 0
Storing dark spectrum: false
XAxis mode: Wavelengths
Number of Pixels in Spectrum: 2068
>>>>>Begin Spectral Data<<<<<
194.03	-7.02034
194.578	3.00975
195.127	-3.00962
195.676	10.03214
196.225	-4.01069
196.773	-19.05326
197.321	-5.01401
197.87	-7.01836
198.418	9.02371
198.966	42.11246
199.513	24.0623
200.061	-18.04703
200.609	22.05916
201.156	-2.00452
201.704	-6.0155
202.251	29.07848
202.798	-13.03457
203.345	35.08846
203.892	-9.02337
204.438	-13.03177
204.985	-9.02203
205.532	2.00538
206.078	-13.03267
206.624	68.17317
207.17	63.15036
207.716	19.04775
208.262	-10.0206
208.808	43.11015
209.354	51.12848
209.899	5.01289
210.445	17.04355
210.99	58.14404
211.535	36.08679
212.08	-11.02634
212.625	-9.02309
213.17	65.16801
213.715	32.07495
214.259	16.03835
214.804	4.01005
215.348	63.14828
215.892	34.08435
216.436	-20.04714
216.98	9.02031
217.524	50.12182
218.068	15.03872
218.612	50.12926
219.155	41.09886
219.698	5.0122
220.242	-16.04053
220.785	44.10531
221.328	30.07546
221.871	30.07783
222.414	29.07295
222.956	-62.15353
223.499	-34.07829
224.041	18.04198
224.583	-7.01517
225.126	-23.052
225.668	-17.04235
226.21	25.06437
226.751	11.0251
227.293	-11.02553
227.835	6.01502
228.376	25.05788
228.918	20.05061
229.459	6.01527
230	52.12655
230.541	22.05155
231.082	27.06687
231.622	-27.06281
232.163	0
232.704	51.12922
233.244	-12.03045
233.784	-5.01237
234.324	93.21077
234.864	19.04376
235.404	1.0024
235.944	-7.01686
236.484	62.15616
237.023	42.10033
237.563	36.08508
238.102	42.10072
238.641	-3.00769
239.18	-13.0313
239.719	11.02803
240.258	45.10257
240.797	3.00732
241.335	35.08627
241.874	70.13832
242.412	53.1304
242.95	32.07863
243.488	9.02064
244.026	46.10863
244.564	37.07766
245.102	39.08993
245.64	2.00487
246.177	4.00909
246.715	73.17682
247.252	-3.00697
247.789	40.0757
248.326	27.06621
248.863	28.06288
249.4	14.03241
249.936	52.11086
250.473	40.0961
251.009	-18.04232
251.546	65.14707
252.082	-15.0333
252.618	24.05478
253.154	23.05636
253.69	5.01147
254.226	30.07306
254.761	15.0344
255.297	-17.0382
255.832	29.07019
256.367	37.0883
256.903	14.03186
257.438	24.05727
257.972	21.04773
258.507	5.01173
259.042	59.13012
259.576	50.11256
260.111	12.02813
260.645	-4.00888
261.179	66.15634
261.713	36.0821
262.247	11.02565
262.781	56.11996
263.315	-13.03227
263.849	37.09398
264.382	53.12333
264.915	65.1556
265.449	-15.03752
265.982	34.0786
266.515	62.1537
267.048	51.10993
267.58	-12.02661
268.113	18.03982
268.646	-56.1413
269.178	-13.02986
269.71	104.23133
270.243	52.12232
270.775	38.09892
271.307	17.04116
271.838	10.0241
272.37	3.0075
272.902	25.05772
273.433	61.13723
273.965	24.05932
274.496	14.03533
275.027	-1.00254
275.558	-19.04761
276.089	2.00511
276.62	-52.1349
277.15	15.03756
277.681	-15.03323
278.211	12.02982
278.741	41.09277
279.272	53.12314
279.802	21.05313
280.332	17.04099
280.861	0
281.391	-5.01167
281.921	8.01952
282.45	-17.04316
282.98	20.05297
283.509	64.14767
284.038	37.08627
284.567	39.09244
285.096	47.11572
285.625	-54.12593
286.153	40.09727
286.682	28.06568
287.21	-25.06117
287.739	29.06979
288.267	24.05958
288.795	6.01596
289.323	29.06948
289.851	8.01928
290.378	-47.10855
290.906	35.08716
291.433	40.10122
291.961	73.16894
292.488	24.06058
293.015	26.06268
293.542	80.20746
294.069	47.11828
294.596	-1.0025
295.122	42.10252
295.649	-8.01802
296.175	33.0808
296.702	91.22431
297.228	30.07353
297.754	9.02078
298.28	69.16107
298.806	15.03695
299.332	15.03446
299.857	47.10885
300.383	39.09958
300.908	56.13974
301.433	60.14917
301.958	-7.01651
302.483	-24.06112
303.008	44.11126
303.533	37.09686
304.058	14.03339
304.582	17.04112
305.107	-10.02663
305.631	6.01397
306.155	9.02151
306.679	18.04336
307.203	55.1299
307.727	12.02914
308.251	72.17972
308.775	87.21397
309.298	-7.01735
309.822	18.04613
310.345	32.07814
310.868	3.00743
311.391	37.09281
311.914	20.05117
312.437	42.09806
312.96	13.03142
313.482	-6.0145
314.005	-29.07449
314.527	-15.03995
315.049	33.08509
315.571	28.06468
316.093	37.09338
316.615	14.0344
317.137	12.02696
317.659	62.15246
318.18	-14.03435
318.702	68.16201
319.223	22.04625
319.744	18.04168
320.265	35.0871
320.786	8.0205
321.307	6.01519
321.828	66.15167
322.348	27.0651
322.869	58.14078
323.389	337.63643
323.909	-40.09497
324.43	34.08302
324.95	61.1424
325.47	35.08865
325.989	20.04871
326.509	-6.01392
327.029	45.1053
327.548	37.086
328.067	56.13852
328.587	40.10237
329.106	63.14481
329.625	58.1531
330.144	52.12365
330.662	24.05792
331.181	67.16113
331.7	19.0454
332.218	44.09816
332.736	31.07449
333.255	33.07975
333.773	39.09429
334.291	49.12499
334.808	44.10184
335.326	-2.00465
335.844	53.1276
336.361	71.18561
336.879	57.13723
337.396	84.20785
337.913	49.11609
338.43	24.05584
338.947	52.12707
339.464	54.11982
339.981	-18.04423
340.497	24.06052
341.014	27.06753
341.53	67.15462
342.046	110.27776
342.562	69.17488
343.078	29.07022
343.594	33.08056
344.11	84.20472
344.626	13.03371
345.141	82.19146
345.657	89.20539
346.172	41.10143
346.687	54.12707
347.202	82.19138
347.717	44.1076
348.232	68.17244
348.747	29.06908
349.261	59.13333
349.776	71.17243
350.29	75.1911
350.805	77.19349
351.319	23.05514
351.833	76.17898
352.347	45.10912
352.861	70.16799
353.374	53.12377
353.888	107.2651
354.401	61.1424
354.915	82.18965
355.428	69.17519
355.941	49.11717
356.454	34.0781
356.967	23.05531
357.48	41.09571
357.993	44.11075
358.505	29.0724
359.018	50.12535
359.53	98.24285
360.042	65.14953
360.554	101.25079
361.066	74.18338
361.578	122.27407
362.09	87.21073
362.602	78.17832
363.113	74.17806
363.625	69.16069
364.136	65.14677
364.647	99.23871
365.158	74.1761
365.669	17.04186
366.18	70.16837
366.691	69.1553
367.201	85.20736
367.712	92.21497
368.222	120.2804
368.733	81.18073
369.243	61.14032
369.753	44.10435
370.263	127.30981
370.773	29.07246
371.282	92.22355
371.792	106.24982
372.301	8.01993
372.811	83.2203
373.32	95.21066
373.829	26.06313
374.338	49.11227
374.847	64.15142
375.356	53.12804
375.865	104.22816
376.373	104.24082
376.882	108.27601
377.39	95.23261
377.898	67.1677
378.407	109.25174
378.915	83.18627
379.423	82.19446
379.93	180.41877
380.438	73.17861
380.946	99.2341
381.453	113.27422
381.96	131.31539
382.468	167.39351
382.975	166.40653
383.482	97.22135
383.989	152.39009
384.495	163.38154
385.002	99.21275
385.509	178.42391
386.015	220.44922
386.521	190.43121
387.028	188.4258
387.534	151.32548
388.04	260.61322
388.546	180.39705
389.051	199.43574
389.557	291.6549
390.063	176.3957
390.568	253.59381
391.073	220.48183
391.578	264.627
392.084	325.71191
392.589	280.58938
393.093	356.81247
393.598	391.85141
394.103	402.90336
394.607	470.05193
395.112	465.06398
395.616	517.15754
396.12	479.01938
396.624	587.26209
397.128	632.37905
397.632	752.56563
398.136	745.52114
398.639	790.63536
399.143	897.91939
399.646	1035.04381
400.15	1098.09335
400.653	1246.24516
401.156	1408.40508
401.659	1686.94116
402.162	1989.00388
402.664	2694.5187
403.167	4000.41532
403.67	7829.96839
404.172	25146.39398
404.674	59318.59103
405.176	63738.15102
405.678	63977.72923
406.18	64011.81569
406.682	63863.44694
407.184	63926.60148
407.686	28667.81099
408.187	11683.99986
408.688	6878.92187
409.19	4704.63758
409.691	3826.47992
410.192	3246.52429
410.693	2725.97581
411.194	2428.13542
411.694	2338.32097
412.195	2125.43311
412.696	1925.00811
413.196	1768.49157
413.696	1676.8615
414.196	1726.62249
414.696	1712.01522
415.196	1589.68538
415.696	1362.33598
416.196	1183.22492
416.695	924.85766
417.195	808.70095
417.694	835.50505
418.194	745.38847
418.693	650.34105
419.192	627.34011
419.691	635.33497
420.19	623.35796
420.688	600.34005
421.187	573.06577
421.685	514.1042
422.184	504.09987
422.682	410.84211
423.18	426.91953
423.678	316.69352
424.176	279.6158
424.674	299.64059
425.172	256.58334
425.669	240.57132
426.167	286.63956
426.664	187.41759
427.161	222.49851
427.659	197.46852
428.156	244.5066
428.652	160.39807
429.149	169.40487
429.646	112.25027
430.143	176.41608
430.639	171.40027
431.135	139.34476
431.632	121.27645
432.128	165.39182
432.624	118.30273
433.12	114.2603
433.616	168.36515
434.111	85.2027
434.607	65.15673
435.103	98.20665
435.598	125.2604
436.093	96.22397
436.588	88.19907
437.083	87.19597
437.578	115.26581
438.073	129.32054
438.568	106.26017
439.062	109.23364
439.557	55.1296
440.051	64.14496
440.546	34.07826
441.04	75.18057
441.534	28.07111
442.028	103.24732
442.522	35.08481
443.015	-19.0418
443.509	59.14404
444.002	37.0912
444.496	63.13766
444.989	78.18918
445.482	23.05744
445.975	83.19208
446.468	49.10721
446.961	51.11186
447.454	13.02961
447.947	54.12949
448.439	85.20797
448.931	106.24233
449.424	80.20294
449.916	71.1732
450.408	69.15822
450.9	54.13151
451.392	42.10696
451.884	36.08343
452.375	32.07965
452.867	25.05682
453.358	-2.00466
453.849	39.08428
454.341	50.11357
454.832	31.06774
455.323	32.08011
455.814	-4.00929
456.304	61.14145
456.795	-2.00464
457.285	32.07112
457.776	95.21548
458.266	17.04071
458.756	-35.08423
459.247	18.04341
459.737	87.20946
460.226	91.20666
460.716	24.05777
461.206	19.0458
461.695	6.01495
462.185	27.06451
462.674	54.12375
463.163	14.03177
463.653	24.0517
464.142	60.14525
464.63	32.07782
465.119	44.10265
465.608	77.17982
466.096	-52.11576
466.585	71.16183
467.073	5.01191
467.561	34.08181
468.05	28.06484
468.538	35.08567
469.026	11.02628
469.513	-9.01932
470.001	6.01393
470.489	16.0383
470.976	66.15392
471.463	40.09959
471.951	28.06972
472.438	12.02839
472.925	59.1387
473.412	27.06569
473.899	-4.00928
474.385	24.05895
474.872	22.05159
475.359	63.15432
475.845	-17.03587
476.331	5.01078
476.817	11.02692
477.303	11.02577
477.789	-4.00961
478.275	14.0349
478.761	0
479.247	30.06726
479.732	7.01757
480.218	45.11764
480.703	-13.03233
481.188	-9.01977
481.673	19.04397
482.158	32.06961
482.643	27.06906
483.128	53.12358
483.612	75.17783
484.097	-3.00729
484.581	10.02332
485.066	76.18502
485.55	24.05347
486.034	41.08925
486.518	101.23938
487.002	12.02932
487.486	2.00489
487.969	7.01711
488.453	-16.04018
488.936	22.04985
489.42	21.0468
489.903	-17.0427
490.386	-43.09097
490.869	63.13795
491.352	10.0242
491.835	-19.03958
492.318	0
492.8	0
493.283	32.08172
493.765	16.0394
494.247	24.05612
494.73	-6.01345
495.212	-27.06486
495.694	33.07803
496.175	33.07951
496.657	60.14169
497.139	12.02091
497.62	5.01212
498.102	14.03502
498.583	-70.1753
499.064	-1.00226
499.545	-2.00461
500.026	-4.00916
500.507	-40.09372
500.988	43.10743
501.469	-30.07567
501.949	44.10856
502.43	2.00486
502.91	58.12322
503.39	-16.04005
503.87	51.12055
504.35	23.05405
504.83	-1.00221
505.31	10.02425
505.79	-59.14226
506.269	-15.03486
506.749	-25.05799
507.228	27.06385
507.707	37.0829
508.187	13.03128
508.666	21.05226
509.145	2.00472
509.623	25.05882
510.102	-14.03425
510.581	-3.00731
511.059	11.02785
511.538	-36.094
512.016	53.12693
512.494	6.01453
512.972	-20.04853
513.45	-58.13824
513.928	-1.00245
514.406	2.00495
514.884	20.05178
515.361	-26.06313
515.839	-24.05617
516.316	26.06349
516.793	-4.01018
517.27	6.01455
517.747	-39.10154
518.224	-20.04675
518.701	-48.10841
519.178	21.05281
519.654	-15.03598
520.131	-8.02002
520.607	-46.11433
521.083	-43.09935
521.56	-56.13475
522.036	-65.14521
522.512	32.07927
522.987	18.04366
523.463	-11.02639
523.939	3.00751
524.414	6.01387
524.89	13.03126
525.365	12.02736
525.84	-30.07325
526.315	2.00489
526.79	3.00684
527.265	16.03728
527.74	-16.03932
528.215	-38.09022
528.689	-53.11889
529.164	-11.02394
529.638	-69.17841
530.112	-20.0477
530.587	-39.08529
531.061	-19.04661
531.534	2.00487
532.008	37.09026
532.482	6.01393
532.956	-38.09838
533.429	24.05906
533.903	-10.02223
534.376	13.02902
534.849	-32.07486
535.322	7.01667
535.795	-26.0637
536.268	-13.03187
536.741	-54.13082
537.213	-22.05137
537.686	-31.07703
538.158	-9.02076
538.631	-6.01469
539.103	-48.11084
539.575	-41.0864
540.047	-3.00663
540.519	3.00724
540.991	-6.01479
541.463	-73.17981
541.934	-44.10152
542.406	-4.00972
542.877	-45.10377
543.348	7.01706
543.82	-29.07161
544.291	7.01651
544.762	-14.0338
545.233	8.02045
545.703	-16.03621
546.174	-7.01646
546.645	-28.06888
547.115	-10.02446
547.585	-11.02568
548.056	0
548.526	14.03357
548.996	-50.12209
549.466	-15.03697
549.935	-13.03154
550.405	-64.14466
550.875	8.01921
551.344	-35.08503
551.814	-40.09369
552.283	9.01992
552.752	-45.10789
553.221	7.01569
553.69	4.00918
554.159	-33.08364
554.628	-31.07185
555.096	-7.01803
555.565	-26.05872
556.033	45.10789
556.502	-61.15075
556.97	-26.0591
557.438	-62.1493
557.906	-2.00479
558.374	-2.00471
558.842	-2.00486
559.31	3.00682
559.777	-30.07467
560.245	-60.14125
560.712	-26.06071
561.18	18.04034
561.647	-82.18777
562.114	-37.08668
562.581	-55.13831
563.048	-43.10077
563.514	42.10583
563.981	-8.01862
564.448	17.03887
564.914	-50.11885
565.381	-2.00464
565.847	-8.01891
566.313	-42.09957
566.779	-64.14808
567.245	-41.09699
567.711	-55.13467
568.176	-74.17108
568.642	-19.04852
569.108	-65.16351
569.573	-87.20747
570.038	-72.15556
570.504	-59.13692
570.969	-92.23421
571.434	-30.06809
571.899	-64.15552
572.363	-23.05375
572.828	13.03024
573.293	-36.08429
573.757	-3.00707
574.222	-28.06409
574.686	3.007
575.15	-9.02198
575.614	46.10917
576.078	-72.17364
576.542	-26.06044
577.006	-31.07157
577.469	-43.10778
577.933	-65.15233
578.396	-43.10412
578.86	-44.10583
579.323	3.00732
579.786	13.02861
580.249	38.09015
580.712	-47.11662
581.175	-79.19973
581.637	-34.07923
582.1	-76.17102
582.563	-20.04342
583.025	-7.01726
583.487	4.00839
583.95	-89.19768
584.412	6.01282
584.874	-29.07196
585.336	-34.08225
585.797	-6.01329
586.259	-16.03806
586.721	-58.13946
587.182	-29.06818
587.643	-58.13531
588.105	-58.14035
588.566	-42.09001
589.027	-16.03978
589.488	-50.11761
589.949	8.01964
590.41	-2.00405
590.87	7.01624
591.331	3.00667
591.791	-23.05428
592.252	8.01888
592.712	-59.14473
593.172	35.08029
593.632	44.09856
594.092	20.0451
594.552	7.01541
595.011	-31.07248
595.471	23.05272
595.931	31.07066
596.39	26.06292
596.849	-39.09279
597.308	23.0496
597.768	16.04158
598.227	0
598.685	38.08722
599.144	32.07601
599.603	35.08238
600.062	6.01286
600.52	35.07974
600.978	21.05006
601.437	85.1928
601.895	108.23014
602.353	46.10168
602.811	106.23764
603.269	95.22464
603.727	75.17968
604.184	100.22668
604.642	147.35552
605.099	121.27979
605.557	111.26734
606.014	132.28104
606.471	151.37247
606.928	211.45597
607.385	179.4386
607.842	204.45527
608.299	192.43769
608.755	238.55719
609.212	215.46561
609.668	283.61103
610.125	298.6856
610.581	287.64326
611.037	259.55753
611.493	241.54261
611.949	280.65396
612.405	273.53175
612.861	321.69989
613.316	324.73677
613.772	353.76149
614.227	386.8699
614.683	366.72562
615.138	361.79643
615.593	338.74117
616.048	384.82143
616.503	362.82749
616.958	375.88352
617.412	406.89887
617.867	407.84632
618.321	421.80015
618.776	431.87586
619.23	365.80289
619.684	397.82369
620.138	414.8787
620.592	429.96579
621.046	442.9655
621.5	398.89401
621.954	372.7682
622.407	377.77766
622.861	406.9187
623.314	414.86797
623.768	457.99382
624.221	388.70529
624.674	364.78842
625.127	404.87317
625.58	421.87309
626.033	411.83027
626.485	337.76089
626.938	397.88133
627.39	389.84849
627.843	449.95194
628.295	439.93277
628.747	490.0661
629.199	373.79324
629.651	436.92135
630.103	433.91602
630.555	434.83752
631.006	476.00969
631.458	467.00542
631.909	416.86022
632.361	479.00655
632.812	536.11691
633.263	508.99445
633.714	577.07855
634.165	534.1561
634.616	558.18343
635.067	676.28926
635.518	630.3195
635.968	640.0815
636.419	693.3048
636.869	722.47979
637.319	738.47311
637.769	814.53869
638.219	827.64757
638.669	853.70415
639.119	909.80611
639.569	943.86505
640.019	1026.90154
640.468	1057.87331
640.918	1098.06211
641.367	1200.04371
641.816	1269.10246
642.265	1274.2458
642.714	1329.25674
643.163	1490.45164
643.612	1491.65533
644.061	1605.29598
644.51	1619.54269
644.958	1687.46429
645.406	1781.83506
645.855	1740.86351
646.303	1816.72564
646.751	1873.77353
647.199	2062.79433
647.647	1998.8661
648.095	2061.81891
648.543	2086.35353
648.99	2182.12414
649.438	2172.93433
649.885	2303.3772
650.333	2286.22823
650.78	2217.17066
651.227	2297.2741
651.674	2313.92936
652.121	2383.32587
652.568	2327.29379
653.015	2312.33529
653.461	2286.11828
653.908	2367.97225
654.354	2309.1337
654.801	2196.01097
655.247	2255.66563
655.693	2204.54803
656.139	2168.07901
656.585	2171.08433
657.031	2157.00382
657.477	2229.70149
657.922	2074.80741
658.368	2113.19093
658.813	2040.79038
659.259	2046.08699
659.704	2068.99766
660.149	1927.78687
660.594	2011.96558
661.039	1916.73275
661.484	1904.88508
661.929	1869.80391
662.373	1815.06633
662.818	1856.03555
663.262	1854.93857
663.707	1813.12654
664.151	1749.88396
664.595	1740.84476
665.039	1720.93098
665.483	1741.05642
665.927	1693.68289
666.371	1724.72252
666.814	1708.74289
667.258	1733.82464
667.701	1725.35948
668.145	1719.94089
668.588	1801.99802
669.031	1710.70629
669.474	1746.81393
669.917	1700.43618
670.36	1754.9862
670.803	1775.86832
671.245	1753.23357
671.688	1720.84731
672.13	1836.64894
672.573	1756.0346
673.015	1764.84957
673.457	1775.46183
673.899	1785.87825
674.341	1728.81254
674.783	1694.76277
675.225	1705.87985
675.666	1774.92
676.108	1746.41706
676.549	1746.69216
676.991	1737.46475
677.432	1683.09736
677.873	1643.53373
678.314	1693.73147
678.755	1725.90458
679.196	1658.55046
679.637	1614.67914
680.078	1657.62823
680.518	1589.50508
680.959	1608.65315
681.399	1563.75441
681.839	1539.65605
682.28	1585.79483
682.72	1504.41382
683.16	1520.73832
683.6	1487.38029
684.039	1466.06546
684.479	1511.68975
684.919	1423.42763
685.358	1353.5283
685.798	1424.77779
686.237	1441.48728
686.676	1364.238
687.115	1386.3887
687.554	1462.52307
687.993	1399.20683
688.432	1327.22441
688.871	1326.23897
689.309	1448.51456
689.748	1325.96524
690.186	1293.25647
690.625	1279.25524
691.063	1279.29959
691.501	1341.48988
691.939	1319.52249
692.377	1273.33995
692.815	1365.48349
693.253	1245.24847
693.69	1307.08186
694.128	1287.36224
694.565	1279.27624
695.003	1278.51354
695.44	1253.2458
695.877	1182.13807
696.314	1135.80116
696.751	1227.08713
697.188	1229.15437
697.625	1103.90666
698.061	1230.24546
698.498	1095.03085
698.934	1103.07102
699.371	1198.15616
699.807	1121.06278
700.243	1157.17059
700.679	1054.83566
701.115	1111.01785
701.551	1020.88571
701.987	1047.77895
702.422	1056.00241
702.858	1088.04528
703.294	1105.96976
703.729	1033.01327
704.164	1008.93207
704.599	1073.86444
705.035	1010.79303
705.47	1022.99373
705.904	970.80736
706.339	1040.88362
706.774	975.83956
707.209	910.73222
707.643	919.80313
708.078	896.80213
708.512	935.93534
708.946	860.68842
709.38	912.7772
709.814	862.6018
710.248	942.88867
710.682	915.80624
711.116	867.76013
711.549	768.68103
711.983	800.54611
712.416	850.67816
712.85	860.7796
713.283	808.59886
713.716	820.71263
714.149	757.48
714.582	815.51843
715.015	716.51042
715.448	766.65128
715.881	747.33856
716.313	688.3808
716.746	746.5015
717.178	673.40192
717.61	746.63284
718.043	665.42878
718.475	724.50661
718.907	690.49304
719.339	650.272
719.77	647.34948
720.202	625.37555
720.634	633.3617
721.065	606.24958
721.497	633.35587
721.928	599.28903
722.359	612.30998
722.79	590.24378
723.221	546.20826
723.652	591.33051
724.083	590.15712
724.514	592.18949
724.945	522.08768
725.375	523.08905
725.806	537.18016
726.236	550.25601
726.666	557.15997
727.096	474.04651
727.526	588.34721
727.956	513.04354
728.386	522.14354
728.816	498.15261
729.246	503.1169
729.675	472.03861
730.105	499.09468
730.534	482.00597
730.964	475.0699
731.393	518.13333
731.822	535.2249
732.251	480.1021
732.68	515.05761
733.109	454.01564
733.537	504.10683
733.966	535.19446
734.395	527.07986
734.823	449.8908
735.251	408.89577
735.68	493.09103
736.108	453.02608
736.536	420.89338
736.964	483.00025
737.392	482.08548
737.82	471.00971
738.247	505.07248
738.675	485.01784
739.102	445.00752
739.53	478.11499
739.957	510.19022
740.384	427.93373
740.811	416.94515
741.238	457.01501
741.665	475.00339
742.092	354.74711
742.519	441.99767
742.945	491.07258
743.372	503.12245
743.798	426.99758
744.225	421.90427
744.651	429.97843
745.077	408.93148
745.503	435.95202
745.929	467.02049
746.355	428.94559
746.781	396.89061
747.207	438.94422
747.632	456.02724
748.058	502.13842
748.483	447.92535
748.908	445.0063
749.334	393.8902
749.759	458.98647
750.184	462.00507
750.609	431.95957
751.033	479.99868
751.458	440.88008
751.883	398.89584
752.307	387.83304
752.732	470.09029
753.156	424.95044
753.58	447.94935
754.005	384.88517
754.429	413.89281
754.853	448.01206
755.277	396.85991
755.7	407.92415
756.124	418.94931
756.548	383.82726
756.971	428.94915
757.394	395.92737
757.818	410.97138
758.241	407.94919
758.664	372.86674
759.087	395.81112
759.51	341.77777
759.933	411.90785
760.356	415.98342
760.778	410.91982
761.201	419.91894
761.623	356.77734
762.046	348.74604
762.468	408.88747
762.89	336.75724
763.312	418.93276
763.734	371.82191
764.156	367.8347
764.578	371.77009
765	368.82426
765.421	320.7626
765.843	358.86814
766.264	319.69759
766.686	350.80039
767.107	345.77132
767.528	343.81974
767.949	314.74199
768.37	377.86021
768.791	274.61299
769.212	295.69642
769.632	309.6723
770.053	276.67762
770.473	276.62077
770.894	279.64023
771.314	282.61812
771.734	296.63978
772.154	290.69138
772.575	268.5748
772.994	252.53255
773.414	275.6085
773.834	271.63158
774.254	283.64368
774.673	280.64111
775.093	258.60448
775.512	251.58336
775.931	260.62035
776.351	223.52688
776.77	223.51829
777.189	263.58413
777.607	229.55298
778.026	225.52975
778.445	253.60561
778.864	197.47356
779.282	197.44373
779.701	203.48279
780.119	173.41918
780.537	166.39411
780.955	214.51119
781.373	181.425
781.791	216.46248
782.209	154.32973
782.627	190.47734
783.045	166.35773
783.462	199.48254
783.88	175.43325
784.297	168.40347
784.715	156.38586
785.132	150.3443
785.549	139.33275
785.966	175.4194
786.383	165.3894
786.8	177.38888
787.217	175.39821
787.633	143.34584
788.05	144.31844
788.466	177.38905
788.883	153.37726
789.299	110.25066
789.715	145.33835
790.131	127.30309
790.547	159.37757
790.963	104.24806
791.379	128.31091
791.795	113.24367
792.21	121.26853
792.626	131.29399
793.041	106.25099
793.457	134.31434
793.872	102.22792
794.287	126.29303
794.702	66.15464
795.117	144.34373
795.532	121.29385
795.947	105.23854
796.362	71.15986
796.776	76.16772
797.191	88.20821
797.605	68.15658
798.02	54.12722
798.434	106.22539
798.848	154.36675
799.262	72.17285
799.676	101.23661
800.09	49.1169
800.504	79.18376
800.918	54.11967
801.331	30.07483
801.745	69.15166
802.158	68.16275
802.572	71.16613
802.985	80.18414
803.398	54.1241
803.811	25.06126
804.224	45.10711
804.637	67.1548
805.05	58.12853
805.462	65.15323
805.875	38.09633
806.288	34.08032
806.7	19.04604
807.112	49.10865
807.525	23.05428
807.937	70.16761
808.349	36.08692
808.761	109.25794
809.173	52.12256
809.584	40.09526
809.996	-3.00717
810.408	58.14698
810.819	43.09809
811.231	63.1638
811.642	72.17312
812.053	61.14413
812.464	-3.00694
812.875	61.1518
813.286	54.13616
813.697	62.13562
814.108	69.16145
814.519	71.15337
814.929	33.08149
815.34	13.03035
815.75	49.12189
816.16	30.07158
816.571	4.01012
816.981	24.05423
817.391	22.05104
817.801	21.051
818.211	48.11013
818.62	58.13553
819.03	27.06402
819.44	29.0723
819.849	72.17272
820.259	23.05659
820.668	26.06242
821.077	63.1526
821.486	35.08042
821.895	51.11971
822.304	29.07462
822.713	27.06154
823.122	-1.00243
823.531	-2.00454
823.939	37.08773
824.348	45.10492
824.756	23.05561
825.164	25.06074
825.573	62.1502
825.981	35.0835
826.389	23.05598
826.797	66.16242
827.205	39.08713
827.612	32.07601
828.02	-14.03189
828.428	42.10343
828.835	21.05426
829.243	10.02295
829.65	40.09712
830.057	26.06078
830.464	86.20356
830.871	77.17756
831.278	14.03288
831.685	40.08542
832.092	33.07731
832.499	16.03404
832.905	37.09003
833.312	26.05605
833.718	73.17622
834.124	59.12974
834.531	30.07249
834.937	42.10476
835.343	3.00697
835.749	38.08414
836.155	38.09654
836.561	22.05256
836.966	37.08702
837.372	18.04426
837.777	14.03403
838.183	43.09121
838.588	22.05338
838.993	34.08007
839.399	8.01911
839.804	-11.02622
840.209	56.13943
840.613	67.14206
841.018	-46.11378
841.423	31.0772
841.828	32.07886
842.232	16.03772
842.637	81.18492
843.041	32.07999
843.445	-7.01698
843.849	-16.03886
844.253	57.1296
844.657	10.02467
845.061	94.20683
845.465	-18.04246
845.869	28.06277
846.272	-22.05266
846.676	-1.00231
847.079	7.01748
847.483	67.16009
847.886	42.09749
848.289	50.13109
848.692	17.04149
849.095	53.12178
849.498	38.09161
849.901	30.06565
850.304	34.07826
850.707	-24.05963
851.109	29.07061
851.512	61.14458
851.914	-1.00248
852.316	47.11619
852.718	33.08492
853.121	19.04515
853.523	7.01573
853.925	49.12507
854.326	28.06832
854.728	15.03765
855.13	20.05068
855.531	14.03251
855.933	15.03448
856.334	45.10929
856.736	39.08486
857.137	44.09937
857.538	25.06142
857.939	44.10656
858.34	20.04662
858.741	40.10086
859.142	-11.02556
859.542	20.05172
859.943	20.04812
860.343	6.01455
860.744	41.09639
861.144	82.19326
861.544	-5.01187
861.945	28.06903
862.345	51.11933
862.745	36.08715
863.145	-16.03646
863.544	15.03693
863.944	44.0999
864.344	6.01427
864.743	34.08132
865.143	48.12025
865.542	-42.09389
865.941	39.09358
866.34	46.10444
866.74	12.03143
867.139	57.13306
867.537	-2.0049
867.936	59.13697
868.335	44.1078
868.734	3.00748
869.132	-6.01334
869.531	0
869.929	22.04863
870.327	17.03942
870.726	7.01675
871.124	-7.01574
871.522	-2.00494
871.92	41.09751
872.318	-15.03543
872.715	-36.08577
873.113	26.06083
873.511	-2.00483
873.908	4.01
874.306	26.06315
874.703	5.01202
875.1	-44.10872
875.497	-26.06052
875.894	79.18905
876.291	38.09015
876.688	36.08999
877.085	30.06886
877.482	25.06051
877.878	94.21887
878.275	-7.01738
878.671	-21.04386
879.068	15.035
879.464	6.01405
879.86	21.04794
880.256	22.05159
880.652	-11.02726
881.048	55.12945
881.444	29.06546
881.84	22.05408
882.236	35.08487
882.631	74.17495
883.027	33.07664
883.422	-16.03965
883.817	22.05402
884.213	9.02245
884.608	83.1993
885.003	4.00926
885.398	-19.04645
885.793	8.0194
886.188	-28.06786
886.582	30.07369
886.977	65.14641
887.371	7.01706
887.766	7.01701
888.16	10.02375
888.554	7.01665
888.949	22.05342
889.343	35.0819
889.737	-19.05008
890.131	38.09203
890.525	40.09956
890.918	16.03898
891.312	28.06383
891.706	27.06851
892.099	19.04668
892.492	17.03497
892.886	39.09165
893.279	19.04678
893.672	3.00748
894.065	7.01703
894.458	8.01931
894.851	25.05868
895.244	35.08634
895.637	62.14362
896.029	58.13707
896.422	-10.02343
896.814	-32.07744
897.206	18.04204
897.599	71.16789
897.991	15.03533
898.383	6.01376
898.775	45.09858
899.167	53.12041
899.559	27.06545
899.951	6.01354
900.342	24.05845
900.734	55.13467
901.125	17.04298
901.517	15.03572
901.908	33.07491
902.299	3.00714
902.69	62.1414
903.082	65.15072
903.473	61.1424
903.863	-4.00987
904.254	27.06114
904.645	45.1062
905.036	30.07161
905.426	22.04765
905.817	-49.1169
906.207	-62.14317
906.597	17.03881
906.987	4.00999
907.378	62.15161
907.768	0
908.158	-17.04023
908.547	35.0888
908.937	-31.07675
909.327	18.04213
909.717	-7.01699
910.106	30.06905
910.495	0
910.885	66.16098
911.274	-3.00727
911.663	-1.00244
912.052	13.03065
912.441	35.08672
912.83	-3.00661
913.219	58.14562
913.608	38.09005
913.997	10.02457
914.385	62.14174
914.774	-9.02123
915.162	30.06974
915.55	-14.03264
915.939	39.09581
916.327	9.02158
916.715	65.16187
917.103	-25.05884
917.491	24.05711
917.878	18.04265
918.266	52.12938
918.654	32.07973
919.041	15.03857
919.429	-13.02977
919.816	31.07579
920.203	21.04972
920.591	17.04088
920.978	6.01423
921.365	20.05115
921.752	-16.03643
922.139	-3.00629
922.525	-16.03753
922.912	-9.02122
923.299	8.01931
923.685	-29.07329
924.072	-46.10075
924.458	26.06254
924.844	-8.01926
925.231	34.07522
925.617	1.0025
926.003	0
926.389	0
926.774	-13.03195
927.16	-5.01203
927.546	23.05786
927.931	37.08834
928.317	19.04178
928.702	39.0881
929.088	45.10468
929.473	24.05963
929.858	28.06661
930.243	30.07018
930.628	28.06648
931.013	31.07427
931.398	27.05852
931.783	-20.05084
932.167	36.08577
932.552	41.0986
932.937	10.02387
933.321	37.0904
933.705	-45.10974
934.09	-12.02885
934.474	-5.01138
934.858	14.03534
935.242	-3.0067
935.626	24.05982
936.009	53.13766
936.393	68.16863
936.777	48.1193
937.16	30.07624
937.544	-22.04946
937.927	-7.01739
938.311	60.13915
938.694	67.17114
939.077	13.03006
939.46	-25.05836
939.843	49.09453
940.226	-20.04976
940.609	53.11792
940.991	-18.04436
941.374	-2.00478
941.757	3.00714
942.139	24.05203
942.522	20.04521
942.904	51.1176
943.286	18.0441
943.668	76.19115
944.05	21.05002
944.432	20.04747
944.814	9.02122
945.196	-35.08404
945.578	14.03275
945.959	-3.00672
946.341	20.0464
946.722	17.0382
947.104	-14.03251
947.485	80.17714
947.866	28.0688
948.247	57.13972
948.628	-22.0511
949.009	13.03229
949.39	27.06439
949.771	-23.0506
950.152	19.04512
950.532	37.0904
950.913	23.05337
951.293	11.02922
951.674	13.03038
952.054	91.21959
952.434	18.0433
952.814	-2.00455
953.194	2.00502
953.574	14.03315
953.954	-1.00227
954.334	46.11144
954.714	-5.01189
955.093	44.1039
955.473	14.03431
955.853	10.02515
956.232	21.05587
956.611	39.0885
956.99	26.06344
957.37	17.04164
957.749	-10.02272
958.128	33.0808
958.506	-12.03042
958.885	-7.0171
959.264	25.05998
959.643	74.16132
960.021	11.0266
960.4	-11.02408
960.778	33.07697
961.156	-8.0194
961.535	-3.00668
961.913	55.12384
962.291	36.09048
962.669	21.05178
963.047	4.00997
963.424	34.08506
963.802	0
964.18	6.01445
964.557	32.07026
964.935	43.09753
965.312	51.12889
965.69	26.06218
966.067	-13.03035
966.444	-41.09665
966.821	28.06992
967.198	-1.00232
967.575	34.07982
967.952	30.06767
968.329	51.1199
968.705	70.14333
969.082	32.08054
969.458	39.09133
969.835	16.03759
970.211	69.17202
970.587	39.09372
970.963	2.00493
971.339	17.0433
971.715	32.07723
972.091	24.05694
972.467	-5.01191
972.843	53.12799
973.219	72.16294
973.594	20.05075
973.97	-20.04488
974.345	-16.03737
974.721	31.071
975.096	17.04007
975.471	27.06129
975.846	-21.04862
976.221	-17.04214
976.596	88.2045
976.971	37.08864
977.346	17.03773
977.72	13.0319
978.095	13.03255
978.469	-9.0207
978.844	45.10805
979.218	16.03765
979.593	37.08464
979.967	-7.01619
980.341	54.11937
980.715	27.06589
981.089	23.05554
981.463	34.07484
981.837	19.04543
982.21	-9.01966
982.584	11.0258
982.957	46.11127
983.331	5.01122
983.704	13.03131
984.078	16.03802
984.451	-15.03561
984.824	31.07325
985.197	-4.00925
985.57	20.04761
985.943	-8.01878
986.316	-11.02575
986.688	43.09923
987.061	59.13257
987.434	58.1476
987.806	12.02764
988.179	-26.05932
988.551	27.06579
988.923	-10.02374
989.295	66.15688
989.667	-12.02828
990.039	75.18043
990.411	-44.09694
990.783	3.00656
991.155	10.02334
991.527	-26.06097
991.898	61.14653
992.27	0
992.641	-11.02661
993.012	-13.02878
993.384	5.01145
993.755	-5.01247
994.126	60.13938
994.497	-9.02145
994.868	-18.03951
995.239	2.00467
995.61	4.00977
995.98	22.05141
996.351	-1.00242
996.722	34.07663
997.092	21.04817
997.462	11.02512
997.833	-9.02044
998.203	53.12095
998.573	16.03869
998.943	43.09718
999.313	-15.03511
999.683	36.08333
1000.053	-19.04125
1000.423	-8.01868
1000.792	-28.06999
1001.162	-14.0332
1001.531	62.14664
1001.901	10.02397
1002.27	-9.01897
1002.639	-22.05432
1003.009	-6.01377
1003.378	-12.02992
1003.747	16.03612
1004.116	-5.01155
1004.485	40.09159
1004.853	11.02656
1005.222	-39.09415
1005.591	34.07713
1005.959	14.03048
1006.328	53.11419
1006.696	-20.04661
1007.064	-9.02175
1007.433	-8.01923
1007.801	-7.01633
1008.169	21.05062
1008.537	37.07807
1008.905	30.06762
1009.273	17.04017
1009.64	6.01403
1010.008	3.00689
1010.375	37.0845
1010.743	6.01288
1011.11	87.19973
1011.478	37.08878
1011.845	54.12042
1012.212	52.1137
1012.579	21.04981
1012.946	10.02264
1013.313	38.08579
1013.68	46.0979
1014.047	-5.01152
1014.414	-20.0457
1014.78	43.10317
1015.147	29.06647
1015.513	8.01861
1015.88	38.09282
1016.246	10.0235
1016.612	24.05214
1016.978	52.12299
1017.344	4.00959
1017.71	40.09284
1018.076	-7.01576
1018.442	62.15364
1018.808	84.20243
1019.174	-23.05577
1019.539	-22.04674
1019.905	-5.01147
1020.27	-11.02627
1020.636	1.00228
1021.001	11.02549
1021.366	-31.07279
1021.731	43.10813
1022.096	-46.1147
1022.461	-23.05297
1022.826	21.04844
1023.191	6.0153
1023.556	44.09795
1023.92	-26.06149
1024.285	-3.007
1024.649	3.00706
1025.014	-1.00237
1025.378	46.11194
1025.742	-20.0478
1026.107	4.00866
1026.471	18.04006
1026.835	20.04781
1027.199	8.01863
1027.562	-13.02886
1027.926	-1.00235
1028.29	25.06112
1028.654	-4.00883
1029.017	52.12284
1029.381	31.0714
1029.744	-12.02978
1030.107	50.11297
1030.471	43.09923
1030.834	-26.05622
1031.197	67.15357
1031.56	6.01356
1031.923	27.0676
1032.286	42.09428
1032.648	-14.0319
1033.011	57.12666
1033.374	21.0468
1033.736	-18.04623
1034.099	-1.00236
1034.461	28.06885
1034.823	-23.056
1035.185	-40.09727
1035.548	51.11948
1035.91	40.09156
1036.272	18.03956
1036.634	47.11006
1036.995	-10.02251
1037.357	14.03305
1037.719	34.07957
1038.08	50.11454
1038.442	5.01142
1038.803	15.03405
1039.165	-19.04637
1039.526	50.11573
1039.887	8.01843
1040.248	44.10603
1040.609	-38.0904
1040.97	2.00471
1041.331	60.14678
1041.692	55.125
1042.053	-2.00435
1042.413	6.01336
1042.774	8.01883
1043.134	-11.02495
1043.495	12.02914
1043.855	71.1662
1044.215	45.10645
1044.576	9.02092
1044.936	31.06751
1045.296	58.1385
1045.656	3.00703
1046.016	40.09189
1046.375	-22.05179
1046.735	57.1255
1047.095	60.13385
1047.454	19.03787
1047.814	61.1401
1048.173	27.06089
1048.533	39.08533
1048.892	-14.03273
1049.251	20.04802
1049.61	-3.00716
1049.969	28.06306
1050.328	63.1292
1050.687	5.01166
1051.046	-17.03995
1051.405	-17.04062
1051.763	36.08018
1052.122	8.01925
1052.48	33.07803
1052.839	55.12576
1053.197	8.0181
1053.555	25.05319
1053.914	-19.04491
1054.272	-37.08494
1054.63	10.02367
1054.988	21.04848
1055.345	13.02632
1055.703	49.11304
1056.061	50.12526
1056.419	57.14431
1056.776	-10.02303
1057.134	-41.09039
1057.491	3.00727
1057.848	-3.00718
1058.206	3.00668
1058.563	0
1058.92	36.07885
1059.277	-2.00477
1059.634	8.01782
1059.991	13.03007
1060.348	33.07162
1060.704	47.10989
1061.061	-18.03956
1061.418	13.03044
1061.774	19.04522
1062.131	-2.00523
1062.487	5.01118
1062.843	-20.0484
1063.199	19.04561
1063.555	-19.04304
1063.911	30.07246
1064.267	10.01954
1064.623	44.10374
1064.979	-51.11304
1065.335	21.04773
1065.691	1.00227
1066.046	27.05645
1066.402	31.06679
1066.757	20.04876
1067.112	10.02355
1067.468	7.01617
1067.823	-47.1076
1068.178	6.01389
1068.533	41.09518
1068.888	15.03426
1069.243	17.04046
1069.598	-24.05617
1069.952	38.08372
1070.307	26.06235
1070.662	31.07163
1071.016	37.08044
1071.371	17.03732
1071.725	39.08835
1072.079	18.04176
1072.434	29.06802
1072.788	-25.05684
1073.142	73.17141
1073.496	-9.02057
1073.85	27.0598
1074.203	33.07694
1074.557	53.13766
1074.911	80.17965
1075.265	10.02232
1075.618	47.11002
1075.971	2.00458
1076.325	34.08398
1076.678	-3.00662
1077.031	-33.07064
1077.385	31.06475
1077.738	39.08367
1078.091	6.01326
1078.444	8.0176
1078.796	25.05946
1079.149	41.09815
1079.502	25.05717
1079.855	23.05153
1080.207	21.0496
1080.56	3.00758
1080.912	24.05604
1081.264	62.14311
1081.617	0
1081.969	20.04905
1082.321	-6.01411
1082.673	36.07994
1083.025	0
1083.377	224.48375
1083.728	52.11485
1084.08	-20.04814
1084.432	5.01158
1084.783	-28.06215
1085.135	19.04619
1085.486	8.01772
1085.838	-10.02396
1086.189	48.11265
1086.54	26.05927
1086.891	26.06476
1087.242	74.17502
1087.593	0
1087.944	42.0916
1088.295	37.07996
1088.646	77.18144
1088.996	-1.00234
1089.347	3.00706
1089.698	6.01384
1090.048	17.04243
1090.398	20.04412
1090.749	-17.03897
1091.099	16.03942
1091.449	15.03624
1091.799	14.03383
1092.149	-22.05296
1092.499	-14.03311
1092.849	11.0271
1093.199	31.07401
1093.548	44.10249
1093.898	-10.02415
1094.248	7.01723
1094.597	25.06253
1094.947	15.03893
1095.296	56.13321
1095.645	31.07745
1095.994	33.076
1096.343	19.04635
1096.692	51.13146
1097.041	-1.00268
1097.39	9.02168
1097.739	-5.01262
1098.088	3.00775
1098.437	36.09288
1098.785	-2.0052
1099.134	-8.02032
1099.482	21.05637
1099.83	30.07627
1100.179	56.14352
1100.527	-17.04352
1100.875	25.06458
1101.223	26.0674
1101.571	-27.07283
1101.919	24.06222
1102.267	-1.00278
1102.615	5.01606
1102.962	4.01283
1103.31	6.01926
1103.658	4.01282
