Data from N1R0 105C sample 7_Subt2__0__13-12-51-672.txt Node

Date: Tue Sep 16 13:12:51 PDT 2025
User: uwsun
Spectrometer: HDX01956
Trigger mode: 0
Integration Time (sec): 5.000000E-1
Scans to average: 1
Nonlinearity correction enabled: true
Boxcar width: 0
Storing dark spectrum: false
XAxis mode: Wavelengths
Number of Pixels in Spectrum: 2068
>>>>>Begin Spectral Data<<<<<
194.03	-1.0029
194.578	10.03247
195.127	-1.00321
195.676	1.00322
196.225	-23.06166
196.773	-4.01119
197.321	10.02796
197.87	23.06003
198.418	12.0316
198.966	28.07515
199.513	40.10355
200.061	-20.05228
200.609	8.02156
201.156	-3.00678
201.704	-9.02326
202.251	52.1402
202.798	23.0608
203.345	41.10351
203.892	17.04394
204.438	3.00731
204.985	19.04626
205.532	-18.04858
206.078	-27.06802
206.624	62.15806
207.17	45.10777
207.716	40.10014
208.262	6.01231
208.808	58.14818
209.354	21.05319
209.899	13.03347
210.445	2.00514
210.99	32.07985
211.535	40.09636
212.08	-7.01675
212.625	-10.02566
213.17	32.08319
213.715	95.21976
214.259	69.16373
214.804	25.0626
215.348	28.06635
215.892	106.2595
216.436	-17.04004
216.98	22.04953
217.524	52.12664
218.068	45.11555
218.612	60.15485
219.155	45.10842
219.698	33.08011
220.242	-5.01264
220.785	68.16201
221.328	6.01516
221.871	57.14718
222.414	40.10043
222.956	-24.05902
223.499	-14.03211
224.041	-21.04935
224.583	38.08157
225.126	3.00675
225.668	9.02232
226.21	32.0823
226.751	77.17337
227.293	9.0208
227.835	27.06731
228.376	-26.0608
228.918	16.04052
229.459	37.09365
230	70.16978
230.541	5.01175
231.082	50.12331
231.622	5.01156
232.163	6.01476
232.704	29.07376
233.244	36.09058
233.784	44.10792
234.324	79.17955
234.864	-10.02316
235.404	20.04791
235.944	-9.02168
236.484	70.17606
237.023	50.11926
237.563	51.12018
238.102	45.10785
238.641	8.02046
239.18	24.05738
239.719	49.12402
240.258	55.1251
240.797	43.10415
241.335	4.00992
241.874	85.16737
242.412	69.16927
242.95	39.09571
243.488	-20.04613
244.026	24.05692
244.564	39.08182
245.102	110.25006
245.64	12.02918
246.177	11.02496
246.715	49.11922
247.252	-15.03492
247.789	25.04749
248.326	14.03441
248.863	31.06957
249.4	44.10124
249.936	93.1965
250.473	58.13887
251.009	-14.03289
251.546	27.06156
252.082	-6.0133
252.618	46.10453
253.154	36.088
253.69	32.07304
254.226	21.05123
254.761	22.05038
255.297	19.04238
255.832	3.0073
256.367	30.07169
256.903	72.16195
257.438	39.09279
257.972	79.17744
258.507	9.02109
259.042	43.09515
259.576	88.19656
260.111	-6.01411
260.645	60.13136
261.179	45.10703
261.713	76.17193
262.247	-1.00234
262.781	96.20386
263.315	-14.03476
263.849	24.0611
264.382	55.12794
264.915	36.08666
265.449	21.05218
265.982	9.02091
266.515	76.18792
267.048	29.0628
267.58	30.06596
268.113	54.11857
268.646	-1.0025
269.178	15.03426
269.71	61.1369
270.243	96.22388
270.775	81.2093
271.307	16.03875
271.838	34.08156
272.37	5.0125
272.902	6.0139
273.433	54.12166
273.965	14.03467
274.496	5.01264
275.027	60.15102
275.558	72.17744
276.089	28.07116
276.62	-19.04901
277.15	25.06248
277.681	56.12224
278.211	23.05705
278.741	37.08379
279.272	35.08161
279.802	17.04304
280.332	27.06498
280.861	22.05356
281.391	32.07413
281.921	0
282.45	2.00506
282.98	56.14742
283.509	66.15222
284.038	55.12779
284.567	68.16027
285.096	82.2006
285.625	12.02762
286.153	63.15254
286.682	65.15138
287.21	3.0073
287.739	39.09368
288.267	36.08918
288.795	26.06893
289.323	47.11221
289.851	74.1761
290.378	-22.05056
290.906	46.11433
291.433	32.08109
291.961	37.08624
292.488	52.1306
293.015	54.12949
293.542	80.20746
294.069	55.13821
294.596	18.04483
295.122	103.24854
295.649	6.01348
296.175	30.0735
296.702	82.20246
297.228	33.08083
297.754	62.14163
298.28	17.04009
298.806	9.02219
299.332	70.15906
299.857	76.175
300.383	55.14004
300.908	55.13727
301.433	94.23226
301.958	17.0399
302.483	-19.04834
303.008	36.09116
303.533	30.07863
304.058	-13.03117
304.582	45.10826
305.107	21.05563
305.631	22.05106
306.155	19.04533
306.679	67.1599
307.203	57.13458
307.727	45.10859
308.251	16.04034
308.775	117.28616
309.298	26.06405
309.822	19.04869
310.345	72.1745
310.868	47.11543
311.391	44.11023
311.914	55.13985
312.437	64.14878
312.96	52.12474
313.482	-7.01692
314.005	-10.0256
314.527	-1.00266
315.049	51.13109
315.571	47.10816
316.093	49.1234
316.615	8.01968
317.137	28.0627
317.659	28.06928
318.18	55.13322
318.702	70.16671
319.223	45.09412
319.744	86.19645
320.265	9.0225
320.786	97.24462
321.307	13.03288
321.828	29.06714
322.348	39.09383
322.869	45.10949
323.389	305.58051
323.909	41.09582
324.43	51.12414
324.95	48.11234
325.47	67.16873
325.989	64.15458
326.509	68.15546
327.029	56.13075
327.548	44.10213
328.067	36.08937
328.587	80.2033
329.106	14.0325
329.625	48.12692
330.144	100.23559
330.662	67.16039
331.181	54.13018
331.7	-13.03125
332.218	56.12462
332.736	61.14575
333.255	66.15851
333.773	38.09189
334.291	68.17287
334.808	43.09955
335.326	26.06016
335.844	86.20576
336.361	81.21139
336.879	60.14437
337.396	95.2346
337.913	38.09022
338.43	63.14545
338.947	20.04916
339.464	46.10224
339.981	1.00245
340.497	48.12051
341.014	19.04759
341.53	49.11349
342.046	145.36384
342.562	76.19238
343.078	47.11341
343.594	45.10961
344.11	115.27865
344.626	35.09041
345.141	32.07545
345.657	71.16444
346.172	83.20376
346.687	55.1294
347.202	123.28476
347.717	40.09789
348.232	87.21988
348.747	82.19334
349.261	103.23068
349.776	105.25337
350.29	70.17852
350.805	62.15622
351.319	55.13106
351.833	93.21829
352.347	81.19509
352.861	82.19634
353.374	86.19953
353.888	123.30385
354.401	45.10538
354.915	98.22593
355.428	66.16767
355.941	80.19016
356.454	67.15289
356.967	35.08398
357.48	55.12804
357.993	73.18278
358.505	37.09224
359.018	97.24112
359.53	100.24771
360.042	73.16766
360.554	121.29935
361.066	68.16869
361.578	144.32203
362.09	84.20358
362.602	102.23206
363.113	117.27923
363.625	70.16299
364.136	56.12668
364.647	96.23161
365.158	93.22051
365.669	40.09807
366.18	93.22272
366.691	70.15751
367.201	116.28134
367.712	105.24472
368.222	96.22538
368.733	59.13225
369.243	110.25056
369.753	94.22077
370.263	137.33358
370.773	90.22237
371.282	117.28297
371.792	128.30038
372.301	34.08429
372.811	84.22292
373.32	154.33728
373.829	37.08965
374.338	97.2201
374.847	123.28769
375.356	95.22768
375.865	137.29847
376.373	133.30619
376.882	116.29604
377.39	112.27337
377.898	76.18992
378.407	127.29226
378.915	180.39589
379.423	99.23401
379.93	212.4901
380.438	146.35237
380.946	144.33753
381.453	154.37083
381.96	175.4178
382.468	163.38438
382.975	205.49839
383.482	161.36265
383.989	228.57732
384.495	239.55109
385.002	211.44249
385.509	234.55126
386.015	256.51846
386.521	272.60701
387.028	271.6034
387.534	239.50541
388.04	290.67997
388.546	250.54337
389.051	294.63083
389.557	288.64855
390.063	261.57656
390.568	411.93474
391.073	334.71387
391.578	367.85425
392.084	443.94618
392.589	423.86235
393.093	423.95229
393.598	444.95592
394.103	466.03139
394.607	518.14811
395.112	603.34205
395.616	653.42162
396.12	641.31683
396.624	721.50602
397.128	831.73754
397.632	931.86188
398.136	991.91174
398.639	1003.97832
399.143	1153.33022
399.646	1325.44191
400.15	1398.47561
400.653	1608.63722
401.156	1817.77639
401.659	2057.25226
402.162	2615.27156
402.664	3424.13269
403.167	4965.92617
403.67	9675.9189
404.172	30861.32405
404.674	59956.84481
405.176	63738.15102
405.678	63977.72923
406.18	64011.81569
406.682	63863.44694
407.184	63926.60148
407.686	35878.39896
408.187	14534.33377
408.688	8687.02486
409.19	6004.96351
409.691	4846.99331
410.192	4047.30233
410.693	3488.86817
411.194	3133.19785
411.694	2964.46793
412.195	2770.72728
412.696	2453.28746
413.196	2317.74024
413.696	2162.2331
414.196	2217.90799
414.696	2157.37857
415.196	2017.03088
415.696	1782.72616
416.196	1498.60459
416.695	1203.26375
417.195	1023.05111
417.694	1025.75923
418.194	893.6041
418.693	860.69159
419.192	811.66503
419.691	734.50984
420.19	754.5983
420.688	722.57231
421.187	724.29692
421.685	654.3632
422.184	638.35335
422.682	531.05912
423.18	432.93128
423.678	421.90349
424.176	369.79907
424.674	371.78246
425.172	372.82773
425.669	329.76974
426.167	306.68146
426.664	293.63993
427.161	304.67111
427.659	238.56155
428.156	287.59015
428.652	180.4462
429.149	253.59636
429.646	240.52208
430.143	211.49544
430.639	194.45206
431.135	182.44785
431.632	160.36268
432.128	175.41476
432.624	181.45922
433.12	160.36194
433.616	164.35676
434.111	130.30734
434.607	140.33277
435.103	78.1652
435.598	158.32673
436.093	136.31479
436.588	113.25432
437.083	106.23784
437.578	154.35319
438.073	83.20797
438.568	114.27939
439.062	93.20003
439.557	76.17835
440.051	70.15835
440.546	78.17796
441.04	118.28178
441.534	80.20128
442.028	94.2261
442.522	83.1993
443.015	40.0869
443.509	112.27072
444.002	90.21968
444.496	40.08783
444.989	34.08314
445.482	56.13903
445.975	71.1647
446.468	44.09637
446.961	111.24039
447.454	56.12642
447.947	62.14845
448.439	91.22241
448.931	71.16346
449.424	104.2627
449.916	118.28533
450.408	64.1469
450.9	34.08311
451.392	69.17488
451.884	38.08803
452.375	42.10435
452.867	57.12871
453.358	40.09233
453.849	29.0628
454.341	48.10907
454.832	64.13887
455.323	121.29803
455.814	63.1444
456.304	50.11619
456.795	14.03235
457.285	9.0201
457.776	60.13706
458.266	32.07642
458.756	-5.01197
459.247	59.14119
459.737	99.23781
460.226	105.23777
460.716	82.19521
461.206	16.03859
461.695	-3.00749
462.185	56.13306
462.674	59.13507
463.163	72.16148
463.653	111.23463
464.142	61.14764
464.63	59.14275
465.119	74.17162
465.608	91.21193
466.096	50.10895
466.585	59.1348
467.073	13.03091
467.561	40.09614
468.05	60.13805
468.538	63.1534
469.026	12.02867
469.513	63.13311
470.001	55.12642
470.489	67.1588
470.976	93.21573
471.463	49.1218
471.951	31.07714
472.438	27.0637
472.925	17.04029
473.412	56.13552
473.899	70.16003
474.385	51.12465
474.872	13.03054
475.359	70.17124
475.845	46.09572
476.331	42.08981
476.817	26.06346
477.303	70.16209
477.789	22.05262
478.275	32.0795
478.761	29.06905
479.247	47.105
479.732	17.04258
480.218	72.18736
480.703	15.03711
481.188	38.08266
481.673	21.04858
482.158	48.10406
482.643	62.15762
483.128	47.10972
483.612	72.17081
484.097	31.07489
484.581	31.072
485.066	99.23998
485.55	67.14795
486.034	22.04808
486.518	109.25794
487.002	32.0779
487.486	33.0802
487.969	17.04149
488.453	7.01751
488.936	42.09478
489.42	55.12171
489.903	24.05984
490.386	-44.09311
490.869	78.17026
491.352	-20.04867
491.835	-5.01038
492.318	12.02719
492.8	90.18528
493.283	97.24489
493.765	-11.02722
494.247	22.05147
494.73	22.04904
495.212	-31.07452
495.694	60.14114
496.175	32.07712
496.657	56.13234
497.139	-20.03515
497.62	39.09393
498.102	53.13165
498.583	-44.10967
499.064	9.02026
499.545	35.08003
500.026	25.05691
500.507	-10.02329
500.988	52.12971
501.469	-5.01256
501.949	23.05696
502.43	56.13475
502.91	67.14206
503.39	26.0646
503.87	34.08063
504.35	-23.05453
504.83	22.04845
505.31	17.04118
505.79	-42.10095
506.269	23.05306
506.749	-17.03937
507.228	30.0709
507.707	30.06731
508.187	33.07909
508.666	15.03737
509.145	17.04001
509.623	8.01888
510.102	23.05588
510.581	51.12297
511.059	4.01014
511.538	-4.01039
512.016	31.07455
512.494	35.0843
512.972	-20.04853
513.45	-38.09022
513.928	0
514.406	6.01483
514.884	10.02593
515.361	5.01207
515.839	0
516.316	45.10949
516.793	27.06836
517.27	-32.07814
517.747	18.04641
518.224	-19.04441
518.701	-53.11982
519.178	37.09278
519.654	33.07843
520.131	-70.17713
520.607	-13.03211
521.083	-40.09237
521.56	-23.055
522.036	-9.01987
522.512	68.16734
522.987	22.05332
523.463	13.03105
523.939	39.09702
524.414	-24.05579
524.89	-6.01448
525.365	-40.09215
525.84	6.01455
526.315	24.05845
526.79	-6.01371
527.265	45.10426
527.74	-4.00981
528.215	-43.10219
528.689	-45.10078
529.164	-39.0854
529.638	-39.10032
530.112	-13.03097
530.587	19.04104
531.061	-13.03186
531.534	-14.03416
532.008	17.04163
532.482	58.13329
532.956	-16.04126
533.429	24.05906
533.903	-39.08724
534.376	-41.09254
534.849	-20.04668
535.322	-17.04067
535.795	-20.04894
536.268	4.00977
536.741	-50.12104
537.213	5.01161
537.686	-17.04214
538.158	-28.06484
538.631	5.01222
539.103	-18.04132
539.575	-22.04617
540.047	-12.02657
540.519	21.0505
540.991	-19.04695
541.463	-40.09793
541.934	-62.14357
542.406	9.02182
542.877	-27.06204
543.348	0
543.82	-1.00246
544.291	32.07513
544.762	-19.04592
545.233	-5.01281
545.703	-17.03848
546.174	-27.06372
546.645	-33.08125
547.115	-11.02691
547.585	9.02093
548.056	-5.01245
548.526	-2.00481
548.996	-13.03152
549.466	-19.04687
549.935	0
550.405	-31.0696
550.875	-2.00481
551.344	-26.06306
551.814	-28.06543
552.283	-15.03337
552.752	10.02372
553.221	-81.18484
553.69	36.08207
554.159	-10.02524
554.628	-2.00461
555.096	-13.03352
555.565	-36.08147
556.033	53.12688
556.502	-61.15075
556.97	-32.07283
557.438	-53.12741
557.906	-20.04802
558.374	-30.07101
558.842	-3.00729
559.31	25.05657
559.777	0
560.245	-45.10563
560.712	-18.04196
561.18	-16.03611
561.647	-58.13217
562.114	-28.06548
562.581	-25.06253
563.048	-67.15776
563.514	17.04303
563.981	-15.03496
564.448	-21.04839
564.914	-55.13086
565.381	3.00695
565.847	-39.09276
566.313	-27.06382
566.779	-39.08979
567.245	-75.17858
567.711	-20.04865
568.176	-59.136
568.642	-19.04852
569.108	-56.14065
569.573	-87.20747
570.038	-62.13367
570.504	-27.06226
570.969	-54.13655
571.434	-2.00451
571.899	-44.10652
572.363	-16.03734
572.828	1.00233
573.293	-82.19371
573.757	-22.05201
574.222	-6.01367
574.686	21.04881
575.15	-20.04894
575.614	38.09033
576.078	-26.06216
576.542	0
577.006	-24.05533
577.469	-29.07251
577.933	-7.01622
578.396	-45.109
578.86	3.00715
579.323	-8.01956
579.786	0
580.249	14.03337
580.712	-27.06675
581.175	-29.07266
581.637	-20.04648
582.1	-45.10062
582.563	-20.04342
583.025	-33.08176
583.487	-2.0042
583.95	-97.21581
584.412	-4.00856
584.874	-51.12705
585.336	-38.09199
585.797	-9.01995
586.259	-38.09078
586.721	-46.11035
587.182	-30.07054
587.643	-13.03006
588.105	-44.1062
588.566	-59.1269
589.027	20.0494
589.488	5.01164
589.949	51.12418
590.41	-1.00202
590.87	13.03013
591.331	13.02883
591.791	-30.0709
592.252	1.00236
592.712	0
593.172	8.01845
593.632	60.13396
594.092	-31.07063
594.552	44.09608
595.011	-16.0373
595.471	9.02069
595.931	48.10903
596.39	29.07014
596.849	3.00708
597.308	-27.05885
597.768	44.11379
598.227	4.00972
598.685	49.11222
599.144	55.13006
599.603	37.08705
600.062	-1.00215
600.52	42.09555
600.978	46.10913
601.437	61.13903
601.895	29.06286
602.353	25.05551
602.811	96.21567
603.269	69.16398
603.727	83.19854
604.184	84.19103
604.642	122.29645
605.099	117.27076
605.557	111.26734
606.014	113.24158
606.471	119.29526
606.928	177.38528
607.385	191.46696
607.842	145.32755
608.299	153.35153
608.755	190.449
609.212	198.43035
609.668	220.48142
610.125	230.53636
610.581	235.53235
611.037	195.42554
611.493	227.51256
611.949	265.62076
612.405	267.5208
612.861	231.51328
613.316	261.60109
613.772	257.56582
614.227	289.66424
614.683	249.50717
615.138	252.56865
615.593	268.59635
616.048	318.68997
616.503	299.69216
616.958	254.61253
617.412	289.65546
617.867	267.57253
618.321	306.59787
618.776	274.57676
619.23	269.60366
619.684	310.65569
620.138	322.69716
620.592	312.71924
621.046	289.65173
621.5	249.57643
621.954	280.59016
622.407	263.5564
622.861	269.62569
623.314	271.58612
623.768	288.64882
624.221	248.46685
624.674	286.6298
625.127	272.6045
625.58	239.51581
626.033	264.5513
626.485	277.63309
626.938	328.73861
627.39	293.65211
627.843	275.6052
628.295	289.63413
628.747	320.72266
629.199	313.67435
629.651	292.63653
630.103	327.70783
630.555	309.61419
631.006	327.7175
631.458	323.71827
631.909	334.70335
632.361	308.67283
632.812	331.7223
633.263	424.84651
633.714	394.77091
634.165	409.9106
634.616	413.90502
635.067	440.88824
635.518	474.02642
635.968	494.86887
636.419	519.01834
636.869	545.1611
637.319	578.19603
637.769	609.20823
638.219	624.30116
638.669	579.22937
639.119	607.29003
639.569	678.42329
640.019	757.49607
640.468	741.41995
640.918	782.58271
641.367	842.57154
641.816	856.57881
642.265	968.84192
642.714	952.77988
643.163	1066.95821
643.612	1080.12442
644.061	1101.81988
644.51	1149.04506
644.958	1244.05912
645.406	1166.1763
645.855	1152.19974
646.303	1287.23188
646.751	1329.28573
647.199	1425.32269
647.647	1414.38846
648.095	1387.30173
648.543	1497.05353
648.99	1518.61203
649.438	1503.46301
649.885	1559.79261
650.333	1550.96729
650.78	1571.68744
651.227	1623.78726
651.674	1622.52783
652.121	1659.83302
652.568	1658.82606
653.015	1622.8259
653.461	1607.66091
653.908	1628.55186
654.354	1649.7043
654.801	1580.58523
655.247	1556.29332
655.693	1603.00614
656.139	1561.62786
656.585	1562.63167
657.031	1533.54853
657.477	1571.33737
657.922	1488.38927
658.368	1483.65046
658.813	1466.3682
659.259	1548.67378
659.704	1628.6703
660.149	1438.38628
660.594	1483.52926
661.039	1418.32978
661.484	1371.39949
661.929	1435.4261
662.373	1365.58198
662.818	1368.5358
663.262	1419.52265
663.707	1402.67714
664.151	1428.55888
664.595	1351.44313
665.039	1430.62242
665.483	1413.68981
665.927	1378.37609
666.371	1363.37054
666.814	1373.40926
667.258	1472.56983
667.701	1390.10203
668.145	1472.68096
668.588	1471.66507
669.031	1480.49261
669.474	1437.51298
669.917	1460.24422
670.36	1495.71826
670.803	1482.58738
671.245	1472.05059
671.688	1522.65346
672.13	1541.4204
672.573	1532.80184
673.015	1586.68673
673.457	1583.32587
673.899	1639.74831
674.341	1594.68885
674.783	1584.66042
675.225	1575.75139
675.666	1614.77098
676.108	1596.31192
676.549	1584.55475
676.991	1643.39768
677.432	1617.05963
677.873	1612.50776
678.314	1636.68058
678.755	1598.78094
679.196	1585.48876
679.637	1568.63477
680.078	1533.51532
680.518	1541.46193
680.959	1549.59632
681.399	1581.7734
681.839	1565.68277
682.28	1562.77036
682.72	1495.40532
683.16	1462.672
683.6	1512.40364
684.039	1479.0755
684.479	1468.64157
684.919	1581.58616
685.358	1475.67503
685.798	1394.73828
686.237	1427.47206
686.676	1373.24728
687.115	1465.47316
687.554	1484.54645
687.993	1464.2675
688.432	1451.35229
688.871	1519.43468
689.309	1490.55951
689.748	1527.13027
690.186	1502.48102
690.625	1473.46941
691.063	1461.50742
691.501	1506.68423
691.939	1469.70961
692.377	1544.65005
692.815	1553.69443
693.253	1527.56471
693.69	1470.23604
694.128	1444.54826
694.565	1475.49549
695.003	1504.80386
695.44	1519.54156
695.877	1430.42732
696.314	1456.10415
696.751	1488.35847
697.188	1490.43818
697.625	1451.28172
698.061	1469.52389
698.498	1378.37985
698.934	1396.43648
699.371	1349.33625
699.807	1443.44625
700.243	1402.47507
700.679	1386.20676
701.115	1410.37143
701.551	1361.30521
701.987	1344.10428
702.422	1345.3746
702.858	1417.45336
703.294	1447.3562
703.729	1396.49112
704.164	1304.3227
704.599	1321.14728
705.035	1346.18515
705.47	1270.33267
705.904	1221.13472
706.339	1315.21731
706.774	1354.32095
707.209	1315.26033
707.643	1286.30694
708.078	1288.35878
708.512	1239.39071
708.946	1287.27528
709.38	1280.27861
709.814	1217.0645
710.248	1290.38015
710.682	1277.30881
711.116	1208.26267
711.549	1138.29621
711.983	1187.08369
712.416	1200.17623
712.85	1184.27294
713.283	1157.10381
713.716	1127.19378
714.149	1105.98494
714.582	1182.0043
715.015	1138.17921
715.448	1146.26924
715.881	1130.82954
716.313	1087.98341
716.746	1116.0561
717.178	1059.01735
717.61	1072.1845
718.043	964.93904
718.475	965.9015
718.907	1028.06351
719.339	946.72342
719.77	1003.92847
720.202	930.91685
720.634	1000.98298
721.065	962.82694
721.497	937.87648
721.928	865.75607
722.359	876.76913
722.79	890.75396
723.221	854.76953
723.652	884.87163
724.083	859.57922
724.514	860.62263
724.945	829.61104
725.375	788.54542
725.806	761.59457
726.236	842.81056
726.666	728.45917
727.096	774.60292
727.526	846.83862
727.956	823.55763
728.386	756.57536
728.816	746.64245
729.246	733.55071
729.675	687.44443
730.105	717.50162
730.534	698.388
730.964	689.48484
731.393	720.50891
731.822	738.62143
732.251	682.50332
732.68	671.33021
733.109	697.48219
733.537	673.42613
733.966	652.42094
734.395	715.4037
734.823	649.226
735.251	602.26578
735.68	640.37353
736.108	583.28623
736.536	585.19784
736.964	590.1931
737.392	590.29979
737.82	591.23471
738.247	601.25008
738.675	546.13072
739.102	529.17764
739.53	562.28963
739.957	613.40202
740.384	556.18072
740.811	508.13059
741.238	629.34787
741.665	587.21007
742.092	505.02863
742.519	545.20479
742.945	590.26229
743.372	546.20776
743.798	518.18901
744.225	522.09492
744.651	521.16412
745.077	502.12229
745.503	439.95996
745.929	547.17546
746.355	481.04893
746.781	448.99679
747.207	499.05972
747.632	473.06191
748.058	500.13434
748.483	514.04629
748.908	464.0453
749.334	464.03378
749.759	494.05387
750.184	479.03838
750.609	468.03195
751.033	394.83699
751.458	431.86388
751.883	424.94927
752.307	432.9209
752.732	490.13227
753.156	383.86579
753.58	421.8992
754.005	372.85957
754.429	452.96896
754.853	354.81669
755.277	382.83199
755.7	350.80393
756.124	381.87178
756.548	338.73711
756.971	433.95923
757.394	355.83998
757.818	403.95609
758.241	404.94275
758.664	408.94385
759.087	348.72219
759.51	361.82006
759.933	337.75593
760.356	414.98124
760.778	356.80755
761.201	337.75189
761.623	278.61706
762.046	319.68816
762.468	423.91716
762.89	344.774
763.312	396.88769
763.734	342.76225
764.156	366.83259
764.578	321.67375
765	336.75755
765.421	308.73569
765.843	317.77466
766.264	319.69759
766.686	257.59872
767.107	303.6833
767.528	313.75235
767.949	273.65024
768.37	313.72341
768.791	276.6172
769.212	290.68529
769.632	278.60884
770.053	273.67063
770.473	198.45246
770.894	230.53298
771.314	214.4758
771.734	243.53119
772.154	255.61203
772.575	306.65091
772.994	249.52656
773.414	298.65622
773.834	230.54036
774.254	184.4269
774.673	268.61511
775.093	263.61559
775.512	252.58557
775.931	234.5611
776.351	243.5719
776.77	214.49826
777.189	228.51008
777.607	158.38665
778.026	196.46408
778.445	211.50913
778.864	157.38027
779.282	201.45237
779.701	184.4392
780.119	182.44024
780.537	112.26868
780.955	176.42348
781.373	176.41367
781.791	220.47063
782.209	133.28606
782.627	128.32516
783.045	161.34733
783.462	144.35278
783.88	150.37306
784.297	166.39882
784.715	143.35455
785.132	127.29285
785.549	125.30003
785.966	163.39154
786.383	203.47554
786.8	175.38465
787.217	185.42011
787.633	150.36229
788.05	74.16604
788.466	157.34654
788.883	153.37726
789.299	93.21265
789.715	162.37675
790.131	135.32169
790.547	139.33135
790.963	129.30621
791.379	116.2824
791.795	122.26257
792.21	150.33088
792.626	119.26772
793.041	112.26489
793.457	107.25233
793.872	127.28232
794.287	119.27713
794.702	115.26687
795.117	94.22653
795.532	104.25337
795.947	87.19837
796.362	106.23696
796.776	113.24744
797.191	102.24068
797.605	87.19957
798.02	84.19674
798.434	143.30161
798.848	109.26183
799.262	103.24582
799.676	115.26866
800.09	96.22696
800.504	76.17689
800.918	27.06017
801.331	23.05744
801.745	103.22478
802.158	45.10818
802.572	62.14533
802.985	60.13866
803.398	83.18963
803.811	10.02457
804.224	45.10711
804.637	88.20248
805.05	59.13072
805.462	54.12757
805.875	8.02039
806.288	60.14103
806.7	45.10851
807.112	53.11743
807.525	15.03546
807.937	41.09871
808.349	52.12517
808.761	82.19506
809.173	81.18983
809.584	55.13061
809.996	24.05709
810.408	63.15951
810.819	28.06406
811.231	54.14062
811.642	89.2133
812.053	99.23219
812.464	34.07807
812.875	56.13948
813.286	74.18592
813.697	28.06169
814.108	70.16376
814.519	109.23353
814.929	48.11821
815.34	35.08135
815.75	60.14896
816.16	25.05971
816.571	28.07053
816.981	33.07442
817.391	44.10164
817.801	58.13988
818.211	77.17564
818.62	14.033
819.03	41.09695
819.44	16.03998
819.849	11.02669
820.259	36.08836
820.668	33.07912
821.077	28.06827
821.486	59.13491
821.895	33.07773
822.304	39.10018
822.713	46.10444
823.122	36.08685
823.531	-8.0182
823.939	52.12294
824.348	32.0748
824.756	33.07963
825.164	45.10892
825.573	48.11659
825.981	-3.00721
826.389	2.00489
826.797	47.11607
827.205	42.09377
827.612	38.09015
828.02	-18.04103
828.428	8.01982
828.835	55.14128
829.243	19.04353
829.65	-3.00734
830.057	49.11403
830.464	46.10972
830.871	64.14796
831.278	50.11661
831.685	46.09811
832.092	-28.06638
832.499	113.2353
832.905	36.08761
833.312	-38.08305
833.718	99.23781
834.124	23.05096
834.531	43.10364
834.937	25.06255
835.343	37.08539
835.749	42.09292
836.155	40.10158
836.561	17.04065
836.966	27.06362
837.372	42.10282
837.777	34.08234
838.183	32.06804
838.588	67.16119
838.993	69.16139
839.399	47.11144
839.804	-27.06456
840.209	49.12216
840.613	28.05987
841.018	0
841.423	16.03995
841.828	24.05923
842.232	-23.05464
842.637	80.18267
843.041	19.04761
843.445	-5.01212
843.849	9.02176
844.253	56.12735
844.657	15.03697
845.061	79.17438
845.465	17.03983
845.869	55.12262
846.272	28.06638
846.676	-45.10468
847.079	24.05976
847.483	56.13408
847.886	67.15474
848.289	35.092
848.692	-18.04421
849.095	31.07154
849.498	30.07243
849.901	5.011
850.304	50.11472
850.707	28.0689
851.109	94.2261
851.512	69.16329
851.914	-13.03226
852.316	66.1626
852.718	32.08236
853.121	59.13914
853.523	-15.03386
853.925	31.07938
854.326	17.04156
854.728	49.12225
855.13	23.05825
855.531	9.02092
855.933	44.10055
856.334	79.19063
856.736	21.04587
857.137	46.10385
857.538	8.01972
857.939	39.09454
858.34	38.08827
858.741	36.09084
859.142	-9.0209
859.542	36.09284
859.943	23.05531
860.343	-5.01215
860.744	45.10571
861.144	57.13499
861.544	64.1499
861.945	54.13249
862.345	55.12859
862.745	40.09676
863.145	27.06099
863.544	34.08342
863.944	67.15141
864.344	3.00714
864.743	68.16157
865.143	63.1574
865.542	16.03534
865.941	51.12209
866.34	8.0183
866.74	27.07054
867.139	78.18133
867.537	-11.02701
867.936	38.08859
868.335	26.06391
868.734	18.04475
869.132	27.05962
869.531	28.0645
869.929	-11.02448
870.327	7.01626
870.726	11.0263
871.124	78.17228
871.522	3.00741
871.92	30.0715
872.318	14.03288
872.715	29.06823
873.113	-31.07333
873.511	-1.00241
873.908	7.01749
874.306	15.03651
874.703	13.0312
875.1	-12.02948
875.497	8.0185
875.894	-5.01216
876.291	44.10427
876.688	36.08999
877.085	1.00231
877.482	23.05569
877.878	60.14064
878.275	4.00991
878.671	15.03108
879.068	63.14562
879.464	33.07685
879.86	20.04567
880.256	39.09115
880.652	22.0542
881.048	26.06154
881.444	-6.01364
881.84	28.06875
882.236	54.13048
882.631	35.08337
883.027	43.09967
883.422	-18.04462
883.817	6.01478
884.213	19.04732
884.608	86.20639
885.003	-11.02555
885.398	31.07509
885.793	25.06042
886.188	-12.029
886.582	48.11751
886.977	38.08607
887.371	27.06555
887.766	29.07019
888.16	-12.02862
888.554	45.10624
888.949	25.06067
889.343	40.0935
889.737	8.02099
890.131	-8.01954
890.525	62.1537
890.918	15.03655
891.312	12.02744
891.706	41.10377
892.099	34.0833
892.492	46.09401
892.886	1.00237
893.279	-15.03716
893.672	42.104
894.065	38.09192
894.458	34.08166
894.851	25.05868
895.244	15.03714
895.637	32.07457
896.029	41.09721
896.422	-6.01405
896.814	33.07888
897.206	14.03273
897.599	93.21897
897.991	40.09376
898.383	23.05255
898.775	66.14394
899.167	71.16071
899.559	22.05338
899.951	22.04948
900.342	10.02442
900.734	64.15645
901.125	7.01773
901.517	71.16724
901.908	48.10863
902.299	-16.03822
902.69	56.12787
903.082	39.0909
903.473	32.07513
903.863	-2.00493
904.254	76.17038
904.645	14.03324
905.036	16.0383
905.426	45.097
905.817	28.06581
906.207	-45.10356
906.597	61.13802
906.987	9.02245
907.378	52.1274
907.768	25.06437
908.158	23.05401
908.547	16.04073
908.937	-37.09171
909.327	41.09552
909.717	3.00727
910.106	1.00232
910.495	39.09265
910.885	37.09073
911.274	27.06508
911.663	17.04138
912.052	23.05411
912.441	39.09656
912.83	18.03947
913.219	13.0329
913.608	62.14624
913.997	24.05882
914.385	69.15752
914.774	64.14884
915.162	8.01868
915.55	35.0808
915.939	32.07872
916.327	54.12836
916.715	46.11495
917.103	55.12743
917.491	77.18137
917.878	23.05445
918.266	1.00251
918.654	17.04247
919.041	56.14297
919.429	0
919.816	29.07093
920.203	85.19873
920.591	48.11475
920.978	43.10125
921.365	26.06642
921.752	-9.02046
922.139	46.09534
922.525	-4.00936
922.912	14.03287
923.299	-7.01694
923.685	-32.08092
924.072	-35.07648
924.458	62.14811
924.844	-27.06523
925.231	-16.03577
925.617	2.005
926.003	49.1202
926.389	19.04637
926.774	-4.00981
927.16	47.112
927.546	59.14746
927.931	18.04313
928.317	22.04835
928.702	47.106
929.088	74.17115
929.473	26.06457
929.858	28.06661
930.243	22.05155
930.628	72.1695
931.013	-7.01689
931.398	21.04558
931.783	-3.0076
932.167	47.11174
932.552	45.10814
932.937	46.10905
933.321	3.00738
933.705	-24.0583
934.09	10.02394
934.474	54.12141
934.858	23.05796
935.242	17.03782
935.626	12.02998
936.009	27.07044
936.393	53.13179
936.777	10.02503
937.16	23.05852
937.544	28.06231
937.927	43.10588
938.311	41.09545
938.694	80.20388
939.077	43.09884
939.46	3.00696
939.843	34.06583
940.226	20.0494
940.609	70.15519
940.991	-15.03695
941.374	49.11587
941.757	68.15983
942.139	29.0628
942.522	40.09005
942.904	19.04409
943.286	49.11936
943.668	50.12634
944.05	39.09258
944.432	-26.06225
944.814	13.03062
945.196	20.04752
945.578	42.09772
945.959	1.00224
946.341	21.04871
946.722	48.10717
947.104	81.18454
947.485	64.14218
947.866	44.1078
948.247	87.21208
948.628	-34.07917
949.009	41.10132
949.39	17.04062
949.771	10.02185
950.152	16.03802
950.532	43.10494
950.913	22.05106
951.293	33.08733
951.674	10.02339
952.054	33.0805
952.434	-10.02418
952.814	-16.03648
953.194	11.02755
953.574	45.10591
953.954	55.12348
954.334	53.12823
954.714	1.00238
955.093	50.11793
955.473	61.1482
955.853	15.03769
956.232	6.016
956.611	14.03193
956.99	-4.00981
957.37	34.08302
957.749	-15.03412
958.128	-7.01727
958.506	11.02777
958.885	46.11127
959.264	42.10045
959.643	66.14412
960.021	13.03143
960.4	17.03699
960.778	12.02811
961.156	47.11281
961.535	14.03108
961.913	83.18581
962.291	23.05794
962.669	41.10073
963.047	61.15053
963.424	56.13953
963.802	26.06185
964.18	8.01926
964.557	41.08985
964.935	33.075
965.312	52.1314
965.69	48.11432
966.067	19.04407
966.444	-28.06584
966.821	50.12436
967.198	13.03005
967.575	40.0938
967.952	17.03845
968.329	57.13384
968.705	70.14333
969.082	8.02022
969.458	10.02355
969.835	27.0633
970.211	27.06782
970.587	42.10087
970.963	11.02709
971.339	11.02805
971.715	25.06042
972.091	19.04512
972.467	-24.05738
972.843	29.07035
973.219	53.12041
973.594	14.03557
973.97	-32.07198
974.345	24.05562
974.721	49.11182
975.096	39.09154
975.471	11.02505
975.846	-11.02542
976.221	4.00988
976.596	71.16555
976.971	78.18541
977.346	36.07958
977.72	20.04902
978.095	14.03505
978.469	21.04802
978.844	64.15312
979.218	67.1561
979.593	17.03904
979.967	-3.00693
980.341	79.17372
980.715	49.11909
981.089	39.0939
981.463	20.04415
981.837	-5.01201
982.21	47.10144
982.584	25.05847
982.957	16.03892
983.331	-7.01575
983.704	99.23455
984.078	-4.00954
984.451	21.0495
984.824	18.04264
985.197	11.02537
985.57	-45.10847
985.943	43.09994
986.316	9.02098
986.688	55.12662
987.061	89.19875
987.434	70.17776
987.806	21.04829
988.179	14.03168
988.551	24.05852
988.923	-3.00711
989.295	69.16392
989.667	-1.00235
990.039	60.14476
990.411	-29.06369
990.783	37.0803
991.155	27.06281
991.527	1.00233
991.898	16.03876
992.27	58.13908
992.641	1.00241
993.012	-16.03544
993.384	32.07289
993.755	90.22058
994.126	65.15084
994.497	16.03794
994.868	-2.00437
995.239	31.072
995.61	4.00977
995.98	2.00469
996.351	39.09368
996.722	56.12565
997.092	-11.0254
997.462	-5.01146
997.833	5.01132
998.203	10.02302
998.573	41.09867
998.943	23.05219
999.313	21.04881
999.683	19.04413
1000.053	-6.01299
1000.423	34.07873
1000.792	-5.01245
1001.162	-37.08814
1001.531	18.04293
1001.901	0
1002.27	-11.02319
1002.639	-3.00738
1003.009	22.05019
1003.378	21.05205
1003.747	-5.01134
1004.116	-19.04402
1004.485	23.05285
1004.853	4.00967
1005.222	-22.05294
1005.591	42.09513
1005.959	45.09733
1006.328	52.11206
1006.696	-19.04427
1007.064	8.01927
1007.433	24.05733
1007.801	-14.03271
1008.169	-22.05346
1008.537	23.04868
1008.905	69.15428
1009.273	9.0213
1009.64	27.06286
1010.008	49.11146
1010.375	23.05268
1010.743	-31.06708
1011.11	30.06966
1011.478	35.08401
1011.845	37.0828
1012.212	37.08116
1012.579	57.13426
1012.946	13.02941
1013.313	39.08803
1013.68	33.07043
1014.047	-8.01844
1014.414	-21.048
1014.78	12.02896
1015.147	56.12766
1015.513	36.08326
1015.88	13.0319
1016.246	31.07257
1016.612	27.05862
1016.978	48.11361
1017.344	76.17968
1017.71	52.12041
1018.076	49.10906
1018.442	32.07973
1018.808	2.00489
1019.174	-3.00725
1019.539	6.01267
1019.905	56.12689
1020.27	-29.0695
1020.636	33.07476
1021.001	75.17156
1021.366	3.007
1021.731	86.21459
1022.096	39.09574
1022.461	58.13142
1022.826	66.15089
1023.191	3.00765
1023.556	29.06476
1023.92	24.05621
1024.285	24.05568
1024.649	0
1025.014	5.01182
1025.378	51.124
1025.742	19.04507
1026.107	29.06248
1026.471	30.06659
1026.835	34.08107
1027.199	-13.03041
1027.562	39.08565
1027.926	40.09317
1028.29	22.05382
1028.654	38.08312
1029.017	23.05464
1029.381	27.06224
1029.744	27.06653
1030.107	34.07707
1030.471	44.10152
1030.834	32.06834
1031.197	62.14225
1031.56	49.10974
1031.923	22.05514
1032.286	107.23697
1032.648	26.05877
1033.011	51.11347
1033.374	42.09319
1033.736	-7.01794
1034.099	34.0797
1034.461	13.03206
1034.823	12.02903
1035.185	22.05288
1035.548	63.14724
1035.91	24.05511
1036.272	65.14143
1036.634	84.19528
1036.995	46.10236
1037.357	15.0354
1037.719	54.12588
1038.08	81.18439
1038.442	9.02054
1038.803	-2.00456
1039.165	-33.08074
1039.526	41.09507
1039.887	20.04596
1040.248	17.04118
1040.609	7.01651
1040.97	-1.00235
1041.331	42.10309
1041.692	20.04578
1042.053	35.07557
1042.413	26.05764
1042.774	52.12132
1043.134	53.11865
1043.495	33.07981
1043.855	62.14539
1044.215	8.01906
1044.576	15.03482
1044.936	22.048
1045.296	66.15736
1045.656	21.04902
1046.016	60.13728
1046.375	18.04204
1046.735	62.13636
1047.095	52.1162
1047.454	40.07934
1047.814	-7.0163
1048.173	-30.06845
1048.533	-13.02875
1048.892	-2.00466
1049.251	40.09567
1049.61	10.02381
1049.969	61.13645
1050.328	25.05171
1050.687	20.0465
1051.046	-9.02112
1051.405	17.04035
1051.763	28.06246
1052.122	-12.02898
1052.48	30.07098
1052.839	42.09629
1053.197	-14.03183
1053.555	18.03836
1053.914	48.11198
1054.272	-16.03658
1054.63	26.06135
1054.988	82.18701
1055.345	45.09045
1055.703	59.13583
1056.061	46.11532
1056.419	59.14933
1056.776	-15.03458
1057.134	-22.04831
1057.491	35.08436
1057.848	24.05716
1058.206	-8.01785
1058.563	2.00422
1058.92	56.12213
1059.277	53.12513
1059.634	-3.0067
1059.991	104.23623
1060.348	56.12094
1060.704	52.12146
1061.061	61.13182
1061.418	23.05375
1061.774	27.06417
1062.131	52.13471
1062.487	42.09319
1062.843	6.01445
1063.199	22.05278
1063.555	51.11389
1063.911	35.08446
1064.267	104.19866
1064.623	59.1387
1064.979	-37.08177
1065.335	23.05225
1065.691	4.00909
1066.046	106.21772
1066.402	-7.01521
1066.757	60.14519
1067.112	23.05403
1067.468	19.0438
1067.823	41.0922
1068.178	13.03005
1068.533	73.1684
1068.888	17.03881
1069.243	17.04046
1069.598	-10.02334
1069.952	78.1704
1070.307	31.07427
1070.662	43.09912
1071.016	70.15111
1071.371	16.03513
1071.725	16.03642
1072.079	82.18784
1072.434	51.1191
1072.788	14.03158
1073.142	30.07104
1073.496	21.04771
1073.85	38.08396
1074.203	36.08389
1074.557	30.07823
1074.911	66.14864
1075.265	17.03789
1075.618	52.1216
1075.971	6.01373
1076.325	37.09134
1076.678	-9.01987
1077.031	-24.05128
1077.385	30.06268
1077.738	28.06021
1078.091	-18.03997
1078.444	11.02419
1078.796	15.03574
1079.149	24.05764
1079.502	15.03437
1079.855	14.03143
1080.207	16.03783
1080.56	25.06289
1080.912	3.00703
1081.264	66.15222
1081.617	29.06823
1081.969	24.05882
1082.321	26.06078
1082.673	43.09535
1083.025	13.02945
1083.377	290.61742
1083.728	11.0245
1084.08	13.0311
1084.432	5.01158
1084.783	-11.02433
1085.135	12.02921
1085.486	34.07491
1085.838	19.04528
1086.189	63.14741
1086.54	27.06154
1086.891	61.15097
1087.242	76.17968
1087.593	-7.0162
1087.944	51.11102
1088.295	62.13327
1088.646	80.1884
1088.996	29.06759
1089.347	31.07257
1089.698	62.14146
1090.048	21.05237
1090.398	-2.00443
1090.749	41.09288
1091.099	73.17795
1091.449	38.0914
1091.799	6.01452
1092.149	34.08097
1092.499	15.03528
1092.849	16.03939
1093.199	22.05262
1093.548	34.07935
1093.898	-24.05812
1094.248	-1.00246
1094.597	23.05755
1094.947	47.12132
1095.296	56.13321
1095.645	33.08242
1095.994	37.08515
1096.343	69.16675
1096.692	46.11868
1097.041	25.06682
1097.39	36.08626
1097.739	45.11255
1098.088	51.13073
1098.437	44.11336
1098.785	-4.01041
1099.134	-17.04324
1099.482	44.11766
1099.83	35.0889
1100.179	33.08492
1100.527	5.01275
1100.875	20.05171
1101.223	34.08802
1101.571	-25.06742
1101.919	7.0182
1102.267	22.06091
1102.615	-1.00321
1102.962	6.01924
1103.31	4.01285
1103.658	-3.00962
