Data from N2 R0 150C sample12_Subt2__1__13-53-39-097.txt Node

Date: Tue Aug 19 13:53:39 PDT 2025
User: uwsun
Spectrometer: HDX01956
Trigger mode: 0
Integration Time (sec): 5.000000E-1
Scans to average: 1
Nonlinearity correction enabled: true
Boxcar width: 0
Storing dark spectrum: false
XAxis mode: Wavelengths
Number of Pixels in Spectrum: 2068
>>>>>Begin Spectral Data<<<<<
194.03	129.37193
194.578	120.38635
195.127	113.35938
195.676	136.43289
196.225	148.40253
196.773	213.59531
197.321	204.57482
197.87	353.91666
198.418	279.72556
198.966	313.82814
199.513	252.64216
200.061	302.78009
200.609	303.80491
201.156	265.59859
201.704	312.80116
202.251	360.9596
202.798	326.85427
203.345	284.71448
203.892	290.74131
204.438	306.74431
204.985	305.747
205.532	272.72679
206.078	329.81769
206.624	330.82361
207.17	317.75038
207.716	312.77136
208.262	308.6252
208.808	301.76442
209.354	322.79783
209.899	300.76012
210.445	297.7564
210.99	339.83394
211.535	387.91956
212.08	337.80479
212.625	314.79813
213.17	344.87435
213.715	329.76703
214.259	320.75909
214.804	307.76248
215.348	283.66058
215.892	326.78938
216.436	337.79123
216.98	322.734
217.524	336.80379
218.068	354.90357
218.612	316.80264
219.155	246.59548
219.698	292.70946
220.242	354.88285
220.785	285.67699
221.328	292.73223
221.871	277.70398
222.414	348.86663
222.956	306.75736
223.499	291.67017
224.041	316.74584
224.583	250.54937
225.126	270.61101
225.668	280.68871
226.21	278.70739
226.751	277.6285
227.293	329.76884
227.835	317.78616
228.376	329.76431
228.918	308.78316
229.459	293.73988
230	223.54397
230.541	292.69695
231.082	240.58685
231.622	296.69051
232.163	289.7115
232.704	290.72328
233.244	291.7288
233.784	319.78418
234.324	308.70379
234.864	299.69134
235.404	296.71163
235.944	330.78492
236.484	302.75047
237.023	298.7197
237.563	303.71087
238.102	256.61104
238.641	329.83432
239.18	326.77659
239.719	282.71453
240.258	297.68207
240.797	296.72268
241.335	336.8258
241.874	331.6662
242.412	338.82488
242.95	295.71796
243.488	293.68634
244.026	278.65235
244.564	333.70078
245.102	309.7065
245.64	296.71595
246.177	336.76714
246.715	333.80587
247.252	348.80604
247.789	344.66606
248.326	361.87755
248.863	349.7838
249.4	321.74131
249.936	268.56884
250.473	304.72475
251.009	317.74603
251.546	305.68753
252.082	301.67519
252.618	331.74582
253.154	302.74171
253.69	291.66535
254.226	296.71541
254.761	357.82213
255.297	294.65528
255.832	301.71774
256.367	330.78944
256.903	277.61804
257.438	324.7668
257.972	308.70549
258.507	307.72362
259.042	370.82021
259.576	329.73343
260.111	314.73537
260.645	290.637
261.179	313.73919
261.713	377.85292
262.247	318.74882
262.781	263.57539
263.315	382.93812
263.849	372.93209
264.382	331.76592
264.915	393.93166
265.449	348.86946
265.982	365.84223
266.515	292.71636
267.048	342.74994
267.58	382.84293
268.113	312.69338
268.646	355.88069
269.178	344.78224
269.71	347.77323
270.243	328.75642
270.775	339.85753
271.307	360.86479
271.838	310.73452
272.37	364.89327
272.902	347.79656
273.433	298.6598
273.965	384.93117
274.496	303.7509
275.027	347.86085
275.558	325.79479
276.089	329.82156
276.62	379.95526
277.15	311.76254
277.681	343.76179
278.211	294.71111
278.741	316.71509
279.272	324.74957
279.802	315.78604
280.332	319.76153
280.861	374.89978
281.391	327.75216
281.921	360.8684
282.45	325.81598
282.98	375.96773
283.509	386.86564
284.038	368.84458
284.567	359.83135
285.096	392.94557
285.625	343.79399
286.153	298.705
286.682	337.78104
287.21	332.80693
287.739	374.8909
288.267	322.78614
288.795	314.81164
289.323	373.88631
289.851	398.93678
290.378	397.89597
290.906	378.91766
291.433	319.79285
291.961	410.92662
292.488	353.87221
293.015	387.9178
293.542	404.0139
294.069	371.90219
294.596	380.92735
295.122	428.00755
295.649	379.83683
296.175	411.99755
296.702	401.95977
297.228	386.92723
297.754	431.98021
298.28	398.90756
298.806	368.883
299.332	407.90953
299.857	375.85047
300.383	398.99073
300.908	362.88113
301.433	369.88758
301.958	402.91668
302.483	419.02952
303.008	417.01289
303.533	399.00975
304.058	418.97809
304.582	425.99855
305.107	419.07621
305.631	403.90876
306.155	416.96655
306.679	365.84826
307.203	435.00079
307.727	427.99934
308.251	429.03899
308.775	445.04622
309.298	429.02769
309.822	419.03898
310.345	490.14392
310.868	426.00244
311.391	481.14679
311.914	491.19564
312.437	495.10457
312.96	446.03207
313.482	459.06325
314.005	472.15422
314.527	472.20308
315.049	463.12526
315.571	529.16499
316.093	521.24893
316.615	498.17354
317.137	501.07045
317.659	531.25359
318.18	472.09839
318.702	517.15802
319.223	551.12811
319.744	539.1791
320.265	495.16939
320.786	513.23439
321.307	565.34476
321.828	550.2151
322.348	585.32934
322.869	605.3837
323.389	529.78719
323.909	566.24737
324.43	570.3007
324.95	602.32183
325.47	587.36613
325.989	549.24844
326.509	591.26252
327.029	616.31969
327.548	607.30738
328.067	655.50296
328.587	627.46732
329.106	571.22816
329.625	654.58912
330.144	629.39015
330.662	547.2072
331.181	655.44225
331.7	628.4015
332.218	694.42682
332.736	670.47623
333.255	655.43442
333.773	646.43221
334.291	675.55321
334.808	748.56489
335.326	797.65537
335.844	727.57952
336.361	707.65851
336.879	796.72258
337.396	699.5617
337.913	806.68411
338.43	813.66914
338.947	756.63597
339.464	778.54158
339.981	809.74217
340.497	777.72465
341.014	822.81438
341.53	782.59064
342.046	808.77753
342.562	837.87399
343.078	827.75812
343.594	876.85711
344.11	858.80629
344.626	871.94852
345.141	924.84063
345.657	850.70481
346.172	906.9224
346.687	932.8935
347.202	889.7737
347.717	931.95106
348.232	989.12731
348.747	955.92312
349.261	1008.92094
349.776	957.958
350.29	961.07495
350.805	1044.22609
351.319	993.00911
351.833	977.90179
352.347	970.96363
352.861	994.98022
353.374	1004.95765
353.888	1023.10471
354.401	1028.01437
354.915	1028.97613
355.428	1053.20134
355.941	1126.19338
356.454	1088.0343
356.967	1031.04633
357.48	1055.02716
357.993	1115.27379
358.505	1066.17225
359.018	1112.24979
359.53	1172.32943
360.042	1153.09229
360.554	1142.25712
361.066	1118.26092
361.578	1157.04561
362.09	1142.21099
362.602	1162.08688
363.113	1223.30373
363.625	1209.19648
364.136	1177.09617
364.647	1204.30481
365.158	1243.28803
365.669	1257.37831
366.18	1265.34602
366.691	1260.19919
367.201	1283.42412
367.712	1302.33457
368.222	1316.34897
368.733	1378.3448
369.243	1393.36604
369.753	1428.54068
370.263	1397.56997
370.773	1332.50904
371.282	1445.57435
371.792	1499.62334
372.301	1484.67859
372.811	1510.89492
373.32	1519.35146
373.829	1601.72028
374.338	1649.54309
374.847	1708.73063
375.356	1729.81806
375.865	1774.4721
376.373	1898.77178
376.882	1887.11469
377.39	1917.96548
377.898	1964.08479
378.407	2059.75711
378.915	2170.63002
379.423	2210.98716
379.93	2353.8145
380.438	2376.16329
380.946	2581.04933
381.453	2571.082
381.96	2791.0169
382.468	2853.0038
382.975	3037.99531
383.482	3160.51354
383.989	3281.19396
384.495	3345.58021
385.002	3529.07424
385.509	3738.54955
386.015	3948.4681
386.521	4146.96929
387.028	4284.73459
387.534	4385.46381
388.04	4547.71882
388.546	4773.28807
389.051	4888.01737
389.557	5236.99025
390.063	5757.74334
390.568	5892.81044
391.073	6021.49952
391.578	6381.73157
392.084	6442.31762
392.589	6605.16067
393.093	7126.6118
393.598	7761.15863
394.103	8511.47034
394.607	9209.4341
395.112	9939.9622
395.616	10601.22325
396.12	11399.8712
396.624	12577.06811
397.128	13550.03445
397.632	15124.01096
398.136	16385.23019
398.639	17267.20515
399.143	18997.87818
399.646	21696.69944
400.15	23902.8516
400.653	26143.27103
401.156	29315.38868
401.659	33979.65958
402.162	41038.41984
402.664	51984.94278
403.167	48771.07115
403.67	22278.45323
404.172	2696.20453
404.674	0
405.176	0
405.678	0
406.18	0
406.682	0
407.184	0
407.686	25783.58453
408.187	43316.52985
408.688	51225.60928
409.19	54389.01922
409.691	56215.4214
410.192	57270.57019
410.693	57439.76098
411.194	52425.14297
411.694	50375.47871
412.195	47385.19375
412.696	42742.07659
413.196	40409.0903
413.696	38997.42027
414.196	39298.08105
414.696	39508.71422
415.196	38126.86651
415.696	35385.35465
416.196	28870.45407
416.695	21724.60602
417.195	18403.77308
417.694	17504.62802
418.194	16660.1634
418.693	15405.44358
419.192	14968.08332
419.691	14759.50936
420.19	14450.77081
420.688	13981.57356
421.187	13587.615
421.685	12677.11783
422.184	11670.58355
422.682	10004.49609
423.18	8380.1861
423.678	7495.9155
424.176	6922.56224
424.674	6479.33995
425.172	6189.66359
425.669	5830.03171
426.167	5563.95525
426.664	5042.22901
427.161	4623.47323
427.659	4191.22771
428.156	4007.6132
428.652	3703.88634
429.149	3557.6994
429.646	3443.28261
430.143	3253.78387
430.639	3053.82089
431.135	2838.20044
431.632	2779.78493
432.128	2570.03883
432.624	2447.35058
433.12	2360.76272
433.616	2340.62664
434.111	2149.89773
434.607	2089.94738
435.103	2070.43952
435.598	2115.4597
436.093	1949.82443
436.588	1809.52415
437.083	1805.58834
437.578	1654.59453
438.073	1608.848
438.568	1554.68562
439.062	1534.30974
439.557	1467.50447
440.051	1369.28531
440.546	1395.34668
441.04	1348.4629
441.534	1340.61363
442.028	1298.36767
442.522	1225.29404
443.015	1236.09183
443.509	1279.42473
444.002	1259.40401
444.496	1267.15898
444.989	1133.20133
445.482	1155.29611
445.975	1188.17179
446.468	1169.99237
446.961	1179.02872
447.454	1087.98042
447.947	1082.11246
448.439	1001.97713
448.931	1096.03221
449.424	1022.10782
449.916	1079.1517
450.408	1060.96955
450.9	990.02352
451.392	943.00142
451.884	902.76184
452.375	961.04055
452.867	909.74329
453.358	944.82921
453.849	979.75087
454.341	925.78169
454.832	876.63512
455.323	861.81855
455.814	858.71692
456.304	901.77774
456.795	870.72973
457.285	765.49001
457.776	851.66798
458.266	845.74659
458.756	827.71393
459.247	838.75026
459.737	784.66845
460.226	829.64468
460.716	782.66923
461.206	790.6805
461.695	700.5559
462.185	710.48727
462.674	774.6022
463.163	707.39972
463.653	779.48068
464.142	696.51948
464.63	732.6116
465.119	680.42373
465.608	733.53449
466.096	647.2957
466.585	679.4232
467.073	655.41813
467.561	610.34222
468.05	655.39036
468.538	656.46285
469.026	665.4496
469.513	724.4986
470.001	525.11794
470.489	651.42265
470.976	613.31354
471.463	574.31878
471.951	551.27167
472.438	537.18164
472.925	502.10705
473.412	574.29404
473.899	459.99987
474.385	491.13032
474.872	555.23254
475.359	575.31397
475.845	484.97437
476.331	411.84817
476.817	492.12609
477.303	498.09684
477.789	455.04481
478.275	424.00352
478.761	488.12094
479.247	444.97233
479.732	462.10037
480.218	424.05236
480.703	430.02519
481.188	395.83088
481.673	404.90227
482.158	415.88025
482.643	358.87303
483.128	412.91785
483.612	344.7892
484.097	352.83015
484.581	333.75708
485.066	368.87729
485.55	356.77932
486.034	308.65944
486.518	380.88189
487.002	341.83236
487.486	273.66269
487.969	356.85941
488.453	286.70502
488.936	353.79571
489.42	310.67949
489.903	284.70164
490.386	358.59831
490.869	309.67059
491.352	317.76051
491.835	279.5856
492.318	340.78127
492.8	323.67884
493.283	318.80343
493.765	270.66534
494.247	323.74563
494.73	315.69816
495.212	266.64025
495.694	243.57368
496.175	236.57256
496.657	266.63102
497.139	272.49617
497.62	233.562
498.102	241.60055
498.583	223.55873
499.064	289.66211
499.545	225.52501
500.026	295.66961
500.507	245.57773
500.988	319.78938
501.469	242.61298
501.949	287.70944
502.43	294.70575
502.91	274.58767
503.39	215.53752
503.87	259.62257
504.35	222.52807
504.83	259.58313
505.31	222.54224
505.79	250.61039
506.269	298.70391
506.749	243.56566
507.228	248.59534
507.707	218.49716
508.187	245.58378
508.666	217.54409
509.145	255.6111
509.623	223.52994
510.102	236.57986
510.581	222.53719
511.059	199.50792
511.538	254.65318
512.016	296.71837
512.494	265.6493
512.972	240.57855
513.45	235.56232
513.928	279.69017
514.406	256.63433
514.884	247.63993
515.361	252.61573
515.839	267.62324
516.316	253.61967
516.793	265.67182
517.27	255.61668
517.747	262.67562
518.224	283.66836
518.701	366.8299
519.178	246.61223
519.654	263.63027
520.131	244.60703
520.607	254.63168
521.083	241.56477
521.56	268.64897
522.036	257.58124
522.512	217.53505
522.987	270.65332
523.463	235.57452
523.939	264.652
524.414	246.57795
524.89	254.6116
525.365	218.51257
525.84	261.64021
526.315	216.53504
526.79	250.57909
527.265	270.63704
527.74	173.43237
528.215	276.66456
528.689	248.56762
529.164	219.49046
529.638	198.51892
530.112	239.5806
530.587	209.46845
531.061	253.62197
531.534	164.40505
532.008	186.46242
532.482	137.3232
532.956	153.39902
533.429	212.52398
533.903	195.44462
534.376	198.45282
534.849	273.64525
535.322	206.49979
535.795	185.46269
536.268	181.44416
536.741	135.33496
537.213	212.50332
537.686	209.52365
538.158	188.43635
538.631	172.4259
539.103	191.44918
539.575	169.36662
540.047	206.46846
540.519	201.49433
540.991	216.53621
541.463	180.44832
541.934	171.40763
542.406	177.4374
542.877	209.49361
543.348	199.49302
543.82	219.54157
544.291	224.53262
544.762	176.42941
545.233	212.54139
545.703	213.48997
546.174	210.50337
546.645	218.53801
547.115	236.58478
547.585	216.51024
548.056	246.61356
548.526	293.70749
548.996	227.55414
549.466	206.51027
549.935	233.56688
550.405	215.49002
550.875	240.57964
551.344	242.59504
551.814	219.52224
552.283	211.47001
552.752	252.60403
553.221	295.67314
553.69	258.58504
554.159	311.77494
554.628	282.64983
555.096	287.73891
555.565	292.67153
556.033	284.67656
556.502	299.73041
556.97	262.59725
557.438	239.57777
557.906	264.63567
558.374	231.54641
558.842	231.56222
559.31	289.66238
559.777	248.60911
560.245	276.6623
560.712	245.58669
561.18	309.71105
561.647	284.65183
562.114	256.60167
562.581	295.73001
563.048	289.67988
563.514	291.72169
563.981	290.67439
564.448	303.69669
564.914	331.78048
565.381	384.87494
565.847	373.87846
566.313	408.94984
566.779	367.82287
567.245	421.98222
567.711	448.06207
568.176	447.00097
568.642	512.24661
569.108	524.25208
569.573	572.31418
570.038	635.3039
570.504	573.23511
570.969	672.60055
571.434	689.46516
571.899	724.6239
572.363	679.4664
572.828	837.74392
573.293	848.78053
573.757	816.70954
574.222	965.95483
574.686	962.96868
575.15	901.93789
575.614	990.01168
576.078	1045.16732
576.542	1008.02515
577.006	1026.03402
577.469	1063.27785
577.933	1125.21261
578.396	1113.25335
578.86	1114.26203
579.323	1151.37898
579.786	1177.15754
580.249	1075.17038
580.712	1067.26197
581.175	1094.33179
581.637	1037.05349
582.1	1085.07697
582.563	1088.00735
583.025	1082.27841
583.487	1041.86396
583.95	1014.96411
584.412	1087.99239
584.874	1043.18711
585.336	990.06993
585.797	989.89605
586.259	1025.11637
586.721	939.96869
587.182	894.86401
587.643	917.87019
588.105	907.9433
588.566	897.69049
589.027	847.8723
589.488	847.76634
589.949	791.76082
590.41	801.45985
590.87	750.57184
591.331	770.52855
591.791	764.66102
592.252	719.55948
592.712	756.67142
593.172	709.51949
593.632	709.477
594.092	718.51133
594.552	718.46297
595.011	625.3767
595.471	611.29742
595.931	590.2661
596.39	624.43891
596.849	632.4087
597.308	636.32504
597.768	599.46544
598.227	565.29212
598.685	536.17771
599.144	559.26301
599.603	629.42885
600.062	576.19827
600.52	563.22546
600.978	563.27877
601.437	573.25201
601.895	574.18032
602.353	618.30688
602.811	625.35081
603.269	654.49198
603.727	639.46797
604.184	611.34246
604.642	650.51139
605.099	634.39801
605.557	675.55197
606.014	707.46826
606.471	609.45955
606.928	682.42918
607.385	706.6449
607.842	710.5128
608.299	757.6545
608.755	705.60033
609.212	699.46259
609.668	695.47601
610.125	744.67083
610.581	781.69765
611.037	782.64618
611.493	726.59505
611.949	848.9161
612.405	746.40925
612.861	822.763
613.316	768.70431
613.772	852.79914
614.227	816.78539
614.683	861.67649
615.138	807.73935
615.593	829.76924
616.048	840.73973
616.503	793.77982
616.958	847.94444
617.412	813.76201
617.867	776.59776
618.321	885.66784
618.776	807.65384
619.23	785.69335
619.684	756.58791
620.138	790.67905
620.592	809.80758
621.046	765.64877
621.5	771.75021
621.954	775.61464
622.407	728.51562
622.861	756.69848
623.314	736.55537
623.768	731.59293
624.221	717.35073
624.674	669.45464
625.127	657.44787
625.58	720.52617
626.033	642.33222
626.485	645.46523
626.938	694.54383
627.39	707.54775
627.843	682.48576
628.295	662.43239
628.747	663.48425
629.199	653.40598
629.651	630.36888
630.103	617.35793
630.555	563.15012
631.006	603.34482
631.458	613.38122
631.909	585.26856
632.361	552.23982
632.812	606.34344
633.263	597.22631
633.714	557.14144
634.165	627.45186
634.616	591.34786
635.067	531.12486
635.518	547.2474
635.968	577.10519
636.419	540.13274
636.869	529.20145
637.319	553.22504
637.769	551.19524
638.219	554.23974
638.669	503.15937
639.119	570.33199
639.569	561.28502
640.019	517.14328
640.468	557.18773
640.918	534.21747
641.367	556.19303
641.816	568.22301
642.265	553.21843
642.714	533.17773
643.163	653.42703
643.612	615.4291
644.061	647.3232
644.51	621.37017
644.958	566.19364
645.406	641.44555
645.855	573.33927
646.303	605.33204
646.751	631.37425
647.199	644.375
647.647	661.42566
648.095	675.46832
648.543	652.26147
648.99	641.42377
649.438	657.44605
649.885	667.54272
650.333	708.29166
650.78	699.58991
651.227	705.61776
651.674	664.4098
652.121	633.44142
652.568	691.5717
653.015	696.6146
653.461	645.44155
653.908	708.53463
654.354	618.37916
654.801	713.55565
655.247	736.49901
655.693	673.64231
656.139	714.59163
656.585	646.4429
657.031	697.52776
657.477	692.40801
657.922	714.53515
658.368	675.5495
658.813	645.38755
659.259	690.54886
659.704	664.43978
660.149	745.61729
660.594	696.54189
661.039	657.40491
661.484	683.5027
661.929	664.44895
662.373	667.5944
662.818	735.69537
663.262	701.56874
663.707	667.57437
664.151	680.5476
664.595	679.51449
665.039	724.6637
665.483	723.70265
665.927	736.58656
666.371	705.5265
666.814	802.73336
667.258	754.676
667.701	781.52483
668.145	804.81152
668.588	755.68689
669.031	813.7635
669.474	786.72334
669.917	831.64559
670.36	857.92348
670.803	791.71139
671.245	826.57664
671.688	887.90532
672.13	843.71292
672.573	844.89469
673.015	929.98276
673.457	827.62774
673.899	838.80504
674.341	910.94763
674.783	949.99491
675.225	894.93721
675.666	936.02134
676.108	906.73126
676.549	925.91974
676.991	970.89663
677.432	1019.79645
677.873	917.85836
678.314	915.93772
678.755	918.97657
679.196	949.91103
679.637	987.07589
680.078	929.89126
680.518	976.965
680.959	1010.11644
681.399	1003.17309
681.839	945.01087
682.28	917.00172
682.72	984.97206
683.16	946.0421
683.6	980.9153
684.039	998.78174
684.479	1004.14441
684.919	1047.10702
685.358	1057.29113
685.798	1028.3274
686.237	1041.1571
686.676	1026.00761
687.115	1054.09933
687.554	1029.08303
687.993	1040.94856
688.432	1087.10277
688.871	1109.14136
689.309	1058.14523
689.748	1031.79407
690.186	1057.12329
690.625	1092.14206
691.063	1155.31943
691.501	1124.303
691.939	1104.30959
692.377	1155.33639
692.815	1180.34427
693.253	1160.31618
693.69	1163.12327
694.128	1223.45507
694.565	1174.30325
695.003	1253.59803
695.44	1227.363
695.877	1266.42959
696.314	1231.10741
696.751	1193.1957
697.188	1273.35857
697.625	1238.2771
698.061	1305.5291
698.498	1256.44142
698.934	1279.50204
699.371	1282.4545
699.807	1297.45183
700.243	1350.59859
700.679	1256.29883
701.115	1316.4391
701.551	1324.47697
701.987	1382.44085
702.422	1338.55341
702.858	1302.46309
703.294	1325.35966
703.729	1399.69761
704.164	1377.62362
704.599	1367.38375
705.035	1392.47888
705.47	1445.79838
705.904	1373.56579
706.339	1343.38941
706.774	1377.53431
707.209	1410.54447
707.643	1436.69372
708.078	1501.86325
708.512	1430.84047
708.946	1468.66028
709.38	1426.60856
709.814	1488.5628
710.248	1453.71179
710.682	1482.71815
711.116	1533.8281
711.549	1398.82666
711.983	1469.60528
712.416	1477.66791
712.85	1506.89685
713.283	1503.73149
713.716	1534.90609
714.149	1492.67544
714.582	1535.61574
715.015	1461.78009
715.448	1501.89474
715.881	1465.38044
716.313	1480.65921
716.746	1541.76302
717.178	1459.70041
717.61	1492.8685
718.043	1520.86564
718.475	1501.74561
718.907	1617.03396
719.339	1522.62723
719.77	1521.75466
720.202	1471.8663
720.634	1606.96986
721.065	1515.73685
721.497	1469.77525
721.928	1524.8746
722.359	1531.8704
722.79	1538.85486
723.221	1475.83776
723.652	1561.99649
724.083	1540.64593
724.514	1492.609
724.945	1523.72229
725.375	1580.80675
725.806	1432.74111
726.236	1449.86437
726.666	1450.64338
727.096	1512.84363
727.526	1524.97046
727.956	1467.53907
728.386	1510.81921
728.816	1435.8301
729.246	1477.80657
729.675	1432.77119
730.105	1424.66855
730.534	1464.61835
730.964	1504.87105
731.393	1520.81025
731.822	1485.92073
732.251	1472.8622
732.68	1462.59082
733.109	1442.73133
733.537	1433.68742
733.966	1476.86326
734.395	1466.57395
734.823	1465.45724
735.251	1513.79658
735.68	1504.86967
736.108	1440.80643
736.536	1464.61435
736.964	1474.61486
737.392	1386.72
737.82	1461.68814
738.247	1470.66927
738.675	1433.61423
739.102	1431.80128
739.53	1467.90135
739.957	1410.85739
740.384	1450.70419
740.811	1437.79992
741.238	1402.66945
741.665	1375.46539
742.092	1435.63359
742.519	1374.67756
742.945	1446.67429
743.372	1399.72318
743.798	1433.87459
744.225	1357.53084
744.651	1399.74108
745.077	1431.76598
745.503	1384.62624
745.929	1432.64177
746.355	1442.74976
746.781	1349.63677
747.207	1354.55183
747.632	1389.70368
748.058	1431.77121
748.483	1468.57348
748.908	1376.67266
749.334	1480.79541
749.759	1324.43099
750.184	1389.60086
750.609	1422.72192
751.033	1405.55014
751.458	1476.47915
751.883	1386.67565
752.307	1460.64838
752.732	1437.83536
753.156	1374.69893
753.58	1479.68366
754.005	1413.76469
754.429	1392.55757
754.853	1347.63286
755.277	1363.48606
755.7	1394.71024
756.124	1423.74919
756.548	1368.56454
756.971	1365.56452
757.394	1392.8336
757.818	1388.795
758.241	1355.72042
758.664	1371.74882
759.087	1387.4188
759.51	1412.71176
759.933	1375.611
760.356	1394.78288
760.778	1430.76601
761.201	1422.67258
761.623	1374.56578
762.046	1439.60817
762.468	1350.4789
762.89	1399.65925
763.312	1428.72691
763.734	1348.54542
764.156	1390.67958
764.578	1407.51276
765	1427.70089
765.421	1355.73777
765.843	1270.6734
766.264	1362.56446
766.686	1328.60477
767.107	1336.53614
767.528	1342.70841
767.949	1370.74493
768.37	1226.39085
768.791	1356.57297
769.212	1297.6264
769.632	1370.502
770.053	1298.75252
770.473	1321.536
770.894	1278.52876
771.314	1273.37138
771.734	1253.34663
772.154	1274.59436
772.575	1241.27639
772.994	1273.29341
773.414	1244.38043
773.834	1225.48942
774.254	1229.46714
774.673	1227.39562
775.093	1209.43247
775.512	1136.29738
775.931	1160.41621
776.351	1164.36904
776.77	1132.2924
777.189	1150.2339
777.607	1076.30425
778.026	1116.32346
778.445	1079.28149
778.864	1100.34459
779.282	1082.17509
779.701	999.12592
780.119	1096.37521
780.537	1041.20489
780.955	980.09759
781.373	989.07465
781.791	1039.95289
782.209	943.83986
782.627	1032.34022
783.045	987.94491
783.462	931.06643
783.88	909.045
784.297	898.97145
784.715	904.03167
785.132	927.95546
785.549	845.87175
785.966	855.88449
786.383	813.76948
786.8	855.73575
787.217	799.68089
787.633	738.66276
788.05	767.59583
788.466	733.5027
788.883	693.59845
789.299	742.59677
789.715	713.57269
790.131	734.65509
790.547	671.50526
790.963	682.5459
791.379	624.45089
791.795	608.26719
792.21	673.41558
792.626	555.21416
793.041	628.43319
793.457	566.30556
793.872	582.25964
794.287	592.31346
794.702	566.28378
795.117	542.265
795.532	516.22119
795.947	534.19247
796.362	530.18109
796.776	498.07206
797.191	486.12613
797.605	506.14333
798.02	451.03932
798.434	401.84387
798.848	457.07573
799.262	466.10694
799.676	406.93848
800.09	472.11562
800.504	390.90187
800.918	437.97575
801.331	371.92171
801.745	326.7299
802.158	389.93496
802.572	335.77886
802.985	344.80025
803.398	370.85019
803.811	317.77696
804.224	333.79281
804.637	331.77321
805.05	303.67995
805.462	301.71912
805.875	261.66708
806.288	307.7312
806.7	277.68372
807.112	225.51115
807.525	223.54296
807.937	202.49578
808.349	255.62735
808.761	267.64521
809.173	268.63649
809.584	225.54557
809.996	223.54397
810.408	241.6164
810.819	235.55308
811.231	215.56241
811.642	235.5726
812.053	320.76494
812.464	307.72362
812.875	243.61234
813.286	198.50759
813.697	242.55745
814.108	192.46565
814.519	192.42494
814.929	199.50148
815.34	199.48797
815.75	194.49246
816.16	191.47147
816.571	153.39286
816.981	149.35137
817.391	173.42076
817.801	221.55192
818.211	96.22863
818.62	137.33632
819.03	150.36707
819.44	173.44622
819.849	140.3506
820.259	117.29727
820.668	144.3584
821.077	138.3482
821.486	131.31611
821.895	159.38816
822.304	136.36043
822.713	153.36584
823.122	85.21521
823.531	135.32564
823.939	139.34237
824.348	117.28892
824.756	160.40241
825.164	125.31354
825.573	144.36878
825.981	125.31072
826.389	94.23972
826.797	104.25998
827.205	125.29329
827.612	137.34129
828.02	78.18804
828.428	107.2759
828.835	89.2367
829.243	106.25844
829.65	91.22949
830.057	97.2398
830.464	84.20755
830.871	107.25859
831.278	68.16653
831.685	128.29038
832.092	115.28607
832.499	71.15901
832.905	90.2296
833.312	91.21209
833.718	106.26679
834.124	88.20369
834.531	66.16808
834.937	31.0798
835.343	93.22822
835.749	52.12218
836.155	54.14297
836.561	97.24305
836.966	44.10991
837.372	105.26933
837.777	99.25127
838.183	54.12216
838.588	-36.09139
838.993	60.14825
839.399	92.22798
839.804	29.07251
840.209	98.25475
840.613	69.15771
841.018	28.07189
841.423	92.23743
841.828	65.16807
842.232	109.27026
842.637	107.25702
843.041	66.17298
843.445	50.12783
843.849	18.0455
844.253	99.23871
844.657	18.04673
845.061	120.27731
845.465	57.14081
845.869	69.16436
846.272	91.22604
846.676	30.07358
847.079	87.2262
847.483	46.11578
847.886	58.14088
848.289	33.08968
848.692	65.16691
849.095	88.21575
849.498	75.18955
849.901	52.12141
850.304	108.26233
850.707	31.07996
851.109	43.10933
851.512	80.20121
851.914	62.16178
852.316	9.02302
852.718	22.05835
853.121	51.12765
853.523	71.17165
853.925	72.19152
854.326	36.09136
854.728	74.19375
855.13	43.11398
855.531	74.18257
855.933	27.06542
856.334	62.15773
856.736	59.13659
857.137	79.18659
857.538	43.11126
857.939	52.13247
858.34	78.19237
858.741	33.08753
859.142	19.04699
859.542	57.15306
859.943	42.10621
860.343	41.10384
860.744	58.14341
861.144	-5.0124
861.544	67.16618
861.945	67.17498
862.345	43.10685
862.745	65.16615
863.145	50.12113
863.544	68.17379
863.944	37.08864
864.344	62.15588
864.743	55.13736
865.143	38.09943
865.542	55.13106
865.941	106.26679
866.34	68.16505
866.74	27.07321
867.139	52.12867
867.537	53.13657
867.936	65.15998
868.335	50.12949
868.734	73.19143
869.132	92.21902
869.531	54.13107
869.929	58.13734
870.327	60.14765
870.726	-9.02276
871.124	87.20771
871.522	48.12448
871.92	115.2868
872.318	27.06746
872.715	33.08215
873.113	72.17959
873.511	85.21704
873.908	24.06288
874.306	96.24379
874.703	39.09892
875.1	39.10105
875.497	72.17751
875.894	65.1641
876.291	7.01757
876.688	32.08515
877.085	28.06824
877.482	20.05102
877.878	51.12585
878.275	56.14533
878.671	91.20607
879.068	59.14479
879.464	75.18371
879.86	37.08945
880.256	27.0679
880.652	36.09339
881.048	27.06785
881.444	4.00967
881.84	29.07499
882.236	42.10704
882.631	75.18881
883.027	58.14146
883.422	67.17294
883.817	58.15103
884.213	81.21103
884.608	61.15351
885.003	101.2485
885.398	89.22821
885.793	49.12472
886.188	46.11818
886.582	60.1535
886.977	40.09723
887.371	17.04329
887.766	44.11233
888.16	45.11401
888.554	14.03504
888.949	67.16927
889.343	32.07921
889.737	17.04677
890.131	29.07355
890.525	54.1398
890.918	15.03823
891.312	19.04587
891.706	-2.00527
892.099	40.10216
892.492	83.18389
892.886	11.02744
893.279	86.22233
893.672	-17.04371
894.065	53.13419
894.458	101.25826
894.851	79.1953
895.244	10.02602
895.637	65.15998
896.029	46.11428
896.422	32.0795
896.814	42.10598
897.206	41.09991
897.599	40.09963
897.991	3.00741
898.383	96.23283
898.775	67.15419
899.167	13.03156
899.559	35.08975
899.951	81.19324
900.342	-9.02322
900.734	51.13091
901.125	57.15104
901.517	51.12825
901.908	59.14291
902.299	104.2611
902.69	90.21648
903.082	43.10599
903.473	40.09901
903.863	-2.00522
904.254	82.19566
904.645	43.10875
905.036	44.10951
905.426	43.09991
905.817	80.19977
906.207	49.12043
906.597	23.05477
906.987	77.20137
907.378	34.08677
907.768	43.11535
908.158	47.1167
908.547	41.10813
908.937	35.09031
909.327	80.1981
909.717	46.11744
910.106	5.01232
910.495	71.17944
910.885	76.19553
911.274	56.14196
911.663	12.03074
912.052	46.11428
912.441	12.03094
912.83	83.19512
913.219	61.16045
913.608	66.16325
913.997	8.02068
914.385	62.14953
914.774	68.16765
915.162	44.10808
915.55	65.1591
915.939	24.06185
916.327	50.12495
916.715	35.09069
917.103	116.2843
917.491	48.11938
917.878	-14.03485
918.266	7.01828
918.654	53.13837
919.041	4.01072
919.429	78.18776
919.816	59.15039
920.203	49.12154
920.591	40.10039
920.978	27.06636
921.365	58.15392
921.752	72.17535
922.139	103.22954
922.525	75.18521
922.912	72.17692
923.299	70.17694
923.685	14.03734
924.072	60.13882
924.458	8.02029
924.844	20.05083
925.231	69.16404
925.617	36.09371
926.003	55.14192
926.389	14.03614
926.774	42.10813
927.16	52.13121
927.546	24.0631
927.931	63.15934
928.317	42.0981
928.702	26.06237
929.088	62.1506
929.473	41.10565
929.858	18.04503
930.243	29.07154
930.628	55.13801
931.013	32.08118
931.398	42.09799
931.783	48.12675
932.167	125.31038
932.552	32.08075
932.937	34.08558
933.321	44.11277
933.705	65.16661
934.09	48.12146
934.474	59.14194
934.858	26.06854
935.242	62.14737
935.626	76.19797
936.009	-17.04559
936.393	58.14896
936.777	25.06529
937.16	40.10484
937.544	-11.02651
937.927	35.09113
938.311	68.16709
938.694	56.14842
939.077	24.05889
939.46	-36.08872
939.843	114.24493
940.226	38.09906
940.609	98.23276
940.991	20.05199
941.374	79.19609
941.757	59.14639
942.139	62.14505
942.522	66.15676
942.904	64.15639
943.286	5.01286
943.668	58.15227
944.05	59.14789
944.432	59.14954
944.814	-4.00999
945.196	52.13084
945.578	31.0772
945.959	50.11995
946.341	-15.03695
946.722	76.18044
947.104	56.13664
947.485	118.27702
947.866	67.17384
948.247	18.04592
948.628	20.04931
949.009	65.16946
949.39	-5.0127
949.771	63.14955
950.152	57.14324
950.532	30.0764
950.913	10.02473
951.293	34.0934
951.674	94.23472
952.054	29.07434
952.434	32.08066
952.814	74.1788
953.194	31.08162
953.574	13.03232
953.954	66.15959
954.334	64.16212
954.714	27.06773
955.093	56.13857
955.473	0
955.853	32.0837
956.232	-9.02483
956.611	70.16971
956.99	62.15923
957.37	67.17312
957.749	45.11015
958.128	41.10605
958.506	63.16739
958.885	34.08781
959.264	44.11194
959.643	23.05352
960.021	37.09404
960.4	74.1721
960.778	47.11743
961.156	36.09255
961.535	31.07376
961.913	69.16442
962.291	60.15859
962.669	-15.03873
963.047	28.07226
963.424	3.0078
963.802	66.16558
964.18	68.17311
964.557	69.16183
964.935	55.13272
965.312	31.08162
965.69	30.07573
966.067	49.12194
966.444	53.13146
966.821	34.08851
967.198	39.09592
967.575	40.09847
967.952	52.12441
968.329	57.14128
968.705	25.05488
969.082	84.21859
969.458	87.21484
969.835	32.07921
970.211	64.16757
970.587	59.14842
970.963	46.119
971.339	25.06645
971.715	46.1164
972.091	49.12269
972.467	75.18908
972.843	41.10369
973.219	43.10357
973.594	69.18436
973.97	90.21516
974.345	38.09334
974.721	11.02686
975.096	48.11812
975.471	62.14964
975.846	57.13869
976.221	74.19217
976.596	73.17888
976.971	59.14735
977.346	42.09907
977.72	55.14241
978.095	62.16244
978.469	33.08002
978.844	82.20543
979.218	8.01965
979.593	50.12141
979.967	66.16277
980.341	12.02833
980.715	56.14357
981.089	37.09308
981.463	104.24616
981.837	55.13751
982.21	34.08041
982.584	38.09389
982.957	40.10237
983.331	70.16837
983.704	-5.01239
984.078	38.09592
984.451	80.1981
984.824	16.04011
985.197	37.09124
985.57	61.15472
985.943	55.13612
986.316	83.20504
986.688	58.1412
987.061	102.24376
987.434	50.13185
987.806	37.09167
988.179	42.1021
988.551	68.17482
988.923	56.13984
989.295	20.04989
989.667	40.0988
990.039	54.13679
990.411	80.18701
990.783	72.16798
991.155	72.17927
991.527	29.07188
991.898	49.12472
992.27	4.0101
992.641	67.16885
993.012	98.23259
993.384	38.09182
993.755	67.1739
994.126	55.13397
994.497	40.10046
994.868	43.10168
995.239	22.0542
995.61	54.13869
995.98	53.13237
996.351	23.05819
996.722	49.11811
997.092	52.12631
997.462	47.11341
997.833	60.14383
998.203	30.07363
998.573	2.00508
998.943	79.18948
999.313	59.14484
999.683	72.1777
1000.053	80.18803
1000.423	28.06883
1000.792	33.08744
1001.162	22.055
1001.531	61.15274
1001.901	104.2642
1002.27	38.08722
1002.639	73.18934
1003.009	61.14647
1003.378	-3.00777
1003.747	112.26949
1004.116	1.00247
1004.485	19.04613
1004.853	65.16626
1005.222	-12.03074
1005.591	76.18225
1005.959	50.11725
1006.328	31.07197
1006.696	49.12176
1007.064	0
1007.433	58.14619
1007.801	46.11341
1008.169	55.13905
1008.537	89.20088
1008.905	70.16729
1009.273	31.07709
1009.64	64.15744
1010.008	37.09056
1010.375	0
1010.743	64.14914
1011.11	40.09738
1011.478	31.07776
1011.845	44.10519
1012.212	81.18812
1012.579	19.0473
1012.946	46.11111
1013.313	50.11999
1013.68	57.13023
1014.047	74.18062
1014.414	48.11646
1014.78	21.0529
1015.147	53.12838
1015.513	25.06174
1015.88	36.0922
1016.246	53.13016
1016.612	49.11304
1016.978	68.16876
1017.344	94.23566
1017.71	21.05138
1018.076	68.16176
1018.442	10.02593
1018.808	38.09677
1019.174	78.19857
1019.539	60.13733
1019.905	39.094
1020.27	53.13376
1020.636	60.1458
1021.001	42.10194
1021.366	37.091
1021.731	-14.03634
1022.096	18.04652
1022.461	56.13475
1022.826	19.04613
1023.191	-8.02134
1023.556	65.1559
1023.92	43.10646
1024.285	70.17283
1024.649	56.13948
1025.014	77.1928
1025.378	46.11764
1025.742	81.20391
1026.107	43.09884
1026.471	35.08209
1026.835	83.20924
1027.199	106.26315
1027.562	60.14191
1027.926	36.08924
1028.29	79.20342
1028.654	43.10125
1029.017	17.04221
1029.381	69.1677
1029.744	-4.01035
1030.107	109.25824
1030.471	21.05085
1030.834	43.09947
1031.197	45.10867
1031.56	28.0672
1031.923	27.07075
1032.286	66.15658
1032.648	67.16375
1033.011	6.01409
1033.374	62.14618
1033.736	48.12811
1034.099	120.29573
1034.461	12.03077
1034.823	38.09585
1035.185	68.17281
1035.548	52.12938
1035.91	21.05148
1036.272	30.06916
1036.634	10.02471
1036.995	58.13993
1037.357	49.12145
1037.719	22.0539
1038.08	2.00484
1038.442	15.03635
1038.803	27.06587
1039.165	63.16245
1039.526	58.14199
1039.887	47.11487
1040.248	18.04524
1040.609	3.00747
1040.97	65.16187
1041.331	61.15592
1041.692	98.23626
1042.053	75.17405
1042.413	82.19356
1042.774	31.07647
1043.134	99.23808
1043.495	52.13135
1043.855	69.1692
1044.215	65.1641
1044.576	63.1554
1044.936	57.1328
1045.296	24.06086
1045.656	7.01741
1046.016	52.12631
1046.375	35.0858
1046.735	53.12353
1047.095	37.0883
1047.454	58.12542
1047.814	42.10275
1048.173	-10.02388
1048.533	59.13735
1048.892	19.04726
1049.251	48.12211
1049.61	41.10247
1049.969	72.17476
1050.328	75.16562
1050.687	11.02729
1051.046	29.07114
1051.405	80.20258
1051.763	51.12032
1052.122	46.11653
1052.48	-33.08221
1052.839	51.12223
1053.197	36.08702
1053.555	-4.00909
1053.914	8.01974
1054.272	66.15899
1054.63	58.14525
1054.988	61.14798
1055.345	32.07103
1055.703	58.14094
1056.061	17.04434
1056.419	14.03683
1056.776	40.09723
1057.134	39.09251
1057.491	19.04819
1057.848	-16.04036
1058.206	51.12237
1058.563	-3.00683
1058.92	38.08813
1059.277	34.08481
1059.634	-1.0024
1059.991	86.20795
1060.348	-14.03301
1060.704	17.04173
1061.061	44.10326
1061.418	16.03948
1061.774	40.1005
1062.131	51.13703
1062.487	26.06235
1062.843	-6.01518
1063.199	65.16463
1063.555	100.23651
1063.911	1.00255
1064.267	53.11238
1064.623	41.10162
1064.979	73.17395
1065.335	20.04834
1065.691	73.17589
1066.046	-6.01327
1066.402	65.15245
1066.757	23.05863
1067.112	-9.02242
1067.468	37.09184
1067.823	67.16399
1068.178	-4.00983
1068.533	76.1864
1068.888	25.06058
1069.243	55.13722
1069.598	46.11378
1069.952	35.08174
1070.307	50.12742
1070.662	15.03629
1071.016	44.1012
1071.371	31.07191
1071.725	48.11611
1072.079	27.06567
1072.434	56.13887
1072.788	46.11199
1073.142	48.12021
1073.496	15.03636
1073.85	6.01412
1074.203	127.3135
1074.557	12.03245
1074.911	74.17603
1075.265	61.1438
1075.618	15.03696
1075.971	53.12784
1076.325	46.11876
1076.678	48.11366
1077.031	39.09101
1077.385	64.14525
1077.738	74.17074
1078.091	49.11483
1078.444	29.06879
1078.796	19.04721
1079.149	62.15488
1079.502	112.27133
1079.855	42.10072
1080.207	52.12957
1080.56	18.04719
1080.912	13.03208
1081.264	44.10776
1081.617	83.20684
1081.969	65.16743
1082.321	31.07655
1082.673	39.09229
1083.025	61.14759
1083.377	69.15205
1083.728	66.15471
1084.08	62.15588
1084.432	47.11568
1084.783	79.1863
1085.135	11.02817
1085.486	69.16335
1085.838	87.21658
1086.189	32.07857
1086.54	35.08468
1086.891	58.14937
1087.242	0
1087.593	50.12291
1087.944	55.12561
1088.295	101.23141
1088.646	77.19001
1088.996	-14.0346
1089.347	37.09231
1089.698	5.0122
1090.048	-8.02086
1090.398	15.03532
1090.749	36.0879
1091.099	80.20732
1091.449	24.06075
1091.799	49.12459
1092.149	53.13424
1092.499	54.13313
1092.849	82.21118
1093.199	36.09048
1093.548	36.08875
1093.898	29.07389
1094.248	35.09059
1094.597	35.09231
1094.947	-3.00811
1095.296	21.05256
1095.645	56.14652
1095.994	27.06565
1096.343	34.08665
1096.692	56.15261
1097.041	-17.04653
1097.39	88.22458
1097.739	28.07366
1098.088	41.11089
1098.437	11.02953
1098.785	29.07813
1099.134	16.04282
1099.482	44.12202
1099.83	-4.0106
1100.179	91.24105
1100.527	32.08552
1100.875	14.03757
1101.223	13.03491
1101.571	37.10317
1101.919	39.10469
1102.267	-7.01993
1102.615	4.01291
1102.962	-3.00967
1103.31	-2.00645
1103.658	12.03871
