Data from N2 R0 150C sample10_Subt2__1__13-50-18-101.txt Node

Date: Tue Aug 19 13:50:18 PDT 2025
User: uwsun
Spectrometer: HDX01956
Trigger mode: 0
Integration Time (sec): 5.000000E-1
Scans to average: 1
Nonlinearity correction enabled: true
Boxcar width: 0
Storing dark spectrum: false
XAxis mode: Wavelengths
Number of Pixels in Spectrum: 2068
>>>>>Begin Spectral Data<<<<<
194.03	135.38888
194.578	138.44336
195.127	120.38132
195.676	144.45791
196.225	154.41844
196.773	165.46459
197.321	251.70214
197.87	318.83077
198.418	332.85547
198.966	299.79296
199.513	236.60309
200.061	279.72356
200.609	297.78976
201.156	239.54273
201.704	320.82055
202.251	310.83321
202.798	286.75457
203.345	311.77859
203.892	334.84714
204.438	332.8036
204.985	336.81817
205.532	326.86324
206.078	304.75901
206.624	316.79068
207.17	331.78139
207.716	345.84776
208.262	292.59488
208.808	328.82898
209.354	334.82573
209.899	340.85531
210.445	344.86878
210.99	351.86154
211.535	353.84428
212.08	331.79137
212.625	315.80052
213.17	349.88627
213.715	415.95108
214.259	346.81663
214.804	331.81847
215.348	324.75017
215.892	286.69775
216.436	321.75603
216.98	346.78487
217.524	347.82835
218.068	352.89879
218.612	345.87177
219.155	288.69161
219.698	282.68645
220.242	307.77218
220.785	284.67475
221.328	289.7251
221.871	291.73772
222.414	298.74888
222.956	311.76903
223.499	272.62879
224.041	315.74363
224.583	279.60936
225.126	317.71049
225.668	267.65831
226.21	262.66857
226.751	286.64774
227.293	284.66955
227.835	312.77447
228.376	288.67449
228.918	299.76149
229.459	307.77329
230	302.72578
230.541	280.66985
231.082	243.59386
231.622	283.66188
232.163	270.66706
232.704	286.71383
233.244	249.62835
233.784	336.82336
234.324	351.79508
234.864	292.67609
235.404	306.73427
235.944	375.8842
236.484	314.77858
237.023	351.83918
237.563	319.74606
238.102	291.68991
238.641	302.76953
239.18	284.68201
239.719	344.86196
240.258	349.79312
240.797	291.71114
241.335	290.71882
241.874	316.63821
242.412	381.92234
242.95	251.61591
243.488	333.77391
244.026	292.68332
244.564	371.77422
245.102	320.73003
245.64	318.76596
246.177	300.68993
246.715	377.90476
247.252	348.80604
247.789	352.68024
248.326	295.726
248.863	297.67415
249.4	313.72399
249.936	297.6264
250.473	314.74715
251.009	319.75044
251.546	276.62585
252.082	325.72542
252.618	287.65251
253.154	375.9085
253.69	321.7295
254.226	315.75859
254.761	346.79855
255.297	288.64271
255.832	314.74687
256.367	359.85404
256.903	316.69935
257.438	328.77566
257.972	380.85778
258.507	342.80062
259.042	315.70629
259.576	379.83613
260.111	331.7726
260.645	311.6801
261.179	336.78996
261.713	325.74308
262.247	382.88828
262.781	308.66742
263.315	349.86233
263.849	323.81649
264.382	345.79609
264.915	368.87662
265.449	334.83661
265.982	362.8358
266.515	360.87201
267.048	379.82458
267.58	351.77955
268.113	340.7512
268.646	368.91076
269.178	343.78012
269.71	374.82873
270.243	315.72832
270.775	333.84326
271.307	368.88266
271.838	357.83818
272.37	324.80102
272.902	366.83697
273.433	332.72985
273.965	327.80146
274.496	315.77892
275.027	351.87013
275.558	341.83143
276.089	328.81921
276.62	352.89151
277.15	317.77638
277.681	340.7556
278.211	226.55365
278.741	361.80942
279.272	359.82476
279.802	332.8259
280.332	349.82834
280.861	364.87739
281.391	353.80773
281.921	318.7732
282.45	376.93531
282.98	386.99421
283.509	333.75493
284.038	338.7804
284.567	347.80548
285.096	392.94557
285.625	383.87953
286.153	384.89328
286.682	366.84336
287.21	370.89285
287.739	383.91076
288.267	383.92439
288.795	348.89419
289.323	353.84202
289.851	420.98431
290.378	444.99239
290.906	396.9581
291.433	362.89264
291.961	352.80496
292.488	364.89757
293.015	391.92656
293.542	374.94586
294.069	385.93377
294.596	360.88183
295.122	415.98152
295.649	388.85509
296.175	440.05988
296.702	402.96198
297.228	401.9605
297.754	481.08079
298.28	422.95761
298.806	396.9451
299.332	385.86428
299.857	393.88803
300.383	371.92808
300.908	373.90603
301.433	366.88087
301.958	381.87249
302.483	430.05446
303.008	437.0576
303.533	412.04031
304.058	436.01447
304.582	423.99424
305.107	406.04511
305.631	419.94174
306.155	444.02377
306.679	392.90613
307.203	441.01341
307.727	444.03352
308.251	389.95125
308.775	465.08908
309.298	461.09777
309.822	434.07331
310.345	469.09932
310.868	423.99811
311.391	436.04825
311.914	463.13322
312.437	452.01738
312.96	436.01088
313.482	466.07801
314.005	471.15198
314.527	482.22644
315.049	494.19377
315.571	535.17674
316.093	540.28987
316.615	499.17567
317.137	547.15729
317.659	532.25571
318.18	495.14679
318.702	544.21183
319.223	561.14603
319.744	545.19074
320.265	544.27315
320.786	513.23439
321.307	551.31492
321.828	552.21902
322.348	537.23195
322.869	630.43372
323.389	277.44376
323.909	550.21611
324.43	583.32693
324.95	597.31221
325.47	575.34132
325.989	579.30878
326.509	603.28486
327.029	566.22548
327.548	626.34287
328.067	651.49497
328.587	605.42187
329.106	606.29377
329.625	628.5333
330.144	620.3728
330.662	616.34013
331.181	646.42509
331.7	622.38981
332.218	712.45796
332.736	675.48571
333.255	702.52226
333.773	716.5645
334.291	670.54323
334.808	760.58581
335.326	744.56337
335.844	758.63611
336.361	746.73676
336.879	765.66637
337.396	750.65815
337.913	789.65474
338.43	835.70588
338.947	829.76619
339.464	788.55778
339.981	839.79523
340.497	770.71158
341.014	806.78497
341.53	765.56203
342.046	803.76837
342.562	782.77053
343.078	861.81697
343.594	870.84678
344.11	850.79256
344.626	861.93009
345.141	911.82016
345.657	915.80792
346.172	934.96981
346.687	890.82533
347.202	913.81154
347.717	900.8989
348.232	935.03419
348.747	984.96843
349.261	935.81303
349.776	989.00737
350.29	947.05077
350.805	1027.19782
351.319	1010.03568
351.833	962.87919
352.347	983.98408
352.861	998.98636
353.374	1027.99169
353.888	994.0582
354.401	1005.98134
354.915	1062.02357
355.428	1121.30868
355.941	1074.11753
356.454	1114.06977
356.967	1020.02961
357.48	1091.07847
357.993	1134.3027
358.505	1084.20003
359.018	1101.23306
359.53	1189.354
360.042	1203.15584
360.554	1140.2542
361.066	1142.29695
361.578	1172.0642
362.09	1207.30116
362.602	1148.069
363.113	1222.3024
363.625	1217.20662
364.136	1218.14668
364.647	1322.45993
365.158	1229.27005
365.669	1245.36239
366.18	1225.29404
366.691	1345.29628
367.201	1335.4909
367.712	1348.38913
368.222	1305.3358
368.733	1422.39174
369.243	1362.33226
369.753	1376.48036
370.263	1396.56876
370.773	1391.58302
371.282	1473.60572
371.792	1504.62873
372.301	1514.71232
372.811	1482.86004
373.32	1573.39792
373.829	1585.70437
374.338	1615.51464
374.847	1720.74077
375.356	1677.77175
375.865	1757.46112
376.373	1903.77501
376.882	1885.11304
377.39	1932.97615
377.898	1933.06207
378.407	2047.75127
378.915	2142.62034
379.423	2213.98846
379.93	2283.79477
380.438	2420.17841
380.946	2602.05276
381.453	2618.09008
381.96	2694.01131
382.468	2957.99985
382.975	3099.98772
383.482	3227.49558
383.989	3175.21033
384.495	3382.56851
385.002	3572.05545
385.509	3719.55761
386.015	3947.46865
386.521	4155.96441
387.028	4309.72055
387.534	4476.41213
388.04	4670.64902
388.546	4681.33916
389.051	4863.03055
389.557	5342.94227
390.063	5744.74714
390.568	5888.81145
391.073	6084.49239
391.578	6390.73154
392.084	6389.30925
392.589	6590.15494
393.093	7206.66798
393.598	7742.13292
394.103	8561.5796
394.607	9328.81535
395.112	10056.4377
395.616	10812.31209
396.12	11647.51056
396.624	12751.51675
397.128	13813.58537
397.632	15460.97817
398.136	16569.63244
398.639	17438.54892
399.143	19414.90497
399.646	21833.64648
400.15	23872.45593
400.653	26409.23494
401.156	29470.7673
401.659	34218.62326
402.162	41802.50668
402.664	52110.81794
403.167	48755.73914
403.67	22278.45323
404.172	2696.20453
404.674	0
405.176	0
405.678	0
406.18	0
406.682	0
407.184	0
407.686	25783.58453
408.187	43316.52985
408.688	51225.60928
409.19	54389.01922
409.691	56215.4214
410.192	57270.57019
410.693	57499.10921
411.194	52526.47491
411.694	50404.91677
412.195	47749.22944
412.696	43040.53327
413.196	40102.19609
413.696	38806.27935
414.196	40071.47192
414.696	40359.93674
415.196	38490.67225
415.696	35631.40735
416.196	29202.71083
416.695	22167.9561
417.195	18573.16962
417.694	17740.89663
418.194	16646.99058
418.693	15599.75641
419.192	15009.54955
419.691	14699.85733
420.19	14448.74946
420.688	13973.49316
421.187	13572.46762
421.685	12926.19522
422.184	11737.02133
422.682	10101.914
423.18	8505.44184
423.678	7552.97323
424.176	7038.62145
424.674	6560.35772
425.172	6314.65652
425.669	5987.9869
426.167	5558.95717
426.664	5073.213
427.161	4622.47379
427.659	4270.18516
428.156	4032.59953
428.652	3742.87133
429.149	3596.68511
429.646	3458.27684
430.143	3363.7547
430.639	3127.80843
431.135	2937.20239
431.632	2821.78352
432.128	2643.04991
432.624	2461.3556
433.12	2344.75885
433.616	2292.61602
434.111	2171.90759
434.607	2071.9377
435.103	2033.42628
435.598	1992.41559
436.093	1955.82813
436.588	1833.53898
437.083	1742.54505
437.578	1724.65167
438.073	1611.85115
438.568	1508.63713
439.062	1507.28683
439.557	1452.48859
440.051	1403.32083
440.546	1348.29592
441.04	1376.49667
441.534	1349.62567
442.028	1307.37877
442.522	1232.30324
443.015	1259.1178
443.509	1213.33598
444.002	1200.32354
444.496	1142.01011
444.989	1192.28397
445.482	1135.2667
445.975	1192.17694
446.468	1113.92502
446.961	1106.94068
447.454	1092.98705
447.947	1079.10808
448.439	1008.98773
448.931	1014.91933
449.424	1040.13639
449.916	1059.12147
450.408	972.84507
450.9	1014.06147
451.392	886.90521
451.884	944.82573
452.375	1009.12036
452.867	929.77315
453.358	970.86805
453.849	932.68673
454.341	906.75297
454.832	872.62925
455.323	919.91659
455.814	899.78207
456.304	840.68086
456.795	937.83418
457.285	798.54224
457.776	810.60283
458.266	795.66148
458.756	748.5773
459.247	737.57344
459.737	778.65782
460.226	794.58797
460.716	818.73257
461.206	707.53083
461.695	703.5616
462.185	713.49258
462.674	756.57118
463.163	686.36474
463.653	728.40071
464.142	676.482
464.63	721.59101
465.119	696.45213
465.608	694.46524
466.096	679.34985
466.585	694.44988
467.073	614.34086
467.561	616.35374
468.05	662.4031
468.538	650.45124
469.026	659.43833
469.513	780.59449
470.001	574.20947
470.489	580.28627
470.976	552.19818
471.463	546.26137
471.951	571.31266
472.438	472.05251
472.925	483.0693
473.412	510.16455
473.899	502.08161
474.385	482.11155
474.872	559.24041
475.359	519.19915
475.845	468.94563
476.331	375.78013
476.817	488.11781
477.303	424.95005
477.789	463.06151
478.275	434.02526
478.761	445.03077
479.247	474.02948
479.732	404.97487
480.218	405.00858
480.703	406.97451
481.188	363.76895
481.673	399.89202
482.158	393.83759
482.643	354.86392
483.128	340.76876
483.612	364.83172
484.097	370.86954
484.581	365.82444
485.066	366.87286
485.55	377.82162
486.034	305.65344
486.518	377.87544
487.002	368.89372
487.486	320.7699
487.969	326.79146
488.453	283.69801
488.936	350.78943
489.42	285.62799
489.903	291.718
490.386	365.60884
490.869	254.55769
491.352	289.69704
491.835	272.57179
492.318	347.79624
492.8	295.62383
493.283	304.76998
493.765	275.67704
494.247	301.69789
494.73	272.60826
495.212	234.56665
495.694	236.55791
496.175	286.68733
496.657	284.67137
497.139	250.45858
497.62	202.49009
498.102	247.61483
498.583	221.55392
499.064	279.64049
499.545	243.565
500.026	228.52457
500.507	201.47803
500.988	230.57844
501.469	196.50053
501.949	247.61505
502.43	202.49339
502.91	255.54916
503.39	161.40645
503.87	252.60655
504.35	191.45704
504.83	239.54031
505.31	188.46211
505.79	241.58941
506.269	279.66147
506.749	188.44238
507.228	215.51937
507.707	240.54489
508.187	178.42959
508.666	208.52237
509.145	192.46565
509.623	138.33331
510.102	210.51846
510.581	159.38931
511.059	204.52023
511.538	165.4309
512.016	273.66542
512.494	209.51741
512.972	221.53467
513.45	207.49797
513.928	233.58125
514.406	179.44979
514.884	200.52238
515.361	191.47199
515.839	218.51377
516.316	236.57986
516.793	186.47817
517.27	177.43435
517.747	173.45302
518.224	198.47533
518.701	230.53593
519.178	123.31296
519.654	227.54773
520.131	167.4213
520.607	179.45124
521.083	157.37397
521.56	174.4288
522.036	188.43117
522.512	149.37199
522.987	161.39757
523.463	172.42543
523.939	191.47804
524.414	176.41914
524.89	178.43478
525.365	180.42636
525.84	185.46018
526.315	161.40282
526.79	216.50371
527.265	225.53551
527.74	170.4251
528.215	177.43419
528.689	137.32056
529.164	168.3802
529.638	182.47828
530.112	167.41117
530.587	183.41237
531.061	165.41223
531.534	111.27682
532.008	175.43594
532.482	112.2655
532.956	135.35316
533.429	186.46191
533.903	142.32724
534.376	169.38876
534.849	143.3465
535.322	172.41997
535.795	126.31849
536.268	115.28565
536.741	177.43579
537.213	167.39992
537.686	133.3378
538.158	134.31434
538.631	139.34627
539.103	124.29542
539.575	152.33094
540.047	168.38499
540.519	114.28487
540.991	165.41342
541.463	149.3732
541.934	115.27708
542.406	96.24076
542.877	163.38841
543.348	173.43065
543.82	125.31445
544.291	144.34767
544.762	111.27411
545.233	148.38221
545.703	173.40114
546.174	172.41527
546.645	182.45214
547.115	208.51805
547.585	152.36352
548.056	174.43966
548.526	171.42242
548.996	166.40984
549.466	197.48878
549.935	203.49667
550.405	214.48784
550.875	180.43966
551.344	205.50751
551.814	234.5564
552.283	145.32741
552.752	259.61997
553.221	207.48073
553.69	240.54622
554.159	234.59124
554.628	224.52216
555.096	254.65772
555.565	211.49312
556.033	204.49345
556.502	177.44221
556.97	195.45054
557.438	188.45886
557.906	166.40713
558.374	128.30881
558.842	127.31511
559.31	144.33964
559.777	98.24737
560.245	180.43983
560.712	154.37518
561.18	193.45441
561.647	150.35352
562.114	131.31539
562.581	143.36372
563.048	160.38586
563.514	156.39643
563.981	91.21992
564.448	143.33932
564.914	185.44859
565.381	159.37873
565.847	230.55675
566.313	191.46366
566.779	143.33539
567.245	172.42091
567.711	220.54554
568.176	168.39856
568.642	200.51612
569.108	177.45162
569.573	238.58412
570.038	249.55649
570.504	197.4595
570.969	234.60469
571.434	253.58964
571.899	253.62289
572.363	228.54046
572.828	266.62493
573.293	279.65968
573.757	232.5491
574.222	330.76588
574.686	301.70838
575.15	281.68517
575.614	258.61228
576.078	333.80102
576.542	270.63531
577.006	310.71805
577.469	335.83109
577.933	329.76884
578.396	295.70936
578.86	341.81497
579.323	317.77782
579.786	318.70965
580.249	350.82479
580.712	300.74279
581.175	300.74984
581.637	272.63553
582.1	309.70309
582.563	306.67581
583.025	346.84692
583.487	336.7113
583.95	337.75872
584.412	340.74084
584.874	261.6421
585.336	286.69176
585.797	284.63745
586.259	349.83057
586.721	273.65672
587.182	353.82491
587.643	296.68916
588.105	298.72268
588.566	285.61824
589.027	258.64069
589.488	299.69984
589.949	282.6944
590.41	362.7338
590.87	291.67231
591.331	242.54006
591.791	328.77986
592.252	322.75823
592.712	284.69029
593.172	352.81337
593.632	364.81732
594.092	341.77808
594.552	336.74485
595.011	359.83596
595.471	319.72143
595.931	356.80362
596.39	363.88175
596.849	376.88363
597.308	426.93016
597.768	380.96888
598.227	415.97924
598.685	381.86583
599.144	401.93667
599.603	521.20902
600.062	498.05368
600.52	458.0187
600.978	484.11662
601.437	537.18214
601.895	557.14968
602.353	602.27745
602.811	621.3433
603.269	680.54324
603.727	695.57889
604.184	728.56058
604.642	798.80165
605.099	796.69621
605.557	847.88085
606.014	932.83941
606.471	928.08735
606.928	946.86794
607.385	1068.30961
607.842	1085.12381
608.299	1175.34133
608.755	1182.42307
609.212	1259.31067
609.668	1286.38215
610.125	1404.72716
610.581	1393.63636
611.037	1423.57775
611.493	1453.70782
611.949	1623.08952
612.405	1573.38668
612.861	1646.9112
613.316	1628.97224
613.772	1756.98647
614.227	1799.12976
614.683	1800.74605
615.138	1811.07579
615.593	1837.07909
616.048	1908.03129
616.503	1941.34223
616.958	1941.48708
617.412	1920.19641
617.867	1978.00361
618.321	1975.76753
618.776	2006.03089
619.23	1996.21213
619.684	2024.09614
620.138	1994.15386
620.592	1933.33007
621.046	1969.17074
621.5	1851.28932
621.954	1901.99452
622.407	1856.9186
622.861	1887.26711
623.314	1810.94413
623.768	1919.1475
624.221	1800.52322
624.674	1740.93552
625.127	1679.91748
625.58	1669.81708
626.033	1686.70116
626.485	1621.95867
626.938	1647.94657
627.39	1582.83042
627.843	1612.82736
628.295	1568.74407
628.747	1570.86306
629.199	1516.66633
629.651	1466.62461
630.103	1555.75576
630.555	1510.43577
631.006	1387.59457
631.458	1456.71807
631.909	1386.4972
632.361	1338.52282
632.812	1369.55579
633.263	1397.3602
633.714	1394.32541
634.165	1429.783
634.616	1375.64117
635.067	1412.42349
635.518	1386.62751
635.968	1375.13775
636.419	1407.39507
636.869	1369.58206
637.319	1347.49367
637.769	1401.49434
638.219	1427.62276
638.669	1407.66036
639.119	1470.82879
639.569	1469.75381
640.019	1490.63255
640.468	1531.58532
640.918	1537.79914
641.367	1558.63193
641.816	1688.77566
642.265	1740.8948
642.714	1713.86569
643.163	1742.94363
643.612	1860.26603
644.061	1830.76807
644.51	1849.04799
644.958	1914.87504
645.406	1961.24699
645.855	1987.36697
646.303	2074.19229
646.751	2082.17355
647.199	2096.10848
647.647	2120.1821
648.095	2132.2399
648.543	2239.77495
648.99	2189.33689
649.438	2257.34762
649.885	2226.58006
650.333	2266.60773
650.78	2328.58903
651.227	2321.63618
651.674	2291.20364
652.121	2216.46381
652.568	2326.57976
653.015	2277.65639
653.461	2233.39549
653.908	2286.34068
654.354	2205.34624
654.801	2230.34676
655.247	2217.05692
655.693	2163.81338
656.139	2216.44035
656.585	2106.31508
657.031	2059.24634
657.477	2099.95449
657.922	2112.21266
658.368	2019.40189
658.813	2021.09416
659.259	2040.33114
659.704	1956.09814
660.149	2015.21712
660.594	1934.19746
661.039	1930.0169
661.484	1909.13774
661.929	1866.05376
662.373	1851.423
662.818	1863.33767
663.262	1823.14721
663.707	1811.32739
664.151	1733.10965
664.595	1770.06696
665.039	1757.20701
665.483	1760.30895
665.927	1792.00215
666.371	1698.90853
666.814	1728.00457
667.258	1750.09367
667.701	1813.70097
668.145	1783.21925
668.588	1723.08692
669.031	1744.04204
669.474	1700.01701
669.917	1760.74856
670.36	1766.22912
670.803	1738.00953
671.245	1801.65252
671.688	1724.04429
672.13	1689.78415
672.573	1716.16678
673.015	1729.05865
673.457	1752.71872
673.899	1684.97727
674.341	1754.07861
674.783	1676.9676
675.225	1636.98988
675.666	1749.13062
676.108	1735.66958
676.549	1706.93466
676.991	1732.79114
677.432	1742.5127
677.873	1615.76029
678.314	1687.97879
678.755	1620.96788
679.196	1640.78776
679.637	1648.97153
680.078	1539.7049
680.518	1598.76502
680.959	1533.84764
681.399	1524.93989
681.839	1523.84009
682.28	1503.87941
682.72	1482.63317
683.16	1456.80444
683.6	1515.59242
684.039	1394.23971
684.479	1452.80467
684.919	1422.61937
685.358	1410.82904
685.798	1381.90393
686.237	1367.62952
686.676	1353.44676
687.115	1326.47709
687.554	1307.48035
687.993	1304.28585
688.432	1336.43358
688.871	1332.43721
689.309	1302.49526
689.748	1282.08522
690.186	1356.5395
690.625	1281.40274
691.063	1211.40097
691.501	1247.48504
691.939	1271.56205
692.377	1241.46168
692.815	1258.45454
693.253	1264.46395
693.69	1265.25122
694.128	1245.48675
694.565	1217.36378
695.003	1232.5663
695.44	1175.29066
695.877	1186.31922
696.314	1207.07932
696.751	1203.20866
697.188	1202.26571
697.625	1246.2873
698.061	1218.40873
698.498	1192.35175
698.934	1179.36013
699.371	1194.3338
699.807	1186.30181
700.243	1180.36268
700.679	1130.13275
701.115	1166.24045
701.551	1149.24092
701.987	1213.23485
702.422	1118.24553
702.858	1144.24637
703.294	1070.02903
703.729	1197.41818
704.164	1143.29949
704.599	1113.06842
705.035	1191.2291
705.47	1149.38011
705.904	1149.26412
706.339	1100.07799
706.774	1152.2378
707.209	1121.16973
707.643	1139.29039
708.078	1190.43839
708.512	1138.41208
708.946	1093.16661
709.38	1155.25477
709.814	1085.06602
710.248	1082.20192
710.682	1144.27368
711.116	1173.35563
711.549	1127.41817
711.983	1185.25368
712.416	1195.3111
712.85	1178.44186
713.283	1212.36238
713.716	1215.47798
714.149	1154.24593
714.582	1248.28756
715.015	1178.39325
715.448	1229.52233
715.881	1135.01175
716.313	1145.231
716.746	1189.32128
717.178	1185.34063
717.61	1157.40094
718.043	1209.45021
718.475	1194.35023
718.907	1245.54722
719.339	1235.29134
719.77	1189.33219
720.202	1218.51369
720.634	1277.55193
721.065	1284.45363
721.497	1316.57757
721.928	1267.53772
722.359	1325.60797
722.79	1375.65374
723.221	1331.64782
723.652	1311.66558
724.083	1383.47349
724.514	1389.49313
724.945	1425.60997
725.375	1452.66292
725.806	1390.6872
726.236	1403.8028
726.666	1448.64104
727.096	1445.76144
727.526	1428.84563
727.956	1480.55297
728.386	1513.82276
728.816	1495.90769
729.246	1527.86705
729.675	1597.9713
730.105	1508.76876
730.534	1609.77325
730.964	1605.99062
731.393	1585.88405
731.822	1655.12659
732.251	1669.09556
732.68	1751.87785
733.109	1711.03279
733.537	1738.02051
733.966	1851.27764
734.395	1865.9454
734.823	1846.78771
735.251	1926.20478
735.68	1947.3282
736.108	1867.27926
736.536	1905.02901
736.964	2013.0924
737.392	2024.39321
737.82	2014.21102
738.247	2133.24991
738.675	2128.22995
739.102	2115.49384
739.53	2232.65314
739.957	2173.66054
740.384	2218.3849
740.811	2255.57464
741.238	2337.4875
741.665	2341.21489
742.092	2382.38734
742.519	2382.5823
742.945	2453.4606
743.372	2503.65904
743.798	2495.83382
744.225	2499.42001
744.651	2528.69994
745.077	2652.71589
745.503	2674.58113
745.929	2664.50149
746.355	2727.68424
746.781	2732.69943
747.207	2733.52827
747.632	2835.74812
748.058	2884.78099
748.483	2947.34385
748.908	2919.73505
749.334	3046.72926
749.759	2937.39178
750.184	3142.57017
750.609	3141.72898
751.033	3232.42227
751.458	3298.119
751.883	3260.7247
752.307	3292.48244
752.732	3258.9155
753.156	3359.79892
753.58	3415.48944
754.005	3350.82949
754.429	3433.4377
754.853	3511.71102
755.277	3515.34101
755.7	3553.7361
756.124	3592.73064
756.548	3624.47144
756.971	3693.46009
757.394	3762.97138
757.818	3778.89124
758.241	3833.80829
758.664	3779.83849
759.087	3817.03436
759.51	3891.59353
759.933	3918.46155
760.356	3947.79236
760.778	4015.61896
761.201	3952.45455
761.623	3940.35175
762.046	4049.22568
762.468	4128.13807
762.89	4058.44767
763.312	4207.45522
763.734	4093.3178
764.156	4089.50909
764.578	4123.06187
765	4150.42344
765.421	4105.75534
765.843	4203.86935
766.264	4090.32204
766.686	4098.52327
767.107	4092.33296
767.528	4213.68352
767.949	4220.67439
768.37	4068.34912
768.791	4238.2939
769.212	4060.70036
769.632	4047.17142
770.053	4127.99487
770.473	4091.3806
770.894	4067.51813
771.314	3888.2144
771.734	4044.15249
772.154	3937.74824
772.575	3906.07411
772.994	3877.02982
773.414	3954.30577
773.834	3888.67937
774.254	3975.57488
774.673	3767.47096
775.093	3785.62543
775.512	3751.56424
775.931	3733.79305
776.351	3736.64865
776.77	3646.59686
777.189	3595.38542
777.607	3575.89173
778.026	3538.7725
778.445	3467.8317
778.864	3564.89657
779.282	3419.53436
779.701	3387.77413
780.119	3356.02448
780.537	3325.8075
780.955	3167.79865
781.373	3205.68857
781.791	3189.14311
782.209	3184.21922
782.627	3154.22979
783.045	3076.33672
783.462	2981.94397
783.88	2995.00112
784.297	2932.82515
784.715	2900.97205
785.132	2848.62121
785.549	2730.77106
785.966	2744.75844
786.383	2723.63462
786.8	2724.31814
787.217	2653.42229
787.633	2543.68181
788.05	2569.31121
788.466	2471.17745
788.883	2456.72207
789.299	2412.39785
789.715	2422.49422
790.131	2398.61742
790.547	2285.4682
790.963	2326.55322
791.379	2263.58755
791.795	2210.03071
792.21	2173.11379
792.626	2066.11408
793.041	2099.39237
793.457	2043.3443
793.872	1973.03171
794.287	1960.13423
794.702	1893.15183
795.117	1885.24667
795.532	1852.25522
795.947	1764.95254
796.362	1807.9789
796.776	1808.82122
797.191	1712.00903
797.605	1672.88937
798.02	1569.81489
798.434	1607.49774
798.848	1572.8996
799.262	1537.89849
799.676	1502.71258
800.09	1548.89744
800.504	1452.64572
800.918	1397.49991
801.331	1323.70453
801.745	1344.37711
802.158	1278.54515
802.572	1193.29847
802.985	1236.36395
803.398	1192.28397
803.811	1192.43812
804.224	1122.25975
804.637	1097.17154
805.05	1060.00515
805.462	1050.14249
805.875	999.21199
806.288	1069.16708
806.7	934.01959
807.112	917.78822
807.525	903.91396
807.937	877.87819
808.349	896.93825
808.761	896.90365
809.173	837.76629
809.584	825.77057
809.996	820.77304
810.408	779.79901
810.819	757.59734
811.231	764.80582
811.642	779.70118
812.053	770.67904
812.464	798.69827
812.875	709.63343
813.286	688.60796
813.697	752.55315
814.108	652.44133
814.519	566.15286
814.929	592.38345
815.34	596.35081
815.75	552.30901
816.16	540.24453
816.571	537.28294
816.981	510.1158
817.391	531.2021
817.801	516.21696
818.211	477.05029
818.62	497.13596
819.03	450.03722
819.44	441.08168
819.849	468.09975
820.259	385.93132
820.668	439.03129
821.077	420.0036
821.486	369.8501
821.895	351.82602
822.304	354.90357
822.713	393.89634
823.122	343.82819
823.531	329.76431
823.939	344.81506
824.348	348.82263
824.756	381.91991
825.164	308.74693
825.573	372.91425
825.981	297.71498
826.389	308.75561
826.797	220.53835
827.205	288.65412
827.612	260.63315
828.02	271.62934
828.428	254.6381
828.835	247.63949
829.243	291.68485
829.65	248.60776
830.057	254.60975
830.464	231.55528
830.871	242.56988
831.278	253.59821
831.685	299.65469
832.092	226.55078
832.499	192.41926
832.905	176.44217
833.312	215.48883
833.718	180.44701
834.124	194.43957
834.531	155.38851
834.937	126.31895
835.343	196.47178
835.749	150.34567
836.155	173.44885
836.561	214.52484
836.966	219.52963
837.372	186.47031
837.777	164.41143
838.183	141.31331
838.588	121.29858
838.993	113.27648
839.399	122.30066
839.804	109.26858
840.209	185.47369
840.613	196.43651
841.018	125.31546
841.423	104.26784
841.828	143.36474
842.232	155.38107
842.637	157.37354
843.041	145.37492
843.445	114.28816
843.849	78.19505
844.253	138.33029
844.657	113.28853
845.061	133.30656
845.465	82.20164
845.869	114.2692
846.272	97.24068
846.676	85.20635
847.079	108.27978
847.483	100.24925
847.886	91.21967
848.289	106.28467
848.692	101.25771
849.095	105.25662
849.498	105.26395
849.901	96.22221
850.304	138.33331
850.707	69.17681
851.109	76.19211
851.512	115.28742
851.914	87.22604
852.316	86.217
852.718	43.11364
853.121	95.23589
853.523	147.35028
853.925	95.25173
854.326	17.04329
854.728	97.25298
855.13	73.19253
855.531	144.35069
855.933	29.07024
856.334	54.13757
856.736	40.09295
857.137	96.22599
857.538	96.24612
857.939	76.1928
858.34	48.11903
858.741	81.21313
859.142	92.22447
859.542	100.26662
859.943	113.28212
860.343	54.13645
860.744	93.22848
861.144	42.10324
861.544	99.24412
861.945	87.22643
862.345	68.1682
862.745	114.28888
863.145	109.26113
863.544	27.0695
863.944	45.10764
864.344	83.2079
864.743	57.14231
865.143	78.2027
865.542	78.18505
865.941	111.27913
866.34	75.1818
866.74	34.09209
867.139	91.22356
867.537	44.11355
867.936	92.22531
868.335	76.19593
868.734	78.20436
869.132	68.16263
869.531	43.10459
869.929	69.16303
870.327	69.16952
870.726	34.08533
871.124	96.2288
871.522	62.1604
871.92	65.16357
872.318	62.15392
872.715	44.10931
873.113	96.23842
873.511	95.24215
873.908	78.20249
874.306	99.25127
874.703	50.12657
875.1	83.21342
875.497	61.15069
875.894	44.1115
876.291	60.14912
876.688	106.27857
877.085	56.13577
877.482	38.09664
877.878	101.24694
878.275	59.15303
878.671	93.21051
879.068	34.08382
879.464	35.08637
879.86	-14.03417
880.256	41.10284
880.652	51.13196
881.048	60.14988
881.444	36.08649
881.84	48.12371
882.236	45.11462
882.631	99.24815
883.027	33.08086
883.422	32.0831
883.817	68.17677
884.213	78.20332
884.608	42.10605
885.003	84.20732
885.398	89.22821
885.793	15.03841
886.188	65.16644
886.582	41.10524
886.977	63.15248
887.371	18.04582
887.766	57.14519
888.16	27.06863
888.554	19.04751
888.949	61.15428
889.343	65.15993
889.737	69.18825
890.131	29.07355
890.525	73.18836
890.918	-11.02817
891.312	20.04827
891.706	-7.01846
892.099	23.05892
892.492	111.24449
892.886	37.09187
893.279	55.14295
893.672	-21.05404
894.065	46.11661
894.458	77.19772
894.851	46.11441
895.244	29.07522
895.637	55.13562
896.029	29.07227
896.422	15.03738
896.814	20.05066
897.206	31.07568
897.599	40.09963
897.991	17.04189
898.383	84.20419
898.775	70.161
899.167	26.06297
899.559	54.13801
899.951	70.16735
900.342	45.11499
900.734	29.07473
901.125	46.12212
901.517	23.05813
901.908	60.1453
902.299	93.23395
902.69	49.11878
903.082	80.19585
903.473	46.11374
903.863	49.12688
904.254	43.10337
904.645	98.24542
905.036	42.10457
905.426	38.08838
905.817	77.19238
906.207	41.10091
906.597	9.02149
906.987	49.12875
907.378	41.10451
907.768	23.0619
908.158	58.14373
908.547	58.15253
908.937	27.06977
909.327	68.16876
909.717	45.1149
910.106	11.02706
910.495	57.14442
910.885	60.15479
911.274	45.1143
911.663	67.17
912.052	49.12167
912.441	45.11535
912.83	73.17195
913.219	50.13176
913.608	43.10681
913.997	42.10794
914.385	67.16143
914.774	51.12613
915.162	91.22158
915.55	33.08125
915.939	23.05929
916.327	13.0327
916.715	34.08811
917.103	25.0623
917.491	50.12431
917.878	36.08879
918.266	-7.01832
918.654	97.25133
919.041	13.03479
919.429	18.04382
919.816	65.16551
920.203	83.20459
920.591	43.10786
920.978	35.08589
921.365	38.10118
921.752	40.098
922.139	115.25564
922.525	78.19251
922.912	54.13313
923.299	48.12181
923.685	53.14044
924.072	28.0652
924.458	55.13836
924.844	43.10883
925.231	80.18979
925.617	16.04179
926.003	43.11119
926.389	49.12573
926.774	41.10557
927.16	52.13121
927.546	60.15678
927.931	4.01022
928.317	25.05859
928.702	35.08382
929.088	48.1169
929.473	15.03883
929.858	75.18569
930.243	30.07399
930.628	44.11063
931.013	33.0837
931.398	42.09799
931.783	58.15289
932.167	114.28363
932.552	17.04301
932.937	39.09807
933.321	35.08984
933.705	32.0825
934.09	24.06099
934.474	40.09658
934.858	43.11303
935.242	34.08125
935.626	84.21851
936.009	-15.04021
936.393	29.07486
936.777	18.04707
937.16	8.02108
937.544	57.13562
937.927	57.14784
938.311	31.07669
938.694	49.13002
939.077	54.13176
939.46	25.06092
939.843	120.25749
940.226	34.08869
940.609	98.23276
940.991	30.07785
941.374	18.04518
941.757	24.05993
942.139	66.15428
942.522	43.10258
942.904	60.14672
943.286	15.03852
943.668	47.12362
944.05	71.17758
944.432	47.11938
944.814	25.0621
945.196	13.03294
945.578	77.19015
945.959	51.12232
946.341	35.08541
946.722	49.11694
947.104	57.13905
947.485	37.08824
947.866	83.21476
948.247	-1.00256
948.628	-3.00743
949.009	38.09953
949.39	34.08579
949.771	93.21948
950.152	71.17797
950.532	32.08147
950.913	51.12516
951.293	17.04683
951.674	109.27144
952.054	50.12769
952.434	28.07063
952.814	71.17165
953.194	61.1598
953.574	6.01493
953.954	50.12127
954.334	23.05869
954.714	70.17423
955.093	39.0968
955.473	18.04578
955.853	19.04981
956.232	16.04397
956.611	54.13131
956.99	74.18965
957.37	14.03651
957.749	85.2065
958.128	42.10862
958.506	59.15686
958.885	66.1695
959.264	51.12958
959.643	62.14317
960.021	71.17938
960.4	58.13531
960.778	50.12485
961.156	39.10021
961.535	28.06666
961.913	30.07202
962.291	74.19513
962.669	3.00772
963.047	14.03622
963.424	45.11616
963.802	79.19773
964.18	53.13528
964.557	59.13865
964.935	58.13988
965.312	2.00529
965.69	38.09578
966.067	9.02256
966.444	33.08215
966.821	34.08851
967.198	65.1591
967.575	22.05434
967.952	47.11256
968.329	31.0772
968.705	54.11782
969.082	37.09706
969.458	39.09716
969.835	71.17449
970.211	50.13123
970.587	46.11599
970.963	60.15485
971.339	11.0293
971.715	77.19377
972.091	42.1053
972.467	54.13665
972.843	45.11373
973.219	65.1559
973.594	58.15525
973.97	53.1276
974.345	36.08846
974.721	44.1068
975.096	22.0544
975.471	91.21843
975.846	41.10006
976.221	67.1742
976.596	46.11328
976.971	72.1794
977.346	47.11075
977.72	69.17823
978.095	57.14947
978.469	-7.0171
978.844	16.04056
979.218	9.0221
979.593	34.0828
979.967	23.05717
980.341	39.09158
980.715	47.12069
981.089	11.0278
981.463	51.12195
981.837	45.11272
982.21	66.15513
982.584	27.06685
982.957	27.06926
983.331	79.1897
983.704	14.03457
984.078	69.1732
984.451	37.09234
984.824	17.04261
985.197	65.15945
985.57	65.16475
985.943	49.1214
986.316	76.18799
986.688	69.16763
987.061	129.30669
987.434	45.11876
987.806	81.19907
988.179	77.18595
988.551	85.21788
988.923	67.16697
989.295	30.0747
989.667	26.06438
990.039	26.06619
990.411	35.08254
990.783	46.10787
991.155	43.10763
991.527	83.20368
991.898	66.16749
992.27	37.09288
992.641	58.1464
993.012	93.22093
993.384	30.0726
993.755	101.26061
994.126	26.06368
994.497	45.11292
994.868	86.20166
995.239	14.03454
995.61	65.16661
995.98	85.21106
996.351	49.1234
996.722	116.27605
997.092	34.08287
997.462	33.07984
997.833	16.03867
998.203	21.05163
998.573	10.02538
998.943	77.18475
999.313	32.07895
999.683	90.22139
1000.053	42.09945
1000.423	65.15868
1000.792	87.22845
1001.162	23.05749
1001.531	60.15026
1001.901	104.2642
1002.27	78.1776
1002.639	31.08099
1003.009	62.14885
1003.378	-9.02334
1003.747	90.21746
1004.116	43.10545
1004.485	-18.044
1004.853	79.20158
1005.222	0
1005.591	44.10616
1005.959	80.18649
1006.328	35.08119
1006.696	55.13652
1007.064	19.04852
1007.433	64.16114
1007.801	68.16697
1008.169	24.06101
1008.537	67.15191
1008.905	57.13656
1009.273	67.16551
1009.64	65.15987
1010.008	75.18228
1010.375	19.04566
1010.743	92.2132
1011.11	55.13352
1011.478	51.12747
1011.845	25.05998
1012.212	84.19497
1012.579	5.01248
1012.946	71.17068
1013.313	40.09618
1013.68	37.08488
1014.047	18.04439
1014.414	60.14525
1014.78	8.0202
1015.147	4.00978
1015.513	62.15207
1015.88	47.12014
1016.246	5.01239
1016.612	58.13356
1016.978	47.11709
1017.344	91.22826
1017.71	30.07328
1018.076	23.05519
1018.442	29.07496
1018.808	36.09171
1019.174	67.1709
1019.539	37.08508
1019.905	37.08922
1020.27	32.08106
1020.636	89.21509
1021.001	49.11878
1021.366	55.13482
1021.731	28.07216
1022.096	4.01036
1022.461	60.14426
1022.826	40.09672
1023.191	13.03455
1023.556	87.20779
1023.92	54.13342
1024.285	55.13617
1024.649	49.1222
1025.014	55.13826
1025.378	41.10495
1025.742	76.19149
1026.107	39.08972
1026.471	55.12849
1026.835	84.21173
1027.199	111.27531
1027.562	45.10674
1027.926	57.14076
1028.29	62.16012
1028.654	49.11524
1029.017	52.12829
1029.381	33.08074
1029.744	-17.04408
1030.107	60.1435
1030.471	-8.01948
1030.834	46.10635
1031.197	4.00973
1031.56	35.08388
1031.923	6.01578
1032.286	71.16828
1032.648	100.2429
1033.011	5.01175
1033.374	34.0806
1033.736	-18.04856
1034.099	63.15689
1034.461	1.00257
1034.823	-12.03054
1035.185	66.16778
1035.548	72.17849
1035.91	67.16284
1036.272	-3.00696
1036.634	13.0321
1036.995	69.16612
1037.357	55.13617
1037.719	54.13151
1038.08	33.07945
1038.442	47.1132
1038.803	38.09251
1039.165	65.16755
1039.526	13.03209
1039.887	17.04178
1040.248	4.01008
1040.609	31.07683
1040.97	48.1199
1041.331	32.08221
1041.692	96.23152
1042.053	62.14425
1042.413	77.18194
1042.774	50.12291
1043.134	66.15971
1043.495	29.07355
1043.855	5.01241
1044.215	71.17906
1044.576	62.15297
1044.936	64.1489
1045.296	23.05834
1045.656	18.04469
1046.016	51.1239
1046.375	10.02463
1046.735	46.10736
1047.095	28.06694
1047.454	53.11473
1047.814	45.11002
1048.173	-18.04305
1048.533	34.07954
1048.892	52.12858
1049.251	55.13975
1049.61	17.04267
1049.969	77.18672
1050.328	27.06022
1050.687	10.02482
1051.046	16.03934
1051.405	88.22252
1051.763	16.038
1052.122	54.1366
1052.48	22.05426
1052.839	14.03379
1053.197	13.03156
1053.555	5.01134
1053.914	33.08104
1054.272	-9.02199
1054.63	31.07801
1054.988	2.00491
1055.345	75.16499
1055.703	49.11927
1056.061	13.03393
1056.419	26.06826
1056.776	9.022
1057.134	51.12069
1057.491	11.02794
1057.848	22.05512
1058.206	92.21902
1058.563	78.17458
1058.92	17.03959
1059.277	35.08729
1059.634	59.14027
1059.991	69.16738
1060.348	35.08174
1060.704	80.1941
1061.061	66.15422
1061.418	39.09581
1061.774	19.04792
1062.131	48.12904
1062.487	36.08616
1062.843	51.12774
1063.199	47.11942
1063.555	51.12176
1063.911	8.02037
1064.267	-4.00859
1064.623	15.03735
1064.979	95.22542
1065.335	39.09393
1065.691	64.15447
1066.046	-19.04215
1066.402	85.19858
1066.757	26.06624
1067.112	34.08404
1067.468	111.27179
1067.823	68.16641
1068.178	20.04894
1068.533	48.11834
1068.888	64.15394
1069.243	60.14955
1069.598	40.09905
1069.952	62.14402
1070.307	47.11984
1070.662	33.07957
1071.016	54.12395
1071.371	45.1041
1071.725	28.06799
1072.079	7.01709
1072.434	61.15114
1072.788	86.2078
1073.142	68.16968
1073.496	51.12279
1073.85	20.04695
1074.203	98.2432
1074.557	28.07552
1074.911	7.01687
1075.265	25.05935
1075.618	27.06638
1075.971	69.16594
1076.325	33.08539
1076.678	59.13941
1077.031	55.12794
1077.385	108.24292
1077.738	72.16619
1078.091	62.14493
1078.444	26.06171
1078.796	6.01494
1079.149	56.14004
1079.502	47.11525
1079.855	75.17872
1080.207	11.02761
1080.56	10.02625
1080.912	32.07869
1081.264	18.0443
1081.617	90.224
1081.969	75.19285
1082.321	28.06918
1082.673	66.15537
1083.025	39.09475
1083.377	46.10185
1083.728	49.11524
1084.08	31.07838
1084.432	28.06916
1084.783	45.10682
1085.135	31.0791
1085.486	52.12351
1085.838	52.13027
1086.189	27.06636
1086.54	49.11824
1086.891	57.14682
1087.242	20.04918
1087.593	62.15207
1087.944	-7.01619
1088.295	62.14317
1088.646	45.1117
1088.996	10.02461
1089.347	40.09974
1089.698	41.09935
1090.048	-17.0444
1090.398	35.08209
1090.749	56.13623
1091.099	67.17402
1091.449	31.07838
1091.799	49.12459
1092.149	39.09902
1092.499	37.0915
1092.849	79.20356
1093.199	-10.02534
1093.548	33.0814
1093.898	29.07389
1094.248	49.12652
1094.597	32.08444
1094.947	55.1472
1095.296	29.07248
1095.645	57.14912
1095.994	63.15214
1096.343	19.04855
1096.692	111.29981
1097.041	-37.10159
1097.39	92.23462
1097.739	41.10762
1098.088	46.12431
1098.437	12.03221
1098.785	0
1099.134	55.14623
1099.482	54.14951
1099.83	22.05803
1100.179	22.05895
1100.527	25.06689
1100.875	-9.02425
1101.223	23.06166
1101.571	7.01961
1101.919	44.11801
1102.267	18.05106
1102.615	0
1102.962	-8.02579
1103.31	7.02255
1103.658	3.00969
