Data from N2 R0 150C sample1_Subt2__2__12-59-51-171.txt Node

Date: Tue Aug 19 12:59:51 PDT 2025
User: uwsun
Spectrometer: HDX01956
Trigger mode: 0
Integration Time (sec): 5.000000E-1
Scans to average: 1
Nonlinearity correction enabled: true
Boxcar width: 0
Storing dark spectrum: false
XAxis mode: Wavelengths
Number of Pixels in Spectrum: 2068
>>>>>Begin Spectral Data<<<<<
194.03	57.16608
194.578	51.16553
195.127	63.20157
195.676	55.17677
196.225	81.22268
196.773	83.23663
197.321	157.44556
197.87	198.52787
198.418	170.45037
198.966	171.4632
199.513	135.35111
200.061	164.43375
200.609	176.47744
201.156	149.34453
201.704	189.49575
202.251	137.37865
202.798	177.47556
203.345	175.44887
203.892	153.40052
204.438	178.44334
204.985	206.51381
205.532	177.48039
206.078	198.50386
206.624	185.47386
207.17	179.43502
207.716	195.49245
208.262	141.29713
208.808	193.49953
209.354	180.45757
209.899	148.38512
210.445	175.45529
210.99	173.43861
211.535	226.55365
212.08	234.56984
212.625	194.50359
213.17	193.50367
213.715	160.38542
214.259	198.48074
214.804	156.39811
215.348	124.29848
215.892	199.49338
216.436	168.40745
216.98	186.43563
217.524	131.32563
218.068	217.56725
218.612	190.49338
219.155	139.34325
219.698	166.41285
220.242	174.4481
220.785	162.39393
221.328	155.39827
221.871	158.41001
222.414	179.45945
222.956	184.46559
223.499	131.31132
224.041	196.47339
224.583	166.37123
225.126	140.3252
225.668	136.3434
226.21	176.45593
226.751	156.36265
227.293	185.44454
227.835	180.45757
228.376	175.41892
228.918	220.56812
229.459	171.44122
230	154.3805
230.541	206.49979
231.082	114.28528
231.622	167.39947
232.163	139.35167
232.704	144.36865
233.244	149.38272
233.784	167.42205
234.324	206.48039
234.864	167.39626
235.404	175.43039
235.944	186.45466
236.484	108.27785
237.023	173.42767
237.563	146.35303
238.102	149.36293
238.641	228.58857
239.18	133.32855
239.719	143.37128
240.258	137.3247
240.797	180.44897
241.335	206.51846
241.874	160.33472
242.412	190.47648
242.95	166.41375
243.488	187.44713
244.026	143.34441
244.564	166.36218
245.102	177.41545
245.64	138.34372
246.177	176.41479
246.715	247.60744
247.252	170.40765
247.789	165.33317
248.326	163.41091
248.863	199.46069
249.4	200.473
249.936	157.34131
250.473	165.40385
251.009	205.49297
251.546	175.40497
252.082	172.39605
252.618	138.32322
253.154	184.46177
253.69	181.42301
254.226	143.35559
254.761	221.52276
255.297	152.34875
255.832	141.34652
256.367	246.59794
256.903	136.31229
257.438	173.42139
257.972	214.49944
258.507	160.3879
259.042	186.42812
259.576	158.36469
260.111	189.45347
260.645	186.4175
261.179	170.41261
261.713	196.45977
262.247	148.36003
262.781	183.40714
263.315	147.37666
263.849	235.60338
264.382	181.4313
264.915	203.49888
265.449	199.5106
265.982	193.46059
266.515	204.50864
267.048	215.48408
267.58	207.4735
268.113	163.37346
268.646	165.42352
269.178	167.39335
269.71	208.47684
270.243	175.41588
270.775	186.48333
271.307	191.47355
271.838	185.44893
272.37	169.42969
272.902	211.49756
273.433	206.46486
273.965	183.4605
274.496	161.40935
275.027	172.44033
275.558	204.51011
276.089	153.39423
276.62	200.52024
277.15	178.4472
277.681	222.50546
278.211	92.23098
278.741	214.49433
279.272	172.40993
279.802	194.49473
280.332	205.50007
280.861	178.44414
281.391	128.30612
281.921	215.53285
282.45	225.57508
282.98	217.57535
283.509	202.47014
284.038	196.46533
284.567	165.39679
285.096	192.48063
285.625	215.51034
286.153	163.3957
286.682	195.46465
287.21	184.45961
287.739	244.59574
288.267	227.56403
288.795	181.47863
289.323	236.57557
289.851	235.57067
290.378	191.44918
290.906	220.54992
291.433	207.52499
291.961	190.44866
292.488	180.45887
293.015	234.57133
293.542	243.62892
294.069	207.51883
294.596	190.48008
295.122	244.59619
295.649	179.41176
296.175	266.6632
296.702	219.54237
297.228	220.54514
297.754	251.59165
298.28	219.51743
298.806	180.44734
299.332	225.5217
299.857	237.55257
300.383	217.55795
300.908	225.5617
301.433	214.52989
301.958	185.44032
302.483	226.57632
303.008	246.61801
303.533	245.63847
304.058	238.57655
304.582	211.51643
305.107	225.59875
305.631	213.49896
306.155	237.57013
306.679	219.52364
307.203	266.63393
307.727	221.53809
308.251	259.64867
308.775	212.52205
309.298	270.66779
309.822	328.82868
310.345	268.65409
310.868	241.58875
311.391	249.62116
311.914	266.67615
312.437	226.53324
312.96	249.5999
313.482	235.5696
314.005	255.64991
314.527	262.69382
315.049	259.65475
315.571	229.53686
316.093	277.696
316.615	285.70062
317.137	239.54053
317.659	317.7807
318.18	254.61762
318.702	284.66773
319.223	367.78388
319.744	324.74213
320.265	274.67619
320.786	295.74041
321.307	278.69913
321.828	347.80038
322.348	311.74697
322.869	320.77486
323.389	23.03952
323.909	307.71434
324.43	272.6589
324.95	284.66617
325.47	311.76423
325.989	343.81379
326.509	284.64791
327.029	298.68314
327.548	324.74124
328.067	322.78907
328.587	347.8577
329.106	325.7371
329.625	316.81737
330.144	368.85877
330.662	334.77117
331.181	351.82313
331.7	370.87089
332.218	407.89188
332.736	416.96655
333.255	387.89653
333.773	322.76295
334.291	369.90202
334.808	395.89182
335.326	431.9691
335.844	405.94119
336.361	386.96332
336.879	432.00633
337.396	402.95427
337.913	386.88234
338.43	466.03053
338.947	422.97932
339.464	434.92998
339.981	396.92917
340.497	423.00674
341.014	430.02559
341.53	409.90344
342.046	437.03495
342.562	442.06872
343.078	460.05484
343.594	417.97327
344.11	477.08711
344.626	482.16342
345.141	467.0278
345.657	469.02228
346.172	512.1785
346.687	511.13657
347.202	517.11947
347.717	489.12347
348.232	519.22854
348.747	539.18804
349.261	499.06709
349.776	504.13557
350.29	532.25377
350.805	591.38354
351.319	567.25871
351.833	538.15534
352.347	540.19943
352.861	498.10509
353.374	568.22092
353.888	536.22302
354.401	584.26397
354.915	597.26544
355.428	564.3061
355.941	588.29105
356.454	563.1886
356.967	516.14652
357.48	568.21882
357.993	536.23579
358.505	536.22302
359.018	610.3753
359.53	621.39185
360.042	566.17953
360.554	621.37645
361.066	595.34663
361.578	611.2331
362.09	617.34373
362.602	611.25172
363.113	647.39006
363.625	620.29395
364.136	656.32497
364.647	686.47679
365.158	630.33694
365.669	659.42802
366.18	708.49418
366.691	683.37233
367.201	644.40586
367.712	684.42012
368.222	706.45739
368.733	723.44613
369.243	753.49858
369.753	773.6069
370.263	815.71683
370.773	697.51622
371.282	774.61648
371.792	842.72602
372.301	773.6468
372.811	721.64327
373.32	814.51844
373.829	806.66108
374.338	839.59956
374.847	851.68995
375.356	922.83919
375.865	911.61727
376.373	972.82003
376.882	987.02962
377.39	1030.00125
377.898	986.98243
378.407	1031.84506
378.915	1029.75296
379.423	1158.09662
379.93	1201.02629
380.438	1290.32475
380.946	1378.32854
381.453	1374.34419
381.96	1425.34716
382.468	1535.44536
382.975	1553.46313
383.482	1613.24066
383.989	1568.60928
384.495	1685.36158
385.002	1836.17397
385.509	1906.56812
386.015	2015.96719
386.521	2117.40863
387.028	2203.32007
387.534	2295.17913
388.04	2310.43432
388.546	2408.21815
389.051	2536.04977
389.557	2735.14966
390.063	2946.06354
390.568	2971.16013
391.073	3102.81919
391.578	3288.04747
392.084	3335.4898
392.589	3342.17388
393.093	3638.36121
393.598	3993.86696
394.103	4341.66594
394.607	4733.20892
395.112	5223.07484
395.616	5464.84504
396.12	5973.51891
396.624	6599.76027
397.128	7082.24044
397.632	7828.72827
398.136	8529.19286
398.639	8925.97212
399.143	9977.83035
399.646	11269.38058
400.15	12356.39807
400.653	13586.47622
401.156	15324.95708
401.659	17875.66518
402.162	21670.98243
402.664	27924.42116
403.167	37371.47792
403.67	20556.30647
404.172	2696.20453
404.674	0
405.176	0
405.678	0
406.18	0
406.682	0
407.184	0
407.686	25783.58453
408.187	43316.52985
408.688	51225.60928
409.19	49372.03628
409.691	39567.51518
410.192	33693.80974
410.693	29432.80628
411.194	26674.78185
411.694	25488.8718
412.195	23917.6337
412.696	21655.99371
413.196	20275.32489
413.696	19824.65026
414.196	20195.82543
414.696	19848.04745
415.196	19205.55001
415.696	17687.61334
416.196	14336.69563
416.695	10903.8879
417.195	9330.08471
417.694	8999.3186
418.194	8532.06258
418.693	7886.75372
419.192	7681.19457
419.691	7408.70447
420.19	7258.46611
420.688	7105.26268
421.187	6872.00785
421.685	6419.70236
422.184	5821.74553
422.682	5055.94546
423.18	4195.81605
423.678	3809.26782
424.176	3480.56474
424.674	3301.52704
425.172	3235.97682
425.669	3016.3486
426.167	2736.24173
426.664	2633.28138
427.161	2257.27995
427.659	2223.63373
428.156	2089.10464
428.652	1944.79396
429.149	1876.60056
429.646	1778.25616
430.143	1697.47761
430.639	1573.37965
431.135	1552.57965
431.632	1430.2195
432.128	1380.32568
432.624	1273.39468
433.12	1211.00804
433.616	1152.8716
434.111	1089.97409
434.607	1122.06
435.103	1022.66323
435.598	1130.78756
436.093	1029.91136
436.588	897.61377
437.083	925.68805
437.578	910.73222
438.073	845.79096
438.568	792.64388
439.062	814.48846
439.557	796.60226
440.051	741.44867
440.546	713.42084
441.04	693.47431
441.534	715.60009
442.028	664.40428
442.522	644.37797
443.015	655.2821
443.509	676.46894
444.002	634.39276
444.496	633.26178
444.989	598.30918
445.482	573.29257
445.975	638.32745
446.468	599.17618
446.961	629.24042
447.454	521.08391
447.947	551.21047
448.439	502.10613
448.931	566.18736
449.424	561.27628
449.916	575.28019
450.408	545.14098
450.9	557.24979
451.392	499.16109
451.884	476.02242
452.375	495.1572
452.867	469.99563
453.358	527.12172
453.849	504.01052
454.341	488.03744
454.832	479.98271
455.323	460.05568
455.814	522.12478
456.304	467.01404
456.795	471.0223
457.285	409.86487
457.776	444.95468
458.266	462.03569
458.756	387.8816
459.247	434.98843
459.737	445.01569
460.226	488.0442
460.716	431.99091
461.206	407.93874
461.695	393.93022
462.185	364.82167
462.674	415.92893
463.163	414.87678
463.653	448.92099
464.142	382.89038
464.63	429.00344
465.119	389.86788
465.608	422.94518
466.096	357.76385
466.585	379.84802
467.073	334.77362
467.561	359.83267
468.05	384.86434
468.538	338.80425
469.026	363.84294
469.513	481.04893
470.001	295.66064
470.489	338.78847
470.976	288.66128
471.463	298.7235
471.951	329.7941
472.438	282.65475
472.925	284.65601
473.412	280.6701
473.899	284.64164
474.385	305.72951
474.872	288.67608
475.359	279.67649
475.845	265.56039
476.331	226.48577
476.817	233.562
477.303	273.63073
477.789	262.62608
478.275	212.5234
478.761	272.65295
479.247	276.62585
479.732	264.65391
480.218	253.6489
480.703	258.63671
481.188	244.53033
481.673	218.50557
482.158	196.4356
482.643	201.50452
483.128	197.45841
483.612	192.45391
484.097	188.45749
484.581	216.50272
485.066	225.5511
485.55	206.46524
486.034	159.35139
486.518	230.54962
487.002	196.49135
487.486	196.48266
487.969	180.44897
488.453	174.43778
488.936	205.47609
489.42	181.40753
489.903	177.44588
490.386	180.31553
490.869	220.4865
491.352	187.45973
491.835	175.37575
492.318	225.52893
492.8	230.4933
493.283	192.496
493.765	185.46303
494.247	157.3744
494.73	167.38155
495.212	169.41426
495.694	140.33712
496.175	165.40565
496.657	165.39905
497.139	187.34846
497.62	177.43145
498.102	180.45352
498.583	151.38325
499.064	194.45295
499.545	195.45769
500.026	114.26826
500.507	161.38585
500.988	191.48373
501.469	155.39869
501.949	160.40472
502.43	148.36514
502.91	203.44206
503.39	133.33745
503.87	167.40844
504.35	114.2768
504.83	173.39637
505.31	126.31326
505.79	183.45239
506.269	184.44424
506.749	120.28611
507.228	159.38816
507.707	125.29042
508.187	119.2904
508.666	145.36828
509.145	185.44927
509.623	171.41044
510.102	146.3647
510.581	107.26452
511.059	166.42616
511.538	138.36205
512.016	177.43916
512.494	149.37293
512.972	150.36775
513.45	159.38599
513.928	164.41425
514.406	162.40832
514.884	160.42076
515.361	154.38315
515.839	163.38826
516.316	162.40349
516.793	96.25067
517.27	113.28058
517.747	134.35322
518.224	144.34925
518.701	202.47329
519.178	117.29801
519.654	175.42642
520.131	119.30278
520.607	152.38503
521.083	127.30425
521.56	135.33508
522.036	182.41791
522.512	143.3574
522.987	123.30586
523.463	155.38458
523.939	129.32648
524.414	178.42374
524.89	175.42769
525.365	201.47417
525.84	165.41193
526.315	129.32462
526.79	147.34746
527.265	199.476
527.74	88.22332
528.215	176.43181
528.689	122.2863
529.164	115.26306
529.638	130.34464
530.112	145.35846
530.587	141.32046
531.061	143.35869
531.534	150.37143
532.008	155.38753
532.482	127.30019
532.956	141.36848
533.429	172.42824
533.903	118.27323
534.376	113.26285
534.849	144.34885
535.322	159.38917
535.795	179.44817
536.268	108.26861
536.741	114.28394
537.213	179.42768
537.686	204.51159
538.158	143.33486
538.631	114.28528
539.103	162.38314
539.575	116.25449
540.047	137.31591
540.519	175.43246
540.991	180.44978
541.463	143.35856
541.934	132.31701
542.406	160.39662
542.877	179.42522
543.348	184.45711
543.82	136.34144
544.291	175.42004
544.762	125.30788
545.233	153.39478
545.703	137.31993
546.174	176.42461
546.645	168.41843
547.115	125.31602
547.585	164.39132
548.056	225.56333
548.526	241.58765
548.996	184.45278
549.466	179.44558
549.935	179.4399
550.405	179.41094
550.875	199.48435
551.344	226.55734
551.814	206.49246
552.283	175.39273
552.752	250.59946
553.221	281.64301
553.69	196.45005
554.159	240.60575
554.628	232.53995
555.096	265.6849
555.565	256.59298
556.033	234.56281
556.502	266.6538
556.97	270.61449
557.438	272.65344
557.906	277.66533
558.374	289.67591
558.842	240.58314
559.31	320.72885
559.777	297.72282
560.245	329.78148
560.712	325.76634
561.18	398.8995
561.647	395.88636
562.114	381.87354
562.581	444.06631
563.048	423.96902
563.514	428.03248
563.981	461.03365
564.448	528.15719
564.914	539.21727
565.381	540.1895
565.847	578.30466
566.313	611.36324
566.779	617.31017
567.245	740.61562
567.711	750.67537
568.176	775.61964
568.642	766.77703
569.108	865.93272
569.573	990.08357
570.038	1029.92744
570.504	972.91755
570.969	1062.33843
571.434	1117.15479
571.899	1138.33485
572.363	1212.32016
572.828	1250.36675
573.293	1419.608
573.757	1352.49987
574.222	1531.70606
574.686	1599.80805
575.15	1628.96042
575.614	1663.87296
576.078	1716.03628
576.542	1798.97279
577.006	1817.95644
577.469	1931.37865
577.933	1914.08704
578.396	1929.19687
578.86	2028.286
579.323	2170.49438
579.786	2112.00312
580.249	2136.30075
580.712	2115.48631
581.175	2183.5844
581.637	2199.22115
582.1	2250.1535
582.563	2246.00778
583.025	2289.5851
583.487	2338.87581
583.95	2405.19195
584.412	2473.05227
584.874	2422.59533
585.336	2524.56731
585.797	2488.14637
586.259	2628.57748
586.721	2653.56197
587.182	2725.49903
587.643	2820.42571
588.105	2911.69255
588.566	2910.01175
589.027	3078.81702
589.488	3140.4711
589.949	3258.78819
590.41	3411.63675
590.87	3483.32195
591.331	3640.97927
591.791	3798.48647
592.252	3959.34717
592.712	4166.44935
593.172	4332.08128
593.632	4611.73975
594.092	4830.70072
594.552	5016.37826
595.011	5441.53945
595.471	5627.16645
595.931	5903.0787
596.39	6334.4634
596.849	6643.15153
597.308	7002.73886
597.768	7457.71134
598.227	7887.42078
598.685	8609.91671
599.144	9049.64975
599.603	9571.6845
600.062	10324.84136
600.52	11062.49119
600.978	11686.10989
601.437	12432.4513
601.895	13166.92073
602.353	14072.52081
602.811	15070.11575
603.269	16035.74806
603.727	16910.32994
604.184	17968.30898
604.642	19054.76994
605.099	20261.92003
605.557	21590.45943
606.014	22848.45329
606.471	24221.71242
606.928	25671.43051
607.385	26993.21589
607.842	28369.68089
608.299	29593.14977
608.755	31303.81371
609.212	32731.84007
609.668	34350.70324
610.125	36135.3321
610.581	37348.305
611.037	38948.75372
611.493	40462.49439
611.949	41991.19736
612.405	43529.7544
612.861	44582.40033
613.316	46355.20848
613.772	47569.708
614.227	48717.52046
614.683	49731.04664
615.138	50875.08738
615.593	51695.90016
616.048	52457.43645
616.503	53388.44235
616.958	53792.88339
617.412	54172.09113
617.867	54664.65279
618.321	54755.83928
618.776	54814.91629
619.23	54495.54284
619.684	54300.48076
620.138	53960.48182
620.592	53685.31037
621.046	53382.88148
621.5	52630.7477
621.954	52018.42663
622.407	50685.6302
622.861	50237.53193
623.314	49624.67127
623.768	48693.83595
624.221	47796.19033
624.674	46606.89717
625.127	46317.50736
625.58	45585.15419
626.033	44631.68136
626.485	43791.41337
626.938	42944.09234
627.39	42388.40839
627.843	41767.2307
628.295	40432.67346
628.747	39949.81955
629.199	39479.3341
629.651	38835.82102
630.103	38159.1138
630.555	37402.13351
631.006	36842.42705
631.458	36442.08326
631.909	36007.20361
632.361	35317.28655
632.812	35081.39886
633.263	34647.89881
633.714	34326.39083
634.165	34310.33378
634.616	33807.38126
635.067	33710.81908
635.518	33611.82361
635.968	33878.47199
636.419	33695.80255
636.869	33867.14423
637.319	33765.57174
637.769	33965.59223
638.219	34036.73643
638.669	34519.51274
639.119	34854.90196
639.569	35225.24279
640.019	36103.90221
640.468	36751.41517
640.918	37312.05418
641.367	37798.70602
641.816	38514.46043
642.265	39594.29644
642.714	40218.82918
643.163	41398.64187
643.612	42089.53673
644.061	42959.13358
644.51	43680.8855
644.958	44766.39831
645.406	45827.22467
645.855	46532.32457
646.303	47612.66772
646.751	48588.86193
647.199	49404.40654
647.647	50432.77044
648.095	51148.24395
648.543	51854.88641
648.99	52860.18374
649.438	53263.99897
649.885	53829.43666
650.333	54642.10824
650.78	55167.88226
651.227	55387.92581
651.674	55483.9866
652.121	55557.17753
652.568	55647.20547
653.015	55637.41119
653.461	55392.19084
653.908	55009.89521
654.354	54500.6496
654.801	54133.94049
655.247	53610.5422
655.693	53182.94476
656.139	52867.67855
656.585	51979.37462
657.031	51513.91456
657.477	50937.79678
657.922	49902.79997
658.368	49293.02951
658.813	48442.86518
659.259	47666.3579
659.704	46850.50257
660.149	46189.63471
660.594	45376.39299
661.039	44398.00236
661.484	43510.70572
661.929	42732.30327
662.373	41650.43752
662.818	41351.95794
663.262	40777.17007
663.707	39880.38008
664.151	39129.47592
664.595	38831.27483
665.039	38163.26155
665.483	37649.80022
665.927	37232.61274
666.371	36794.15281
666.814	36305.02587
667.258	35748.3449
667.701	35462.62031
668.145	34786.19269
668.588	34666.45731
669.031	34202.82079
669.474	33899.16424
669.917	33441.50181
670.36	33553.60532
670.803	33303.15544
671.245	32950.70839
671.688	32450.21492
672.13	32245.31881
672.573	31926.65884
673.015	31969.62556
673.457	31599.7222
673.899	31320.43059
674.341	31158.64154
674.783	31216.39247
675.225	30668.42214
675.666	30696.59868
676.108	30668.59081
676.549	30307.2765
676.991	30248.5399
677.432	29820.50595
677.873	29316.85149
678.314	28931.52181
678.755	28867.40082
679.196	28317.12455
679.637	27773.27976
680.078	27513.05793
680.518	27026.85495
680.959	26582.8912
681.399	26275.98686
681.839	25911.83116
682.28	25241.05486
682.72	24816.98841
683.16	24355.68355
683.6	23885.40432
684.039	23491.86089
684.479	23299.42069
684.919	22966.95146
685.358	22777.10366
685.798	22172.22817
686.237	21860.11603
686.676	21377.73065
687.115	21241.13513
687.554	20711.26521
687.993	20459.57673
688.432	19813.41571
688.871	19631.81802
689.309	19095.60967
689.748	19121.64495
690.186	18975.22416
690.625	18729.31973
691.063	18300.86011
691.501	18050.37221
691.939	17930.49663
692.377	17667.73206
692.815	17485.7693
693.253	17133.53752
693.69	16929.86951
694.128	16708.22467
694.565	16347.83789
695.003	16377.81376
695.44	16156.86195
695.877	15703.9852
696.314	15522.04792
696.751	15250.34576
697.188	15106.552
697.625	15038.12488
698.061	14837.26564
698.498	14508.43671
698.934	14300.49624
699.371	13958.93191
699.807	13817.91288
700.243	13567.6626
700.679	13253.085
701.115	13033.28304
701.551	12832.84295
701.987	12684.22722
702.422	12310.4549
702.858	12286.43414
703.294	12103.75108
703.729	11903.08783
704.164	11593.64561
704.599	11292.64422
705.035	11281.4787
705.47	11032.09122
705.904	10857.56154
706.339	10601.75122
706.774	10490.26599
707.209	10360.85465
707.643	10075.93998
708.078	10069.90976
708.512	9854.36039
708.946	9614.76019
709.38	9505.51209
709.814	9348.1472
710.248	9109.76653
710.682	9001.56786
711.116	8798.30015
711.549	8629.26361
711.983	8555.85088
712.416	8414.73778
712.85	8239.80289
713.283	8062.45469
713.716	7882.5313
714.149	7667.15497
714.582	7585.96486
715.015	7434.30485
715.448	7406.41432
715.881	7139.5663
716.313	7083.99908
716.746	6870.06373
717.178	6817.1281
717.61	6569.43689
718.043	6511.3753
718.475	6288.24131
718.907	6329.54819
719.339	6110.01305
719.77	6040.30669
720.202	5911.7458
720.634	5841.65006
721.065	5705.43775
721.497	5606.6962
721.928	5502.82696
722.359	5361.87676
722.79	5340.8353
723.221	5258.01729
723.652	5127.21271
724.083	5066.52785
724.514	4884.66113
724.945	4818.87398
725.375	4756.95755
725.806	4583.29231
726.236	4528.56102
726.666	4536.03861
727.096	4457.36648
727.526	4362.66329
727.956	4333.86805
728.386	4186.44652
728.816	4076.72731
729.246	4134.52915
729.675	3942.65185
730.105	3897.46059
730.534	3911.24241
730.964	3742.73588
731.393	3721.57605
731.822	3752.88937
732.251	3687.8163
732.68	3610.29335
733.109	3535.65371
733.537	3505.59109
733.966	3513.84383
734.395	3557.26492
734.823	3405.07413
735.251	3421.63386
735.68	3330.80975
736.108	3256.84917
736.536	3277.40884
736.964	3230.39419
737.392	3148.81929
737.82	3164.5692
738.247	3110.51547
738.675	3055.49399
739.102	3034.85704
739.53	2950.94669
739.957	2941.00708
740.384	2993.62402
740.811	2950.83015
741.238	2937.66625
741.665	2900.33755
742.092	2863.51579
742.519	2826.73443
742.945	2842.56316
743.372	2872.76685
743.798	2807.95016
744.225	2796.49285
744.651	2772.77957
745.077	2736.74002
745.503	2739.59659
745.929	2778.52504
746.355	2825.70562
746.781	2683.68635
747.207	2730.52766
747.632	2696.7153
748.058	2671.73092
748.483	2722.32467
748.908	2646.67541
749.334	2696.67387
749.759	2600.34527
750.184	2682.52623
750.609	2719.67759
751.033	2738.41181
751.458	2685.14597
751.883	2690.66995
752.307	2676.45904
752.732	2714.8433
753.156	2694.74237
753.58	2751.49706
754.005	2722.77584
754.429	2747.45476
754.853	2629.66782
755.277	2662.37262
755.7	2707.71836
756.124	2691.71618
756.548	2745.52139
756.971	2663.51029
757.394	2694.94369
757.818	2733.89582
758.241	2719.83782
758.664	2710.84672
759.087	2668.20374
759.51	2646.66181
759.933	2743.59049
760.356	2718.85383
760.778	2816.76105
761.201	2734.59318
761.623	2707.5022
762.046	2764.44833
762.468	2731.40146
762.89	2793.63326
763.312	2770.685
763.734	2775.53852
764.156	2807.69504
764.578	2756.34331
765	2783.64308
765.421	2673.85551
765.843	2708.98354
766.264	2748.53586
766.686	2675.6772
767.107	2629.5172
767.528	2738.85512
767.949	2718.84451
768.37	2665.53115
768.791	2615.53339
769.212	2589.77065
769.632	2694.39253
770.053	2697.0515
770.473	2643.55699
770.894	2589.6367
771.314	2591.35184
771.734	2487.32409
772.154	2536.75159
772.575	2537.23587
772.994	2478.17735
773.414	2479.40659
773.834	2479.66387
774.254	2527.62952
774.673	2403.4483
775.093	2405.56631
775.512	2318.47166
775.931	2340.64287
776.351	2374.55753
776.77	2259.4418
777.189	2349.32379
777.607	2249.63258
778.026	2279.56111
778.445	2197.5434
778.864	2173.5832
779.282	2237.34866
779.701	2153.46564
780.119	2195.67071
780.537	2094.44286
780.955	2037.38887
781.373	2060.32938
781.791	2094.95917
782.209	2029.97655
782.627	1968.62539
783.045	2014.04319
783.462	1979.45266
783.88	1875.39482
784.297	1914.31683
784.715	1878.38927
785.132	1852.12859
785.549	1821.22251
785.966	1779.17018
786.383	1742.05268
786.8	1761.85335
787.217	1756.93113
787.633	1673.05293
788.05	1667.78662
788.466	1583.63371
788.883	1635.0649
789.299	1582.7974
789.715	1566.84292
790.131	1529.89032
790.547	1495.78907
790.963	1505.84346
791.379	1494.8778
791.795	1386.39626
792.21	1388.4654
792.626	1354.46649
793.041	1392.68853
793.457	1437.74086
793.872	1361.46004
794.287	1310.47467
794.702	1325.54369
795.117	1284.55947
795.532	1323.64157
795.947	1242.36977
796.362	1227.34164
796.776	1183.17507
797.191	1142.30219
797.605	1147.25386
798.02	1122.24018
798.434	1114.97718
798.848	1147.33703
799.262	1084.26771
799.676	1045.10394
800.09	1071.23704
800.504	1012.04623
800.918	1019.9996
801.331	951.10563
801.745	928.81782
802.158	968.06477
802.572	889.83761
802.985	910.87728
803.398	865.78796
803.811	848.86945
804.224	809.74664
804.637	893.85246
805.05	772.56316
805.462	836.78919
805.875	782.81058
806.288	828.7713
806.7	748.68256
807.112	681.40163
807.525	765.66988
807.937	679.51574
808.349	713.60216
808.761	683.51777
809.173	627.38342
809.584	629.40634
809.996	615.38743
810.408	571.37256
810.819	599.30724
811.231	604.47139
811.642	601.36132
812.053	618.39051
812.464	646.41974
812.875	599.40994
813.286	566.3541
813.697	566.21713
814.108	520.18074
814.519	501.03529
814.929	482.15027
815.34	534.2253
815.75	506.21039
816.16	491.14245
816.571	442.07474
816.981	435.96848
817.391	461.05819
817.801	408.98414
818.211	387.86984
818.62	425.98726
819.03	394.92015
819.44	384.95382
819.849	340.82048
820.259	343.8363
820.668	359.8583
821.077	362.87652
821.486	339.78567
821.895	329.77757
822.304	322.82654
822.713	315.72977
823.122	335.8101
823.531	335.77732
823.939	312.74382
824.348	298.71127
824.756	290.71225
825.164	256.6269
825.573	289.72118
825.981	279.67395
826.389	268.66236
826.797	206.50541
827.205	236.54168
827.612	263.64009
828.02	209.49132
828.428	263.65964
828.835	196.51193
829.243	266.62907
829.65	164.40817
830.057	213.51532
830.464	157.3827
830.871	210.49761
831.278	156.37579
831.685	175.39321
832.092	223.54377
832.499	183.40037
832.905	166.4178
833.312	239.54075
833.718	195.48294
834.124	152.34735
834.531	180.44913
834.937	194.48511
835.343	156.37835
835.749	110.25552
836.155	122.31932
836.561	140.34806
836.966	131.32207
837.372	163.41385
837.777	166.4163
838.183	141.31331
838.588	107.26471
838.993	129.31469
839.399	85.21091
839.804	120.29508
840.209	118.30569
840.613	162.36333
841.018	82.20853
841.423	92.23743
841.828	132.33734
842.232	157.38584
842.637	158.37584
843.041	108.28104
843.445	141.35469
843.849	86.21475
844.253	166.39518
844.657	92.23578
845.061	128.29533
845.465	93.22822
845.869	99.23446
846.272	72.17946
846.676	89.2159
847.079	95.24666
847.483	110.27368
847.886	87.21017
848.289	67.18109
848.692	98.25019
849.095	117.28531
849.498	73.18456
849.901	62.14448
850.304	137.33096
850.707	69.17681
851.109	85.21452
851.512	76.19129
851.914	83.2158
852.316	31.07899
852.718	49.12936
853.121	88.21879
853.523	110.26398
853.925	87.23084
854.326	60.15161
854.728	59.15487
855.13	66.17427
855.531	76.18744
855.933	56.13495
856.334	52.13252
856.736	64.14802
857.137	47.1117
857.538	68.17519
857.939	114.28724
858.34	90.22147
858.741	44.1165
859.142	67.16424
859.542	67.17961
859.943	51.12876
860.343	33.0837
860.744	75.18487
861.144	36.08859
861.544	72.17842
861.945	80.20846
862.345	53.13146
862.745	98.24904
863.145	16.03901
863.544	93.23663
863.944	22.05286
864.344	66.16582
864.743	59.14725
865.143	77.20013
865.542	32.07659
865.941	86.21723
866.34	85.20565
866.74	30.08131
867.139	65.16046
867.537	53.13657
867.936	93.22772
868.335	79.20356
868.734	70.18365
869.132	72.17206
869.531	81.19561
869.929	75.177
870.327	63.15495
870.726	55.13751
871.124	55.13212
871.522	59.15272
871.92	58.14614
872.318	84.2077
872.715	37.09204
873.113	74.18452
873.511	74.18932
873.908	90.23315
874.306	95.24129
874.703	39.09892
875.1	54.13956
875.497	87.21389
875.894	24.06103
876.291	49.12203
876.688	87.22938
877.085	21.05125
877.482	53.13443
877.878	37.09154
878.275	56.14533
878.671	76.17263
879.068	89.21719
879.464	26.06427
879.86	40.09665
880.256	47.11777
880.652	28.07274
881.048	64.15976
881.444	-12.02909
881.84	19.04921
882.236	57.14488
882.631	86.21607
883.027	21.05157
883.422	51.13201
883.817	75.19473
884.213	51.13356
884.608	28.07088
885.003	57.14138
885.398	52.1342
885.793	16.04096
886.188	45.11563
886.582	57.1459
886.977	103.24742
887.371	9.02295
887.766	46.1174
888.16	57.14411
888.554	26.06492
888.949	49.12419
889.343	22.05456
889.737	57.15581
890.131	-15.03834
890.525	52.13467
890.918	-5.01279
891.312	43.10333
891.706	24.06297
892.099	1.00257
892.492	94.20779
892.886	26.06469
893.279	47.12233
893.672	-39.10067
894.065	44.11158
894.458	62.15962
894.851	104.25593
895.244	12.03122
895.637	59.14538
896.029	-2.00501
896.422	50.12381
896.814	37.09345
897.206	38.09265
897.599	65.16116
897.991	3.00741
898.383	76.18502
898.775	84.19265
899.167	49.11815
899.559	72.18343
899.951	47.11286
900.342	70.17808
900.734	46.11818
901.125	52.13791
901.517	60.15064
901.908	83.20013
902.299	60.15183
902.69	38.0923
903.082	17.0421
903.473	45.11129
903.863	45.1166
904.254	72.17213
904.645	79.19852
905.036	29.07238
905.426	51.11831
905.817	55.13796
906.207	44.10824
906.597	31.0737
906.987	38.10004
907.378	30.07662
907.768	26.06994
908.158	21.05239
908.547	37.09765
908.937	12.03109
909.327	69.17121
909.717	36.09207
910.106	24.05891
910.495	86.21677
910.885	48.12409
911.274	41.10421
911.663	3.0077
912.052	51.12659
912.441	53.13567
912.83	49.11596
913.219	39.10296
913.608	27.06726
913.997	32.08238
914.385	27.06555
914.774	62.15302
915.162	66.16146
915.55	35.08615
915.939	9.02326
916.327	1.00252
916.715	5.01302
917.103	46.1142
917.491	23.05746
917.878	-4.00994
918.266	-16.04194
918.654	57.14871
919.041	42.11187
919.429	79.19013
919.816	32.08195
920.203	50.12399
920.591	23.0579
920.978	19.04676
921.365	20.05341
921.752	68.16573
922.139	77.17252
922.525	75.18521
922.912	44.10868
923.299	57.14442
923.685	69.18235
924.072	31.07214
924.458	42.1059
924.844	37.09375
925.231	33.079
925.617	12.03137
926.003	44.11375
926.389	22.05672
926.774	51.13109
927.16	77.19342
927.546	51.13346
927.931	53.13428
928.317	9.02116
928.702	9.02166
929.088	52.12655
929.473	11.02849
929.858	72.17836
930.243	60.14716
930.628	42.10564
931.013	3.00765
931.398	47.10954
931.783	7.01861
932.167	80.20027
932.552	11.02786
932.937	31.07807
933.321	70.17858
933.705	65.16661
934.09	41.10388
934.474	64.15382
934.858	46.12085
935.242	25.05985
935.626	38.09963
936.009	-22.05905
936.393	12.03107
936.777	52.13518
937.16	-1.00264
937.544	38.09074
937.927	51.13242
938.311	73.17921
938.694	37.09837
939.077	29.07109
939.46	25.06092
939.843	134.28666
940.226	4.01049
940.609	74.17657
940.991	21.05458
941.374	28.07015
941.757	34.08475
942.139	101.23447
942.522	57.13562
942.904	43.10548
943.286	47.12001
943.668	44.11579
944.05	64.16028
944.432	36.09162
944.814	4.00997
945.196	53.13333
945.578	42.10438
945.959	58.13893
946.341	-14.03448
946.722	3.00722
947.104	75.18235
947.485	48.11423
947.866	87.22495
948.247	-22.05652
948.628	-18.04469
949.009	62.16173
949.39	31.07826
949.771	94.2218
950.152	60.15069
950.532	37.09411
950.913	31.07636
951.293	37.10159
951.674	108.269
952.054	50.12769
952.434	0
952.814	45.10933
953.194	3.00794
953.574	33.08173
953.954	37.08996
954.334	67.16963
954.714	21.05273
955.093	28.06964
955.473	27.06855
955.853	-6.0158
956.232	8.02201
956.611	30.07328
956.99	53.13633
957.37	53.13728
957.749	52.12711
958.128	52.13425
958.506	55.14633
958.885	28.07239
959.264	66.16725
959.643	8.01867
960.021	49.12428
960.4	49.11452
960.778	52.1298
961.156	36.09255
961.535	1.00239
961.913	45.10773
962.291	80.21074
962.669	-7.01805
963.047	2.00518
963.424	10.02597
963.802	50.1258
964.18	54.13781
964.557	63.14793
964.935	33.07996
965.312	10.02642
965.69	27.06819
966.067	22.05502
966.444	-8.02006
966.821	33.08592
967.198	34.0837
967.575	0
967.952	56.13388
968.329	24.05984
968.705	19.04176
969.082	33.08662
969.458	37.09221
969.835	9.02237
970.211	63.16498
970.587	59.14842
970.963	27.07008
971.339	15.03993
971.715	34.08622
972.091	15.03779
972.467	35.08887
972.843	19.04824
973.219	27.06523
973.594	62.16585
973.97	75.17982
974.345	23.05665
974.721	9.02199
975.096	46.11324
975.471	54.13053
975.846	47.11457
976.221	46.12003
976.596	24.05934
976.971	40.10025
977.346	11.0261
977.72	36.09352
978.095	43.11303
978.469	31.0752
978.844	37.09345
979.218	3.00738
979.593	32.07796
979.967	41.10158
980.341	25.05886
980.715	62.15879
981.089	-13.033
981.463	75.17851
981.837	33.08284
982.21	69.16209
982.584	8.01988
982.957	37.09474
983.331	24.05823
983.704	-49.12238
984.078	46.11595
984.451	-7.01761
984.824	47.11717
985.197	41.10103
985.57	45.11446
985.943	17.04237
986.316	60.14885
986.688	46.11224
987.061	74.17779
987.434	48.12662
987.806	78.1918
988.179	55.13337
988.551	79.20271
988.923	36.09022
989.295	-11.02759
989.667	14.03474
990.039	44.11166
990.411	24.05672
990.783	43.10089
991.155	38.0952
991.527	15.03727
991.898	48.1222
992.27	7.01767
992.641	39.09878
993.012	49.11739
993.384	-19.0464
993.755	48.12499
994.126	42.10255
994.497	51.12784
994.868	63.1484
995.239	-6.01486
995.61	2.00518
995.98	71.17675
996.351	26.06575
996.722	55.13242
997.092	23.05617
997.462	28.06781
997.833	90.2145
998.203	17.04183
998.573	30.07586
998.943	42.10145
999.313	24.0593
999.683	41.10177
1000.053	56.13224
1000.423	9.0222
1000.792	58.15305
1001.162	-24.06049
1001.531	52.13041
1001.901	78.19906
1002.27	44.10087
1002.639	45.11728
1003.009	7.01698
1003.378	-21.05458
1003.747	58.14099
1004.116	-18.04464
1004.485	0
1004.853	42.10787
1005.222	36.09145
1005.591	49.11811
1005.959	38.08932
1006.328	3.007
1006.696	56.13898
1007.064	16.04088
1007.433	20.05075
1007.801	39.09627
1008.169	-17.04353
1008.537	33.07534
1008.905	46.11043
1009.273	-5.01251
1009.64	38.09393
1010.008	46.1124
1010.375	-2.00483
1010.743	45.10525
1011.11	18.044
1011.478	34.08524
1011.845	-8.01932
1012.212	24.05637
1012.579	13.0324
1012.946	53.12784
1013.313	60.14372
1013.68	48.10987
1014.047	31.07627
1014.414	41.09961
1014.78	-21.0533
1015.147	62.14992
1015.513	55.13507
1015.88	44.11253
1016.246	36.08869
1016.612	-21.04912
1016.978	59.14666
1017.344	54.13635
1017.71	-1.00246
1018.076	47.11226
1018.442	42.10832
1018.808	24.06127
1019.174	30.07702
1019.539	21.04844
1019.905	37.08922
1020.27	42.10621
1020.636	35.08545
1021.001	7.0171
1021.366	-3.00743
1021.731	-11.02854
1022.096	-4.01038
1022.461	68.16325
1022.826	38.09192
1023.191	43.11371
1023.556	40.0964
1023.92	2.00499
1024.285	32.07956
1024.649	51.12714
1025.014	49.12331
1025.378	60.15307
1025.742	27.06863
1026.107	-16.03721
1026.471	-9.02129
1026.835	51.12931
1027.199	115.28503
1027.562	44.10439
1027.926	-7.01749
1028.29	62.16012
1028.654	41.09657
1029.017	16.03974
1029.381	1.00246
1029.744	-6.01553
1030.107	34.08172
1030.471	5.01214
1030.834	26.06035
1031.197	18.04369
1031.56	13.03129
1031.923	18.04724
1032.286	9.02159
1032.648	100.2429
1033.011	-32.07571
1033.374	51.1205
1033.736	32.08563
1034.099	105.25948
1034.461	-15.03864
1034.823	19.04809
1035.185	48.12241
1035.548	47.11704
1035.91	67.16284
1036.272	37.08518
1036.634	25.0616
1036.995	31.07517
1037.357	47.11653
1037.719	-16.03948
1038.08	20.04827
1038.442	26.06287
1038.803	8.01959
1039.165	48.12409
1039.526	-9.02231
1039.887	7.01724
1040.248	-3.00757
1040.609	-24.06008
1040.97	-9.02271
1041.331	14.03608
1041.692	39.09507
1042.053	44.10273
1042.413	33.07864
1042.774	1.00248
1043.134	76.18357
1043.495	62.15633
1043.855	31.07655
1044.215	84.21135
1044.576	68.16758
1044.936	18.04226
1045.296	49.12371
1045.656	52.12829
1046.016	-13.03196
1046.375	11.02708
1046.735	48.11198
1047.095	44.10487
1047.454	15.03273
1047.814	45.11002
1048.173	-4.00954
1048.533	38.08883
1048.892	25.06212
1049.251	41.10443
1049.61	28.07015
1049.969	102.24618
1050.328	50.11099
1050.687	18.04461
1051.046	-10.02471
1051.405	54.13738
1051.763	-13.03105
1052.122	11.02804
1052.48	-44.10983
1052.839	-2.00484
1053.197	38.09182
1053.555	-18.04102
1053.914	24.05904
1054.272	16.03891
1054.63	23.05796
1054.988	24.05862
1055.345	29.06441
1055.703	70.16971
1056.061	-3.00785
1056.419	26.06826
1056.776	42.10206
1057.134	24.05709
1057.491	13.03301
1057.848	-9.02267
1058.206	-4.0097
1058.563	32.0723
1058.92	10.02332
1059.277	51.12682
1059.634	46.10964
1059.991	37.09029
1060.348	49.11412
1060.704	19.04663
1061.061	35.08228
1061.418	-16.03971
1061.774	17.04289
1062.131	11.02975
1062.487	-20.04838
1062.843	24.06041
1063.199	30.07645
1063.555	63.15007
1063.911	-21.05374
1064.267	20.04271
1064.623	8.01995
1064.979	53.12678
1065.335	19.04594
1065.691	-5.01222
1066.046	-32.07118
1066.402	74.17325
1066.757	20.05101
1067.112	10.02483
1067.468	98.24054
1067.823	31.07638
1068.178	44.1072
1068.533	14.03473
1068.888	42.10145
1069.243	-2.00504
1069.598	13.03235
1069.952	10.02347
1070.307	50.12742
1070.662	-9.02187
1071.016	34.07835
1071.371	26.06037
1071.725	13.03165
1072.079	-22.054
1072.434	27.06731
1072.788	51.12404
1073.142	90.22368
1073.496	-12.02924
1073.85	0
1074.203	107.2651
1074.557	33.08893
1074.911	52.12422
1075.265	64.15078
1075.618	-20.0496
1075.971	43.10392
1076.325	1.0026
1076.678	54.12772
1077.031	26.06083
1077.385	71.16091
1077.738	9.02103
1078.091	51.11948
1078.444	16.03805
1078.796	-9.02248
1079.149	21.05285
1079.502	88.21415
1079.855	59.14102
1080.207	77.19099
1080.56	8.02101
1080.912	32.07869
1081.264	30.07366
1081.617	80.19948
1081.969	33.08548
1082.321	-18.04485
1082.673	28.0664
1083.025	19.04633
1083.377	74.16289
1083.728	14.03315
1084.08	35.08843
1084.432	29.07161
1084.783	38.09033
1085.135	38.09684
1085.486	38.0905
1085.838	9.02272
1086.189	-23.05705
1086.54	15.03643
1086.891	28.07249
1087.242	12.02955
1087.593	33.08137
1087.944	6.01384
1088.295	17.03961
1088.646	48.11908
1088.996	-23.05694
1089.347	2.00502
1089.698	9.02194
1090.048	-24.06275
1090.398	19.0447
1090.749	62.15066
1091.099	74.19197
1091.449	11.02791
1091.799	41.1044
1092.149	46.11665
1092.499	35.08659
1092.849	37.09604
1093.199	12.03029
1093.548	59.14484
1093.898	21.05358
1094.248	14.03637
1094.597	45.11848
1094.947	-13.03518
1095.296	-19.0479
1095.645	49.12836
1095.994	14.03412
1096.343	11.02815
1096.692	112.30246
1097.041	-35.09607
1097.39	57.14626
1097.739	3.00793
1098.088	15.04074
1098.437	24.06429
1098.785	-39.10623
1099.134	42.11191
1099.482	43.11926
1099.83	5.01323
1100.179	43.11482
1100.527	-27.07286
1100.875	-11.02964
1101.223	-25.06755
1101.571	13.03638
1101.919	22.05922
1102.267	24.06802
1102.615	9.02902
1102.962	4.01288
1103.31	3.00967
1103.658	9.02904
