Data from N2 R0 150C sample9_Subt2__1__13-51-38-100.txt Node

Date: Tue Aug 19 13:51:38 PDT 2025
User: uwsun
Spectrometer: HDX01956
Trigger mode: 0
Integration Time (sec): 5.000000E-1
Scans to average: 1
Nonlinearity correction enabled: true
Boxcar width: 0
Storing dark spectrum: false
XAxis mode: Wavelengths
Number of Pixels in Spectrum: 2068
>>>>>Begin Spectral Data<<<<<
194.03	207.58991
194.578	206.65644
195.127	213.6691
195.676	207.65316
196.225	230.61723
196.773	231.64381
197.321	361.99249
197.87	469.19101
198.418	442.11461
198.966	492.25984
199.513	446.09498
200.061	467.16916
200.609	513.31207
201.156	442.96223
201.704	483.20057
202.251	516.337
202.798	486.2362
203.345	559.33403
203.892	478.17885
204.438	495.15901
204.985	534.24972
205.532	482.24022
206.078	539.28576
206.624	536.28517
207.17	496.13117
207.716	515.22328
208.262	498.96703
208.808	526.27979
209.354	519.23705
209.899	503.22581
210.445	536.30463
210.99	524.24254
211.535	530.22242
212.08	523.20218
212.625	520.27082
213.17	537.31557
213.715	536.19645
214.259	505.15288
214.804	491.17603
215.348	490.09497
215.892	520.21074
216.436	531.19722
216.98	569.23015
217.524	527.21235
218.068	545.3416
218.612	477.17444
219.155	500.14992
219.698	496.15659
220.242	466.13615
220.785	482.09919
221.328	457.10941
221.871	416.02871
222.414	487.1797
222.956	461.10616
223.499	410.92171
224.041	505.14593
224.583	460.9661
225.126	449.97892
225.668	407.97747
226.21	424.04853
226.751	453.99098
227.293	454.03273
227.835	454.09532
228.376	483.08573
228.918	490.20318
229.459	477.16236
230	468.08692
230.541	511.16613
231.082	390.92687
231.622	435.98691
232.163	466.10736
232.704	428.03831
233.244	466.1277
233.784	439.05288
234.324	471.03879
234.864	391.88747
235.404	489.13018
235.944	443.02856
236.484	460.10773
237.023	486.12969
237.563	435.99411
238.102	477.08798
238.641	453.12099
239.18	484.11573
239.719	455.11485
240.258	426.95296
240.797	497.16551
241.335	466.11542
241.874	519.99941
242.412	455.08387
242.95	462.08689
243.488	499.11947
244.026	476.0715
244.564	467.95377
245.102	468.03367
245.64	509.17927
246.177	499.09974
246.715	508.18647
247.252	474.0683
247.789	445.84082
248.326	447.06682
248.863	522.12863
249.4	519.14914
249.936	425.87115
250.473	510.16548
251.009	527.18722
251.546	477.03535
252.082	477.02919
252.618	488.06219
253.154	516.21461
253.69	447.98983
254.226	459.07291
254.761	532.18017
255.297	456.98217
255.832	514.17322
256.367	533.22325
256.903	524.10734
257.438	523.1878
257.972	524.146
258.507	511.15441
259.042	558.18652
259.576	507.08656
260.111	510.14629
260.645	480.01021
261.179	538.21278
261.713	528.15573
262.247	515.16393
262.781	500.03714
263.315	528.25925
263.849	570.37455
264.382	529.17375
264.915	571.30482
265.449	570.36419
265.982	562.24372
266.515	500.17689
267.048	585.21513
267.58	544.15771
268.113	490.04667
268.646	559.3325
269.178	471.04139
269.71	571.21131
270.243	524.15902
270.775	466.14964
271.307	550.27112
271.838	531.2021
272.37	527.25182
272.902	548.20513
273.433	496.05082
273.965	521.22853
274.496	503.1984
275.027	505.2142
275.558	566.31953
276.089	531.27486
276.62	560.36311
277.15	531.24633
277.681	541.15007
278.211	462.07972
278.741	532.14882
279.272	599.30779
279.802	535.27912
280.332	521.19328
280.861	562.30146
281.391	548.20261
281.921	534.24338
282.45	597.42263
282.98	592.46728
283.509	512.11641
284.038	603.31653
284.567	553.22911
285.096	575.33659
285.625	572.26167
286.153	526.18714
286.682	534.18707
287.21	570.32105
287.739	613.39078
288.267	514.20755
288.795	511.27302
289.323	602.36497
289.851	617.38798
290.378	588.27318
290.906	532.25183
291.433	571.35126
291.961	606.31276
292.488	581.37283
293.015	642.44516
293.542	619.49421
294.069	580.35273
294.596	598.39749
295.122	576.31757
295.649	627.31061
296.175	636.47591
296.702	574.32613
297.228	585.3497
297.754	658.42554
298.28	676.45275
298.806	582.33718
299.332	595.27602
299.857	631.35449
300.383	683.60904
300.908	627.44784
301.433	644.46561
301.958	656.41698
302.483	651.53184
303.008	678.56724
303.533	631.53178
304.058	693.53173
304.582	680.51578
305.107	656.61592
305.631	678.4408
306.155	671.47813
306.679	626.37747
307.203	697.52071
307.727	672.49485
308.251	706.62167
308.775	720.60303
309.298	750.68775
309.822	699.64547
310.345	721.60757
310.868	727.61161
311.391	722.64258
311.914	723.68485
312.437	761.60579
312.96	743.6191
313.482	740.6197
314.005	765.76947
314.527	789.89893
315.049	716.6584
315.571	795.65415
316.093	819.85244
316.615	792.7605
317.137	817.62762
317.659	818.82432
318.18	795.73321
318.702	810.70591
319.223	882.67233
319.744	860.75503
320.265	825.82517
320.786	835.88711
321.307	881.97008
321.828	897.83928
322.348	871.86534
322.869	902.94046
323.389	872.16431
323.909	879.81125
324.43	841.81499
324.95	907.86482
325.47	901.96769
325.989	972.02062
326.509	914.81732
327.029	952.89296
327.548	962.91552
328.067	994.12485
328.587	984.14045
329.106	972.91218
329.625	964.20445
330.144	1039.09948
330.662	1014.01951
331.181	1046.11413
331.7	1076.17882
332.218	1158.13373
332.736	1160.29382
333.255	1097.17859
333.773	1126.24715
334.291	1138.37557
334.808	1172.22298
335.326	1184.24797
335.844	1134.25064
336.361	1187.52197
336.879	1251.44487
337.396	1210.4184
337.913	1215.30977
338.43	1229.28805
338.947	1284.46656
339.464	1299.26462
339.981	1297.50169
340.497	1271.53177
341.014	1303.58726
341.53	1304.34055
342.046	1320.59267
342.562	1384.75024
343.078	1393.59947
343.594	1408.64104
344.11	1378.57202
344.626	1410.80456
345.141	1454.54484
345.657	1484.5478
346.172	1487.75919
346.687	1502.66068
347.202	1489.56386
347.717	1572.83386
348.232	1542.92832
348.747	1563.71472
349.261	1630.64867
349.776	1614.81919
350.29	1604.99386
350.805	1664.07794
351.319	1617.81494
351.833	1600.66293
352.347	1585.76465
352.861	1689.83282
353.374	1628.71431
353.888	1660.9361
354.401	1709.8251
354.915	1722.77177
355.428	1713.06735
355.941	1798.95988
356.454	1833.8191
356.967	1799.94944
357.48	1770.83399
357.993	1824.13499
358.505	1771.04396
359.018	1905.17373
359.53	1880.13755
360.042	1907.82471
360.554	1876.08878
361.066	1943.20817
361.578	1891.7322
362.09	1862.00383
362.602	1920.80617
363.113	2041.10365
363.625	1956.90805
364.136	2006.84264
364.647	2044.14896
365.158	2044.03886
365.669	2052.15786
366.18	2086.11171
366.691	2168.92877
367.201	2097.20516
367.712	2124.04286
368.222	2057.00158
368.733	2213.96743
369.243	2236.98474
369.753	2267.20457
370.263	2281.31229
370.773	2289.34817
371.282	2314.24777
371.792	2519.30614
372.301	2475.40516
372.811	2471.69474
373.32	2496.84898
373.829	2528.29583
374.338	2712.99726
374.847	2777.21018
375.356	2777.3137
375.865	2873.75539
376.373	3085.05546
376.882	3186.57055
377.39	3235.30376
377.898	3285.42594
378.407	3398.83851
378.915	3563.53989
379.423	3633.99245
379.93	3777.63101
380.438	3957.02157
380.946	4114.72289
381.453	4392.62538
381.96	4451.47884
382.468	4867.22771
382.975	5148.0729
383.482	5255.48939
383.989	5340.23954
384.495	5557.47318
385.002	5856.9237
385.509	6197.36221
386.015	6577.54486
386.521	6852.02747
387.028	7187.03646
387.534	7316.99099
388.04	7550.32885
388.546	7776.39341
389.051	8043.65091
389.557	8790.94287
390.063	9584.97885
390.568	9702.28587
391.073	10052.69677
391.578	10592.58001
392.084	10664.53121
392.589	10968.53491
393.093	11711.14186
393.598	13084.68732
394.103	14170.35006
394.607	15468.98192
395.112	16893.63806
395.616	17700.15506
396.12	19149.17514
396.624	21112.76717
397.128	22773.35364
397.632	25390.10587
398.136	27574.08127
398.639	28989.1613
399.143	32431.91186
399.646	36252.89384
400.15	39926.24945
400.653	44151.80454
401.156	49329.65971
401.659	56825.89715
402.162	57651.43319
402.664	54480.21957
403.167	49329.08451
403.67	22278.45323
404.172	2696.20453
404.674	0
405.176	0
405.678	0
406.18	0
406.682	0
407.184	0
407.686	25783.58453
408.187	43316.52985
408.688	51225.60928
409.19	54389.01922
409.691	56215.4214
410.192	57270.57019
410.693	57845.40442
411.194	58219.2365
411.694	58633.01717
412.195	59215.68848
412.696	59364.60701
413.196	59341.61941
413.696	59632.46864
414.196	59367.6054
414.696	59763.40624
415.196	59913.34014
415.696	58952.52328
416.196	47634.91965
416.695	36355.50047
417.195	30706.2201
417.694	29241.82417
418.194	27762.63306
418.693	25958.39227
419.192	25035.99904
419.691	24745.81891
420.19	24194.81368
420.688	23656.83258
421.187	22789.45725
421.685	21342.6409
422.184	19369.70206
422.682	16684.1388
423.18	14022.70765
423.678	12394.6429
424.176	11549.95079
424.674	10798.13794
425.172	10184.01642
425.669	9691.15714
426.167	9167.78327
426.664	8419.26272
427.161	7668.32986
427.659	7150.30358
428.156	6631.67899
428.652	6214.66319
429.149	6014.48909
429.646	5784.1136
430.143	5371.75531
430.639	5066.91478
431.135	4902.45468
431.632	4650.07736
432.128	4284.62538
432.624	4086.18909
433.12	3880.51292
433.616	3836.35576
434.111	3618.90927
434.607	3434.07974
435.103	3442.36662
435.598	3320.41655
436.093	3225.06439
436.588	2994.78663
437.083	2937.89093
437.578	2710.06837
438.073	2721.5281
438.568	2613.33733
439.062	2577.77573
439.557	2472.15883
440.051	2339.93568
440.546	2227.94836
441.04	2251.2225
441.534	2275.49467
442.028	2165.12475
442.522	2090.11411
443.015	2119.7774
443.509	2019.16261
444.002	1964.13197
444.496	2009.7741
444.989	1930.06155
445.482	1958.18686
445.975	1968.91925
446.468	1930.64662
446.961	1929.68653
447.454	1802.70912
447.947	1800.93415
448.439	1643.76693
448.931	1792.76719
449.424	1703.98718
449.916	1740.9512
450.408	1709.67793
450.9	1725.95279
451.392	1654.9764
451.884	1562.58371
452.375	1589.92024
452.867	1584.55475
453.358	1563.59031
453.849	1524.35313
454.341	1539.53635
454.832	1430.31089
455.323	1497.726
455.814	1483.5454
456.304	1469.51856
456.795	1457.50712
457.285	1357.27746
457.776	1411.40576
458.266	1327.44925
458.756	1339.46046
459.247	1351.50357
459.737	1308.46849
460.226	1309.30957
460.716	1226.36613
461.206	1302.46309
461.695	1244.45339
462.185	1187.22594
462.674	1256.32181
463.163	1119.00375
463.653	1221.07465
464.142	1184.31856
464.63	1167.335
465.119	1089.07465
465.608	1145.17952
466.096	1113.99221
466.585	1093.08229
467.073	1071.11308
467.561	1013.04034
468.05	1073.0707
468.538	1036.12816
469.026	953.95156
469.513	1132.1303
470.001	986.89165
470.489	1032.07346
470.976	1019.99397
471.463	878.89527
471.951	855.85465
472.438	855.75703
472.925	843.72768
473.412	831.77581
473.899	798.61145
474.385	832.78599
474.872	866.8
475.359	792.7314
475.845	809.50574
476.331	777.47042
476.817	774.6721
477.303	711.49691
477.789	756.63249
478.275	717.60194
478.761	715.56856
479.247	746.52766
479.732	748.68462
480.218	680.60971
480.703	677.5386
481.188	668.31901
481.673	629.33743
482.158	650.30623
482.643	600.39449
483.128	644.36372
483.612	624.34893
484.097	562.26902
484.581	545.18371
485.066	585.33416
485.55	517.09133
486.034	502.02785
486.518	563.25706
487.002	589.36863
487.486	551.26512
487.969	570.31792
488.453	540.26624
488.936	521.13199
489.42	468.99156
489.903	485.15148
490.386	528.84156
490.869	476.99617
491.352	466.08397
491.835	476.95562
492.318	550.20852
492.8	482.97748
493.283	493.20409
493.765	434.03475
494.247	420.95076
494.73	402.8748
495.212	444.03027
495.694	435.98851
496.175	402.94471
496.657	447.02108
497.139	408.71869
497.62	380.89094
498.102	407.9834
498.583	366.89319
499.064	413.92255
499.545	410.92171
500.026	374.83528
500.507	376.86398
500.988	421.01996
501.469	349.86707
501.949	379.92095
502.43	337.80233
502.91	373.78288
503.39	354.86263
503.87	361.85087
504.35	305.71388
504.83	330.73216
505.31	339.80988
505.79	385.91622
506.269	396.91755
506.749	331.7571
507.228	358.84134
507.707	318.71053
508.187	323.75807
508.666	338.82888
509.145	346.81473
509.623	262.61793
510.102	330.79666
510.581	333.78885
511.059	339.84377
511.538	335.84923
512.016	329.7935
512.494	299.72796
512.972	271.64944
513.45	314.73997
513.928	357.87043
514.406	338.82488
514.884	301.77252
515.361	323.77873
515.839	332.76503
516.316	334.8057
516.793	296.74626
517.27	264.63736
517.747	328.83606
518.224	310.72828
518.701	337.76865
519.178	260.64542
519.654	273.65298
520.131	298.73405
520.607	309.76072
521.083	308.71228
521.56	341.81434
522.036	284.63876
522.512	280.68235
522.987	286.68994
523.463	301.7268
523.939	292.71742
524.414	263.61583
524.89	274.65725
525.365	300.69406
525.84	313.76033
526.315	303.73853
526.79	261.60325
527.265	312.73012
527.74	244.60195
528.215	318.75958
528.689	274.62384
529.164	279.61709
529.638	294.75785
530.112	257.62222
530.587	280.6184
531.061	255.62665
531.534	219.53541
532.008	275.67254
532.482	239.55262
532.956	252.646
533.429	258.63227
533.903	237.53579
534.376	240.54423
534.849	281.66312
535.322	269.64489
535.795	265.65314
536.268	204.49846
536.741	265.64182
537.213	209.49648
537.686	222.55492
538.158	235.54035
538.631	249.60784
539.103	243.56566
539.575	251.53497
540.047	261.58691
540.519	234.57197
540.991	257.6332
541.463	265.64978
541.934	260.60917
542.406	240.5862
542.877	264.61684
543.348	246.6042
543.82	227.56053
544.291	241.57117
544.762	239.57625
545.233	215.54876
545.703	246.56214
546.174	285.67334
546.645	271.66227
547.115	322.78526
547.585	250.58666
548.056	311.76649
548.526	346.82707
548.996	276.66758
549.466	297.72337
549.935	345.82169
550.405	343.76147
550.875	315.74997
551.344	314.76176
551.814	326.76138
552.283	309.6743
552.752	314.74371
553.221	398.88924
553.69	298.67024
554.159	366.90283
554.628	352.79978
555.096	359.91262
555.565	366.82922
556.033	331.78139
556.502	311.75802
556.97	315.71036
557.438	278.6671
557.906	301.71967
558.374	267.62715
558.842	202.49431
559.31	253.58406
559.777	188.46688
560.245	266.63952
560.712	245.58669
561.18	261.60636
561.647	252.5821
562.114	173.41318
562.581	214.53744
563.048	236.56094
563.514	218.54787
563.981	197.46654
564.448	226.52765
564.914	190.46028
565.381	208.49078
565.847	250.60288
566.313	234.56345
566.779	203.47051
567.245	259.62352
567.711	182.45445
568.176	238.55697
568.642	227.58305
569.108	200.50823
569.573	269.65641
570.038	272.605
570.504	201.46846
570.969	262.67374
571.434	262.60953
571.899	281.68824
572.363	208.49496
572.828	317.73731
573.293	280.66192
573.757	252.59412
574.222	320.74414
574.686	303.71281
575.15	281.68517
575.614	295.69507
576.078	269.65494
576.542	278.65312
577.006	279.65022
577.469	303.75611
577.933	355.82535
578.396	287.69117
578.86	281.67929
579.323	311.76395
579.786	281.63188
580.249	292.69588
580.712	256.63896
581.175	231.5846
581.637	249.58442
582.1	294.67099
582.563	279.61967
583.025	273.67731
583.487	341.72109
583.95	367.82117
584.412	345.75094
584.874	275.67479
585.336	268.65043
585.797	293.65643
586.259	285.68662
586.721	270.64987
587.182	291.68831
587.643	278.64955
588.105	261.63736
588.566	250.54637
589.027	303.74623
589.488	278.65337
589.949	309.75708
590.41	332.6776
590.87	284.65705
591.331	298.65732
591.791	343.81316
592.252	322.75823
592.712	319.77026
593.172	326.75719
593.632	382.85455
594.092	364.8267
594.552	332.7366
595.011	325.76187
595.471	362.81149
595.931	380.85358
596.39	388.93804
596.849	367.864
597.308	426.93016
597.768	379.96651
598.227	357.85189
598.685	389.88257
599.144	453.04519
599.603	472.10572
600.062	452.9677
600.52	466.03482
600.978	461.06832
601.437	502.11306
601.895	478.00379
602.353	524.13055
602.811	605.3131
603.269	570.32209
603.727	627.44383
604.184	683.47819
604.642	676.56385
605.099	681.48702
605.557	749.69683
606.014	817.65551
606.471	811.86921
606.928	845.70763
607.385	930.06974
607.842	902.84248
608.299	1049.15057
608.755	1014.15648
609.212	1078.06701
609.668	1054.06349
610.125	1150.36689
610.581	1188.3591
611.037	1240.3489
611.493	1212.39128
611.949	1285.64443
612.405	1214.03454
612.861	1320.52864
613.316	1316.58841
613.772	1388.58947
614.227	1423.71669
614.683	1436.42064
615.138	1388.62117
615.593	1507.7484
616.048	1490.64339
616.503	1523.9081
616.958	1580.09441
617.412	1554.84083
617.867	1511.6047
618.321	1596.4969
618.776	1620.72133
619.23	1484.72588
619.684	1597.74232
620.138	1574.78175
620.592	1507.88435
621.046	1496.72349
621.5	1567.9852
621.954	1526.65632
622.407	1458.54923
622.861	1446.79042
623.314	1419.55496
623.768	1424.65035
624.221	1360.16628
624.674	1326.48315
625.127	1319.5056
625.58	1307.41819
626.033	1298.30368
626.485	1289.54643
626.938	1303.53357
627.39	1252.42675
627.843	1202.33073
628.295	1137.2112
628.747	1196.38379
629.199	1139.19733
629.651	1049.07634
630.103	1072.13427
630.555	1086.95918
631.006	1084.17712
631.458	1042.14146
631.909	997.97381
632.361	976.00113
632.812	951.95797
633.263	918.75085
633.714	943.76606
634.165	1016.17006
634.616	904.93229
635.067	890.73919
635.518	912.92759
635.968	913.60911
636.419	874.69982
636.869	879.85578
637.319	811.70092
637.769	867.75534
638.219	862.80757
638.669	934.96895
639.119	870.91396
639.569	840.81708
640.019	842.73689
640.468	836.67593
640.918	850.81526
641.367	862.72891
641.816	935.8561
642.265	906.84982
642.714	912.85704
643.163	963.96762
643.612	977.10685
644.061	997.87931
644.51	977.99625
644.958	965.85885
645.406	980.05619
645.855	995.13201
646.303	1015.0425
646.751	998.0041
647.199	1004.97798
647.647	942.91037
648.095	1062.12018
648.543	1033.81931
648.99	1026.09628
649.438	1067.14635
649.885	1039.22448
650.333	1086.79548
650.78	1084.27268
651.227	1121.35701
651.674	1044.03331
652.121	1065.21276
652.568	1064.23657
653.015	1089.32861
653.461	1038.13132
653.908	1037.08972
654.354	1036.11198
654.801	949.96783
655.247	1014.93612
655.693	983.25821
656.139	954.01997
656.585	934.96293
657.031	975.01118
657.477	920.77586
657.922	978.98434
658.368	901.97514
658.813	921.86477
659.259	895.92498
659.704	828.73317
660.149	876.84904
660.594	891.89425
661.039	858.75569
661.484	830.77023
661.929	803.70115
662.373	794.85213
662.818	788.79855
663.262	758.67654
663.707	732.70616
664.151	768.717
664.595	712.57736
665.039	782.77626
665.483	715.68641
665.927	739.59201
666.371	735.58136
666.814	709.56256
667.258	744.65718
667.701	763.49597
668.145	689.58859
668.588	661.50524
669.031	668.49331
669.474	645.45576
669.917	707.4402
670.36	712.64522
670.803	673.49244
671.245	661.31157
671.688	640.44711
672.13	638.35629
672.573	621.45723
673.015	675.51919
673.457	587.21983
673.899	616.3894
674.341	590.34909
674.783	567.29099
675.225	537.25111
675.666	647.484
676.108	595.22165
676.549	585.30517
676.991	673.40751
677.432	636.23222
677.873	574.2534
678.314	557.27074
678.755	596.37101
679.196	552.2119
679.637	536.23873
680.078	556.22684
680.518	553.22047
680.959	604.37892
681.399	554.31477
681.839	552.27474
682.28	565.32519
682.72	533.17822
683.16	465.10647
683.6	524.13345
684.039	513.02931
684.479	495.173
684.919	467.06428
685.358	479.16507
685.798	502.25713
686.237	517.19594
686.676	503.10533
687.115	438.99834
687.554	452.0348
687.993	467.99916
688.432	464.03037
688.871	514.13309
689.309	495.13183
689.748	437.88036
690.186	428.98539
690.625	423.96163
691.063	513.18151
691.501	457.07615
691.939	401.97
692.377	480.11967
692.815	433.00846
693.253	498.14577
693.69	421.91361
694.128	480.12712
694.565	442.01551
695.003	452.10278
695.44	471.07039
695.877	461.05481
696.314	453.93819
696.751	387.85699
697.188	445.99524
697.625	460.01004
698.061	432.00988
698.498	480.10386
698.934	473.10007
699.371	446.02472
699.807	448.02111
700.243	424.99795
700.679	471.03142
701.115	447.00631
701.551	453.02816
701.987	480.04563
702.422	476.09639
702.858	467.06214
703.294	493.0656
703.729	481.12969
704.164	492.1369
704.599	469.01017
705.035	501.09631
705.47	502.18893
705.904	490.11387
706.339	461.00608
706.774	468.05604
707.209	498.10646
707.643	531.21622
708.078	496.17425
708.512	533.27773
708.946	472.07028
709.38	502.13059
709.814	497.08067
710.248	514.18029
710.682	552.24742
711.116	513.18574
711.549	490.19431
711.983	517.14185
712.416	553.23267
712.85	508.20918
713.283	531.20112
713.716	568.32731
714.149	564.25074
714.582	628.3298
715.015	550.27616
715.448	559.31926
715.881	593.19836
716.313	587.29452
716.746	590.31444
717.178	577.30108
717.61	573.34293
718.043	636.45671
718.475	612.36857
718.907	660.52802
719.339	642.36599
719.77	642.42098
720.202	628.46651
720.634	740.66184
721.065	656.44295
721.497	690.55013
721.928	713.61001
722.359	680.54012
722.79	787.73168
723.221	691.57803
723.652	751.72061
724.083	810.66111
724.514	796.64485
724.945	749.60391
725.375	834.76571
725.806	831.82013
726.236	806.83152
726.666	865.80868
727.096	907.95747
727.526	895.0012
727.956	917.81695
728.386	918.96307
728.816	903.00009
729.246	974.074
729.675	968.07809
730.105	941.97202
730.534	977.96476
730.964	1042.20844
731.393	1075.20494
731.822	1140.42154
732.251	1061.26189
732.68	1137.18198
733.109	1103.25941
733.537	1208.38891
733.966	1219.50738
734.395	1176.21873
734.823	1257.22546
735.251	1328.56587
735.68	1325.63586
736.108	1325.65163
736.536	1410.55218
736.964	1413.5454
737.392	1425.77129
737.82	1441.66435
738.247	1516.72143
738.675	1594.79272
739.102	1570.97449
739.53	1604.07147
739.957	1656.16985
740.384	1713.99244
740.811	1661.06709
741.238	1785.09074
741.665	1765.85832
742.092	1888.08341
742.519	1832.19174
742.945	1876.10894
743.372	1904.27369
743.798	1997.49867
744.225	2042.18743
744.651	2081.44254
745.077	2111.44019
745.503	2245.40622
745.929	2258.34617
746.355	2303.51632
746.781	2323.53936
747.207	2404.4258
747.632	2381.59221
748.058	2480.66
748.483	2567.29328
748.908	2578.65288
749.334	2632.65523
749.759	2636.35363
750.184	2725.53584
750.609	2768.68925
751.033	2966.43391
751.458	2986.15799
751.883	3018.72509
752.307	3048.499
752.732	3151.91534
753.156	3215.80837
753.58	3286.50938
754.005	3259.83579
754.429	3365.45036
754.853	3430.72479
755.277	3449.35664
755.7	3512.74403
756.124	3517.74588
756.548	3706.44774
756.971	3707.45587
757.394	3763.97113
757.818	3895.85699
758.241	3872.79627
758.664	3906.80011
759.087	3973.96898
759.51	4107.51056
759.933	4160.36236
760.356	4249.67407
760.778	4351.47378
761.201	4315.29633
761.623	4348.16883
762.046	4317.10066
762.468	4457.97476
762.89	4459.26119
763.312	4573.2759
763.734	4634.04968
764.156	4623.25252
764.578	4672.77741
765	4734.13038
765.421	4709.47027
765.843	4785.58957
766.264	4678.02873
766.686	4644.25993
767.107	4728.01345
767.528	4853.3634
767.949	4898.33209
768.37	4861.94479
768.791	4873.95961
769.212	4803.34324
769.632	4867.7461
770.053	4839.66089
770.473	4904.96376
770.894	4809.15118
771.314	4943.67882
771.734	4848.7357
772.154	4820.33708
772.575	4845.59358
772.994	4889.50927
773.414	4823.87117
773.834	4794.25977
774.254	4789.18412
774.673	4782.99828
775.093	4804.1602
775.512	4685.1479
775.931	4693.38707
776.351	4673.24124
776.77	4611.19092
777.189	4580.96008
777.607	4545.53357
778.026	4591.36894
778.445	4388.52384
778.864	4470.57418
779.282	4456.14717
779.701	4318.48021
780.119	4383.73161
780.537	4293.52243
780.955	4146.5692
781.373	4104.46111
781.791	4116.83222
782.209	4152.90055
782.627	4084.09719
783.045	4059.06799
783.462	3986.81771
783.88	3947.89688
784.297	3906.71151
784.715	3849.91243
785.132	3795.51892
785.549	3686.7622
785.966	3629.7561
786.383	3677.59983
786.8	3649.22388
787.217	3429.42243
787.633	3469.77351
788.05	3454.30741
788.466	3282.21174
788.883	3373.88422
789.299	3262.51219
789.715	3285.62507
790.131	3111.79793
790.547	3041.68378
790.963	3137.76499
791.379	3041.85006
791.795	2959.18291
792.21	2946.31013
792.626	2777.3761
793.041	2813.70809
793.457	2765.68858
793.872	2720.34029
794.287	2670.47578
794.702	2601.54929
795.117	2566.67071
795.532	2569.72285
795.947	2464.38632
796.362	2429.35857
796.776	2442.15839
797.191	2325.46714
797.605	2273.33413
798.02	2203.33927
798.434	2142.8408
798.848	2145.41263
799.262	2087.4247
799.676	2064.21501
800.09	2060.38625
800.504	1938.11241
800.918	1930.99875
801.331	1822.3123
801.745	1839.84974
802.158	1763.12397
802.572	1743.92728
802.985	1657.85504
803.398	1668.83871
803.811	1624.00215
804.224	1594.86936
804.637	1579.78132
805.05	1512.55234
805.462	1504.75865
805.875	1418.86843
806.288	1407.63595
806.7	1408.74009
807.112	1294.3001
807.525	1298.51491
807.937	1252.46461
808.349	1217.45194
808.761	1219.40791
809.173	1123.22104
809.584	1094.21131
809.996	1077.20014
810.408	1044.28254
810.819	1109.15969
811.231	1078.39141
811.642	1075.2
812.053	1086.20908
812.464	1039.09471
812.875	1044.24333
813.286	965.13136
813.697	952.87893
814.108	853.80714
814.519	885.67355
814.929	808.80868
815.34	840.81012
815.75	811.82766
816.16	786.72334
816.571	696.61269
816.981	702.47438
817.391	719.5661
817.801	700.5925
818.211	637.35622
818.62	690.51653
819.03	626.39301
819.44	608.44582
819.849	602.37821
820.259	575.3387
820.668	529.22132
821.077	576.33603
821.486	528.17565
821.895	532.20559
822.304	492.22275
822.713	502.11767
823.122	516.20283
823.531	459.03675
823.939	462.06747
824.348	489.12212
824.756	453.07663
825.164	430.01658
825.573	471.13405
825.981	404.95274
826.389	356.86556
826.797	364.86676
827.205	358.80154
827.612	397.94187
828.02	324.74451
828.428	348.85939
828.835	347.88275
829.243	372.86162
829.65	289.70283
830.057	334.78954
830.464	249.59649
830.871	328.75943
831.278	286.67191
831.685	300.65674
832.092	261.6319
832.499	234.50643
832.905	275.67853
833.312	248.56008
833.718	272.6641
834.124	213.48075
834.531	230.56867
834.937	196.48994
835.343	263.62498
835.749	219.49772
836.155	201.51897
836.561	245.59741
836.966	223.5389
837.372	217.54565
837.777	201.50089
838.183	184.4052
838.588	144.35383
838.993	182.43958
839.399	167.40814
839.804	150.3668
840.209	225.57205
840.613	190.42367
841.018	140.35237
841.423	201.50887
841.828	177.44875
842.232	196.47821
842.637	201.47417
843.041	180.46258
843.445	151.37916
843.849	98.24418
844.253	152.36282
844.657	132.33592
845.061	138.31777
845.465	125.30493
845.869	146.34262
846.272	110.27229
846.676	139.33402
847.079	174.44561
847.483	101.2517
847.886	137.32783
848.289	101.27147
848.692	127.32257
849.095	182.43842
849.498	137.3424
849.901	101.23355
850.304	123.29792
850.707	82.20964
851.109	96.2418
851.512	142.35316
851.914	122.31507
852.316	78.1971
852.718	90.23596
853.121	106.26267
853.523	132.31545
853.925	106.28036
854.326	68.17158
854.728	101.26323
855.13	111.29087
855.531	123.30072
855.933	63.15162
856.334	68.17281
856.736	88.20256
857.137	90.21212
857.538	97.24864
857.939	97.24515
858.34	96.23598
858.741	117.30597
859.142	100.24363
859.542	99.264
859.943	73.18357
860.343	80.20121
860.744	53.13117
861.144	36.08859
861.544	88.21743
861.945	97.25202
862.345	77.19015
862.745	116.29385
863.145	90.2164
863.544	100.25413
863.944	43.1029
864.344	91.2276
864.743	59.14725
865.143	85.22062
865.542	103.24318
865.941	91.22966
866.34	76.18419
866.74	60.16182
867.139	75.1848
867.537	79.20264
867.936	47.11607
868.335	86.22133
868.734	119.30961
869.132	100.2377
869.531	29.07072
869.929	83.19558
870.327	96.23467
870.726	45.11272
871.124	102.24282
871.522	82.2114
871.92	101.25252
872.318	67.16618
872.715	55.13637
873.113	50.12522
873.511	127.32188
873.908	37.09673
874.306	67.17102
874.703	63.15911
875.1	72.18549
875.497	76.18723
875.894	40.10144
876.291	48.11956
876.688	111.29147
877.085	52.12617
877.482	28.07133
877.878	78.19152
878.275	54.14018
878.671	92.20829
879.068	50.12291
879.464	64.15709
879.86	56.1349
880.256	57.14257
880.652	55.14221
881.048	68.16962
881.444	20.0482
881.84	57.14667
882.236	38.09691
882.631	103.25799
883.027	55.13422
883.422	38.09858
883.817	87.22542
884.213	96.24947
884.608	74.18579
885.003	75.18541
885.398	80.20546
885.793	31.07916
886.188	78.19927
886.582	45.11543
886.977	35.08516
887.371	40.10144
887.766	34.08695
888.16	42.10647
888.554	42.10457
888.949	43.1091
889.343	47.11602
889.737	66.18015
890.131	0
890.525	55.14236
890.918	9.02296
891.312	16.03865
891.706	-22.05817
892.099	35.08946
892.492	105.23157
892.886	8.01997
893.279	30.07831
893.672	14.0358
894.065	54.1367
894.458	85.21796
894.851	78.19287
895.244	36.09326
895.637	96.23493
896.029	68.16826
896.422	74.18244
896.814	34.08591
897.206	32.07811
897.599	71.17585
897.991	17.04189
898.383	83.2018
898.775	28.06494
899.167	43.1038
899.559	54.13801
899.951	40.09618
900.342	15.03853
900.734	66.16897
901.125	47.12475
901.517	80.20013
901.908	76.1835
902.299	80.20172
902.69	28.06814
903.082	31.07658
903.473	27.06699
903.863	48.12431
904.254	52.12479
904.645	99.24788
905.036	45.11198
905.426	70.16177
905.817	52.13051
906.207	42.10336
906.597	10.02387
906.987	81.21168
907.378	16.04096
907.768	32.086
908.158	37.09204
908.547	36.09503
908.937	4.01038
909.327	58.1442
909.717	65.16539
910.106	10.02461
910.495	63.15945
910.885	93.23855
911.274	63.15951
911.663	18.04607
912.052	71.17559
912.441	4.01033
912.83	67.158
913.219	35.09247
913.608	54.13387
913.997	25.06444
914.385	36.08725
914.774	67.16521
915.162	85.2072
915.55	41.1008
915.939	44.113
916.327	34.08521
916.715	26.06747
917.103	70.17302
917.491	42.10457
917.878	-11.02736
918.266	16.04171
918.654	71.18479
919.041	43.11451
919.429	47.1138
919.816	47.12005
920.203	65.16075
920.591	20.05038
920.978	14.03449
921.365	52.13814
921.752	87.21128
922.139	96.21425
922.525	100.24581
922.912	36.08905
923.299	51.12935
923.685	50.13256
924.072	44.10213
924.458	18.04558
924.844	45.11385
925.231	42.10037
925.617	30.07817
926.003	79.203
926.389	30.07724
926.774	43.11069
927.16	56.1412
927.546	73.19032
927.931	46.11669
928.317	32.07489
928.702	59.14065
929.088	49.11931
929.473	16.04141
929.858	39.09719
930.243	52.12773
930.628	87.21705
931.013	51.12894
931.398	87.20117
931.783	37.09788
932.167	91.22736
932.552	41.10329
932.937	86.21444
933.321	67.17102
933.705	63.16154
934.09	38.09633
934.474	47.11333
934.858	42.11042
935.242	49.11676
935.626	82.21338
936.009	-17.04559
936.393	40.10305
936.777	56.14548
937.16	14.03686
937.544	6.01442
937.927	59.15298
938.311	63.15495
938.694	52.13791
939.077	48.11725
939.46	11.02687
939.843	117.25122
940.226	32.0835
940.609	123.29073
940.991	56.14467
941.374	38.09503
941.757	35.08722
942.139	118.27302
942.522	38.09074
942.904	60.14672
943.286	40.10226
943.668	68.17822
944.05	47.11806
944.432	73.18456
944.814	16.03981
945.196	52.13084
945.578	73.1804
945.959	51.12232
946.341	16.03918
946.722	56.13347
947.104	75.18235
947.485	65.15418
947.866	89.23005
948.247	19.04846
948.628	31.07627
949.009	42.10993
949.39	79.19773
949.771	69.1636
950.152	69.17302
950.532	30.0764
950.913	99.24079
951.293	25.06877
951.674	84.21013
952.054	67.1706
952.434	19.048
952.814	32.07793
953.194	47.12342
953.574	21.05213
953.954	59.14286
954.334	53.13452
954.714	20.05023
955.093	26.06469
955.473	-20.0512
955.853	17.04458
956.232	2.00551
956.611	79.19121
956.99	91.23252
957.37	4.01045
957.749	59.14404
958.128	47.12144
958.506	73.19363
958.885	63.16188
959.264	47.1195
959.643	57.13175
960.021	60.15188
960.4	80.18583
960.778	82.20357
961.156	59.15108
961.535	72.16996
961.913	54.12905
962.291	104.27285
962.669	32.08195
963.047	17.04396
963.424	11.02856
963.802	53.13328
964.18	59.15044
964.557	98.22854
964.935	37.08959
965.312	14.03697
965.69	56.1407
966.067	75.18575
966.444	37.09204
966.821	45.11692
967.198	31.07636
967.575	49.12043
967.952	63.15041
968.329	45.11178
968.705	48.10486
969.082	72.18775
969.458	43.10704
969.835	31.07675
970.211	55.14423
970.587	23.05823
970.963	16.04161
971.339	45.1192
971.715	6.01529
972.091	94.23345
972.467	67.16915
972.843	73.18357
973.219	47.11311
973.594	67.17908
973.97	81.19398
974.345	36.08846
974.721	28.06817
975.096	21.05194
975.471	89.21371
975.846	39.09521
976.221	60.15619
976.596	38.09372
976.971	56.13994
977.346	10.02373
977.72	68.17568
978.095	31.08165
978.469	46.11127
978.844	51.12848
979.218	27.06609
979.593	41.09972
979.967	54.13347
980.341	14.03303
980.715	72.18407
981.089	-8.02029
981.463	115.27161
981.837	29.07285
982.21	71.16672
982.584	67.16466
982.957	48.12267
983.331	75.18023
983.704	10.02471
984.078	52.13093
984.451	43.1072
984.824	27.06756
985.197	45.1108
985.57	78.19724
985.943	17.04237
986.316	83.20504
986.688	54.13156
987.061	76.18253
987.434	34.0899
987.806	60.14803
988.179	23.05611
988.551	58.14937
988.923	25.06278
989.295	35.08707
989.667	81.19856
990.039	87.21909
990.411	53.12455
990.783	66.15416
991.155	68.16943
991.527	58.14299
991.898	41.10451
992.27	13.03277
992.641	34.08619
993.012	61.14581
993.384	33.07981
993.755	47.12241
994.126	27.06611
994.497	37.09298
994.868	20.0475
995.239	51.12497
995.61	34.08763
995.98	78.19393
996.351	28.07078
996.722	77.18461
997.092	63.15271
997.462	55.13252
997.833	54.12959
998.203	25.06142
998.573	53.13347
998.943	74.17766
999.313	93.22687
999.683	78.1923
1000.053	22.05229
1000.423	54.1321
1000.792	69.18174
1001.162	0
1001.531	40.10053
1001.901	79.20158
1002.27	56.12808
1002.639	72.18678
1003.009	29.07006
1003.378	6.01552
1003.747	125.30003
1004.116	48.1176
1004.485	26.06304
1004.853	25.0644
1005.222	23.05856
1005.591	48.11572
1005.959	70.1635
1006.328	62.14305
1006.696	57.14143
1007.064	3.00768
1007.433	69.17358
1007.801	19.04708
1008.169	12.03057
1008.537	51.11601
1008.905	63.15076
1009.273	12.02994
1009.64	95.23235
1010.008	32.0784
1010.375	19.04566
1010.743	91.21092
1011.11	83.20044
1011.478	16.04024
1011.845	30.07191
1012.212	46.10757
1012.579	-12.03004
1012.946	64.15406
1013.313	44.10571
1013.68	39.08943
1014.047	55.13472
1014.414	22.05364
1014.78	47.11785
1015.147	34.08265
1015.513	56.1375
1015.88	1.00258
1016.246	9.02228
1016.612	56.129
1016.978	43.1072
1017.344	70.17625
1017.71	4.00982
1018.076	29.0695
1018.442	31.0801
1018.808	41.10436
1019.174	36.09233
1019.539	70.1599
1019.905	17.04115
1020.27	33.08358
1020.636	46.11207
1021.001	61.14753
1021.366	50.12268
1021.731	32.08241
1022.096	30.07737
1022.461	67.16088
1022.826	53.12784
1023.191	20.05309
1023.556	61.14642
1023.92	30.07445
1024.285	64.15819
1024.649	69.17146
1025.014	56.14075
1025.378	58.14802
1025.742	102.25581
1026.107	42.09656
1026.471	33.07743
1026.835	85.21421
1027.199	79.19709
1027.562	47.11144
1027.926	54.13342
1028.29	58.14989
1028.654	64.15008
1029.017	41.10136
1029.381	62.15088
1029.744	16.04125
1030.107	34.08172
1030.471	11.02668
1030.834	23.05342
1031.197	49.11824
1031.56	39.0934
1031.923	2.00526
1032.286	57.13546
1032.648	76.18544
1033.011	14.03283
1033.374	11.02619
1033.736	51.13604
1034.099	95.2352
1034.461	20.0512
1034.823	34.08582
1035.185	105.26508
1035.548	22.05504
1035.91	74.17961
1036.272	28.06458
1036.634	43.1056
1036.995	52.1256
1037.357	15.03741
1037.719	-26.06427
1038.08	45.1081
1038.442	6.01456
1038.803	30.07314
1039.165	79.20314
1039.526	3.00742
1039.887	49.11971
1040.248	20.05025
1040.609	17.04224
1040.97	66.16433
1041.331	53.13567
1041.692	89.21492
1042.053	41.09579
1042.413	45.10699
1042.774	68.1666
1043.134	67.1621
1043.495	37.09371
1043.855	46.11328
1044.215	39.09892
1044.576	27.06704
1044.936	53.12358
1045.296	25.06339
1045.656	6.01493
1046.016	8.01959
1046.375	-14.03463
1046.735	48.11198
1047.095	44.10487
1047.454	99.2122
1047.814	12.02952
1048.173	-19.04545
1048.533	49.1143
1048.892	15.03734
1049.251	51.12967
1049.61	30.07513
1049.969	96.23196
1050.328	85.1873
1050.687	41.10117
1051.046	58.14152
1051.405	50.12729
1051.763	4.00952
1052.122	7.01786
1052.48	13.03211
1052.839	30.07219
1053.197	83.19884
1053.555	-14.03188
1053.914	4.00988
1054.272	50.12081
1054.63	67.16752
1054.988	43.10466
1055.345	58.12805
1055.703	42.10236
1056.061	47.12195
1056.419	40.10477
1056.776	20.0488
1057.134	49.116
1057.491	15.03807
1057.848	32.08002
1058.206	37.08901
1058.563	17.03853
1058.92	-17.03986
1059.277	28.06992
1059.634	46.10964
1059.991	72.17456
1060.348	99.22828
1060.704	13.03194
1061.061	73.17034
1061.418	58.14199
1061.774	51.12788
1062.131	49.1317
1062.487	46.10989
1062.843	32.08043
1063.199	66.16713
1063.555	64.15242
1063.911	34.08616
1064.267	51.10818
1064.623	39.0967
1064.979	69.16455
1065.335	34.08197
1065.691	15.03654
1066.046	-15.03325
1066.402	80.18708
1066.757	23.05863
1067.112	19.04709
1067.468	60.1483
1067.823	107.25995
1068.178	14.0343
1068.533	50.12322
1068.888	39.09425
1069.243	12.03017
1069.598	80.19665
1069.952	36.08405
1070.307	66.16773
1070.662	45.10826
1071.016	38.0875
1071.371	51.11784
1071.725	51.1233
1072.079	20.04871
1072.434	32.0797
1072.788	46.11199
1073.142	69.17214
1073.496	9.02184
1073.85	36.08425
1074.203	91.22612
1074.557	67.17955
1074.911	21.05046
1075.265	58.1368
1075.618	25.06149
1075.971	50.12068
1076.325	20.05187
1076.678	42.09957
1077.031	41.09564
1077.385	72.16314
1077.738	69.15936
1078.091	20.04714
1078.444	77.18095
1078.796	-2.00499
1079.149	26.06537
1079.502	80.19498
1079.855	55.13156
1080.207	41.10236
1080.56	28.07329
1080.912	12.02962
1081.264	52.12716
1081.617	65.16252
1081.969	28.07259
1082.321	58.14252
1082.673	24.05696
1083.025	68.16431
1083.377	-169.39093
1083.728	62.14544
1084.08	1.00254
1084.432	59.1449
1084.783	51.12092
1085.135	59.1498
1085.486	68.16101
1085.838	39.09793
1086.189	24.05902
1086.54	48.11585
1086.891	23.05959
1087.242	-3.00741
1087.593	66.16176
1087.944	28.0643
1088.295	84.19312
1088.646	53.13136
1088.996	-15.03708
1089.347	33.08239
1089.698	9.02194
1090.048	-6.01564
1090.398	4.00944
1090.749	73.17702
1091.099	72.18685
1091.449	31.07838
1091.799	60.15226
1092.149	37.09398
1092.499	-16.03995
1092.849	79.20356
1093.199	62.1551
1093.548	68.16666
1093.898	45.11434
1094.248	56.14442
1094.597	40.10541
1094.947	11.02965
1095.296	39.0973
1095.645	53.13875
1095.994	33.08014
1096.343	24.06127
1096.692	85.23056
1097.041	-21.05751
1097.39	106.26966
1097.739	44.11544
1098.088	44.11894
1098.437	-20.05396
1098.785	8.02163
1099.134	66.17515
1099.482	32.08891
1099.83	21.0554
1100.179	56.14921
1100.527	29.07754
1100.875	32.08563
1101.223	29.07767
1101.571	21.0587
1101.919	28.0753
1102.267	-7.01993
1102.615	-2.00646
1102.962	-4.01289
1103.31	-4.0129
1103.658	9.02904
