Data from N2 R0 150C sample7_Subt2__0__13-26-10-135.txt Node

Date: Tue Aug 19 13:26:10 PDT 2025
User: uwsun
Spectrometer: HDX01956
Trigger mode: 0
Integration Time (sec): 5.000000E-1
Scans to average: 1
Nonlinearity correction enabled: true
Boxcar width: 0
Storing dark spectrum: false
XAxis mode: Wavelengths
Number of Pixels in Spectrum: 2068
>>>>>Begin Spectral Data<<<<<
194.03	252.71327
194.578	235.7462
195.127	259.80888
195.676	250.7846
196.225	311.8234
196.773	302.83233
197.321	434.17669
197.87	588.46213
198.418	574.41383
198.966	591.4874
199.513	514.24636
200.061	627.5249
200.609	567.43662
201.156	541.15107
201.704	594.44701
202.251	599.53007
202.798	583.45782
203.345	643.51007
203.892	625.5002
204.438	584.34392
204.985	608.40254
205.532	631.58188
206.078	622.46043
206.624	637.49829
207.17	616.3713
207.716	576.35234
208.262	599.13358
208.808	633.50963
209.354	656.52295
209.899	604.44454
210.445	641.52989
210.99	619.44124
211.535	638.44024
212.08	658.47214
212.625	645.54002
213.17	605.46369
213.715	649.41529
214.259	635.41218
214.804	609.42627
215.348	580.2724
215.892	563.29992
216.436	645.4208
216.98	678.43205
217.524	576.3123
218.068	666.60319
218.612	578.39701
219.155	584.3209
219.698	574.31825
220.242	555.33103
220.785	564.26526
221.328	539.2887
221.871	594.42169
222.414	563.34461
222.956	517.22757
223.499	524.14841
224.041	595.32587
224.583	480.00179
225.126	551.17339
225.668	548.27852
226.21	563.3574
226.751	550.17659
227.293	609.34254
227.835	562.32866
228.376	599.31496
228.918	612.46925
229.459	525.26807
230	555.26719
230.541	580.30546
231.082	474.10608
231.622	565.24595
232.163	577.3423
232.704	573.35286
233.244	558.32732
233.784	604.4038
234.324	585.25994
234.864	589.28105
235.404	551.25805
235.944	540.23018
236.484	619.44632
237.023	600.36373
237.563	506.13776
238.102	534.20424
238.641	575.39157
239.18	577.30584
239.719	627.48789
240.258	576.24663
240.797	559.29527
241.335	579.35648
241.874	593.12002
242.412	586.36139
242.95	574.3214
243.488	573.26625
244.026	572.26272
244.564	593.17479
245.102	599.28737
245.64	563.29064
246.177	592.27967
246.715	593.36221
247.252	615.34673
247.789	624.12604
248.326	624.43948
248.863	560.20111
249.4	596.29876
249.936	584.15234
250.473	615.37613
251.009	587.3064
251.546	647.35426
252.082	683.40954
252.618	611.29572
253.154	626.44238
253.69	568.22406
254.226	587.33819
254.761	638.38452
255.297	543.14581
255.832	532.20998
256.367	639.43576
256.903	558.17056
257.438	580.30226
257.972	632.3511
258.507	629.38726
259.042	672.39394
259.576	590.24215
260.111	592.30856
260.645	640.30029
261.179	613.36095
261.713	648.38296
262.247	621.37359
262.781	621.25388
263.315	686.587
263.849	657.55853
264.382	608.32718
264.915	680.52016
265.449	695.62401
265.982	604.32511
266.515	615.41561
267.048	647.32559
267.58	658.36608
268.113	619.28586
268.646	633.48772
269.178	640.36586
269.71	686.41922
270.243	621.34616
270.775	610.46555
271.307	663.49825
271.838	664.463
272.37	628.46307
272.902	622.34689
273.433	624.2856
273.965	640.47466
274.496	635.47504
275.027	662.54475
275.558	635.46052
276.089	622.46781
276.62	666.58928
277.15	604.39772
277.681	667.37955
278.211	536.2348
278.741	653.37407
279.272	642.38907
279.802	661.54272
280.332	662.4738
280.861	714.60408
281.391	682.45497
281.921	653.48521
282.45	699.63337
282.98	701.70303
283.509	704.47339
284.038	696.49
284.567	709.52537
285.096	731.64732
285.625	703.50856
286.153	719.55948
286.682	722.54305
287.21	730.63871
287.739	695.55084
288.267	662.51085
288.795	645.56812
289.323	736.6238
289.851	745.63237
290.378	696.47268
290.906	678.5505
291.433	749.71191
291.961	723.52753
292.488	764.74166
293.015	740.63263
293.542	738.74167
294.069	750.69119
294.596	732.66601
295.122	748.65235
295.649	767.55408
296.175	805.80602
296.702	768.70643
297.228	812.78932
297.754	798.67768
298.28	797.6686
298.806	789.73826
299.332	764.57937
299.857	789.63656
300.383	818.87675
300.908	808.79905
301.433	761.69122
301.958	767.61776
302.483	796.82045
303.008	796.79713
303.533	762.80456
304.058	831.78422
304.582	795.73029
305.107	820.95901
305.631	797.65023
306.155	858.81656
306.679	831.75056
307.203	881.84784
307.727	845.81274
308.251	820.84081
308.775	910.9468
309.298	866.90278
309.822	851.94428
310.345	874.88744
310.868	882.89255
311.391	906.98485
311.914	906.03369
312.437	876.80224
312.96	906.90656
313.482	906.91407
314.005	885.99848
314.527	888.09522
315.049	923.04866
315.571	1048.0575
316.093	977.1373
316.615	983.09725
317.137	930.80461
317.659	1067.25609
318.18	974.0418
318.702	1027.05914
319.223	1034.88886
319.744	1012.99469
320.265	997.12532
320.786	1058.28119
321.307	1059.27995
321.828	1163.2416
322.348	1073.19689
322.869	1152.34458
323.389	851.14403
323.909	1063.09922
324.43	1097.23703
324.95	1132.20925
325.47	1160.39388
325.989	1176.33523
326.509	1130.13378
327.029	1220.27515
327.548	1218.28145
328.067	1231.49824
328.587	1205.49953
329.106	1184.21325
329.625	1257.70636
330.144	1230.37838
330.662	1223.31941
331.181	1316.49808
331.7	1330.53932
332.218	1369.39224
332.736	1350.55291
333.255	1282.43806
333.773	1394.61216
334.291	1371.71622
334.808	1402.51337
335.326	1481.61321
335.844	1538.7709
336.361	1482.94931
336.879	1502.76454
337.396	1582.8951
337.913	1543.70497
338.43	1581.69321
338.947	1588.83256
339.464	1569.54659
339.981	1550.81234
340.497	1601.94966
341.014	1597.95823
341.53	1572.63302
342.046	1673.01805
342.562	1691.12427
343.078	1693.93126
343.594	1702.96771
344.11	1731.95689
344.626	1799.26131
345.141	1828.89687
345.657	1804.84227
346.172	1783.07118
346.687	1859.99891
347.202	1874.90888
347.717	1886.13583
348.232	1937.33528
348.747	1881.0021
349.261	1978.91516
349.776	1903.08013
350.29	2012.38907
350.805	2033.42755
351.319	2027.16275
351.833	1987.97162
352.347	2079.17532
352.861	2045.11164
353.374	2089.06393
353.888	2041.26648
354.401	2054.0866
354.915	2161.06977
355.428	2157.44158
355.941	2240.2601
356.454	2152.01634
356.967	2163.20518
357.48	2200.11602
357.993	2222.43417
358.505	2219.38158
359.018	2257.41688
359.53	2321.43262
360.042	2351.04524
360.554	2352.3925
361.066	2391.48878
361.578	2360.95006
362.09	2327.29177
362.602	2359.01572
363.113	2532.33146
363.625	2442.13551
364.136	2479.03074
364.647	2602.40316
365.158	2574.26234
365.669	2561.39631
366.18	2527.30631
366.691	2601.05911
367.201	2600.42917
367.712	2655.22831
368.222	2661.22488
368.733	2798.10159
369.243	2726.10569
369.753	2846.36014
370.263	2857.48181
370.773	2790.51065
371.282	2945.39205
371.792	2988.37338
372.301	3042.50398
372.811	3116.84945
373.32	3060.85088
373.829	3142.3522
374.338	3280.94991
374.847	3427.15233
375.356	3519.2483
375.865	3599.57749
376.373	3735.8849
376.882	3843.42814
377.39	3840.13986
377.898	4001.21718
378.407	4317.44129
378.915	4360.15487
379.423	4564.55457
379.93	4717.14265
380.438	4904.52741
380.946	5235.10817
381.453	5513.00787
381.96	5654.8271
382.468	6011.66461
382.975	6332.57449
383.482	6531.10074
383.989	6663.75528
384.495	6807.21511
385.002	7147.99035
385.509	7691.64846
386.015	8005.58415
386.521	8479.39906
387.028	8745.84944
387.534	9083.59636
388.04	9384.28008
388.546	9715.33022
389.051	10160.00731
389.557	10905.03758
390.063	11736.5088
390.568	12164.94265
391.073	12574.39223
391.578	13193.29506
392.084	13352.07199
392.589	13925.18389
393.093	14862.0942
393.598	16097.99845
394.103	17864.22774
394.607	19431.30105
395.112	20794.44589
395.616	22218.34685
396.12	24064.71335
396.624	26191.96672
397.128	28577.34282
397.632	31837.98998
398.136	34279.82749
398.639	36618.34901
399.143	40534.62406
399.646	45541.17803
400.15	50141.23529
400.653	55432.73554
401.156	58893.54
401.659	59126.45199
402.162	58431.12733
402.664	54480.21957
403.167	49329.08451
403.67	22278.45323
404.172	2696.20453
404.674	0
405.176	0
405.678	0
406.18	0
406.682	0
407.184	0
407.686	25783.58453
408.187	43316.52985
408.688	51225.60928
409.19	54389.01922
409.691	56215.4214
410.192	57270.57019
410.693	57845.40442
411.194	58219.2365
411.694	58633.01717
412.195	59215.68848
412.696	59364.60701
413.196	59341.61941
413.696	59632.46864
414.196	59367.6054
414.696	59763.40624
415.196	59913.34014
415.696	60584.13941
416.196	57680.2282
416.695	44931.10296
417.195	38243.98829
417.694	36270.58436
418.194	34471.97314
418.693	32073.4088
419.192	31249.13956
419.691	30891.64465
420.19	30129.00723
420.688	29354.84361
421.187	28201.64426
421.685	26417.54251
422.184	23943.48688
422.682	20626.33706
423.18	17508.19093
423.678	15503.93282
424.176	14328.35675
424.674	13455.87942
425.172	12960.73056
425.669	12209.83826
426.167	11237.54014
426.664	10458.94312
427.161	9545.77812
427.659	8705.82209
428.156	8345.11762
428.652	7830.93542
429.149	7458.55406
429.646	7129.09589
430.143	6904.37639
430.639	6394.38585
431.135	6025.889
431.632	5786.49388
432.128	5386.01613
432.624	5150.62198
433.12	4938.94153
433.616	4803.83334
434.111	4597.44083
434.607	4325.71268
435.103	4330.93659
435.598	4319.95069
436.093	4068.77325
436.588	3779.553
437.083	3648.71789
437.578	3547.95964
438.073	3385.53751
438.568	3317.35328
439.062	3140.7407
439.557	3067.21634
440.051	2894.00996
440.546	2833.07287
441.04	2817.38787
441.534	2825.69847
442.028	2634.29542
442.522	2659.33838
443.015	2625.9108
443.509	2627.44735
444.002	2491.41723
444.496	2537.95867
444.989	2485.35964
445.482	2475.48408
445.975	2414.13104
446.468	2372.82329
446.961	2375.87206
447.454	2248.95674
447.947	2247.23033
448.439	2225.18627
448.931	2262.04159
449.424	2155.35252
449.916	2166.27159
450.408	2113.94518
450.9	2114.25868
451.392	2041.32279
451.884	2032.94621
452.375	1997.30729
452.867	1968.84643
453.358	1943.89783
453.849	1912.6331
454.341	1931.85234
454.832	1862.65923
455.323	1845.07276
455.814	1901.91336
456.304	1833.84848
456.795	1830.84783
457.285	1782.65806
457.776	1775.7414
458.266	1776.92172
458.756	1694.84357
459.247	1701.88531
459.737	1700.90892
460.226	1665.67391
460.716	1655.87402
461.206	1625.83778
461.695	1541.83169
462.185	1555.65848
462.674	1605.71552
463.163	1505.4351
463.653	1502.36465
464.142	1448.66215
464.63	1445.70868
465.119	1455.5314
465.608	1416.52181
466.096	1372.2947
466.585	1448.52639
467.073	1319.45372
467.561	1329.48575
468.05	1324.40439
468.538	1352.58267
469.026	1351.51962
469.513	1439.50865
470.001	1188.16853
470.489	1193.30941
470.976	1230.2871
471.463	1167.36284
471.951	1119.29017
472.438	1114.15564
472.925	1075.08741
473.412	1097.20882
473.899	1136.11702
474.385	1069.1769
474.872	1097.16247
475.359	1058.18217
475.845	1090.88959
476.331	926.68946
476.817	978.01963
477.303	962.91464
477.789	947.96194
478.275	904.94227
478.761	937.96019
479.247	948.85356
479.732	893.95186
480.218	821.89076
480.703	852.8681
481.188	827.57283
481.673	863.74246
482.158	877.67132
482.643	832.84562
483.128	842.70661
483.612	803.67007
484.097	776.67642
484.581	730.52382
485.066	755.66331
485.55	725.46152
486.034	675.3288
486.518	713.54318
487.002	752.69156
487.486	672.50596
487.969	686.54994
488.453	650.49178
488.936	680.42812
489.42	632.28927
489.903	610.41385
490.386	656.00642
490.869	641.29078
491.352	580.31929
491.835	637.22975
492.318	688.46842
492.8	606.19247
493.283	632.50408
493.765	571.32624
494.247	586.27964
494.73	568.19052
495.212	571.29225
495.694	560.23825
496.175	547.2469
496.657	535.20085
497.139	534.90979
497.62	519.18156
498.102	509.20391
498.583	517.2238
499.064	589.26585
499.545	500.10125
500.026	498.0817
500.507	508.13432
500.988	543.28592
501.469	489.18145
501.949	450.07665
502.43	506.16328
502.91	458.94324
503.39	456.08771
503.87	450.04011
504.35	482.0868
504.83	492.05277
505.31	450.04998
505.79	461.07885
506.269	475.08124
506.749	417.93725
507.228	456.04899
507.707	464.00345
508.187	448.02357
508.666	455.08926
509.145	444.02337
509.623	386.88837
510.102	441.04002
510.581	416.9696
511.059	425.03891
511.538	429.06692
512.016	503.17087
512.494	476.11814
512.972	389.91115
513.45	443.01558
513.928	493.16916
514.406	420.00704
514.884	436.09005
515.361	461.08012
515.839	422.9549
516.316	421.99878
516.793	377.93661
517.27	394.92772
517.747	427.06694
518.224	421.96754
518.701	508.11656
519.178	345.84306
519.654	421.97836
520.131	394.95326
520.607	352.85968
521.083	406.92057
521.56	415.97696
522.036	413.90426
522.512	345.8305
522.987	403.95057
523.463	407.96298
523.939	380.91836
524.414	393.89671
524.89	361.85153
525.365	360.82292
525.84	412.98214
526.315	408.97485
526.79	409.91739
527.265	397.91349
527.74	353.85329
528.215	410.96201
528.689	371.82807
529.164	375.81276
529.638	385.97661
530.112	387.9139
530.587	381.82365
531.061	330.79966
531.534	319.76531
532.008	398.95096
532.482	322.73222
532.956	333.84146
533.429	363.87216
533.903	349.77093
534.376	362.80047
534.849	356.82784
535.322	360.84802
535.795	345.83773
536.268	310.74245
536.741	322.77148
537.213	374.86007
537.686	396.95846
538.158	353.79246
538.631	315.75945
539.103	362.82283
539.575	281.595
540.047	314.69841
540.519	361.86143
540.991	330.80207
541.463	355.85586
541.934	342.78838
542.406	330.79245
542.877	374.85491
543.348	376.90116
543.82	361.86933
544.291	316.73803
544.762	327.77524
545.233	383.94839
545.703	329.7392
546.174	357.83163
546.645	326.78849
547.115	430.02519
547.585	365.8372
548.056	436.04746
548.526	487.13045
548.996	408.96217
549.466	398.95096
549.935	444.03515
550.405	415.90749
550.875	366.86282
551.344	449.05933
551.814	443.00867
552.283	392.84035
552.752	475.08777
553.221	585.25454
553.69	485.04694
554.159	506.21361
554.628	477.05424
555.096	514.26822
555.565	545.18773
556.033	491.12087
556.502	458.08331
556.97	475.03407
557.438	424.98902
557.906	452.04722
558.374	381.87494
558.842	361.85714
559.31	404.9045
559.777	391.93478
560.245	448.03752
560.712	391.9101
561.18	467.03855
561.647	437.97212
562.114	398.90939
562.581	421.01537
563.048	457.03768
563.514	393.95638
563.981	413.93701
564.448	463.02836
564.914	519.1768
565.381	498.10646
565.847	488.12139
566.313	558.25844
566.779	538.16179
567.245	533.21397
567.711	529.23486
568.176	544.19432
568.642	555.34061
569.108	627.46904
569.573	666.50167
570.038	648.32674
570.504	645.36911
570.969	726.71137
571.434	751.57567
571.899	794.75547
572.363	785.6572
572.828	828.72859
573.293	788.67624
573.757	815.70782
574.222	887.82857
574.686	939.93152
575.15	934.99472
575.614	949.94774
576.078	1023.13197
576.542	1047.08488
577.006	1067.09537
577.469	1054.2629
577.933	1087.1567
578.396	1083.20744
578.86	1081.2113
579.323	1119.3292
579.786	1118.07927
580.249	1134.25897
580.712	1040.21756
581.175	1069.29072
581.637	1070.10275
582.1	1077.06558
582.563	1088.00735
583.025	1059.24111
583.487	1061.89014
583.95	1042.00356
584.412	1050.94225
584.874	998.11326
585.336	983.05843
585.797	972.87101
586.259	939.97733
586.721	899.90134
587.182	951.95797
587.643	863.78144
588.105	945.00653
588.566	845.61257
589.027	850.87776
589.488	810.70293
589.949	825.82366
590.41	801.45985
590.87	791.6429
591.331	822.6122
591.791	837.79172
592.252	762.63774
592.712	713.59038
593.172	788.66027
593.632	759.56377
594.092	764.59205
594.552	718.46297
595.011	691.50125
595.471	628.32864
595.931	620.32198
596.39	711.61135
596.849	733.59999
597.308	721.47408
597.768	671.6198
598.227	618.39845
598.685	675.44033
599.144	680.49891
599.603	691.55016
600.062	635.3039
600.52	642.37428
600.978	664.47765
601.437	620.34142
601.895	647.30885
602.353	650.36505
602.811	769.61134
603.269	699.5803
603.727	726.63904
604.184	682.47634
604.642	707.62559
605.099	687.49824
605.557	752.70259
606.014	748.53936
606.471	735.71952
606.928	728.51024
607.385	836.89817
607.842	805.68017
608.299	937.97053
608.755	898.95908
609.212	829.6852
609.668	882.79752
610.125	888.93563
610.581	941.97635
611.037	860.7796
611.493	888.88501
611.949	931.06643
612.405	845.55809
612.861	825.76829
613.316	869.88822
613.772	877.84187
614.227	918.9656
614.683	911.753
615.138	836.79073
615.593	891.87621
616.048	912.85872
616.503	873.92738
616.958	933.1033
617.412	888.894
617.867	870.7538
618.321	938.74503
618.776	876.76752
619.23	820.75568
619.684	887.80977
620.138	875.82558
620.592	859.89962
621.046	864.8229
621.5	865.92637
621.954	828.70493
622.407	811.65755
622.861	803.7868
623.314	772.6187
623.768	756.63875
624.221	769.43045
624.674	769.63686
625.127	702.53259
625.58	743.56709
626.033	729.48373
626.485	736.64137
626.938	711.57612
627.39	786.69225
627.843	669.46141
628.295	649.40812
628.747	631.42182
629.199	664.42632
629.651	652.41013
630.103	661.44148
630.555	616.24349
631.006	622.38181
631.458	609.37332
631.909	600.29699
632.361	621.37531
632.812	616.3628
633.263	614.25646
633.714	570.16471
634.165	607.41105
634.616	621.40781
635.067	636.31682
635.518	579.31197
635.968	589.12495
636.419	568.18422
636.869	626.39416
637.319	594.30479
637.769	598.28439
638.219	603.33595
638.669	613.38235
639.119	632.45911
639.569	601.36573
640.019	640.37943
640.468	629.3206
640.918	646.43993
641.367	678.41704
641.816	718.49676
642.265	672.44414
642.714	708.50789
643.163	761.62543
643.612	763.72156
644.061	726.45851
644.51	736.5852
644.958	756.52863
645.406	789.72593
645.855	794.77588
646.303	797.68476
646.751	820.7149
647.199	844.72468
647.647	839.74114
648.095	864.8046
648.543	816.51767
648.99	826.76474
649.438	854.80258
649.885	870.93153
650.333	915.58329
650.78	963.07221
651.227	887.96154
651.674	881.7829
652.121	886.91499
652.568	911.98033
653.015	925.04717
653.461	924.94701
653.908	933.92604
654.354	918.92253
654.801	859.8167
655.247	942.82966
655.693	909.11878
656.139	931.98275
656.585	936.96628
657.031	905.89737
657.477	946.81479
657.922	944.93008
658.368	942.04555
658.813	923.86798
659.259	967.0462
659.704	940.9193
660.149	951.97461
660.594	1022.10969
661.039	969.93349
661.484	969.00324
661.929	1034.07938
662.373	987.21338
662.818	965.12252
663.262	1005.10733
663.707	970.1535
664.151	1022.16413
664.595	994.07191
665.039	1037.23255
665.483	1086.3754
665.927	1076.15015
666.371	1106.18989
666.814	1081.19641
667.258	1187.40121
667.701	1146.04546
668.145	1107.33872
668.588	1201.43618
669.031	1246.45392
669.474	1233.44918
669.917	1245.22913
670.36	1312.66942
670.803	1307.51743
671.245	1311.21291
671.688	1262.49242
672.13	1307.37758
672.573	1300.64498
673.015	1371.64726
673.457	1384.37266
673.899	1409.66544
674.341	1413.69755
674.783	1421.67912
675.225	1437.7553
675.666	1432.76858
676.108	1437.39956
676.549	1457.6688
676.991	1537.60943
677.432	1547.36201
677.873	1394.52057
678.314	1449.71356
678.755	1525.85912
679.196	1472.61264
679.637	1515.82237
680.078	1457.61439
680.518	1471.62892
680.959	1464.76511
681.399	1472.87429
681.839	1518.8342
682.28	1428.78431
682.72	1451.5983
683.16	1454.80191
683.6	1438.51016
684.039	1515.35336
684.479	1505.8709
684.919	1511.72272
685.358	1527.98259
685.798	1502.07411
686.237	1527.82672
686.676	1463.57331
687.115	1486.66869
687.554	1511.72822
687.993	1578.5734
688.432	1598.72309
688.871	1547.68116
689.309	1557.80458
689.748	1567.3523
690.186	1579.79851
690.625	1559.72893
691.063	1636.92901
691.501	1553.87926
691.939	1630.01921
692.377	1596.90922
692.815	1571.84276
693.253	1610.88661
693.69	1583.59231
694.128	1580.91585
694.565	1632.86412
695.003	1600.06379
695.44	1631.84389
695.877	1649.87995
696.314	1567.44898
696.751	1624.67538
697.188	1635.76369
697.625	1645.72582
698.061	1654.94491
698.498	1657.92101
698.934	1636.93643
699.371	1623.85779
699.807	1622.82884
700.243	1631.93259
700.679	1616.69706
701.115	1622.78334
701.551	1552.74407
701.987	1682.74604
702.422	1631.89709
702.858	1606.81823
703.294	1612.66417
703.729	1635.9784
704.164	1632.92181
704.599	1600.62399
705.035	1598.69854
705.47	1609.99664
705.904	1646.87393
706.339	1562.62603
706.774	1607.79161
707.209	1603.75414
707.643	1597.87987
708.078	1560.93418
708.512	1545.98823
708.946	1563.76575
709.38	1592.79352
709.814	1481.55538
710.248	1562.83847
710.682	1598.84759
711.116	1584.88582
711.549	1492.9529
711.983	1486.6241
712.416	1599.8008
712.85	1547.947
713.283	1608.84654
713.716	1518.88677
714.149	1459.63792
714.582	1562.64297
715.015	1471.79246
715.448	1458.84025
715.881	1402.31726
716.313	1415.58384
716.746	1413.61498
717.178	1467.70992
717.61	1462.83071
718.043	1377.68531
718.475	1379.59845
718.907	1437.81436
719.339	1361.44763
719.77	1354.55431
720.202	1312.6514
720.634	1368.67711
721.065	1381.57826
721.497	1349.62196
721.928	1320.612
722.359	1351.64316
722.79	1363.63801
723.221	1268.5589
723.652	1215.52363
724.083	1274.34121
724.514	1259.33371
724.945	1215.34095
725.375	1302.4762
725.806	1209.43691
726.236	1183.48205
726.666	1215.34429
727.096	1207.4373
727.526	1194.50678
727.956	1181.19626
728.386	1163.35473
728.816	1096.33103
729.246	1171.38814
729.675	1162.39161
730.105	1083.1975
730.534	1096.14287
730.964	1001.14029
731.393	1100.24366
731.822	1090.34024
732.251	1021.19527
732.68	1074.09188
733.109	1073.21266
733.537	1057.16311
733.966	1070.27373
734.395	1013.98781
734.823	994.87958
735.251	956.00928
735.68	978.10048
736.108	977.11043
736.536	949.91802
736.964	941.89837
737.392	997.13356
737.82	994.03993
738.247	935.92673
738.675	982.99427
739.102	897.97625
739.53	912.03465
739.957	946.11749
740.384	962.00776
740.811	916.00247
741.238	865.86044
741.665	888.79012
742.092	890.85566
742.519	829.82337
742.945	828.76596
743.372	841.85286
743.798	887.00033
744.225	873.8222
744.651	858.89465
745.077	825.82441
745.503	819.76673
745.929	858.80866
746.355	859.86806
746.781	806.77683
747.207	822.75013
747.632	845.85624
748.058	799.77937
748.483	784.61931
748.908	771.71204
749.334	787.73674
749.759	740.557
750.184	753.62982
750.609	848.84686
751.033	784.64606
751.458	836.6474
751.883	757.68024
752.307	809.70865
752.732	776.76689
753.156	805.79199
753.58	801.70207
754.005	771.73608
754.429	732.56647
754.853	771.71133
755.277	721.52729
755.7	759.69722
756.124	718.61966
756.548	764.64415
756.971	747.61545
757.394	722.69207
757.818	707.64497
758.241	746.70676
758.664	701.6214
759.087	662.37378
759.51	699.57132
759.933	718.5801
760.356	711.64259
760.778	777.73606
761.201	702.55132
761.623	728.57533
762.046	746.58889
762.468	683.46309
762.89	689.53428
763.312	753.67136
763.734	663.46049
764.156	698.56747
764.578	720.51223
765	702.56228
765.421	657.53817
765.843	650.55345
766.264	715.5587
766.686	660.49721
767.107	652.44253
767.528	676.57127
767.949	682.5821
768.37	602.34674
768.791	660.46328
769.212	609.42572
769.632	677.45147
770.053	651.57386
770.473	649.44633
770.894	616.40635
771.314	605.31255
771.734	659.41405
772.154	587.3806
772.575	652.37226
772.994	601.26783
773.414	614.35273
773.834	637.46687
774.254	646.47016
774.673	576.29697
775.093	562.29786
775.512	527.21332
775.931	572.34607
776.351	559.29323
776.77	570.30174
777.189	525.17065
777.607	518.24196
778.026	592.37534
778.445	518.22876
778.864	559.33047
779.282	533.20614
779.701	510.2
780.119	584.40304
780.537	437.04649
780.955	508.1976
781.373	502.16556
781.791	451.97078
782.209	477.03227
782.627	517.29404
783.045	487.071
783.462	495.19776
783.88	470.15187
784.297	464.11021
784.715	497.20982
785.132	424.99368
785.549	419.00902
785.966	446.06585
786.383	406.9608
786.8	442.98263
787.217	402.92038
787.633	378.91525
788.05	405.91141
788.466	380.84202
788.883	370.90934
789.299	378.87794
789.715	406.95411
790.131	407.98006
790.547	352.84237
790.963	356.86135
791.379	359.87954
791.795	337.74567
792.21	312.7092
792.626	316.7273
793.041	365.8783
793.457	331.80043
793.872	284.6547
794.287	261.61975
794.702	283.67974
795.117	295.72305
795.532	306.75487
795.947	311.72764
796.362	297.69489
796.776	274.6193
797.191	276.66733
797.605	246.58628
798.02	243.58434
798.434	264.57233
798.848	253.62036
799.262	277.68322
799.676	205.49279
800.09	275.67604
800.504	199.47764
800.918	230.53551
801.331	154.3977
801.745	205.47043
802.158	184.45944
802.572	181.43361
802.985	182.43692
803.398	258.60614
803.811	182.45725
804.224	155.38163
804.637	224.53426
805.05	182.41858
805.462	214.51978
805.875	148.38578
806.288	160.39183
806.7	192.48133
807.112	180.41265
807.525	167.41087
807.937	137.3403
808.349	179.44656
808.761	135.33435
809.173	154.37378
809.584	128.31603
809.996	110.27398
810.408	147.38219
810.819	176.41898
811.231	173.45579
811.642	220.53755
812.053	261.63095
812.464	278.65897
812.875	238.60028
813.286	227.57897
813.697	208.48238
814.108	168.40929
814.519	133.29799
814.929	159.40355
815.34	164.40476
815.75	151.38623
816.16	131.32693
816.571	122.31496
816.981	105.24973
817.391	162.39482
817.801	172.43337
818.211	55.13202
818.62	158.38636
819.03	107.26394
819.44	117.30472
819.849	78.19752
820.259	92.23479
820.668	123.3073
821.077	109.27646
821.486	83.2021
821.895	91.22497
822.304	103.27448
822.713	149.35655
823.122	95.24009
823.531	149.35845
823.939	106.26267
824.348	149.36578
824.756	138.34845
825.164	106.26679
825.573	143.36629
825.981	79.19802
826.389	153.38612
826.797	63.15865
827.205	98.23115
827.612	129.32183
828.02	79.19042
828.428	124.31879
828.835	118.31231
829.243	127.30842
829.65	50.12702
830.057	115.28336
830.464	60.1489
830.871	129.31046
831.278	70.17137
831.685	128.29038
832.092	99.24699
832.499	56.12581
832.905	95.24215
833.312	93.21667
833.718	111.27913
834.124	64.14884
834.531	65.16556
834.937	61.1562
835.343	104.2547
835.749	54.12682
836.155	48.12721
836.561	86.21591
836.966	87.21563
837.372	64.16534
837.777	95.24129
838.183	65.14671
838.588	39.09769
838.993	73.17994
839.399	69.17171
839.804	43.10724
840.209	76.19831
840.613	103.23381
841.018	43.11011
841.423	63.16341
841.828	83.21394
842.232	97.24103
842.637	92.22162
843.041	80.20918
843.445	76.19341
843.849	33.08319
844.253	53.12891
844.657	48.12396
845.061	105.24337
845.465	30.07448
845.869	76.18079
846.272	50.12513
846.676	71.17282
847.079	69.17995
847.483	84.20998
847.886	36.08781
848.289	47.12744
848.692	57.14657
849.095	82.20127
849.498	68.17207
849.901	59.13757
850.304	147.35445
850.707	49.126
851.109	77.1946
851.512	61.15395
851.914	68.17726
852.316	14.03578
852.718	52.13721
853.121	28.07037
853.523	106.25457
853.925	51.13613
854.326	12.03058
854.728	96.25041
855.13	61.16121
855.531	109.26719
855.933	15.03643
856.334	74.18786
856.736	69.15943
857.137	64.1516
857.538	85.21834
857.939	84.21279
858.34	92.22631
858.741	31.08226
859.142	50.12295
859.542	89.23772
859.943	87.21823
860.343	26.06603
860.744	72.17757
861.144	55.13487
861.544	37.09228
861.945	75.1956
862.345	45.11178
862.745	82.20897
863.145	71.17133
863.544	45.11547
863.944	48.11475
864.344	51.12848
864.743	60.14972
865.143	51.13315
865.542	43.1027
865.941	98.24701
866.34	78.18897
866.74	17.04617
867.139	101.24767
867.537	92.23545
867.936	46.11362
868.335	91.23399
868.734	124.32234
869.132	88.20966
869.531	7.01714
869.929	62.14669
870.327	62.15252
870.726	42.10526
871.124	113.26844
871.522	71.18339
871.92	75.1884
872.318	93.22957
872.715	45.11178
873.113	58.14504
873.511	83.21201
873.908	67.17426
874.306	56.14322
874.703	57.14411
875.1	78.20074
875.497	62.15313
875.894	56.14161
876.291	61.15158
876.688	88.23197
877.085	46.11174
877.482	44.11178
877.878	73.17941
878.275	73.18889
878.671	106.2393
879.068	62.15207
879.464	49.1206
879.86	29.07022
880.256	65.16234
880.652	50.1294
881.048	38.0953
881.444	47.11269
881.84	79.2025
882.236	29.07408
882.631	81.20369
883.027	37.0906
883.422	39.10116
883.817	58.15103
884.213	79.20589
884.608	36.091
885.003	121.2966
885.398	79.20293
885.793	40.10198
886.188	70.17909
886.582	58.14844
886.977	98.23563
887.371	-5.01278
887.766	33.08441
888.16	69.17407
888.554	74.18318
888.949	52.13173
889.343	29.07183
889.737	75.20442
890.131	21.05334
890.525	33.08574
890.918	34.08637
891.312	39.09379
891.706	21.05512
892.099	75.19036
892.492	58.12917
892.886	38.09434
893.279	83.21469
893.672	13.03325
894.065	46.11661
894.458	117.29833
894.851	65.1611
895.244	32.08296
895.637	95.23253
896.029	71.17559
896.422	51.12627
896.814	29.07335
897.206	38.09265
897.599	79.19537
897.991	20.04925
898.383	111.26846
898.775	68.15646
899.167	85.20356
899.559	55.14054
899.951	79.18854
900.342	34.08705
900.734	57.14616
901.125	75.19814
901.517	68.17048
901.908	88.21199
902.299	77.19426
902.69	90.21648
903.082	67.16442
903.473	78.19173
903.863	74.19078
904.254	98.23312
904.645	72.18116
905.036	18.04501
905.426	110.25218
905.817	82.20469
906.207	22.05434
906.597	8.0191
906.987	61.15996
907.378	28.07153
907.768	83.22118
908.158	33.08215
908.547	40.10551
908.937	20.05174
909.327	93.22974
909.717	67.17042
910.106	12.02952
910.495	82.20683
910.885	114.29134
911.274	39.09916
911.663	31.07916
912.052	89.21938
912.441	13.03351
912.83	118.27551
913.219	64.16825
913.608	69.17058
913.997	39.10028
914.385	56.13521
914.774	64.1579
915.162	82.2
915.55	81.19767
915.939	45.11555
916.327	-13.03286
916.715	49.12666
917.103	35.08707
917.491	39.09716
917.878	42.10347
918.266	30.07801
918.654	103.2666
919.041	39.10393
919.429	57.13775
919.816	56.14282
920.203	46.11416
920.591	67.16734
920.978	26.06391
921.365	55.14603
921.752	75.18255
922.139	123.27297
922.525	68.16814
922.912	20.04962
923.299	93.23412
923.685	59.15618
924.072	-3.00703
924.458	53.13338
924.844	51.12889
925.231	61.14525
925.617	15.03919
926.003	82.21059
926.389	93.2368
926.774	40.10302
927.16	57.1437
927.546	33.08662
927.931	65.16434
928.317	36.08419
928.702	28.06714
929.088	65.1578
929.473	34.08772
929.858	37.09224
930.243	65.15928
930.628	84.20968
931.013	44.11138
931.398	47.10954
931.783	10.02657
932.167	65.16316
932.552	-21.05349
932.937	67.16764
933.321	20.05147
933.705	66.16915
934.09	29.07363
934.474	63.15145
934.858	64.16763
935.242	71.16847
935.626	88.22876
936.009	-37.09955
936.393	27.06972
936.777	48.12486
937.16	31.08137
937.544	16.03837
937.927	58.15041
938.311	72.17679
938.694	32.08515
939.077	42.10271
939.46	-19.04668
939.843	88.19013
940.226	36.09387
940.609	116.27456
940.991	66.17021
941.374	20.05018
941.757	6.01503
942.139	98.22764
942.522	54.12856
942.904	23.05663
943.286	38.09718
943.668	61.16007
944.05	63.1578
944.432	66.16707
944.814	3.00748
945.196	80.20027
945.578	87.21445
945.959	62.14839
946.341	65.15774
946.722	43.10274
947.104	48.11729
947.485	48.11423
947.866	80.20711
948.247	-2.00512
948.628	28.06893
949.009	78.2029
949.39	59.14821
949.771	81.19161
950.152	114.28353
950.532	33.084
950.913	52.12759
951.293	57.15601
951.674	110.27388
952.054	65.16556
952.434	34.08567
952.814	88.21207
953.194	11.02906
953.574	37.09157
953.954	64.15482
954.334	80.20208
954.714	36.09016
955.093	66.16301
955.473	14.03563
955.853	57.14845
956.232	2.00551
956.611	61.14814
956.99	77.19724
957.37	57.14754
957.749	65.15851
958.128	55.14192
958.506	72.19101
958.885	77.19737
959.264	75.18975
959.643	46.10656
960.021	43.10918
960.4	39.09133
960.778	81.20113
961.156	99.25172
961.535	23.05481
961.913	117.27623
962.291	69.1821
962.669	15.03853
963.047	16.04138
963.424	55.14172
963.802	43.10833
964.18	53.13528
964.557	44.1037
964.935	59.14226
965.312	44.1156
965.69	32.08075
966.067	87.215
966.444	35.0871
966.821	52.13495
967.198	51.12516
967.575	53.13016
967.952	47.11256
968.329	56.13882
968.705	40.08753
969.082	70.18259
969.458	66.16361
969.835	41.10132
970.211	43.11299
970.587	25.06327
970.963	36.0933
971.339	-3.00801
971.715	82.20617
972.091	59.14746
972.467	62.15667
972.843	25.06341
973.219	29.07003
973.594	63.1685
973.97	67.16088
974.345	65.15886
974.721	-4.0098
975.096	5.0124
975.471	46.11136
975.846	19.04656
976.221	66.17163
976.596	45.11084
976.971	65.16216
977.346	0
977.72	54.13985
978.095	72.18832
978.469	43.10408
978.844	63.15837
979.218	-14.03453
979.593	41.09972
979.967	44.10896
980.341	46.10787
980.715	22.05674
981.089	39.09807
981.463	96.22758
981.837	84.20892
982.21	58.13654
982.584	4.00994
982.957	88.22332
983.331	61.14697
983.704	-13.03226
984.078	64.1608
984.451	20.05007
984.824	55.13692
985.197	48.11812
985.57	73.18476
985.943	48.11895
986.316	102.2511
986.688	10.02456
987.061	111.26481
987.434	26.06884
987.806	73.17967
988.179	68.16449
988.551	81.20777
988.923	28.07027
989.295	13.03247
989.667	51.12571
990.039	62.15683
990.411	57.13384
990.783	62.14493
991.155	53.13242
991.527	51.1259
991.898	30.07662
992.27	63.1574
992.641	48.12138
993.012	74.17644
993.384	30.0726
993.755	64.1662
994.126	55.13397
994.497	34.08549
994.868	67.15769
995.239	-7.01734
995.61	26.0671
995.98	35.0877
996.351	19.04811
996.722	43.10376
997.092	54.13112
997.462	48.11581
997.833	66.15803
998.203	51.12469
998.573	29.07335
998.943	65.15632
999.313	58.14241
999.683	76.18744
1000.053	84.19728
1000.423	82.19955
1000.792	66.17392
1001.162	11.02755
1001.531	71.17745
1001.901	70.1789
1002.27	102.23112
1002.639	70.18166
1003.009	49.11793
1003.378	-14.03634
1003.747	97.23407
1004.116	44.10788
1004.485	34.08231
1004.853	75.19151
1005.222	17.04333
1005.591	72.17279
1005.959	96.22309
1006.328	-2.00467
1006.696	102.251
1007.064	27.06885
1007.433	24.06086
1007.801	60.14754
1008.169	34.08628
1008.537	40.09119
1008.905	43.10329
1009.273	27.06719
1009.64	70.172
1010.008	76.18467
1010.375	-1.00241
1010.743	84.19497
1011.11	59.14312
1011.478	7.01763
1011.845	43.10282
1012.212	57.13301
1012.579	52.12867
1012.946	75.18016
1013.313	76.18148
1013.68	30.06892
1014.047	51.12502
1014.414	42.10202
1014.78	63.15752
1015.147	16.03902
1015.513	46.11316
1015.88	24.0616
1016.246	19.04695
1016.612	15.03484
1016.978	45.11215
1017.344	55.13885
1017.71	31.07571
1018.076	36.08616
1018.442	30.07753
1018.808	32.08158
1019.174	31.07957
1019.539	71.16215
1019.905	49.11788
1020.27	46.11624
1020.636	59.14339
1021.001	53.12838
1021.366	33.08122
1021.731	6.01552
1022.096	9.0233
1022.461	60.14426
1022.826	44.10632
1023.191	6.01597
1023.556	48.1155
1023.92	35.08678
1024.285	42.10423
1024.649	80.19839
1025.014	40.10082
1025.378	38.09732
1025.742	42.10647
1026.107	13.03006
1026.471	14.03297
1026.835	61.15439
1027.199	76.18971
1027.562	56.13255
1027.926	99.24259
1028.29	51.13196
1028.654	54.12687
1029.017	12.02982
1029.381	25.06126
1029.744	26.06691
1030.107	75.17886
1030.471	32.07732
1030.834	21.04879
1031.197	45.10867
1031.56	33.07912
1031.923	37.09679
1032.286	29.06929
1032.648	114.27618
1033.011	19.04451
1033.374	41.09706
1033.736	37.09893
1034.099	82.2035
1034.461	3.0077
1034.823	11.02788
1035.185	51.13
1035.548	70.17359
1035.91	35.08557
1036.272	30.06916
1036.634	68.16623
1036.995	33.07999
1037.357	-3.00751
1037.719	4.00983
1038.08	76.18148
1038.442	21.05083
1038.803	16.03911
1039.165	46.11896
1039.526	12.02963
1039.887	71.17275
1040.248	-4.01009
1040.609	31.07683
1040.97	36.09012
1041.331	66.16856
1041.692	78.18875
1042.053	59.13735
1042.413	44.10463
1042.774	38.09362
1043.134	89.21444
1043.495	26.06598
1043.855	65.15951
1044.215	80.20143
1044.576	59.14564
1044.936	70.16267
1045.296	104.25998
1045.656	27.06692
1046.016	51.1239
1046.375	0
1046.735	67.15573
1047.095	8.0192
1047.454	77.16583
1047.814	57.13905
1048.173	-13.03106
1048.533	41.09579
1048.892	62.15302
1049.251	87.2198
1049.61	54.13465
1049.969	60.14596
1050.328	64.14165
1050.687	15.03719
1051.046	-22.05448
1051.405	63.16002
1051.763	50.11798
1052.122	20.0509
1052.48	1.00248
1052.839	30.07219
1053.197	39.09422
1053.555	12.02718
1053.914	3.00741
1054.272	-12.02933
1054.63	44.11047
1054.988	44.10708
1055.345	66.14547
1055.703	77.18644
1056.061	52.13481
1056.419	11.02895
1056.776	20.0488
1057.134	34.08072
1057.491	35.08852
1057.848	38.09492
1058.206	29.06987
1058.563	53.11924
1058.92	26.06044
1059.277	55.13667
1059.634	56.13321
1059.991	87.21033
1060.348	46.10719
1060.704	7.01722
1061.061	32.07527
1061.418	-1.00247
1061.774	43.10798
1062.131	19.05132
1062.487	78.18519
1062.843	6.01515
1063.199	67.16963
1063.555	44.10519
1063.911	-22.0563
1064.267	64.13537
1064.623	27.06709
1064.979	45.10781
1065.335	48.11541
1065.691	28.06804
1066.046	-23.05107
1066.402	58.13622
1066.757	18.04592
1067.112	26.06436
1067.468	76.1873
1067.823	74.18089
1068.178	36.08784
1068.533	56.13786
1068.888	7.01702
1069.243	28.0702
1069.598	19.04723
1069.952	32.07477
1070.307	78.1978
1070.662	20.04834
1071.016	44.1012
1071.371	49.11326
1071.725	21.05106
1072.079	30.07293
1072.434	86.2121
1072.788	69.16726
1073.142	118.29177
1073.496	-4.00973
1073.85	9.02117
1074.203	115.28451
1074.557	53.14236
1074.911	47.11238
1075.265	36.08528
1075.618	-9.02227
1075.971	58.13977
1076.325	36.0931
1076.678	75.17666
1077.031	52.12103
1077.385	89.20097
1077.738	63.14568
1078.091	22.05183
1078.444	59.13914
1078.796	1.00249
1079.149	38.09534
1079.502	81.19738
1079.855	82.19514
1080.207	40.09988
1080.56	2.00526
1080.912	24.0591
1081.264	53.12958
1081.617	96.23868
1081.969	35.09063
1082.321	16.03962
1082.673	32.07583
1083.025	37.08992
1083.377	77.16939
1083.728	17.04023
1084.08	37.09345
1084.432	79.19329
1084.783	43.10211
1085.135	32.08164
1085.486	61.14463
1085.838	46.11537
1086.189	3.00741
1086.54	31.07506
1086.891	76.19512
1087.242	7.01725
1087.593	64.15691
1087.944	11.02534
1088.295	87.19989
1088.646	45.1117
1088.996	3.00739
1089.347	91.2248
1089.698	3.00732
1090.048	19.04932
1090.398	11.02592
1090.749	93.22467
1091.099	84.21754
1091.449	2.00508
1091.799	80.20229
1092.149	37.09398
1092.499	37.0915
1092.849	75.19339
1093.199	27.06797
1093.548	83.20285
1093.898	47.11938
1094.248	53.13676
1094.597	64.16797
1094.947	9.02427
1095.296	10.02508
1095.645	72.18787
1095.994	31.07531
1096.343	16.04091
1096.692	69.18764
1097.041	-25.06851
1097.39	75.19184
1097.739	51.13365
1098.088	83.22294
1098.437	33.08826
1098.785	14.03781
1099.134	57.15149
1099.482	42.11651
1099.83	30.07903
1100.179	44.11747
1100.527	59.15697
1100.875	28.07498
1101.223	20.05364
1101.571	31.08652
1101.919	47.126
1102.267	-15.04276
1102.615	12.03868
1102.962	6.01931
1103.31	0
1103.658	7.02259
