Data from N2 R0 150C sample11_Subt2__6__13-54-19-595.txt Node

Date: Tue Aug 19 13:54:19 PDT 2025
User: uwsun
Spectrometer: HDX01956
Trigger mode: 0
Integration Time (sec): 5.000000E-1
Scans to average: 1
Nonlinearity correction enabled: true
Boxcar width: 0
Storing dark spectrum: false
XAxis mode: Wavelengths
Number of Pixels in Spectrum: 2068
>>>>>Begin Spectral Data<<<<<
194.03	177.50669
194.578	177.56601
195.127	162.51214
195.676	182.57605
196.225	211.56801
196.773	224.62498
197.321	328.90651
197.87	444.1324
198.418	401.01842
198.966	427.10554
199.513	401.99475
200.061	409.03437
200.609	402.04767
201.156	402.8826
201.704	415.04399
202.251	447.1717
202.798	407.04932
203.345	499.20428
203.892	432.0742
204.438	392.93806
204.985	462.09616
205.532	438.13543
206.078	445.08023
206.624	400.98557
207.17	459.05443
207.716	421.01766
208.262	395.78586
208.808	448.10557
209.354	422.02411
209.899	446.0982
210.445	446.10344
210.99	438.05546
211.535	479.1158
212.08	483.11895
212.625	451.11603
213.17	439.0946
213.715	469.0611
214.259	476.0929
214.804	421.02148
215.348	419.95177
215.892	431.02071
216.436	411.95098
216.98	436.9709
217.524	444.03799
218.068	497.23407
218.612	455.12472
219.155	384.90524
219.698	406.96525
220.242	424.04164
220.785	399.92688
221.328	399.98112
221.871	423.04472
222.414	436.06605
222.956	401.97511
223.499	367.83233
224.041	449.03018
224.583	370.79251
225.126	366.81202
225.668	361.8746
226.21	395.98416
226.751	391.86657
227.293	422.96809
227.835	409.99716
228.376	390.89506
228.918	427.0604
229.459	366.9121
230	378.89525
230.541	475.09169
231.082	354.84716
231.622	432.9807
232.163	373.904
232.704	348.85876
233.244	375.92485
233.784	418.00641
234.324	377.84945
234.864	384.87282
235.404	413.97074
235.944	407.95367
236.484	436.05459
237.023	456.06609
237.563	409.93959
238.102	372.8681
238.641	386.96889
239.18	384.90454
239.719	450.10359
240.258	386.87061
240.797	421.00159
241.335	420.01391
241.874	409.80841
242.412	440.05108
242.95	388.92778
243.488	397.91094
244.026	340.78814
244.564	417.86132
245.102	407.91216
245.64	388.92212
246.177	423.94878
246.715	463.09073
247.252	388.89154
247.789	403.76929
248.326	424.01626
248.863	436.96165
249.4	438.98786
249.936	364.75641
250.473	428.99599
251.009	381.88543
251.546	436.95642
252.082	428.93492
252.618	401.89058
253.154	447.066
253.69	425.94543
254.226	410.96951
254.761	412.93834
255.297	388.84792
255.832	364.85744
256.367	469.08989
256.903	417.90339
257.438	442.01996
257.972	466.03139
258.507	443.01436
259.042	459.9986
259.576	448.97405
260.111	440.00284
260.645	400.85824
261.179	385.89649
261.713	466.0331
262.247	439.0072
262.781	388.8264
263.315	458.10665
263.849	451.11155
264.382	428.97123
264.915	484.12503
265.449	518.25184
265.982	505.13063
266.515	460.09099
267.048	448.96038
267.58	452.98274
268.113	429.93017
268.646	493.18978
269.178	471.04139
269.71	479.03617
270.243	476.06319
270.775	429.06537
271.307	474.11171
271.838	419.97179
272.37	455.09546
272.902	444.99935
273.433	454.9724
273.965	482.14501
274.496	441.0629
275.027	485.17045
275.558	484.14624
276.089	459.11677
276.62	471.16518
277.15	454.08128
277.681	479.03175
278.211	415.98076
278.741	484.0557
279.272	474.06177
279.802	491.18361
280.332	469.08517
280.861	500.17187
281.391	487.08221
281.921	478.12503
282.45	518.25278
282.98	481.21592
283.509	472.03774
284.038	494.10301
284.567	495.11321
285.096	504.1877
285.625	500.11919
286.153	467.06642
286.682	486.09093
287.21	499.17249
287.739	495.14951
288.267	514.20755
288.795	454.14248
289.323	522.20251
289.851	547.2479
290.378	572.24271
290.906	473.12553
291.433	498.19485
291.961	513.133
292.488	516.23435
293.015	534.22823
293.542	559.36447
294.069	535.25866
294.596	494.1776
295.122	512.186
295.649	507.0875
296.175	585.37108
296.702	503.17822
297.228	562.30249
297.754	575.2675
298.28	566.24477
298.806	506.17995
299.332	591.26852
299.857	512.12679
300.383	577.38699
300.908	560.31013
301.433	518.20844
301.958	523.16138
302.483	526.26738
303.008	585.37696
303.533	531.31285
304.058	557.26564
304.582	548.25445
305.107	617.53067
305.631	571.24132
306.155	620.38021
306.679	583.29427
307.203	586.30821
307.727	585.32451
308.251	573.35077
308.775	649.46599
309.298	617.42586
309.822	593.42441
310.345	636.44272
310.868	611.3868
311.391	609.41682
311.914	614.46121
312.437	663.42875
312.96	626.39761
313.482	642.43396
314.005	610.45391
314.527	683.67659
315.049	629.48176
315.571	686.46162
316.093	718.65713
316.615	712.60873
317.137	699.43034
317.659	725.64775
318.18	695.54701
318.702	704.51687
319.223	762.48662
319.744	766.59622
320.265	691.57107
320.786	684.59299
321.307	743.70839
321.828	785.64997
322.348	759.66446
322.869	765.69379
323.389	705.99382
323.909	776.63568
324.43	794.73067
324.95	803.68931
325.47	764.71646
325.989	886.87832
326.509	842.70195
327.029	835.70511
327.548	855.74442
328.067	906.97487
328.587	846.8953
329.106	812.65698
329.625	889.06324
330.144	921.91228
330.662	868.78817
331.181	946.95682
331.7	953.9849
332.218	997.91141
332.736	966.99732
333.255	918.89971
333.773	990.03717
334.291	1007.16237
334.808	998.9735
335.326	1016.00668
335.844	1074.16095
336.361	1012.23106
336.879	1038.12942
337.396	1013.11575
337.913	1051.07644
338.43	1083.08806
338.947	1058.14134
339.464	1050.94997
339.981	1083.19451
340.497	1068.22636
341.014	1131.33448
341.53	1095.06902
342.046	1151.34941
342.562	1180.45466
343.078	1173.30612
343.594	1224.39817
344.11	1275.43931
344.626	1230.54749
345.141	1204.24302
345.657	1227.24838
346.172	1248.451
346.687	1219.31516
347.202	1263.30303
347.717	1336.55081
348.232	1346.67585
348.747	1318.43439
349.261	1312.31787
349.776	1340.50577
350.29	1355.68199
350.805	1375.72416
351.319	1387.55784
351.833	1334.3788
352.347	1372.52445
352.861	1381.50641
353.374	1350.41853
353.888	1431.67844
354.401	1449.56306
354.915	1432.48922
355.428	1498.82814
355.941	1518.68779
356.454	1543.56946
356.967	1513.67271
357.48	1522.60378
357.993	1491.78566
358.505	1509.77129
359.018	1572.85243
359.53	1620.8914
360.042	1582.56715
360.554	1560.78804
361.066	1619.9065
361.578	1595.50891
362.09	1602.76909
362.602	1631.58804
363.113	1717.85389
363.625	1719.73223
364.136	1702.63414
364.647	1810.97334
365.158	1734.8115
365.669	1779.94988
366.18	1756.87117
366.691	1822.72831
367.201	1795.97988
367.712	1774.80872
368.222	1775.80636
368.733	1910.80477
369.243	1846.76807
369.753	1951.01988
370.263	1973.12456
370.773	1947.13313
371.282	1958.04391
371.792	2113.12956
372.301	2023.16897
372.811	2008.40202
373.32	2133.74489
373.829	2182.15655
374.338	2251.89803
374.847	2345.11354
375.356	2457.24464
375.865	2495.74542
376.373	2542.03795
376.882	2672.52609
377.39	2722.3042
377.898	2751.42314
378.407	2940.92342
378.915	3023.69094
379.423	3127.11423
379.93	3266.80552
380.438	3379.21332
380.946	3541.95892
381.453	3728.93645
381.96	3831.78609
382.468	4009.68965
382.975	4377.50489
383.482	4514.89717
383.989	4565.67367
384.495	4669.94204
385.002	5008.28456
385.509	5195.77294
386.015	5498.67107
386.521	5841.11379
387.028	6029.92034
387.534	6279.70706
388.04	6440.97614
388.546	6585.74794
389.051	6947.70143
389.557	7472.09336
390.063	8081.72456
390.568	8420.25401
391.073	8684.74416
391.578	8990.37249
392.084	9160.96346
392.589	9416.92789
393.093	10283.82246
393.598	11079.04813
394.103	12146.62995
394.607	13297.31453
395.112	14417.47829
395.616	15051.92876
396.12	16567.3114
396.624	18162.56592
397.128	19704.95267
397.632	21763.04887
398.136	23651.88096
398.639	25034.54744
399.143	27739.72072
399.646	31157.49086
400.15	34476.3398
400.653	37959.52825
401.156	42664.4264
401.659	49436.14816
402.162	56760.85435
402.664	54102.20116
403.167	49329.08451
403.67	22278.45323
404.172	2696.20453
404.674	0
405.176	0
405.678	0
406.18	0
406.682	0
407.184	0
407.686	25783.58453
408.187	43316.52985
408.688	51225.60928
409.19	54389.01922
409.691	56215.4214
410.192	57270.57019
410.693	57845.40442
411.194	58219.2365
411.694	58633.01717
412.195	59215.68848
412.696	59364.60701
413.196	56705.27924
413.696	55682.24457
414.196	56391.43848
414.696	56093.86051
415.196	53494.91601
415.696	48677.37778
416.196	39550.25675
416.695	30607.08921
417.195	26103.01192
417.694	24632.47612
418.194	23467.65039
418.693	22011.55571
419.192	21008.3097
419.691	20824.28267
420.19	20490.85843
420.688	19882.48884
421.187	19048.43057
421.685	17788.08415
422.184	16181.31735
422.682	14031.53819
423.18	11839.42716
423.678	10500.76004
424.176	9766.74933
424.674	9150.92576
425.172	8843.05686
425.669	8296.10268
426.167	7785.42143
426.664	7028.91605
427.161	6517.81829
427.659	6023.31531
428.156	5599.79855
428.652	5411.99693
429.149	5094.9105
429.646	4849.55377
430.143	4689.1305
430.639	4398.29107
431.135	4160.85653
431.632	3959.44869
432.128	3660.90766
432.624	3442.40635
433.12	3300.72969
433.616	3196.5929
434.111	3120.03386
434.607	3000.15007
435.103	2923.50695
435.598	2802.52898
436.093	2711.08858
436.588	2526.78894
437.083	2523.87632
437.578	2426.0173
438.073	2276.36749
438.568	2192.17902
439.062	2149.67777
439.557	2067.98802
440.051	1972.77445
440.546	1895.77317
441.04	1901.00562
441.534	1938.25967
442.028	1801.88176
442.522	1749.86511
443.015	1780.58726
443.509	1796.98881
444.002	1718.92599
444.496	1667.54587
444.989	1660.83099
445.482	1602.86057
445.975	1654.6791
446.468	1607.42595
446.961	1593.44867
447.454	1561.51101
447.947	1516.6622
448.439	1391.49927
448.931	1478.48654
449.424	1395.64016
449.916	1436.63085
450.408	1402.38714
450.9	1381.577
451.392	1427.71392
451.884	1363.3755
452.375	1355.63365
452.867	1298.25873
453.358	1269.26995
453.849	1335.1726
454.341	1278.25522
454.832	1267.13939
455.323	1288.46719
455.814	1244.26883
456.304	1195.19611
456.795	1209.21529
457.285	1173.06544
457.776	1219.18351
458.266	1189.26894
458.756	1171.24095
459.247	1144.22747
459.737	1153.2572
460.226	1118.06902
460.716	1076.15015
461.206	1044.09761
461.695	1016.10943
462.185	1037.01536
462.674	1013.98594
463.163	1009.85838
463.653	1074.89714
464.142	998.03898
464.63	979.04285
465.119	985.92464
465.608	970.92521
466.096	888.68045
466.585	940.85781
467.073	905.8557
467.561	905.86904
468.05	923.84586
468.538	860.83742
469.026	831.74826
469.513	952.87103
470.001	773.55841
470.489	836.75609
470.976	777.60663
471.463	785.728
471.951	734.63287
472.438	728.53844
472.925	709.49662
473.412	752.63423
473.899	703.45021
474.385	717.57691
474.872	700.50825
475.359	697.55403
475.845	660.27332
476.331	615.20936
476.817	609.36158
477.303	641.37007
477.789	612.36182
478.275	607.38661
478.761	618.38314
479.247	668.3918
479.732	592.37534
480.218	580.39921
480.703	572.32726
481.188	556.12629
481.673	524.13924
482.158	589.20006
482.643	507.19963
483.128	522.1344
483.612	480.06905
484.097	500.14305
484.581	482.06065
485.066	485.12802
485.55	474.00981
486.034	452.93758
486.518	502.13474
487.002	462.09995
487.486	429.00853
487.969	482.13358
488.453	412.99191
488.936	492.07545
489.42	405.8699
489.903	416.00045
490.386	414.68132
490.869	387.82588
491.352	413.97263
491.835	393.8041
492.318	461.03154
492.8	468.95213
493.283	404.00263
493.765	379.91508
494.247	394.89663
494.73	372.81468
495.212	362.85538
495.694	346.80046
496.175	360.85296
496.657	360.83846
497.139	384.68065
497.62	306.72784
498.102	317.77897
498.583	309.76212
499.064	361.81507
499.545	301.69181
500.026	302.68452
500.507	348.80413
500.988	351.86345
501.469	338.84143
501.949	323.79313
502.43	310.74189
502.91	309.65772
503.39	279.68941
503.87	357.8421
504.35	264.62289
504.83	299.66767
505.31	289.69704
505.79	328.78914
506.269	312.73498
506.749	302.6948
507.228	295.70182
507.707	311.69589
508.187	283.66939
508.666	320.78736
509.145	252.60426
509.623	264.62241
510.102	299.72606
510.581	270.64741
511.059	305.76385
511.538	286.73134
512.016	353.8475
512.494	292.71185
512.972	264.63351
513.45	259.6169
513.928	295.7276
514.406	321.78589
514.884	317.8113
515.361	344.82606
515.839	342.7865
516.316	334.8057
516.793	320.80328
517.27	286.68759
517.747	319.81441
518.224	328.76785
518.701	357.81097
519.178	301.74158
519.654	292.69588
520.131	237.59037
520.607	289.71412
521.083	288.66868
521.56	322.77177
522.036	341.75798
522.512	251.615
522.987	321.76923
523.463	323.77667
523.939	271.66842
524.414	329.76038
524.89	265.63675
525.365	311.71793
525.84	241.59335
526.315	291.71087
526.79	275.63383
527.265	304.71252
527.74	237.58543
528.215	280.67368
528.689	250.57197
529.164	247.54997
529.638	282.72844
530.112	273.65896
530.587	254.56403
531.061	237.58436
531.534	223.54478
532.008	241.59313
532.482	222.51505
532.956	250.6411
533.429	237.58307
533.903	217.49258
534.376	214.48784
534.849	274.64748
535.322	230.5555
535.795	235.58241
536.268	210.51255
536.741	215.52563
537.213	241.56896
537.686	213.53329
538.158	174.40498
538.631	205.50454
539.103	218.50997
539.575	183.3958
540.047	216.49021
540.519	220.53915
540.991	222.5505
541.463	217.53682
541.934	194.46041
542.406	240.5862
542.877	250.58574
543.348	214.52872
543.82	218.5392
544.291	242.57343
544.762	212.51377
545.233	218.55612
545.703	238.54473
546.174	270.63976
546.645	210.51903
547.115	260.64141
547.585	236.55532
548.056	284.70344
548.526	287.69379
548.996	260.63078
549.466	274.67022
549.935	298.71617
550.405	295.66146
550.875	249.60036
551.344	296.72053
551.814	333.77666
552.283	245.5419
552.752	347.81661
553.221	367.82523
553.69	291.65544
554.159	309.77024
554.628	334.76165
555.096	344.87682
555.565	413.92674
556.033	295.70128
556.502	319.77635
556.97	304.6871
557.438	308.73485
557.906	308.73541
558.374	274.64272
558.842	217.52954
559.31	234.54225
559.777	241.59269
560.245	307.73233
560.712	269.6412
561.18	288.66551
561.647	270.62144
562.114	285.66603
562.581	290.7183
563.048	331.7723
563.514	351.8609
563.981	311.72022
564.448	310.71178
564.914	351.82442
565.381	337.77516
565.847	384.90243
566.313	358.84167
566.779	351.78959
567.245	399.93493
567.711	405.97008
568.176	427.96208
568.642	437.07857
569.108	479.15421
569.573	549.26705
570.038	531.11554
570.504	563.21612
570.969	569.38168
571.434	650.39382
571.899	646.47194
572.363	651.41426
572.828	686.47679
573.293	727.56681
573.757	683.47253
574.222	778.64277
574.686	720.55337
575.15	793.74489
575.614	753.61318
576.078	869.87384
576.542	893.84259
577.006	920.86995
577.469	924.03861
577.933	900.86409
578.396	905.91986
578.86	919.94957
579.323	927.01082
579.786	976.87962
580.249	1003.05797
580.712	937.04199
581.175	884.97071
581.637	914.8628
582.1	935.85524
582.563	870.69284
583.025	864.90711
583.487	927.7079
583.95	915.81383
584.412	921.75785
584.874	783.73654
585.336	866.86139
585.797	812.62252
586.259	832.79288
586.721	791.71212
587.182	808.71658
587.643	789.65547
588.105	765.68887
588.566	685.35737
589.027	657.50936
589.488	723.54886
589.949	749.68172
590.41	668.25795
590.87	630.35495
591.331	681.37962
591.791	671.48738
592.252	625.38245
592.712	594.35716
593.172	614.34256
593.632	669.40592
594.092	635.36074
594.552	592.24035
595.011	568.26589
595.471	537.15839
595.931	585.2567
596.39	597.38397
596.849	550.24643
597.308	550.16746
597.768	566.39309
598.227	505.16861
598.685	545.19526
599.144	522.18816
599.603	580.33045
600.062	569.18552
600.52	580.25797
600.978	540.23216
601.437	583.2712
601.895	535.10963
602.353	550.18014
602.811	656.40852
603.269	582.34676
603.727	607.40328
604.184	650.41657
604.642	631.47266
605.099	613.35757
605.557	631.46343
606.014	675.4117
606.471	682.61196
606.928	723.50153
607.385	717.66693
607.842	723.5362
608.299	840.80394
608.755	753.69278
609.212	817.66531
609.668	800.6605
610.125	831.83311
610.581	873.86079
611.037	858.77625
611.493	838.7981
611.949	848.9161
612.405	816.51541
612.861	812.74527
613.316	802.76728
613.772	838.77496
614.227	876.89256
614.683	854.6656
615.138	856.82571
615.593	849.80413
616.048	855.76491
616.503	808.80794
616.958	853.95587
617.412	892.90089
617.867	854.72781
618.321	870.64553
618.776	875.7659
619.23	829.77153
619.684	748.57385
620.138	845.77462
620.592	794.77952
621.046	790.6936
621.5	824.85054
621.954	779.62154
622.407	761.57281
622.861	772.72878
623.314	725.53577
623.768	724.58
624.221	717.35073
624.674	733.57232
625.127	714.55487
625.58	710.50822
626.033	649.34467
626.485	653.48102
626.938	679.51511
627.39	640.42066
627.843	677.47641
628.295	599.3133
628.747	657.47262
629.199	603.31209
629.651	579.27153
630.103	657.43396
630.555	587.19272
631.006	563.26585
631.458	584.32358
631.909	589.27616
632.361	553.24182
632.812	567.26705
633.263	528.10118
633.714	458.96105
634.165	576.34708
634.616	506.17347
635.067	443.95806
635.518	490.13003
635.968	454.89673
636.419	464.99124
636.869	473.08622
637.319	426.97022
637.769	454.00478
638.219	418.96314
638.669	405.95343
639.119	449.07364
639.569	441.03398
640.019	443.99649
640.468	376.83455
640.918	445.0324
641.367	391.87018
641.816	451.99702
642.265	386.88163
642.714	386.88056
643.163	446.01654
643.612	384.93431
644.061	390.84508
644.51	452.0319
644.958	308.68733
645.406	368.87729
645.855	391.94796
646.303	333.77604
646.751	351.8109
647.199	378.85466
647.647	353.8126
648.095	423.97058
648.543	373.77079
648.99	336.79457
649.438	381.88822
649.885	362.88902
650.333	370.73355
650.78	382.92563
651.227	388.94792
651.674	345.78435
652.121	326.78938
652.568	384.92872
653.015	353.87541
653.461	338.80425
653.908	383.88867
654.354	329.77908
654.801	373.87334
655.247	392.86173
655.693	331.86014
656.139	370.88442
656.585	315.75255
657.031	345.81317
657.477	362.79278
657.922	374.86385
658.368	355.86813
658.813	315.72659
659.259	354.85039
659.704	308.71935
660.149	396.92445
660.594	339.80771
661.039	344.78635
661.484	358.84233
661.929	364.84577
662.373	353.89547
662.818	334.83269
663.262	369.88321
663.707	363.9084
664.151	367.88913
664.595	315.75629
665.039	393.96388
665.483	377.94852
665.927	411.94871
666.371	354.82481
666.814	299.71625
667.258	425.00803
667.701	357.76781
668.145	348.85781
668.588	362.8752
669.031	398.94042
669.474	341.81839
669.917	347.76555
670.36	401.98494
670.803	357.84471
671.245	372.78888
671.688	360.86151
672.13	352.79589
672.573	309.77024
673.015	372.89022
673.457	387.84127
673.899	345.82232
674.341	400.95099
674.783	333.79524
675.225	341.82647
675.666	396.95521
676.108	347.75336
676.549	354.8287
676.991	361.80809
677.432	416.84943
677.873	344.78888
678.314	406.95597
678.755	385.9243
679.196	405.91812
679.637	379.90471
680.078	346.79824
680.518	423.96047
680.959	437.03057
681.399	351.86695
681.839	343.82631
682.28	360.87954
682.72	387.88302
683.16	349.85061
683.6	407.9039
684.039	353.73568
684.479	385.93342
684.919	365.8506
685.358	394.97543
685.798	390.99822
686.237	432.0158
686.676	348.79101
687.115	392.90181
687.554	370.86276
687.993	378.82433
688.432	391.88315
688.871	426.95806
689.309	404.94238
689.748	362.74185
690.186	380.88328
690.625	349.80532
691.063	415.9762
691.501	345.83176
691.939	401.97
692.377	358.85673
692.815	415.97202
693.253	439.02166
693.69	448.9666
694.128	437.03455
694.565	374.87277
695.003	419.02839
695.44	422.97042
695.877	448.02768
696.314	413.863
696.751	392.86716
697.188	442.98915
697.625	453.99809
698.061	426.99914
698.498	480.10386
698.934	436.02124
699.371	419.96987
699.807	424.97307
700.243	472.09839
700.679	449.9897
701.115	445.00221
701.551	480.08361
701.987	526.13487
702.422	434.00782
702.858	427.98093
703.294	489.05784
703.729	504.1785
704.164	502.15775
704.599	489.04882
705.035	518.12952
705.47	534.25703
705.904	506.14658
706.339	439.96442
706.774	571.26182
707.209	509.12837
707.643	570.29547
708.078	565.32004
708.512	530.27125
708.946	492.1112
709.38	514.15483
709.814	513.11174
710.248	496.14298
710.682	564.27147
711.116	547.25592
711.549	545.31495
711.983	538.1831
712.416	580.28574
712.85	520.23494
713.283	602.34231
713.716	602.39749
714.149	564.25074
714.582	598.27446
715.015	581.33993
715.448	616.4379
715.881	591.19485
716.313	648.41102
716.746	671.47011
717.178	581.30904
717.61	584.36581
718.043	627.43866
718.475	602.34895
718.907	688.58408
719.339	609.30496
719.77	654.44396
720.202	632.4747
720.634	685.55553
721.065	619.37201
721.497	685.54046
721.928	642.47046
722.359	657.49492
722.79	745.65359
723.221	626.44811
723.652	686.59201
724.083	687.4476
724.514	733.53584
724.945	717.5459
725.375	715.55277
725.806	690.55582
726.236	695.6145
726.666	756.61857
727.096	722.61941
727.526	727.68289
727.956	775.58604
728.386	771.70071
728.816	715.6466
729.246	758.69046
729.675	795.77119
730.105	739.61717
730.534	836.73529
730.964	752.69501
731.393	815.77009
731.822	810.84432
732.251	806.81381
732.68	840.72734
733.109	779.71264
733.537	813.75603
733.966	826.84898
734.395	863.7528
734.823	823.62061
735.251	868.8609
735.68	880.93112
736.108	866.91629
736.536	835.73129
736.964	936.89043
737.392	890.9498
737.82	875.84492
738.247	927.91365
738.675	923.89944
739.102	930.03311
739.53	927.06179
739.957	926.08116
740.384	928.95288
740.811	947.05685
741.238	954.01121
741.665	951.88965
742.092	973.99165
742.519	951.03676
742.945	959.9877
743.372	987.1067
743.798	968.14729
744.225	1040.08956
744.651	1004.14809
745.077	1004.13611
745.503	1049.15057
745.929	1012.06018
746.355	1043.17849
746.781	1020.14678
747.207	1089.18368
747.632	1068.23518
748.058	1094.28664
748.483	1095.10421
748.908	1051.19715
749.334	1161.36133
749.759	1032.03171
750.184	1095.19674
750.609	1088.24812
751.033	1092.13704
751.458	1142.08951
751.883	1129.3117
752.307	1124.21012
752.732	1098.3363
753.156	1134.35161
753.58	1172.28964
754.005	1128.35364
754.429	1157.24912
754.853	1079.24089
755.277	1066.08801
755.7	1079.25278
756.124	1078.25217
756.548	1116.21998
756.971	1047.11856
757.394	1099.38423
757.818	1035.251
758.241	1093.32515
758.664	1097.33668
759.087	1109.07317
759.51	1051.19136
759.933	1145.29406
760.356	1026.22061
760.778	1106.30262
761.201	1078.19476
761.623	1052.11855
762.046	1119.19051
762.468	1073.1052
762.89	1039.14531
763.312	1080.23355
763.734	1074.16194
764.156	1030.15462
764.578	1058.05675
765	1031.1373
765.421	962.11636
765.843	1008.24253
766.264	1033.09968
766.686	940.01015
767.107	978.01603
767.528	962.10843
767.949	955.09438
768.37	894.88047
768.791	968.00785
769.212	893.97481
769.632	893.82613
770.053	887.04728
770.473	866.84387
770.894	863.8728
771.314	848.74537
771.734	821.70072
772.154	782.76982
772.575	824.66933
772.994	854.70261
773.414	805.70316
773.834	791.7659
774.254	819.79911
774.673	759.64561
775.093	789.74043
775.512	735.6226
775.931	773.74838
776.351	712.59762
776.77	668.49576
777.189	706.51598
777.607	657.53398
778.026	649.49096
778.445	614.42986
778.864	628.4751
779.282	642.42098
779.701	586.35871
780.119	662.56708
780.537	582.35581
780.955	560.30706
781.373	584.33429
781.791	538.13449
782.209	507.0903
782.627	553.37528
783.045	519.13385
783.462	477.15804
783.88	475.16307
784.297	491.16888
784.715	479.16984
785.132	483.11674
785.549	437.04887
785.966	435.04169
786.383	416.98255
786.8	436.9705
787.217	425.96852
787.633	343.83599
788.05	418.93815
788.466	366.81337
788.883	374.91848
789.299	357.83262
789.715	368.87124
790.131	420.00666
790.547	294.71138
790.963	377.90854
791.379	366.89552
791.795	318.70642
792.21	317.71983
792.626	292.67529
793.041	332.8039
793.457	357.85905
793.872	244.56698
794.287	262.62201
794.702	316.75422
795.117	282.69286
795.532	263.65393
795.947	244.57839
796.362	286.6706
796.776	266.6022
797.191	283.68335
797.605	230.54983
798.02	254.60951
798.434	221.48351
798.848	255.62503
799.262	265.65507
799.676	207.4974
800.09	236.58435
800.504	233.55562
800.918	225.52439
801.331	134.34725
801.745	207.47483
802.158	190.47391
802.572	141.34036
802.985	194.46466
803.398	217.5139
803.811	152.38394
804.224	147.36247
804.637	190.45613
805.05	161.37184
805.462	162.39732
805.875	152.39593
806.288	169.41318
806.7	164.41321
807.112	130.30102
807.525	146.3606
807.937	169.41732
808.349	111.28033
808.761	187.45871
809.173	142.34543
809.584	107.2652
809.996	94.23481
810.408	135.35171
810.819	182.43276
811.231	157.41475
811.642	157.38812
812.053	256.61945
812.464	227.54338
812.875	175.44636
813.286	157.40538
813.697	186.43324
814.108	138.33809
814.519	139.31104
814.929	134.34161
815.34	163.40236
815.75	118.30358
816.16	94.23617
816.571	90.23364
816.981	86.20529
817.391	118.28995
817.801	121.30765
818.211	77.18405
818.62	85.21067
819.03	87.21539
819.44	99.25863
819.849	91.2299
820.259	92.23479
820.668	98.24595
821.077	103.26152
821.486	73.17808
821.895	123.30229
822.304	81.21664
822.713	119.28639
823.122	61.1551
823.531	120.29028
823.939	80.19919
824.348	114.28167
824.756	73.18647
825.164	69.17482
825.573	143.36629
825.981	99.24725
826.389	109.27724
826.797	18.04569
827.205	84.19867
827.612	89.22365
828.02	38.0923
828.428	89.23021
828.835	50.13384
829.243	102.24887
829.65	30.07648
830.057	115.28336
830.464	72.17829
830.871	93.22535
831.278	61.14959
831.685	73.16746
832.092	93.23227
832.499	71.15901
832.905	107.27216
833.312	108.25087
833.718	68.17232
834.124	75.17405
834.531	63.16053
834.937	21.05415
835.343	91.2234
835.749	54.12682
836.155	44.11669
836.561	68.17128
836.966	66.16421
837.372	82.21118
837.777	77.1962
838.183	22.05009
838.588	38.0952
838.993	56.13847
839.399	38.0951
839.804	2.00502
840.209	92.2394
840.613	3.00695
841.018	69.17588
841.423	45.11708
841.828	61.15784
842.232	122.30177
842.637	52.12621
843.041	59.15482
843.445	50.12783
843.849	65.16293
844.253	93.2245
844.657	73.18771
845.061	78.18176
845.465	70.17251
845.869	69.16436
846.272	54.13504
846.676	31.07602
847.079	86.22364
847.483	52.13074
847.886	68.16486
848.289	55.14894
848.692	55.14148
849.095	90.22058
849.498	22.05613
849.901	17.03997
850.304	47.11547
850.707	37.09534
851.109	-4.01026
851.512	103.25799
851.914	93.24138
852.316	13.03323
852.718	32.08472
853.121	55.13756
853.523	64.15493
853.925	35.09367
854.326	31.07874
854.728	49.12884
855.13	36.09554
855.531	61.15086
855.933	41.09909
856.334	44.11229
856.736	58.1343
857.137	11.02632
857.538	42.10869
857.939	25.06399
858.34	84.20694
858.741	41.10861
859.142	71.17391
859.542	51.13708
859.943	48.12125
860.343	48.12142
860.744	63.15563
861.144	6.01485
861.544	41.10218
861.945	93.2418
862.345	29.07225
862.745	73.18633
863.145	41.0995
863.544	20.05154
863.944	28.0672
864.344	77.19308
864.743	49.12251
865.143	60.1564
865.542	29.06945
865.941	106.26679
866.34	71.17223
866.74	28.07591
867.139	84.20663
867.537	56.14422
867.936	41.10136
868.335	42.10892
868.734	78.20436
869.132	67.16027
869.531	27.06587
869.929	45.10682
870.327	80.19614
870.726	-5.01264
871.124	36.08679
871.522	73.18849
871.92	72.18096
872.318	59.14655
872.715	23.05736
873.113	43.10782
873.511	73.18679
873.908	65.16912
874.306	80.20373
874.703	53.13409
875.1	74.19058
875.497	48.11886
875.894	60.15161
876.291	46.11462
876.688	94.24754
877.085	58.14057
877.482	56.14196
877.878	58.14294
878.275	60.1556
878.671	21.04823
879.068	55.13507
879.464	44.1084
879.86	36.08705
880.256	60.14999
880.652	58.14989
881.048	68.16962
881.444	41.09841
881.84	28.07241
882.236	63.15996
882.631	54.13645
883.027	26.06379
883.422	16.04166
883.817	61.15876
884.213	78.20332
884.608	38.09602
885.003	56.13892
885.398	110.28102
885.793	11.02819
886.188	51.13091
886.582	35.08994
886.977	68.16443
887.371	21.05343
887.766	47.11993
888.16	77.19398
888.554	28.06989
888.949	34.0864
889.343	56.13801
889.737	39.10691
890.131	33.08364
890.525	33.08574
890.918	39.09899
891.312	7.01694
891.706	22.05774
892.099	9.02311
892.492	95.20995
892.886	31.07706
893.279	54.14038
893.672	-32.0825
894.065	26.06614
894.458	47.12132
894.851	85.2099
895.244	36.09326
895.637	61.15025
896.029	13.03249
896.422	32.0795
896.814	1.00254
897.206	29.07082
897.599	46.11445
897.991	66.16116
898.383	79.19222
898.775	44.10172
899.167	59.14199
899.559	65.1658
899.951	69.16499
900.342	19.04877
900.734	39.10032
901.125	71.1877
901.517	55.13821
901.908	74.17874
902.299	85.21413
902.69	71.17139
903.082	35.0864
903.473	49.12109
903.863	35.09084
904.254	103.24478
904.645	92.23065
905.036	9.02254
905.426	51.11831
905.817	42.1056
906.207	79.19308
906.597	-4.00957
906.987	63.16515
907.378	14.03586
907.768	51.13663
908.158	54.13391
908.547	65.17074
908.937	-2.00519
909.327	69.17121
909.717	51.13009
910.106	60.14629
910.495	75.18941
910.885	43.11126
911.274	32.08147
911.663	30.07662
912.052	-6.01505
912.441	15.03865
912.83	58.13702
913.219	54.1422
913.608	31.07717
913.997	43.11049
914.385	37.08965
914.774	52.12858
915.162	43.10564
915.55	7.01732
915.939	19.04901
916.327	19.04775
916.715	22.05713
917.103	93.2289
917.491	64.15871
917.878	10.02478
918.266	-16.04194
918.654	95.24623
919.041	38.10128
919.429	61.14731
919.816	32.08195
920.203	44.10923
920.591	11.02775
920.978	14.03449
921.365	35.09324
921.752	31.07608
922.139	102.22736
922.525	103.25304
922.912	27.0669
923.299	66.16695
923.685	65.17189
924.072	44.10213
924.458	49.1234
924.844	40.10129
925.231	23.05517
925.617	62.16067
926.003	20.05192
926.389	51.13082
926.774	9.0233
927.16	36.0911
927.546	46.12048
927.931	21.05351
928.317	-3.00707
928.702	10.02406
929.088	83.20081
929.473	18.04657
929.858	32.07985
930.243	24.05926
930.628	87.21705
931.013	57.14396
931.398	31.07248
931.783	57.15028
932.167	67.16812
932.552	27.06819
932.937	73.18245
933.321	18.04634
933.705	40.10298
934.09	73.1839
934.474	38.09178
934.858	38.09997
935.242	22.0527
935.626	31.08137
936.009	-30.08062
936.393	66.16927
936.777	23.06009
937.16	-22.05827
937.544	27.06461
937.927	61.15811
938.311	67.16466
938.694	46.12212
939.077	41.10028
939.46	9.022
939.843	100.2155
940.226	23.06011
940.609	114.26993
940.991	35.09075
941.374	49.12229
941.757	15.03752
942.139	71.16581
942.522	65.15442
942.904	48.11764
943.286	35.08956
943.668	52.13666
944.05	69.17264
944.432	64.16207
944.814	32.07939
945.196	47.11836
945.578	105.25796
945.959	67.16021
946.341	19.04651
946.722	58.13818
947.104	14.03443
947.485	50.11894
947.866	83.21476
948.247	-3.00768
948.628	10.0247
949.009	30.07868
949.39	47.11832
949.771	99.23337
950.152	49.12331
950.532	32.08147
950.913	49.12029
951.293	38.10432
951.674	108.269
952.054	85.21574
952.434	54.13557
952.814	51.12376
953.194	32.08424
953.574	28.06941
953.954	11.02687
954.334	67.16963
954.714	7.01762
955.093	54.13367
955.473	2.0051
955.853	22.05764
956.232	2.00551
956.611	71.1721
956.99	78.19976
957.37	88.22656
957.749	65.15851
958.128	35.09063
958.506	78.20672
958.885	57.14662
959.264	98.24693
959.643	47.10885
960.021	15.03827
960.4	82.1904
960.778	75.18643
961.156	72.18394
961.535	21.05006
961.913	60.14322
962.291	71.18732
962.669	-3.00773
963.047	10.02589
963.424	57.14682
963.802	74.18539
964.18	64.16305
964.557	80.18723
964.935	95.22751
965.312	14.03697
965.69	6.01521
966.067	85.21013
966.444	35.0871
966.821	45.11692
967.198	64.15668
967.575	21.05188
967.952	50.11967
968.329	65.16087
968.705	59.12859
969.082	60.15678
969.458	62.15381
969.835	74.18177
970.211	55.14423
970.587	30.07586
970.963	24.06233
971.339	35.09287
971.715	42.10636
972.091	37.09284
972.467	17.0433
972.843	-2.0051
973.219	60.14405
973.594	68.18172
973.97	79.18926
974.345	-7.01734
974.721	0
975.096	23.05686
975.471	89.21371
975.846	36.08794
976.221	66.17163
976.596	83.203
976.971	40.10025
977.346	37.08736
977.72	78.20116
978.095	26.06854
978.469	42.10167
978.844	28.07083
979.218	10.02455
979.593	97.23345
979.967	68.16765
980.341	6.01418
980.715	63.16132
981.089	23.058
981.463	101.2392
981.837	82.20402
982.21	67.15745
982.584	73.17921
982.957	59.15049
983.331	85.20387
983.704	-51.12742
984.078	48.12094
984.451	14.03509
984.824	40.09985
985.197	56.1376
985.57	54.13713
985.943	26.06469
986.316	63.1562
986.688	30.07342
987.061	92.22028
987.434	62.16316
987.806	60.14803
988.179	53.12857
988.551	79.20271
988.923	56.13984
989.295	20.04989
989.667	38.09389
990.039	91.229
990.411	46.10825
990.783	37.08692
991.155	40.10017
991.527	39.09649
991.898	33.08423
992.27	14.03529
992.641	17.04323
993.012	102.24189
993.384	1.00243
993.755	44.11466
994.126	30.07342
994.497	34.08549
994.868	43.10168
995.239	4.00989
995.61	18.04652
995.98	58.14473
996.351	25.06323
996.722	55.13242
997.092	36.08771
997.462	34.08225
997.833	69.16512
998.203	30.07363
998.573	16.04056
998.943	39.09425
999.313	43.10588
999.683	47.11653
1000.053	61.14391
1000.423	-9.02227
1000.792	55.1452
1001.162	27.06743
1001.531	39.09804
1001.901	72.18394
1002.27	47.10769
1002.639	30.07839
1003.009	20.0484
1003.378	14.03617
1003.747	74.17934
1004.116	30.07374
1004.485	37.08952
1004.853	60.15361
1005.222	21.05349
1005.591	48.11572
1005.959	63.14736
1006.328	29.06735
1006.696	62.1537
1007.064	15.03833
1007.433	48.1212
1007.801	-4.00995
1008.169	22.05595
1008.537	71.16084
1008.905	37.08898
1009.273	11.02745
1009.64	81.19863
1010.008	80.19425
1010.375	23.05523
1010.743	63.14684
1011.11	45.10945
1011.478	0
1011.845	57.13593
1012.212	71.16522
1012.579	13.0324
1012.946	67.16119
1013.313	71.16971
1013.68	39.08943
1014.047	33.08116
1014.414	49.11887
1014.78	-17.04312
1015.147	35.08506
1015.513	38.09362
1015.88	35.08965
1016.246	6.01486
1016.612	42.09702
1016.978	49.12203
1017.344	64.16132
1017.71	37.09026
1018.076	45.10752
1018.442	17.04403
1018.808	15.03836
1019.174	27.06935
1019.539	87.19805
1019.905	31.07483
1020.27	21.0533
1020.636	39.09514
1021.001	23.05602
1021.366	58.1421
1021.731	14.03617
1022.096	13.03363
1022.461	41.09894
1022.826	36.08712
1023.191	10.02659
1023.556	56.13454
1023.92	50.12363
1024.285	29.07214
1024.649	62.15426
1025.014	44.11083
1025.378	51.13032
1025.742	89.22373
1026.107	63.14423
1026.471	17.04001
1026.835	68.17189
1027.199	91.22653
1027.562	49.11614
1027.926	36.08924
1028.29	78.20088
1028.654	94.21913
1029.017	17.04221
1029.381	18.04416
1029.744	23.05922
1030.107	42.10079
1030.471	27.0653
1030.834	51.11779
1031.197	16.03885
1031.56	22.05286
1031.923	29.07597
1032.286	21.05025
1032.648	85.20705
1033.011	-1.00235
1033.374	22.05227
1033.736	36.09627
1034.099	74.18391
1034.461	-12.03089
1034.823	26.06572
1035.185	25.06402
1035.548	45.1121
1035.91	50.12191
1036.272	24.0554
1036.634	45.11047
1036.995	53.12799
1037.357	41.10177
1037.719	-20.04938
1038.08	45.1081
1038.442	23.05565
1038.803	18.04398
1039.165	59.15224
1039.526	40.09825
1039.887	49.11971
1040.248	28.07025
1040.609	7.01743
1040.97	32.08017
1041.331	15.03865
1041.692	86.2078
1042.053	52.12122
1042.413	64.1516
1042.774	24.05928
1043.134	100.24044
1043.495	29.07355
1043.855	17.04209
1044.215	39.09892
1044.576	60.14809
1044.936	34.07957
1045.296	48.1212
1045.656	18.04469
1046.016	39.09496
1046.375	-11.02719
1046.735	47.10967
1047.095	30.07169
1047.454	89.19118
1047.814	43.10517
1048.173	-11.02627
1048.533	68.15802
1048.892	24.05965
1049.251	82.20735
1049.61	-2.00504
1049.969	100.24144
1050.328	17.03799
1050.687	17.04214
1051.046	-30.0744
1051.405	95.23992
1051.763	20.04747
1052.122	31.07874
1052.48	21.0518
1052.839	38.0913
1053.197	45.10859
1053.555	4.00907
1053.914	30.07372
1054.272	17.04133
1054.63	33.08302
1054.988	55.13357
1055.345	46.10181
1055.703	83.20074
1056.061	57.14764
1056.419	20.05256
1056.776	4.00979
1057.134	65.1534
1057.491	23.05829
1057.848	6.01507
1058.206	48.11524
1058.563	4.00909
1058.92	40.09273
1059.277	43.10708
1059.634	27.06459
1059.991	61.1482
1060.348	58.13484
1060.704	41.10021
1061.061	75.17494
1061.418	29.07138
1061.774	12.0303
1062.131	59.15832
1062.487	30.07189
1062.843	24.06041
1063.199	78.1971
1063.555	38.09095
1063.911	46.11632
1064.267	79.16655
1064.623	49.12127
1064.979	68.1622
1065.335	65.15578
1065.691	31.07529
1066.046	-18.03992
1066.402	47.11062
1066.757	29.07384
1067.112	16.03968
1067.468	87.21397
1067.823	50.12277
1068.178	8.01962
1068.533	56.13786
1068.888	60.14443
1069.243	52.1298
1069.598	37.09167
1069.952	43.10026
1070.307	43.10972
1070.662	42.1011
1071.016	44.1012
1071.371	36.08343
1071.725	37.08969
1072.079	23.05598
1072.434	26.06483
1072.788	52.12645
1073.142	107.2651
1073.496	64.15371
1073.85	8.01883
1074.203	102.25295
1074.557	66.1769
1074.911	25.06003
1075.265	32.07586
1075.618	31.07616
1075.971	51.12307
1076.325	59.15198
1076.678	76.17898
1077.031	69.16006
1077.385	53.12056
1077.738	47.10903
1078.091	49.11483
1078.444	90.21096
1078.796	27.06699
1079.149	17.04281
1079.502	32.07869
1079.855	87.20684
1080.207	30.07505
1080.56	10.02625
1080.912	43.10552
1081.264	43.10533
1081.617	53.1328
1081.969	65.16743
1082.321	27.06672
1082.673	24.05696
1083.025	75.18098
1083.377	-156.35993
1083.728	23.05437
1084.08	16.04056
1084.432	45.1108
1084.783	49.11623
1085.135	11.02817
1085.486	72.17035
1085.838	79.19695
1086.189	14.03449
1086.54	35.08468
1086.891	31.08021
1087.242	28.06875
1087.593	33.08137
1087.944	28.0643
1088.295	51.11802
1088.646	83.20459
1088.996	51.12455
1089.347	23.05753
1089.698	20.04865
1090.048	11.02859
1090.398	39.0914
1090.749	40.0976
1091.099	90.23283
1091.449	13.03297
1091.799	49.12459
1092.149	64.16178
1092.499	25.06196
1092.849	52.13462
1093.199	31.07798
1093.548	17.04206
1093.898	14.03577
1094.248	37.09574
1094.597	28.07393
1094.947	15.04041
1095.296	-19.0479
1095.645	25.06576
1095.994	31.07531
1096.343	49.12455
1096.692	104.28122
1097.041	-22.06026
1097.39	97.24716
1097.739	74.19316
1098.088	67.18044
1098.437	14.03756
1098.785	-2.00542
1099.134	39.10397
1099.482	36.09996
1099.83	-22.05846
1100.179	78.20707
1100.527	32.08552
1100.875	1.00269
1101.223	38.10162
1101.571	14.03917
1101.919	77.2054
1102.267	28.07931
1102.615	13.0419
1102.962	3.00966
1103.31	10.0322
1103.658	15.04837
