Data from N2 R0 150C sample10_Subt2__6__13-50-23-101.txt Node

Date: Tue Aug 19 13:50:23 PDT 2025
User: uwsun
Spectrometer: HDX01956
Trigger mode: 0
Integration Time (sec): 5.000000E-1
Scans to average: 1
Nonlinearity correction enabled: true
Boxcar width: 0
Storing dark spectrum: false
XAxis mode: Wavelengths
Number of Pixels in Spectrum: 2068
>>>>>Begin Spectral Data<<<<<
194.03	134.38606
194.578	130.41805
195.127	139.44067
195.676	127.40468
196.225	153.41579
196.773	142.40123
197.321	208.58573
197.87	318.83077
198.418	318.8214
198.966	335.88305
199.513	280.70996
200.061	310.79964
200.609	289.76952
201.156	261.59004
201.704	316.81087
202.251	320.85867
202.798	278.73445
203.345	243.61584
203.892	299.7631
204.438	315.7649
204.985	340.82729
205.532	322.85322
206.078	309.7708
206.624	338.84235
207.17	320.75704
207.716	314.77602
208.262	281.57391
208.808	341.85982
209.354	313.77681
209.899	288.73128
210.445	364.91599
210.99	322.79462
211.535	358.85542
212.08	365.86697
212.625	322.81729
213.17	344.87435
213.715	344.79962
214.259	355.83641
214.804	311.77185
215.348	260.60964
215.892	338.81658
216.436	346.81093
216.98	340.7722
217.524	288.69529
218.068	406.0244
218.612	363.91429
219.155	306.73232
219.698	329.7938
220.242	272.68846
220.785	312.73726
221.328	302.75593
221.871	309.78083
222.414	310.77735
222.956	337.82933
223.499	302.69397
224.041	307.72587
224.583	265.5805
225.126	303.68107
225.668	276.67937
226.21	270.68801
226.751	270.61349
227.293	361.8383
227.835	303.75337
228.376	319.74255
228.918	338.85485
229.459	284.71831
230	286.68942
230.541	383.89815
231.082	257.62643
231.622	260.61083
232.163	282.69516
232.704	239.60161
233.244	309.77135
233.784	262.65086
234.324	298.68231
234.864	266.61907
235.404	286.6889
235.944	306.7312
236.484	281.70097
237.023	298.7197
237.563	289.67988
238.102	260.62011
238.641	278.71139
239.18	302.72274
239.719	320.8053
240.258	293.67343
240.797	360.8684
241.335	300.74224
241.874	320.6457
242.412	318.77898
242.95	282.68799
243.488	361.83432
244.026	261.6145
244.564	327.68907
245.102	320.73003
245.64	326.78403
246.177	307.70503
246.715	321.77859
247.252	322.74968
247.789	371.7137
248.326	304.7469
248.863	315.71239
249.4	289.67167
249.936	253.53876
250.473	337.79833
251.009	342.80093
251.546	330.74007
252.082	350.77717
252.618	317.71633
253.154	338.82458
253.69	292.6675
254.226	336.80593
254.761	354.81571
255.297	312.69281
255.832	295.70425
256.367	364.8651
256.903	291.64739
257.438	318.75347
257.972	351.79702
258.507	331.77654
259.042	379.83858
259.576	325.72512
260.111	335.78132
260.645	318.69438
261.179	350.82062
261.713	355.80676
262.247	360.84077
262.781	357.7655
263.315	383.9404
263.849	340.85684
264.382	319.73991
264.915	349.8344
265.449	374.93
265.982	340.78845
266.515	346.84031
267.048	359.78439
267.58	344.76512
268.113	316.70169
268.646	342.85046
269.178	332.75679
269.71	346.77116
270.243	327.75426
270.775	320.81222
271.307	318.77001
271.838	315.74565
272.37	289.71909
272.902	370.84543
273.433	347.76042
273.965	356.86783
274.496	276.68737
275.027	328.81655
275.558	359.87236
276.089	327.81686
276.62	357.90337
277.15	352.85648
277.681	350.7762
278.211	296.71568
278.741	363.81356
279.272	350.80553
279.802	337.83757
280.332	337.80171
280.861	385.9243
281.391	319.73493
281.921	372.89531
282.45	360.89813
282.98	346.89741
283.509	341.77181
284.038	316.73281
284.567	324.75552
285.096	374.90523
285.625	393.90068
286.153	354.82838
286.682	365.84122
287.21	391.93977
287.739	399.94588
288.267	351.85229
288.795	346.88937
289.323	388.91928
289.851	416.9757
290.378	397.89597
290.906	358.87238
291.433	351.86727
291.961	358.81769
292.488	373.91823
293.015	390.92437
293.542	413.03486
294.069	386.93602
294.596	408.99046
295.122	367.87608
295.649	357.79189
296.175	458.09957
296.702	411.98182
297.228	398.95387
297.754	413.94271
298.28	418.94931
298.806	379.90748
299.332	411.91771
299.857	397.89633
300.383	434.07096
300.908	395.9555
301.433	374.89875
301.958	413.93967
302.483	412.01359
303.008	419.01738
303.533	390.99087
304.058	453.05057
304.582	436.02005
305.107	423.08574
305.631	382.86511
306.155	439.01323
306.679	444.0136
307.203	471.076
307.727	425.99505
308.251	427.03452
308.775	468.09548
309.298	468.11298
309.822	459.13006
310.345	496.15659
310.868	478.11368
311.391	472.12723
311.914	460.12649
312.437	471.05612
312.96	438.01512
313.482	458.06114
314.005	512.2429
314.527	479.21944
315.049	484.17176
315.571	490.08776
316.093	540.28987
316.615	494.165
317.137	518.10277
317.659	532.25571
318.18	466.08568
318.702	451.02361
319.223	570.16207
319.744	496.09471
320.265	528.23952
320.786	583.38446
321.307	532.27412
321.828	590.29273
322.348	605.36928
322.869	578.32904
323.389	318.50351
323.909	545.20629
324.43	565.29057
324.95	595.30836
325.47	573.33718
325.989	620.3899
326.509	589.25879
327.029	595.28041
327.548	565.22774
328.067	646.48495
328.587	622.45703
329.106	599.28074
329.625	616.50733
330.144	680.48703
330.662	612.33254
331.181	633.40016
331.7	655.45369
332.218	723.47684
332.736	696.52525
333.255	653.43063
333.773	692.51966
334.291	729.65951
334.808	771.60487
335.326	795.65195
335.844	730.58504
336.361	807.8563
336.879	795.72078
337.396	794.73943
337.913	776.63211
338.43	800.64722
338.947	820.7504
339.464	766.52201
339.981	799.7243
340.497	761.69471
341.014	825.81987
341.53	800.62066
342.046	809.77936
342.562	818.83857
343.078	896.87643
343.594	869.84506
344.11	846.78568
344.626	874.95403
345.141	895.79476
345.657	976.90119
346.172	928.95971
346.687	901.84334
347.202	980.9144
347.717	976.02357
348.232	940.04293
348.747	1022.02514
349.261	973.8698
349.776	952.94995
350.29	959.07151
350.805	1048.23271
351.319	978.98704
351.833	992.92418
352.347	999.00749
352.861	965.93528
353.374	1061.03969
353.888	1044.13791
354.401	1048.04401
354.915	1086.05746
355.428	1106.28536
355.941	1081.12788
356.454	1137.10065
356.967	1031.04633
357.48	1101.09252
357.993	1169.3551
358.505	1152.30229
359.018	1180.35077
359.53	1199.36834
360.042	1189.13827
360.554	1189.32455
361.066	1141.29546
361.578	1228.13189
362.09	1167.24612
362.602	1168.09449
363.113	1228.31036
363.625	1256.25521
364.136	1215.14303
364.647	1271.3944
365.158	1246.29186
365.669	1277.40457
366.18	1229.2993
366.691	1248.18498
367.201	1300.44621
367.712	1349.39029
368.222	1325.35966
368.733	1380.34697
369.243	1354.32341
369.753	1450.56549
370.263	1475.6616
370.773	1400.59404
371.282	1441.56982
371.792	1472.5939
372.301	1475.66832
372.811	1506.88998
373.32	1482.31824
373.829	1556.675
374.338	1612.51209
374.847	1762.77533
375.356	1673.76809
375.865	1789.48161
376.373	1917.78396
376.882	1972.18179
377.39	1900.95317
377.898	1990.10325
378.407	2068.76141
378.915	2120.61236
379.423	2303.02423
379.93	2301.80015
380.438	2454.18918
380.946	2652.05984
381.453	2683.09898
381.96	2734.01429
382.468	2960.99965
382.975	3139.98181
383.482	3146.51706
383.989	3265.19678
384.495	3299.59402
385.002	3592.04654
385.509	3815.51585
386.015	3987.44669
386.521	4112.98763
387.028	4265.74524
387.534	4555.36737
388.04	4628.67282
388.546	4739.30686
389.051	4913.0043
389.557	5289.96589
390.063	5734.75012
390.568	5856.81983
391.073	6217.48423
391.578	6355.73193
392.084	6460.32087
392.589	6723.21147
393.093	7184.652
393.598	7843.27368
394.103	8507.46172
394.607	9320.78916
395.112	10068.48792
395.616	10813.31743
396.12	11734.10378
396.624	12824.13169
397.128	13936.80752
397.632	15430.61608
398.136	16807.77193
398.639	17520.67825
399.143	19529.56713
399.646	21931.02719
400.15	24404.29562
400.653	26593.25599
401.156	30156.71709
401.659	34650.21795
402.162	41994.36298
402.664	52127.06241
403.167	48816.05259
403.67	22278.45323
404.172	2696.20453
404.674	0
405.176	0
405.678	0
406.18	0
406.682	0
407.184	0
407.686	25783.58453
408.187	43316.52985
408.688	51225.60928
409.19	54389.01922
409.691	56215.4214
410.192	57270.57019
410.693	57535.95666
411.194	52709.87361
411.694	50265.84158
412.195	47633.30992
412.696	43080.12953
413.196	40105.23421
413.696	39528.53919
414.196	40097.80126
414.696	40418.66645
415.196	39095.24082
415.696	35644.51735
416.196	29105.76795
416.695	22151.72459
417.195	18459.5611
417.694	17597.91508
418.194	16733.1229
418.693	15670.60886
419.192	15077.31546
419.691	14931.41038
420.19	14578.12549
420.688	14109.86056
421.187	13587.615
421.685	13108.77023
422.184	11666.55721
422.682	10098.90088
423.18	8529.49293
423.678	7489.9096
424.176	6973.587
424.674	6417.32926
425.172	6249.65914
425.669	5923.0041
426.167	5551.95989
426.664	5051.22434
427.161	4560.50889
427.659	4193.22665
428.156	4034.59843
428.652	3828.83653
429.149	3605.68174
429.646	3414.29357
430.143	3289.77488
430.639	3051.82119
431.135	2911.20241
431.632	2782.78486
432.128	2559.03687
432.624	2439.34765
433.12	2385.76842
433.616	2356.62985
434.111	2184.91325
434.607	2132.96954
435.103	2071.43986
435.598	2090.45158
436.093	1943.8207
436.588	1855.55219
437.083	1758.55634
437.578	1678.61457
438.073	1583.82144
438.568	1491.61875
439.062	1508.28769
439.557	1470.50762
440.051	1382.29901
440.546	1336.28265
441.04	1422.55067
441.534	1312.57573
442.028	1310.38246
442.522	1281.36641
443.015	1215.06772
443.509	1205.32496
444.002	1214.34292
444.496	1173.0483
444.989	1127.19275
445.482	1117.23992
445.975	1198.18465
446.468	1145.96384
446.961	1147.99137
447.454	1097.99366
447.947	1077.10515
448.439	1008.98773
448.931	1074.00213
449.424	956.0005
449.916	1054.11386
450.408	1029.92649
450.9	1001.04097
451.392	924.97081
451.884	961.85113
452.375	959.03718
452.867	943.79383
453.358	955.84571
453.849	970.73874
454.341	923.77868
454.832	893.65993
455.323	821.74914
455.814	883.75683
456.304	889.75895
456.795	880.74558
457.285	842.61033
457.776	845.65854
458.266	820.70432
458.756	789.64893
459.247	833.74172
459.737	816.72457
460.226	842.66545
460.716	801.70281
461.206	743.59653
461.695	693.54256
462.185	746.55038
462.674	758.57464
463.163	700.38811
463.653	727.39911
464.142	667.46502
464.63	695.5419
465.119	647.36441
465.608	699.4742
466.096	670.33472
466.585	660.38912
467.073	611.33515
467.561	617.35565
468.05	631.34634
468.538	599.35129
469.026	639.40052
469.513	713.47942
470.001	552.16865
470.489	606.33676
470.976	623.33212
471.463	481.1253
471.951	527.222
472.438	516.14035
472.925	519.14054
473.412	529.20339
473.899	479.03705
474.385	512.17381
474.872	563.24826
475.359	518.19707
475.845	482.97079
476.331	429.88173
476.817	455.04898
477.303	412.92545
477.789	494.12569
478.275	468.09847
478.761	435.00955
479.247	465.01183
479.732	354.86231
480.218	413.02706
480.703	411.98557
481.188	404.84813
481.673	394.88176
482.158	345.74296
482.643	355.8662
483.128	408.90969
483.612	376.85706
484.097	346.81695
484.581	371.83696
485.066	392.93019
485.55	299.66242
486.034	288.61929
486.518	347.81057
487.002	362.88015
487.486	302.72908
487.969	341.82554
488.453	285.70269
488.936	282.64491
489.42	272.60098
489.903	276.68288
490.386	303.51402
490.869	304.66044
491.352	249.60512
491.835	291.60917
492.318	331.76197
492.8	294.62185
493.283	308.77955
493.765	282.69337
494.247	257.60108
494.73	263.58923
495.212	250.60356
495.694	230.54436
496.175	293.70322
496.657	256.60847
497.139	281.51142
497.62	255.61249
498.102	253.62907
498.583	201.50561
499.064	254.58602
499.545	235.54726
500.026	240.55086
500.507	228.53942
500.988	285.70965
501.469	230.58383
501.949	261.64825
502.43	213.51919
502.91	239.51647
503.39	203.50862
503.87	217.52578
504.35	217.51667
504.83	254.57246
505.31	205.50231
505.79	244.59641
506.269	269.63899
506.749	177.41739
507.228	156.38105
507.707	223.50804
508.187	213.51065
508.666	198.49815
509.145	211.5099
509.623	157.37784
510.102	220.54215
510.581	170.41539
511.059	205.52268
511.538	205.53168
512.016	260.63528
512.494	191.47441
512.972	201.48812
513.45	207.49797
513.928	224.55971
514.406	208.51993
514.884	224.58265
515.361	259.63201
515.839	198.46845
516.316	224.5516
516.793	175.45075
517.27	152.37473
517.747	178.46571
518.224	213.50988
518.701	271.62636
519.178	142.36009
519.654	138.33859
520.131	167.4213
520.607	183.461
521.083	199.47018
521.56	226.5516
522.036	177.40684
522.512	164.40832
522.987	209.51154
523.463	224.54875
523.939	181.45383
524.414	200.4741
524.89	161.3945
525.365	184.4355
525.84	206.51046
526.315	145.36384
526.79	210.4903
527.265	231.54916
527.74	179.44688
528.215	234.56793
528.689	168.3907
529.164	200.44966
529.638	164.4323
530.112	151.37288
530.587	161.36443
531.061	164.4098
531.534	127.3158
532.008	203.50311
532.482	137.3232
532.956	151.39393
533.429	166.41375
533.903	167.38293
534.376	116.26967
534.849	165.39814
535.322	162.39629
535.795	155.38977
536.268	119.29537
536.741	144.3567
537.213	167.39992
537.686	126.32042
538.158	134.31434
538.631	137.34141
539.103	149.35328
539.575	160.34776
540.047	136.31366
540.519	186.45871
540.991	145.36462
541.463	134.33654
541.934	172.40993
542.406	142.35316
542.877	167.39763
543.348	157.39196
543.82	99.2502
544.291	130.3147
544.762	120.29584
545.233	121.31395
545.703	162.37645
546.174	156.37778
546.645	192.47612
547.115	172.43119
547.585	143.34258
548.056	207.51995
548.526	232.56666
548.996	159.39307
549.466	184.45761
549.935	176.43277
550.405	177.40651
550.875	163.3994
551.344	211.52179
551.814	229.54503
552.283	177.39705
552.752	169.41149
553.221	233.53832
553.69	189.43459
554.159	251.63227
554.628	244.56654
555.096	236.61302
555.565	260.60177
556.033	208.50275
556.502	194.48318
556.97	190.43942
557.438	160.39256
557.906	208.50616
558.374	172.4115
558.842	163.40177
559.31	179.41932
559.777	143.35804
560.245	172.42091
560.712	177.42936
561.18	214.50179
561.647	148.34894
562.114	171.40856
562.581	188.47435
563.048	173.41619
563.514	132.33687
563.981	125.30015
564.448	153.36234
564.914	187.45327
565.381	177.42015
565.847	189.46104
566.313	165.4025
566.779	169.39435
567.245	142.34943
567.711	176.43995
568.176	193.45565
568.642	165.42839
569.108	182.46397
569.573	255.62387
570.038	251.56073
570.504	179.41899
570.969	245.6319
571.434	293.67747
571.899	237.58522
572.363	227.5382
572.828	242.57121
573.293	304.7153
573.757	226.53552
574.222	289.67617
574.686	255.60551
575.15	257.62946
575.614	282.66613
576.078	327.78748
576.542	291.68192
577.006	278.64802
577.469	347.85896
577.933	342.79717
578.396	275.66378
578.86	352.83948
579.323	346.8444
579.786	297.66567
580.249	353.83137
580.712	298.73811
581.175	290.72616
581.637	296.68834
582.1	304.69241
582.563	275.61129
583.025	295.72894
583.487	339.71718
583.95	338.76082
584.412	328.71652
584.874	279.6841
585.336	312.75094
585.797	303.67744
586.259	301.72296
586.721	273.65672
587.182	306.72169
587.643	314.72846
588.105	292.70893
588.566	248.54223
589.027	298.7346
589.488	266.62663
589.949	288.70838
590.41	313.64158
590.87	262.60881
591.331	321.70464
591.791	345.81759
592.252	304.71836
592.712	292.70867
593.172	319.74196
593.632	336.75879
594.092	376.85187
594.552	330.73246
595.011	287.6778
595.471	296.67256
595.931	282.6462
596.39	371.89983
596.849	350.82671
597.308	389.85603
597.768	380.96888
598.227	385.91376
598.685	334.76626
599.144	433.00292
599.603	513.19231
600.062	446.9561
600.52	467.03683
600.978	499.14785
601.437	513.13489
601.895	535.10963
602.353	568.21411
602.811	643.38442
603.269	660.50386
603.727	672.53369
604.184	727.55877
604.642	737.68448
605.099	712.54462
605.557	824.83846
606.014	862.72891
606.471	891.01913
606.928	932.84628
607.385	1030.24531
607.842	994.98846
608.299	1178.3457
608.755	1164.39573
609.212	1237.28261
609.668	1283.37833
610.125	1289.57122
610.581	1336.56303
611.037	1459.61932
611.493	1466.72343
611.949	1481.91556
612.405	1532.35189
612.861	1567.82694
613.316	1645.99072
613.772	1664.89803
614.227	1795.12599
614.683	1680.65079
615.138	1746.01562
615.593	1789.0365
616.048	1797.9429
616.503	1797.20896
616.958	1884.43246
617.412	1823.11275
617.867	1849.91157
618.321	1983.77204
618.776	1979.01303
619.23	1879.11986
619.684	1846.96697
620.138	1991.15171
620.592	1904.30449
621.046	1888.10706
621.5	1875.31199
621.954	1850.95528
622.407	1797.87207
622.861	1763.14946
623.314	1785.92306
623.768	1736.9882
624.221	1744.48638
624.674	1709.9067
625.127	1718.95545
625.58	1647.79602
626.033	1604.62771
626.485	1607.94323
626.938	1577.87086
627.39	1572.81958
627.843	1544.7551
628.295	1544.71864
628.747	1494.77563
629.199	1522.67279
629.651	1467.62574
630.103	1471.66239
630.555	1429.35638
631.006	1436.65442
631.458	1410.66154
631.909	1355.46028
632.361	1331.51384
632.812	1410.60619
633.263	1398.36127
633.714	1328.25443
634.165	1447.80623
634.616	1363.62554
635.067	1341.3443
635.518	1329.55382
635.968	1382.14437
636.419	1349.33135
636.869	1391.6097
637.319	1418.57965
637.769	1471.57275
638.219	1406.59749
638.669	1411.66537
639.119	1494.85872
639.569	1531.82718
640.019	1512.65651
640.468	1571.62494
640.918	1700.97189
641.367	1709.77288
641.816	1750.82986
642.265	1757.90991
642.714	1705.85834
643.163	1864.04878
643.612	1901.30352
644.061	1916.82727
644.51	1989.15734
644.958	2031.94919
645.406	2037.30531
645.855	2114.46489
646.303	2130.22741
646.751	2139.20836
647.199	2256.19351
647.647	2220.23806
648.095	2288.32571
648.543	2266.7837
648.99	2333.41416
649.438	2356.39638
649.885	2359.65958
650.333	2407.63701
650.78	2422.63758
651.227	2441.69986
651.674	2428.25794
652.121	2382.55525
652.568	2332.58304
653.015	2404.72981
653.461	2454.50345
653.908	2453.41401
654.354	2332.41367
654.801	2276.37147
655.247	2392.12594
655.693	2290.90998
656.139	2282.47858
656.585	2241.39806
657.031	2255.36631
657.477	2206.00597
657.922	2170.24722
658.368	2154.50264
658.813	2069.12507
659.259	2102.37581
659.704	2063.17234
660.149	2036.23213
660.594	2074.30256
661.039	1968.04397
661.484	1963.18021
661.929	1957.12501
662.373	1957.52659
662.818	1946.41472
663.262	1878.19654
663.707	1887.40306
664.151	1933.29711
664.595	1899.18235
665.039	1870.3191
665.483	1855.40865
665.927	1853.05466
666.371	1823.02104
666.814	1838.10637
667.258	1897.23003
667.701	1861.73409
668.145	1865.29924
668.588	1807.16985
669.031	1865.15327
669.474	1854.16365
669.917	1820.79479
670.36	1834.2978
670.803	1887.14343
671.245	1761.62395
671.688	1826.14174
672.13	1849.91817
672.573	1768.2216
673.015	1855.17788
673.457	1820.77052
673.899	1781.07092
674.341	1855.17288
674.783	1761.05046
675.225	1841.19511
675.666	1803.18393
676.108	1795.71518
676.549	1794.01521
676.991	1871.90166
677.432	1808.55689
677.873	1727.86599
678.314	1727.01763
678.755	1719.07194
679.196	1714.85734
679.637	1706.03081
680.078	1646.81438
680.518	1692.85696
680.959	1648.97601
681.399	1633.06855
681.839	1579.90466
682.28	1584.97658
682.72	1597.75533
683.16	1430.77123
683.6	1497.57364
684.039	1473.31529
684.479	1490.85241
684.919	1469.67481
685.358	1416.83721
685.798	1436.98354
686.237	1451.73585
686.676	1339.4299
687.115	1375.53815
687.554	1350.53564
687.993	1371.36209
688.432	1361.46377
688.871	1367.47966
689.309	1344.55014
689.748	1368.17296
690.186	1339.51798
690.625	1257.37141
691.063	1332.56752
691.501	1285.53852
691.939	1285.58206
692.377	1263.49267
692.815	1284.49008
693.253	1261.45983
693.69	1247.22931
694.128	1257.50384
694.565	1204.34566
695.003	1222.55106
695.44	1214.34514
695.877	1218.36405
696.314	1222.09694
696.751	1176.17347
697.188	1221.291
697.625	1155.16788
698.061	1191.36999
698.498	1131.26285
698.934	1198.38778
699.371	1153.27519
699.807	1182.2962
700.243	1130.28834
700.679	1141.14781
701.115	1142.2068
701.551	1171.2721
701.987	1159.16372
702.422	1110.23351
702.858	1062.12506
703.294	1130.11202
703.729	1083.24424
704.164	1144.30098
704.599	1080.02326
705.035	1085.08295
705.47	1080.27122
705.904	1122.22472
706.339	1063.02597
706.774	1076.12741
707.209	1113.1583
707.643	1125.26942
708.078	1129.34485
708.512	1050.26778
708.946	1014.04655
709.38	1103.17938
709.814	1084.0646
710.248	1083.20347
710.682	1120.23824
711.116	1084.22093
711.549	1041.27455
711.983	1063.08066
712.416	1120.2043
712.85	1066.26425
713.283	1084.17613
713.716	1118.32968
714.149	1036.07198
714.582	1146.15357
715.015	1018.14257
715.448	1105.33043
715.881	1083.94631
716.313	1050.09135
716.746	1060.13176
717.178	1095.2078
717.61	1048.22694
718.043	1115.30756
718.475	1076.17586
718.907	1143.39178
719.339	1103.11253
719.77	1140.26153
720.202	1149.4075
720.634	1158.377
721.065	1136.24732
721.497	1145.3319
721.928	1123.3231
722.359	1177.39607
722.79	1229.45362
723.221	1123.34062
723.652	1178.46669
724.083	1228.28225
724.514	1234.30134
724.945	1268.41253
725.375	1224.37124
725.806	1225.46022
726.236	1218.53601
726.666	1227.36075
727.096	1275.53508
727.526	1312.68382
727.956	1273.31435
728.386	1286.53166
728.816	1280.61479
729.246	1348.64036
729.675	1360.67635
730.105	1312.52528
730.534	1387.52873
730.964	1352.67419
731.393	1418.68705
731.822	1383.78429
732.251	1507.90634
732.68	1487.61844
733.109	1492.7923
733.537	1486.75123
733.966	1562.96925
734.395	1591.70461
734.823	1568.55837
735.251	1642.93981
735.68	1669.05921
736.108	1630.0355
736.536	1723.8779
736.964	1724.8664
737.392	1743.13874
737.82	1712.95742
738.247	1742.95148
738.675	1820.0054
739.102	1773.19628
739.53	1826.31466
739.957	1875.40497
740.384	1880.14429
740.811	1964.36193
741.238	1942.22821
741.665	1896.96206
742.092	2008.17454
742.519	1979.31961
742.945	2061.24954
743.372	2074.4114
743.798	2143.61705
744.225	2160.26235
744.651	2147.49014
745.077	2182.48886
745.503	2238.40226
745.929	2236.33438
746.355	2323.52714
746.781	2273.51153
747.207	2354.40366
747.632	2305.55183
748.058	2324.58274
748.483	2475.26722
748.908	2476.61307
749.334	2503.60915
749.759	2534.32772
750.184	2481.46498
750.609	2624.65046
751.033	2633.39083
751.458	2716.14967
751.883	2753.68585
752.307	2763.47598
752.732	2804.86807
753.156	2814.77255
753.58	2817.50763
754.005	2924.81905
754.429	2900.47386
754.853	2877.72656
755.277	2925.40573
755.7	2995.7707
756.124	2996.77329
756.548	3050.55135
756.971	3100.55865
757.394	3156.03553
757.818	3189.96864
758.241	3204.90833
758.664	3217.92147
759.087	3221.20136
759.51	3320.72502
759.933	3357.60853
760.356	3255.92622
760.778	3360.78532
761.201	3365.61276
761.623	3384.51097
762.046	3339.44409
762.468	3401.38537
762.89	3510.62026
763.312	3491.68994
763.734	3369.54007
764.156	3513.68854
764.578	3496.29189
765	3554.6247
765.421	3535.91846
765.843	3512.06254
766.264	3465.52562
766.686	3498.70792
767.107	3446.54016
767.528	3546.89133
767.949	3485.89551
768.37	3480.53887
768.791	3449.56396
769.212	3401.87046
769.632	3522.35549
770.053	3494.15194
770.473	3439.58475
770.894	3432.70269
771.314	3409.35986
771.734	3306.38114
772.154	3394.87395
772.575	3331.25181
772.994	3377.19023
773.414	3402.47043
773.834	3365.79829
774.254	3336.73409
774.673	3291.57704
775.093	3157.73144
775.512	3200.66543
775.931	3137.86822
776.351	3177.73887
776.77	3134.67003
777.189	3106.46521
777.607	3068.92091
778.026	3015.80251
778.445	2967.83981
778.864	2971.91255
779.282	2970.56356
779.701	2845.7596
780.119	2926.99697
780.537	2873.7888
780.955	2775.75435
781.373	2815.66335
781.791	2729.15556
782.209	2649.21175
782.627	2678.10914
783.045	2668.31099
783.462	2564.82758
783.88	2548.86951
784.297	2554.72365
784.715	2544.85663
785.132	2487.52514
785.549	2415.65107
785.966	2375.6162
786.383	2303.4739
786.8	2366.22277
787.217	2312.30511
787.633	2239.52907
788.05	2186.16247
788.466	2127.03703
788.883	2112.51234
789.299	2125.25061
789.715	2049.28129
790.131	2039.39041
790.547	2007.28642
790.963	1987.32607
791.379	1928.33783
791.795	1865.8309
792.21	1896.94181
792.626	1819.93693
793.041	1797.14246
793.457	1787.12646
793.872	1759.86744
794.287	1660.8745
794.702	1685.96151
795.117	1633.99698
795.532	1590.9821
795.947	1624.81912
796.362	1568.75118
796.776	1512.55644
797.191	1501.78115
797.605	1482.6871
798.02	1406.62573
798.434	1410.314
798.848	1336.60704
799.262	1385.70727
799.676	1326.50013
800.09	1300.57951
800.504	1223.35528
800.918	1201.25557
801.331	1134.41606
801.745	1123.09838
802.158	1122.31434
802.572	1097.16146
802.985	1062.1153
803.398	1062.09773
803.811	1008.14648
804.224	983.04217
804.637	918.89379
805.05	922.80351
805.462	925.94188
805.875	872.98309
806.288	885.87009
806.7	850.8723
807.112	822.63874
807.525	794.72264
807.937	725.60318
808.349	770.71017
808.761	743.63071
809.173	713.54515
809.584	725.58918
809.996	686.52539
810.408	630.4976
810.819	658.41827
811.231	672.61642
811.642	683.52154
812.053	693.53555
812.464	668.46138
812.875	632.47816
813.286	650.53037
813.697	596.27349
814.108	559.25942
814.519	499.03161
814.929	552.29996
815.34	530.21708
815.75	470.13185
816.16	514.19064
816.571	456.10594
816.981	466.02881
817.391	484.10597
817.801	418.00413
818.211	399.8946
818.62	450.03805
819.03	438.01192
819.44	414.02039
819.849	406.96747
820.259	362.87949
820.668	311.75038
821.077	382.92145
821.486	389.89259
821.895	369.86533
822.304	329.84347
822.713	376.86052
823.122	300.73026
823.531	345.79894
823.939	265.63748
824.348	333.78946
824.756	344.8364
825.164	290.70566
825.573	268.67133
825.981	330.78944
826.389	227.56526
826.797	236.57579
827.205	268.61117
827.612	256.62387
828.02	263.61173
828.428	249.62611
828.835	196.51193
829.243	286.67374
829.65	218.53722
830.057	206.49904
830.464	163.39688
830.871	211.49988
831.278	184.44088
831.685	212.47273
832.092	191.46853
832.499	177.38774
832.905	171.43
833.312	197.44954
833.718	194.48055
834.124	169.38487
834.531	162.40554
834.937	131.33131
835.343	160.38776
835.749	126.29176
836.155	140.3653
836.561	179.44185
836.966	139.34123
837.372	140.3569
837.777	181.45269
838.183	167.36907
838.588	65.16205
838.993	110.26929
839.399	117.2886
839.804	105.25891
840.209	152.39145
840.613	148.33289
841.018	98.24852
841.423	89.22981
841.828	135.34483
842.232	160.393
842.637	142.33883
843.041	110.28614
843.445	81.20595
843.849	108.26861
844.253	144.34425
844.657	87.22316
845.061	119.27506
845.465	88.21615
845.869	149.34946
846.272	106.26258
846.676	71.17282
847.079	89.23132
847.483	82.20506
847.886	124.29746
848.289	84.2264
848.692	92.23512
849.095	91.22298
849.498	100.2516
849.901	90.20857
850.304	108.26233
850.707	82.20964
851.109	84.21203
851.512	82.20617
851.914	121.31254
852.316	35.08912
852.718	54.14244
853.121	47.11772
853.523	86.20733
853.925	71.18889
854.326	6.01531
854.728	112.29135
855.13	73.19253
855.531	162.39319
855.933	47.11346
856.334	36.092
856.736	85.19577
857.137	47.1117
857.538	89.22845
857.939	111.27983
858.34	77.18994
858.741	63.16627
859.142	68.16666
859.542	79.21136
859.943	76.19101
860.343	31.07865
860.744	51.12627
861.144	21.05182
861.544	50.1244
861.945	107.27753
862.345	53.13146
862.745	90.22904
863.145	82.19746
863.544	72.18388
863.944	15.03609
864.344	41.10347
864.743	70.17435
865.143	96.2487
865.542	65.15459
865.941	85.21475
866.34	52.12659
866.74	56.15113
867.139	90.22115
867.537	34.0879
867.936	88.21567
868.335	37.09604
868.734	92.24047
869.132	95.22603
869.531	43.10459
869.929	102.23946
870.327	50.12327
870.726	51.12761
871.124	100.23815
871.522	72.18594
871.92	64.16109
872.318	83.20527
872.715	63.15598
873.113	59.14752
873.511	96.24465
873.908	43.1123
874.306	82.20875
874.703	45.11401
875.1	107.27398
875.497	76.18723
875.894	74.18652
876.291	39.0973
876.688	61.16153
877.085	47.11414
877.482	32.08147
877.878	72.17698
878.275	79.2042
878.671	77.17486
879.068	102.24831
879.464	42.10351
879.86	37.08945
880.256	39.09786
880.652	51.13196
881.048	44.11023
881.444	24.05779
881.84	58.14922
882.236	46.11715
882.631	83.20864
883.027	15.03688
883.422	40.10373
883.817	72.18704
884.213	77.20075
884.608	47.11857
885.003	77.19029
885.398	71.18263
885.793	46.11715
886.188	97.24698
886.582	32.08227
886.977	74.17874
887.371	-25.06413
887.766	9.02312
888.16	64.16161
888.554	41.1021
888.949	66.16677
889.343	37.0915
889.737	47.12868
890.131	32.08112
890.525	62.16029
890.918	16.04078
891.312	2.00484
891.706	20.05251
892.099	27.06911
892.492	72.15989
892.886	48.11895
893.279	46.11974
893.672	-5.01283
894.065	57.14421
894.458	68.17488
894.851	81.20017
895.244	14.03641
895.637	42.10381
896.029	24.05987
896.422	80.19701
896.814	28.07083
897.206	34.08296
897.599	43.10704
897.991	76.18523
898.383	76.18502
898.775	50.11546
899.167	50.12054
899.559	75.19097
899.951	37.08901
900.342	29.07431
900.734	54.13854
901.125	59.15629
901.517	92.22965
901.908	76.1835
902.299	56.14181
902.69	50.12118
903.082	47.11577
903.473	68.16746
903.863	50.12944
904.254	71.16977
904.645	105.26262
905.036	36.08973
905.426	80.18451
905.817	55.13796
906.207	42.10336
906.597	-9.02156
906.987	69.18069
907.378	21.05372
907.768	47.126
908.158	57.14128
908.547	25.06611
908.937	41.10568
909.327	76.18833
909.717	65.16539
910.106	-11.02717
910.495	79.19937
910.885	80.20567
911.274	42.10673
911.663	54.13733
912.052	61.15114
912.441	-5.01293
912.83	54.12767
913.219	98.25615
913.608	21.05237
913.997	15.03873
914.385	38.09206
914.774	64.1579
915.162	86.2096
915.55	50.12272
915.939	31.0798
916.327	13.0327
916.715	35.09069
917.103	84.20709
917.491	71.17585
917.878	13.0322
918.266	11.0287
918.654	39.10206
919.041	65.17247
919.429	51.12339
919.816	34.08705
920.203	21.05235
920.591	19.04787
920.978	4.00987
921.365	62.16443
921.752	78.18975
922.139	120.26648
922.525	56.13877
922.912	47.11602
923.299	34.0865
923.685	74.1954
924.072	24.05593
924.458	68.17066
924.844	38.09626
925.231	27.06471
925.617	16.04179
926.003	47.12144
926.389	44.113
926.774	42.10813
927.16	60.15118
927.546	50.13087
927.931	72.18181
928.317	14.03288
928.702	5.01204
929.088	65.1578
929.473	49.12609
929.858	12.03005
930.243	28.06908
930.628	71.17765
931.013	45.11389
931.398	56.13029
931.783	33.08736
932.167	102.25433
932.552	29.07321
932.937	82.20461
933.321	32.08218
933.705	34.08763
934.09	42.10639
934.474	61.1467
934.858	63.16504
935.242	10.02401
935.626	48.12564
936.009	-22.05905
936.393	41.10561
936.777	29.07569
937.16	17.04473
937.544	54.12856
937.927	21.05481
938.311	79.19372
938.694	19.05067
939.077	25.06133
939.46	-4.0098
939.843	131.28043
940.226	41.10682
940.609	92.21877
940.991	51.13187
941.374	64.15929
941.757	15.03752
942.139	85.19795
942.522	12.0288
942.904	28.06888
943.286	54.13772
943.668	47.12362
944.05	39.09811
944.432	25.06375
944.814	63.1554
945.196	58.14577
945.578	70.17308
945.959	61.14603
946.341	12.02941
946.722	53.12639
947.104	91.22058
947.485	60.14246
947.866	58.15072
948.247	18.04592
948.628	20.04931
949.009	27.07085
949.39	31.07826
949.771	77.18229
950.152	60.15069
950.532	32.08147
950.913	32.07881
951.293	27.07425
951.674	100.24944
952.054	68.17311
952.434	52.1306
952.814	78.18833
953.194	26.06852
953.574	37.09157
953.954	29.07061
954.334	28.07138
954.714	22.05523
955.093	35.08694
955.473	9.02292
955.853	54.14071
956.232	20.05492
956.611	87.21025
956.99	75.19218
957.37	51.13214
957.749	33.08095
958.128	31.08032
958.506	72.19101
958.885	24.06209
959.264	59.1497
959.643	21.04889
960.021	34.08647
960.4	91.21092
960.778	67.16679
961.156	25.0644
961.535	30.07139
961.913	60.14322
962.291	49.12976
962.669	20.05133
963.047	42.10813
963.424	4.0104
963.802	55.13826
964.18	36.09217
964.557	80.18723
964.935	98.23456
965.312	18.0475
965.69	27.06819
966.067	52.12933
966.444	11.02749
966.821	-1.00262
967.198	62.15184
967.575	34.08379
967.952	66.15749
968.329	23.05736
968.705	19.04176
969.082	80.20832
969.458	63.15626
969.835	33.08167
970.211	44.1156
970.587	65.16334
970.963	29.07525
971.339	40.10605
971.715	31.07865
972.091	74.18445
972.467	36.09139
972.843	-13.03319
973.219	62.14879
973.594	75.2002
973.97	61.14664
974.345	45.11039
974.721	8.01955
975.096	19.04701
975.471	76.18294
975.846	43.1049
976.221	90.23307
976.596	29.07164
976.971	42.10522
977.346	36.08501
977.72	76.19607
978.095	64.16763
978.469	31.0752
978.844	26.06579
979.218	70.16997
979.593	47.11419
979.967	46.11387
980.341	35.08225
980.715	60.15372
981.089	45.11304
981.463	110.26006
981.837	29.07285
982.21	85.19905
982.584	28.06931
982.957	50.12774
983.331	45.10875
983.704	-1.00248
984.078	70.17568
984.451	53.13189
984.824	11.0276
985.197	51.12543
985.57	7.01792
985.943	49.1214
986.316	87.21476
986.688	45.10982
987.061	100.23907
987.434	41.10828
987.806	67.16509
988.179	80.19308
988.551	82.2103
988.923	86.21358
989.295	20.04989
989.667	37.09144
990.039	65.16434
990.411	66.15471
990.783	61.14262
991.155	50.12499
991.527	62.15274
991.898	48.1222
992.27	38.09537
992.641	58.1464
993.012	77.18349
993.384	20.04849
993.755	24.06275
994.126	47.11466
994.497	52.13032
994.868	61.14374
995.239	60.14678
995.61	63.16154
995.98	36.09019
996.351	38.09588
996.722	31.07498
997.092	-8.01965
997.462	18.04367
997.833	54.12959
998.203	22.05408
998.573	31.07838
998.943	47.11341
999.313	60.14727
999.683	77.18987
1000.053	62.14624
1000.423	49.11998
1000.792	74.19474
1001.162	11.02755
1001.531	79.19716
1001.901	54.13839
1002.27	46.10542
1002.639	84.21746
1003.009	19.04599
1003.378	34.08753
1003.747	82.19843
1004.116	21.05171
1004.485	5.01217
1004.853	18.04642
1005.222	16.04079
1005.591	22.0533
1005.959	55.12885
1006.328	54.12479
1006.696	79.19523
1007.064	22.05615
1007.433	27.06843
1007.801	30.07418
1008.169	28.07113
1008.537	66.14967
1008.905	17.04104
1009.273	41.10177
1009.64	85.20828
1010.008	88.21335
1010.375	21.05044
1010.743	53.12377
1011.11	72.17423
1011.478	50.12499
1011.845	41.09808
1012.212	80.18583
1012.579	15.03737
1012.946	104.24844
1013.313	54.12949
1013.68	23.05291
1014.047	60.14683
1014.414	13.03175
1014.78	21.0529
1015.147	9.02198
1015.513	96.23397
1015.88	42.10745
1016.246	38.09358
1016.612	14.03252
1016.978	33.08242
1017.344	79.19859
1017.71	28.06842
1018.076	51.12172
1018.442	20.05178
1018.808	68.17226
1019.174	56.14312
1019.539	70.1599
1019.905	50.12027
1020.27	76.19101
1020.636	69.16738
1021.001	20.04874
1021.366	33.08122
1021.731	27.0696
1022.096	38.09787
1022.461	49.11806
1022.826	49.11829
1023.191	43.11371
1023.556	63.15116
1023.92	39.09663
1024.285	44.10916
1024.649	33.08254
1025.014	44.11083
1025.378	76.19334
1025.742	64.16161
1026.107	31.07143
1026.471	64.14925
1026.835	38.09657
1027.199	58.14525
1027.562	59.13957
1027.926	14.03485
1028.29	87.22371
1028.654	69.16164
1029.017	38.09399
1029.381	17.04172
1029.744	-11.02849
1030.107	49.11744
1030.471	-13.03168
1030.834	36.08339
1031.197	28.06783
1031.56	29.06958
1031.923	13.03415
1032.286	90.21253
1032.648	115.27855
1033.011	-14.03301
1033.374	22.05227
1033.736	45.12016
1034.099	61.15196
1034.461	-16.04122
1034.823	15.03799
1035.185	22.05636
1035.548	73.18093
1035.91	59.14361
1036.272	45.10344
1036.634	39.09585
1036.995	74.17799
1037.357	21.05232
1037.719	16.03924
1038.08	15.03624
1038.442	32.07729
1038.803	31.07557
1039.165	88.22592
1039.526	55.13472
1039.887	36.08817
1040.248	19.04775
1040.609	47.11615
1040.97	45.11247
1041.331	60.15339
1041.692	47.1144
1042.053	31.07257
1042.413	53.12581
1042.774	45.11072
1043.134	47.11414
1043.495	25.06345
1043.855	21.05195
1044.215	67.16909
1044.576	73.17974
1044.936	45.10509
1045.296	48.1212
1045.656	24.05952
1046.016	31.0756
1046.375	-20.04953
1046.735	45.10505
1047.095	48.11432
1047.454	33.07174
1047.814	43.10517
1048.173	-32.07674
1048.533	16.03756
1048.892	14.03486
1049.251	67.16987
1049.61	5.01258
1049.969	98.2367
1050.328	31.06908
1050.687	10.02482
1051.046	15.03689
1051.405	64.16253
1051.763	42.09926
1052.122	33.08379
1052.48	-1.00248
1052.839	19.04581
1053.197	57.13723
1053.555	-24.05476
1053.914	14.0345
1054.272	13.03163
1054.63	51.12788
1054.988	55.13357
1055.345	83.18228
1055.703	49.11927
1056.061	53.13737
1056.419	17.0447
1056.776	-21.05163
1057.134	38.09015
1057.491	29.07342
1057.848	24.0601
1058.206	35.08423
1058.563	24.05431
1058.92	24.05582
1059.277	43.10708
1059.634	63.14966
1059.991	32.07817
1060.348	47.1095
1060.704	49.11958
1061.061	66.15422
1061.418	17.04193
1061.774	24.06047
1062.131	30.08089
1062.487	24.05757
1062.843	31.07793
1063.199	55.13955
1063.555	51.12176
1063.911	32.08112
1064.267	59.12493
1064.623	23.05719
1064.979	48.11493
1065.335	53.12731
1065.691	47.1138
1066.046	-54.12066
1066.402	78.18248
1066.757	40.10165
1067.112	42.10366
1067.468	68.16783
1067.823	87.21216
1068.178	21.05138
1068.533	41.10121
1068.888	19.04609
1069.243	48.1199
1069.598	65.16022
1069.952	18.04218
1070.307	68.17275
1070.662	16.0387
1071.016	-21.04893
1071.371	32.07422
1071.725	61.1472
1072.079	-10.02449
1072.434	27.06731
1072.788	47.1144
1073.142	64.15981
1073.496	3.00729
1073.85	29.06796
1074.203	67.16721
1074.557	49.1317
1074.911	51.12186
1075.265	28.06643
1075.618	11.02712
1075.971	59.14216
1076.325	31.08024
1076.678	29.06892
1077.031	52.12103
1077.385	48.10929
1077.738	43.09983
1078.091	40.09391
1078.444	73.17168
1078.796	7.01743
1079.149	8.02018
1079.502	69.16851
1079.855	57.1363
1080.207	43.10732
1080.56	34.0889
1080.912	22.0542
1081.264	84.20419
1081.617	49.12287
1081.969	46.11888
1082.321	21.05195
1082.673	52.12275
1083.025	60.14519
1083.377	86.18883
1083.728	32.07551
1084.08	23.05823
1084.432	43.10591
1084.783	83.19558
1085.135	38.09684
1085.486	49.11645
1085.838	58.14515
1086.189	32.07857
1086.54	54.13018
1086.891	46.11872
1087.242	-7.0173
1087.593	9.02229
1087.944	23.05287
1088.295	72.16593
1088.646	88.21671
1088.996	-9.02223
1089.347	62.15398
1089.698	36.08731
1090.048	0
1090.398	19.0447
1090.749	37.09033
1091.099	63.16374
1091.449	40.10097
1091.799	59.14975
1092.149	86.21654
1092.499	30.07429
1092.849	34.08829
1093.199	29.07298
1093.548	63.15455
1093.898	33.08403
1094.248	27.06998
1094.597	44.11587
1094.947	14.03772
1095.296	7.01757
1095.645	-3.00793
1095.994	36.08738
1096.343	-2.00513
1096.692	76.20644
1097.041	-39.10712
1097.39	97.24716
1097.739	29.07628
1098.088	63.16978
1098.437	-3.00807
1098.785	23.06202
1099.134	37.09867
1099.482	18.05012
1099.83	12.03171
1100.179	67.17819
1100.527	23.06156
1100.875	15.04025
1101.223	-16.04317
1101.571	21.0587
1101.919	43.11535
1102.267	11.03124
1102.615	-1.00323
1102.962	-4.01289
1103.31	-1.00322
1103.658	14.04515
