Data from N2 R0 150C sample10_Subt2__2__13-50-19-101.txt Node

Date: Tue Aug 19 13:50:19 PDT 2025
User: uwsun
Spectrometer: HDX01956
Trigger mode: 0
Integration Time (sec): 5.000000E-1
Scans to average: 1
Nonlinearity correction enabled: true
Boxcar width: 0
Storing dark spectrum: false
XAxis mode: Wavelengths
Number of Pixels in Spectrum: 2068
>>>>>Begin Spectral Data<<<<<
194.03	139.40017
194.578	128.41172
195.127	122.38758
195.676	128.40782
196.225	164.44489
196.773	198.55468
197.321	223.62652
197.87	334.87017
198.418	319.82384
198.966	345.90787
199.513	304.76752
200.061	325.83613
200.609	290.77205
201.156	263.59432
201.704	323.82781
202.251	304.81789
202.798	316.82948
203.345	305.7644
203.892	308.78482
204.438	281.6867
204.985	298.73081
205.532	339.8957
206.078	316.78725
206.624	344.85636
207.17	367.8603
207.716	302.74801
208.262	289.58917
208.808	348.87637
209.354	360.88575
209.899	311.78645
210.445	317.80447
210.99	312.77136
211.535	349.83535
212.08	364.86476
212.625	312.79332
213.17	311.79511
213.715	335.78009
214.259	319.75686
214.804	358.88083
215.348	256.60073
215.892	313.75976
216.436	350.81966
216.98	379.85396
217.524	306.73622
218.068	400.01031
218.612	325.82418
219.155	313.74806
219.698	299.72551
220.242	298.75076
220.785	285.67699
221.328	300.7512
221.871	286.72569
222.414	265.66991
222.956	315.77835
223.499	287.66149
224.041	306.72365
224.583	276.60319
225.126	325.72721
225.668	259.63953
226.21	277.70498
226.751	289.65413
227.293	334.77975
227.835	342.84427
228.376	333.77299
228.918	333.84296
229.459	280.7087
230	288.69398
230.541	358.84364
231.082	264.64265
231.622	271.63531
232.163	318.77869
232.704	288.71856
233.244	285.71455
233.784	308.75868
234.324	325.74009
234.864	276.64108
235.404	275.66378
235.944	302.72219
236.484	311.77156
237.023	303.73108
237.563	279.65764
238.102	231.55401
238.641	278.71139
239.18	286.68655
239.719	327.82188
240.258	320.7315
240.797	334.80966
241.335	311.7679
241.874	350.70136
242.412	347.84542
242.95	296.72026
243.488	333.77391
244.026	275.64569
244.564	333.70078
245.102	290.6656
245.64	321.77274
246.177	290.66827
246.715	300.73053
247.252	310.72345
247.789	333.64646
248.326	301.73994
248.863	337.75872
249.4	388.88405
249.936	309.64999
250.473	338.80054
251.009	336.78781
251.546	323.72542
252.082	347.77099
252.618	293.66534
253.154	338.82458
253.69	298.6804
254.226	323.77667
254.761	381.87319
255.297	271.6069
255.832	273.65448
256.367	316.75797
256.903	297.65991
257.438	326.77123
257.972	339.77165
258.507	337.78969
259.042	332.7418
259.576	348.77273
260.111	357.82901
260.645	338.73492
261.179	303.71697
261.713	392.88414
262.247	370.86242
262.781	330.71173
263.315	359.8854
263.849	352.88517
264.382	315.73122
264.915	341.81652
265.449	362.90214
265.982	382.87846
266.515	322.78556
267.048	325.71522
267.58	327.72988
268.113	344.75941
268.646	342.85046
269.178	326.74401
269.71	319.71497
270.243	344.79078
270.775	316.80264
271.307	344.82888
271.838	313.7412
272.37	348.85655
272.902	344.79015
273.433	288.63899
273.965	365.88827
274.496	337.82994
275.027	365.90251
275.558	357.86783
276.089	349.86833
276.62	348.88201
277.15	331.80856
277.681	418.91386
278.211	299.72252
278.741	297.6747
279.272	345.79482
279.802	332.8259
280.332	347.82391
280.861	398.95314
281.391	342.7843
281.921	373.89754
282.45	394.97686
282.98	369.95325
283.509	334.75704
284.038	336.7761
284.567	374.8635
285.096	377.91197
285.625	358.82624
286.153	312.73612
286.682	371.85402
287.21	362.87487
287.739	379.90195
288.267	383.92439
288.795	331.85305
289.323	375.89072
289.851	399.93895
290.378	380.86058
290.906	372.90411
291.433	346.8557
291.961	347.79432
292.488	405.99109
293.015	402.9506
293.542	383.96706
294.069	356.86815
294.596	365.89324
295.122	399.94661
295.649	382.84293
296.175	489.16723
296.702	382.91762
297.228	385.925
297.754	424.96566
298.28	405.92222
298.806	343.82694
299.332	392.87873
299.857	408.91909
300.383	400.99535
300.908	408.98452
301.433	407.9719
301.958	406.92505
302.483	381.94482
303.008	420.01962
303.533	385.97903
304.058	444.03149
304.582	423.99424
305.107	424.08813
305.631	418.93969
306.155	391.91296
306.679	401.92527
307.203	453.03855
307.727	411.96492
308.251	436.05459
308.775	448.05267
309.298	477.13246
309.822	437.08015
310.345	531.22983
310.868	470.09673
311.391	442.0615
311.914	471.15113
312.437	466.04596
312.96	487.11797
313.482	497.14279
314.005	467.14303
314.527	509.28908
315.049	461.12081
315.571	498.10372
316.093	524.25541
316.615	506.19057
317.137	520.10655
317.659	552.29794
318.18	498.15307
318.702	506.1359
319.223	532.09381
319.744	540.18105
320.265	504.18862
320.786	525.26044
321.307	603.42486
321.828	557.22879
322.348	582.32331
322.869	588.34936
323.389	304.48327
323.909	555.22591
324.43	556.27228
324.95	597.31221
325.47	566.32263
325.989	578.30678
326.509	625.32545
327.029	656.3934
327.548	612.31675
328.067	632.4568
328.587	624.46115
329.106	603.28819
329.625	638.55485
330.144	677.48139
330.662	648.40028
331.181	648.42891
331.7	714.56538
332.218	706.44761
332.736	712.5551
333.255	627.38111
333.773	706.54588
334.291	691.58499
334.808	783.62554
335.326	755.58268
335.844	718.56293
336.361	705.65446
336.879	777.68823
337.396	755.66748
337.913	739.56682
338.43	831.69924
338.947	798.71149
339.464	730.46251
339.981	763.6592
340.497	907.95914
341.014	835.8381
341.53	831.67165
342.046	849.85177
342.562	855.90724
343.078	903.88819
343.594	843.79991
344.11	914.90068
344.626	867.94116
345.141	844.71223
345.657	933.8358
346.172	876.87081
346.687	945.91428
347.202	950.86885
347.717	933.95439
348.232	960.07764
348.747	1021.02362
349.261	1013.92815
349.776	970.97881
350.29	1018.17154
350.805	1037.21448
351.319	1028.06351
351.833	1009.9493
352.347	945.92386
352.861	1064.08409
353.374	1013.97103
353.888	1032.11899
354.401	1087.10078
354.915	1022.9674
355.428	1047.19166
355.941	1080.12641
356.454	1114.06977
356.967	1052.07794
357.48	1082.06575
357.993	1118.27837
358.505	1081.19542
359.018	1184.35658
359.53	1189.354
360.042	1199.15084
360.554	1126.2337
361.066	1189.366
361.578	1179.07282
362.09	1194.28343
362.602	1212.14934
363.113	1229.31168
363.625	1261.26134
364.136	1232.16359
364.647	1283.41003
365.158	1258.30711
365.669	1282.41107
366.18	1253.33057
366.691	1252.18973
367.201	1260.39381
367.712	1348.38913
368.222	1339.37616
368.733	1384.3513
369.243	1381.35307
369.753	1469.58659
370.263	1466.6513
370.773	1419.61706
371.282	1450.58
371.792	1536.66268
372.301	1462.65335
372.811	1586.98612
373.32	1581.4046
373.829	1539.65745
374.338	1608.50867
374.847	1675.70215
375.356	1680.77448
375.865	1752.45785
376.373	1875.75665
376.882	1939.15643
377.39	1896.95024
377.898	1983.09833
378.407	2076.76519
378.915	2109.60824
379.423	2289.01898
379.93	2353.8145
380.438	2437.18389
380.946	2596.05181
381.453	2616.08976
381.96	2785.01672
382.468	3012.99543
382.975	3099.98772
383.482	3269.48339
383.989	3189.20848
384.495	3271.60202
385.002	3532.07295
385.509	3778.53225
386.015	4012.43288
386.521	4100.99407
387.028	4297.7273
387.534	4447.4286
388.04	4551.71654
388.546	4672.34419
389.051	4992.9632
389.557	5224.99586
390.063	5780.73678
390.568	6026.78045
391.073	6078.49298
391.578	6341.73228
392.084	6467.3222
392.589	6563.14504
393.093	7129.61381
393.598	7782.18746
394.103	8467.37652
394.607	9442.19392
395.112	10078.52991
395.616	10645.44633
396.12	11593.1434
396.624	12869.51962
397.128	13995.3951
397.632	15576.36235
398.136	16851.35081
398.639	17408.13162
399.143	19292.12732
399.646	21809.30079
400.15	24090.27881
400.653	26530.57025
401.156	29550.46982
401.659	34619.96374
402.162	41881.68202
402.664	52102.69593
403.167	48792.53816
403.67	22278.45323
404.172	2696.20453
404.674	0
405.176	0
405.678	0
406.18	0
406.682	0
407.184	0
407.686	25783.58453
408.187	43316.52985
408.688	51225.60928
409.19	54389.01922
409.691	56215.4214
410.192	57270.57019
410.693	57468.40923
411.194	52695.6886
411.694	50659.68062
412.195	47208.2536
412.696	43025.30425
413.196	40184.22855
413.696	38998.43168
414.196	40290.22752
414.696	40023.82136
415.196	38690.8124
415.696	35781.67219
416.196	29348.11387
416.695	22004.62294
417.195	18549.83889
417.694	17528.96332
418.194	16663.2033
418.693	15600.76855
419.192	15032.81191
419.691	14822.19885
420.19	14418.42978
420.688	13992.68423
421.187	13753.245
421.685	12910.05812
422.184	11645.41933
422.682	10069.77473
423.18	8465.35811
423.678	7608.03174
424.176	6856.5331
424.674	6460.33641
425.172	6219.66112
425.669	5958.99435
426.167	5578.94951
426.664	5054.22279
427.161	4726.41533
427.659	4286.17644
428.156	4066.58083
428.652	3759.86463
429.149	3628.673
429.646	3491.26387
430.143	3273.77895
430.639	3046.82193
431.135	2885.20206
431.632	2729.78535
432.128	2597.04331
432.624	2472.35945
433.12	2370.76505
433.616	2314.62107
434.111	2154.9
434.607	2106.9563
435.103	2066.43813
435.598	2005.42075
436.093	1976.84086
436.588	1856.55278
437.083	1745.54718
437.578	1697.6301
438.073	1602.84167
438.568	1521.65101
439.062	1499.27993
439.557	1399.43093
440.051	1412.33007
440.546	1286.22604
441.04	1333.44453
441.534	1362.64292
442.028	1294.36271
442.522	1266.3473
443.015	1215.06772
443.509	1256.39424
444.002	1192.31239
444.496	1211.09397
444.989	1117.17838
445.482	1203.36522
445.975	1192.17694
446.468	1134.9506
446.961	1159.00472
447.454	1138.04571
447.947	1062.08309
448.439	969.92814
448.931	1043.96042
449.424	1025.1126
449.916	1015.0537
450.408	1036.93629
450.9	1018.06774
451.392	956.02334
451.884	978.87628
452.375	947.01687
452.867	909.74329
453.358	906.77133
453.849	924.67561
454.341	927.78469
454.832	909.68303
455.323	875.8425
455.814	893.77263
456.304	872.73211
456.795	845.68971
457.285	853.62708
457.776	804.59316
458.266	816.6975
458.756	773.62116
459.247	828.73317
459.737	815.72283
460.226	836.65588
460.716	820.73605
461.206	750.60917
461.695	719.59188
462.185	690.4517
462.674	758.57464
463.163	718.41789
463.653	709.37031
464.142	705.53623
464.63	702.55519
465.119	713.48205
465.608	694.46524
466.096	667.32966
466.585	713.48337
467.073	683.47001
467.561	580.28414
468.05	612.31111
468.538	634.42015
469.026	570.26721
469.513	793.61634
470.001	609.27349
470.489	600.32516
470.976	621.32841
471.463	495.15494
471.951	535.23862
472.438	554.21477
472.925	510.12285
473.412	484.11085
473.899	528.1314
474.385	478.10319
474.872	542.20687
475.359	517.195
475.845	505.00996
476.331	406.83879
476.817	428.99403
477.303	487.07504
477.789	458.05108
478.275	413.9817
478.761	453.04767
479.247	468.01772
479.732	440.05228
480.218	444.09808
480.703	416.99661
481.188	388.81742
481.673	362.81549
482.158	442.93198
482.643	338.82734
483.128	371.83354
483.612	372.84863
484.097	361.84988
484.581	341.774
485.066	378.89939
485.55	326.71817
486.034	291.62534
486.518	352.82144
487.002	340.83007
487.486	279.67649
487.969	326.79146
488.453	268.66285
488.936	318.72196
489.42	263.58219
489.903	287.70866
490.386	340.57103
490.869	292.63599
491.352	268.64897
491.835	298.62285
492.318	350.80264
492.8	275.58408
493.283	326.82246
493.765	283.6957
494.247	226.53179
494.73	272.60826
495.212	277.66533
495.694	260.61179
496.175	269.64857
496.657	259.61524
497.139	272.49617
497.62	262.62847
498.102	234.58385
498.583	207.52014
499.064	270.62094
499.545	251.58267
500.026	231.53116
500.507	243.57324
500.988	265.66226
501.469	242.61298
501.949	257.63879
502.43	240.58205
502.91	259.55729
503.39	221.55192
503.87	253.60885
504.35	202.48235
504.83	232.52523
505.31	196.48106
505.79	248.60573
506.269	227.54359
506.749	174.41056
507.228	218.52632
507.707	226.51457
508.187	199.47836
508.666	207.51995
509.145	215.51917
509.623	176.42204
510.102	217.53505
510.581	156.38218
511.059	185.47336
511.538	181.47138
512.016	218.53683
512.494	248.60956
512.972	212.51377
513.45	201.48409
513.928	209.52365
514.406	191.47891
514.884	197.5148
515.361	206.50765
515.839	193.45706
516.316	197.48753
516.793	179.46074
517.27	161.39626
517.747	187.48851
518.224	178.42894
518.701	229.53371
519.178	134.34028
519.654	175.42642
520.131	183.46034
520.607	180.45368
521.083	213.50189
521.56	212.51878
522.036	193.44219
522.512	153.3817
522.987	195.47851
523.463	176.43501
523.939	180.45141
524.414	216.51044
524.89	165.404
525.365	180.42636
525.84	182.45297
526.315	187.46567
526.79	223.51932
527.265	186.44601
527.74	172.42995
528.215	185.45314
528.689	186.43102
529.164	150.34071
529.638	162.42717
530.112	194.47527
530.587	161.36443
531.061	177.44125
531.534	176.43373
532.008	186.46242
532.482	117.27709
532.956	141.36848
533.429	157.39196
533.903	157.36072
534.376	135.31266
534.849	192.46093
535.322	132.32471
535.795	147.37018
536.268	92.22948
536.741	150.37116
537.213	157.37669
537.686	170.42894
538.158	94.22223
538.631	167.4139
539.103	139.33021
539.575	126.27584
540.047	148.34052
540.519	167.41329
540.991	140.35237
541.463	135.33899
541.934	171.40763
542.406	152.37735
542.877	165.39302
543.348	186.46191
543.82	125.31445
544.291	165.39679
544.762	127.31269
545.233	163.41985
545.703	120.28117
546.174	138.33532
546.645	164.40877
547.115	169.4239
547.585	180.42817
548.056	210.5272
548.526	183.45106
548.996	148.36661
549.466	192.47681
549.935	218.53188
550.405	191.43743
550.875	200.48669
551.344	222.54788
551.814	179.43013
552.283	154.34709
552.752	259.61997
553.221	245.56469
553.69	196.45005
554.159	252.63467
554.628	227.52884
555.096	244.63292
555.565	247.57316
556.033	202.4888
556.502	216.53582
556.97	211.48595
557.438	207.50344
557.906	182.44504
558.374	192.45759
558.842	118.29326
559.31	197.45986
559.777	141.35316
560.245	175.42801
560.712	173.41997
561.18	164.38832
561.647	172.40363
562.114	140.33648
562.581	168.42541
563.048	153.36947
563.514	183.46281
563.981	128.30717
564.448	174.4104
564.914	172.41809
565.381	192.45443
565.847	197.47984
566.313	184.44726
566.779	133.31254
567.245	177.43274
567.711	196.48816
568.176	170.40314
568.642	187.48367
569.108	207.52536
569.573	208.51334
570.038	243.54375
570.504	184.43027
570.969	251.6467
571.434	283.65565
571.899	250.61584
572.363	251.59234
572.828	280.65602
573.293	273.64624
573.757	213.50598
574.222	306.71356
574.686	288.67951
575.15	261.63879
575.614	257.61002
576.078	299.72388
576.542	290.67971
577.006	283.65902
577.469	312.77729
577.933	372.86196
578.396	298.71617
578.86	309.74302
579.323	336.82153
579.786	303.67827
580.249	303.72057
580.712	262.65323
581.175	291.72854
581.637	284.662
582.1	373.83769
582.563	303.66961
583.025	291.71959
583.487	317.67387
583.95	327.73772
584.412	358.77708
584.874	283.69339
585.336	333.79828
585.797	256.57791
586.259	327.78151
586.721	272.65444
587.182	309.72834
587.643	329.76099
588.105	315.76146
588.566	262.57114
589.027	271.67137
589.488	270.63556
589.949	286.70372
590.41	269.55688
590.87	311.71565
591.331	292.6449
591.791	357.84406
592.252	323.76044
592.712	286.69489
593.172	334.77454
593.632	345.77768
594.092	338.77171
594.552	359.79202
595.011	315.73988
595.471	305.69174
595.931	349.78895
596.39	420.00704
596.849	381.89451
597.308	400.87821
597.768	409.03511
598.227	390.92473
598.685	417.94071
599.144	463.06618
599.603	495.15448
600.062	547.14517
600.52	498.09867
600.978	525.20149
601.437	520.14873
601.895	550.13698
602.353	627.32334
602.811	683.45805
603.269	660.50386
603.727	719.62554
604.184	724.55334
604.642	728.6669
605.099	792.68913
605.557	845.87718
606.014	918.81766
606.471	921.07454
606.928	987.93037
607.385	1008.20748
607.842	1059.08546
608.299	1167.32964
608.755	1193.43962
609.212	1270.32454
609.668	1270.36171
610.125	1386.70353
610.581	1439.69346
611.037	1471.63293
611.493	1447.70056
611.949	1531.97925
612.405	1574.38751
612.861	1658.92353
613.316	1663.00895
613.772	1657.89101
614.227	1760.09239
614.683	1814.75642
615.138	1816.08028
615.593	1866.10391
616.048	1934.05076
616.503	1938.33963
616.958	1879.42754
617.412	1888.16966
617.867	1929.97061
618.321	1974.76696
618.776	2004.02959
619.23	1947.17483
619.684	1990.07324
620.138	1918.097
620.592	1966.35834
621.046	1947.15397
621.5	1953.38237
621.954	1903.99602
622.407	1903.95367
622.861	1814.1994
623.314	1835.96469
623.768	1762.0117
624.221	1726.47402
624.674	1758.9519
625.127	1662.90054
625.58	1728.87155
626.033	1696.70973
626.485	1668.00822
626.938	1614.9114
627.39	1648.89983
627.843	1579.79278
628.295	1518.69055
628.747	1519.80494
629.199	1478.62468
629.651	1450.6064
630.103	1452.64042
630.555	1377.30249
631.006	1486.71333
631.458	1421.67523
631.909	1414.52982
632.361	1375.56954
632.812	1353.53572
633.263	1341.29916
633.714	1365.29468
634.165	1436.79207
634.616	1350.60847
635.067	1374.38165
635.518	1387.62878
635.968	1387.14908
636.419	1445.43525
636.869	1375.58964
637.319	1322.46234
637.769	1417.51263
638.219	1431.62752
638.669	1404.6566
639.119	1504.87105
639.569	1467.75138
640.019	1568.71564
640.468	1514.56807
640.918	1593.86105
641.367	1627.69869
641.816	1683.77115
642.265	1738.89301
642.714	1720.87208
643.163	1773.97172
643.612	1794.20276
644.061	1877.80114
644.51	1916.10228
644.958	1959.9048
645.406	2046.31191
645.855	2024.39683
646.303	2056.18049
646.751	2070.1659
647.199	2118.12131
647.647	2198.22639
648.095	2178.2671
648.543	2212.7657
648.99	2185.33452
649.438	2297.36818
649.885	2288.6188
650.333	2310.61825
650.78	2360.60629
651.227	2355.65531
651.674	2314.21369
652.121	2286.50488
652.568	2320.57644
653.015	2268.65072
653.461	2310.43717
653.908	2256.32537
654.354	2215.35198
654.801	2218.34005
655.247	2321.10053
655.693	2223.86062
656.139	2159.40467
656.585	2128.32956
657.031	2136.29697
657.477	2180.99456
657.922	2190.25855
658.368	2067.43937
658.813	2038.10531
659.259	2037.3289
659.704	2002.13114
660.149	1979.19059
660.594	2022.26534
661.039	1937.02197
661.484	1867.10308
661.929	1873.05948
662.373	1873.44528
662.818	1917.38845
663.262	1854.17532
663.707	1880.3963
664.151	1811.18672
664.595	1782.07828
665.039	1801.25194
665.483	1754.30239
665.927	1768.98156
666.371	1787.99057
666.814	1755.03049
667.258	1815.15618
667.701	1738.6456
668.145	1757.1927
668.588	1749.11323
669.031	1836.12771
669.474	1753.06972
669.917	1770.75647
670.36	1744.20606
670.803	1732.00376
671.245	1798.65042
671.688	1758.07774
672.13	1744.83257
672.573	1687.13521
673.015	1795.12275
673.457	1790.74812
673.899	1742.03381
674.341	1735.05992
674.783	1747.03706
675.225	1691.04764
675.666	1743.12455
676.108	1720.65772
676.549	1725.95279
676.991	1773.82536
677.432	1790.54518
677.873	1642.78673
678.314	1718.00878
678.755	1654.00383
679.196	1691.8362
679.637	1665.9895
680.078	1625.79366
680.518	1583.74967
680.959	1579.90036
681.399	1551.97301
681.839	1541.86115
682.28	1574.96489
682.72	1441.58687
683.16	1387.71499
683.6	1443.51566
684.039	1477.31898
684.479	1463.81862
684.919	1416.61215
685.358	1381.7891
685.798	1432.97784
686.237	1376.64121
686.676	1352.44556
687.115	1384.54913
687.554	1366.55579
687.993	1309.29167
688.432	1326.42135
688.871	1289.3836
689.309	1272.45511
689.748	1356.16109
690.186	1284.44658
690.625	1279.40015
691.063	1296.51934
691.501	1264.50912
691.939	1271.56205
692.377	1235.45316
692.815	1248.44071
693.253	1248.44185
693.69	1263.2488
694.128	1230.4652
694.565	1279.44815
695.003	1243.58297
695.44	1229.36574
695.877	1240.39435
696.314	1155.01674
696.751	1149.13763
697.188	1171.22376
697.625	1195.22128
698.061	1232.42855
698.498	1190.34889
698.934	1182.36452
699.371	1193.33239
699.807	1164.27077
700.243	1180.36268
700.679	1171.18834
701.115	1180.25984
701.551	1189.29729
701.987	1145.14486
702.422	1174.32802
702.858	1111.19828
703.294	1108.08196
703.729	1128.31431
704.164	1136.28904
704.599	1139.10331
705.035	1086.08438
705.47	1142.36926
705.904	1165.28716
706.339	1101.07938
706.774	1125.19918
707.209	1112.15686
707.643	1142.29486
708.078	1179.42177
708.512	1119.38152
708.946	1088.15918
709.38	1079.14377
709.814	1127.12448
710.248	1116.2538
710.682	1145.27514
711.116	1131.29296
711.549	1094.36386
711.983	1137.1872
712.416	1158.25904
712.85	1128.36398
713.283	1193.33567
713.716	1164.40107
714.149	1154.24593
714.582	1178.1966
715.015	1148.34802
715.448	1104.32883
715.881	1172.05778
716.313	1151.23955
716.746	1179.30713
717.178	1129.25884
717.61	1140.37452
718.043	1193.4265
718.475	1195.35165
718.907	1192.46763
719.339	1193.23613
719.77	1219.37438
720.202	1234.53769
720.634	1236.4931
721.065	1293.46555
721.497	1278.52525
721.928	1281.55759
722.359	1284.55124
722.79	1299.55194
723.221	1287.58609
723.652	1296.64395
724.083	1345.42855
724.514	1336.42992
724.945	1394.5727
725.375	1374.56829
725.806	1330.60748
726.236	1320.68692
726.666	1357.53084
727.096	1424.73486
727.526	1437.85768
727.956	1472.54444
728.386	1441.73536
728.816	1422.81287
729.246	1548.8918
729.675	1466.81438
730.105	1493.75132
730.534	1572.73543
730.964	1542.91708
731.393	1561.85723
731.822	1606.06947
732.251	1563.97471
732.68	1677.81102
733.109	1637.9568
733.537	1715.99905
733.966	1782.21018
734.395	1773.87141
734.823	1814.76448
735.251	1823.11603
735.68	1819.21238
736.108	1731.14521
736.536	1839.9778
736.964	1887.0017
737.392	1957.33843
737.82	2018.2139
738.247	1967.13769
738.675	2041.17408
739.102	2057.45008
739.53	2118.57154
739.957	2123.62269
740.384	2105.31442
740.811	2092.46376
741.238	2240.43492
741.665	2218.15956
742.092	2325.36163
742.519	2247.5082
742.945	2286.38463
743.372	2357.59025
743.798	2454.81339
744.225	2425.39263
744.651	2497.68687
745.077	2483.65268
745.503	2553.54485
745.929	2622.49068
746.355	2662.66659
746.781	2564.64785
747.207	2710.52346
747.632	2713.71999
748.058	2747.75219
748.483	2786.33321
748.908	2825.71992
749.334	2857.70886
749.759	2864.38757
750.184	2920.56478
750.609	3017.72502
751.033	3063.43411
751.458	3078.15159
751.883	3065.7276
752.307	3170.49465
752.732	3232.91605
753.156	3171.80903
753.58	3329.50363
754.005	3233.83678
754.429	3358.45154
754.853	3293.74076
755.277	3359.37481
755.7	3463.75248
756.124	3474.75343
756.548	3527.49588
756.971	3506.50882
757.394	3610.00471
757.818	3641.9241
758.241	3665.85303
758.664	3668.86665
759.087	3720.07087
759.51	3702.65251
759.933	3755.51743
760.356	3802.83786
760.778	3870.67074
761.201	3859.48865
761.623	3822.3955
762.046	3895.28867
762.468	3889.23962
762.89	3919.5019
763.312	3944.56286
763.734	3957.37406
764.156	4060.52097
764.578	4040.09947
765	4009.48221
765.421	3896.82999
765.843	4002.94473
766.264	3977.36905
766.686	3898.59985
767.107	3890.41405
767.528	4014.7627
767.949	3974.77107
768.37	3958.394
768.791	3994.40017
769.212	3940.74424
769.632	3900.23247
770.053	3872.07861
770.473	3964.43243
770.894	3892.58443
771.314	3801.24722
771.734	3838.2364
772.154	3865.772
772.575	3843.09944
772.994	3761.07514
773.414	3799.36372
773.834	3792.7099
774.254	3732.65551
774.673	3662.50275
775.093	3621.6706
775.512	3577.61115
775.931	3601.82445
776.351	3553.69432
776.77	3622.60303
777.189	3483.41352
777.607	3440.91259
778.026	3439.78904
778.445	3378.84297
778.864	3388.92096
779.282	3325.5491
779.701	3223.78713
780.119	3338.02544
780.537	3184.81416
780.955	3154.79864
781.373	3051.68922
781.791	3117.1525
782.209	3039.23287
782.627	3011.20904
783.045	2994.33925
783.462	2962.94114
783.88	2827.9674
784.297	2884.81743
784.715	2757.93604
785.132	2748.60317
785.549	2688.75903
785.966	2751.76023
786.383	2660.61827
786.8	2644.30412
787.217	2622.4149
787.633	2456.64499
788.05	2500.29192
788.466	2373.14592
788.883	2396.69193
789.299	2359.3752
789.715	2336.45433
790.131	2282.55484
790.547	2198.41771
790.963	2213.48737
791.379	2165.52367
791.795	2124.98959
792.21	2025.02883
792.626	2021.08522
793.041	2023.33641
793.457	1983.29802
793.872	1920.99494
794.287	1902.08954
794.702	1865.12816
795.117	1877.23952
795.532	1780.18565
795.947	1750.93993
796.362	1748.9271
796.776	1706.73811
797.191	1633.9288
797.605	1587.80269
798.02	1613.86202
798.434	1502.40382
798.848	1508.82509
799.262	1471.81796
799.676	1425.62297
800.09	1453.78207
800.504	1371.54827
800.918	1348.44199
801.331	1257.60748
801.745	1305.33104
802.158	1217.45752
802.572	1206.31639
802.985	1175.27988
803.398	1154.2311
803.811	1105.30408
804.224	1075.18815
804.637	1127.21551
805.05	1054.99809
805.462	1051.14405
805.875	953.13012
806.288	976.01998
806.7	952.0507
807.112	900.76207
807.525	880.8745
807.937	842.81676
808.349	849.85489
808.761	838.80273
809.173	830.75418
809.584	770.67195
809.996	755.65499
810.408	720.68212
810.819	713.51887
811.231	742.76124
811.642	751.64966
812.053	747.63675
812.464	784.67351
812.875	689.59363
813.286	653.53655
813.697	661.39275
814.108	650.43751
814.519	581.17944
814.929	584.36687
815.34	583.32479
815.75	550.30477
816.16	544.25276
816.571	490.18097
816.981	481.05867
817.391	514.16757
817.801	489.15921
818.211	424.94575
818.62	473.08622
819.03	407.94807
819.44	484.17791
819.849	408.97187
820.259	404.97376
820.668	390.92687
821.077	417.99919
821.486	328.76184
821.895	337.79524
822.304	358.91314
822.713	385.87952
823.122	338.81689
823.531	343.79462
823.939	346.81948
824.348	335.7939
824.756	321.78385
825.164	295.71715
825.573	343.84751
825.981	283.68309
826.389	263.6506
826.797	267.64764
827.205	310.70094
827.612	302.72963
828.02	320.73591
828.428	251.63091
828.835	223.57975
829.243	260.61559
829.65	227.55847
830.057	241.57997
830.464	196.47428
830.871	217.5135
831.278	211.50297
831.685	208.46419
832.092	252.61115
832.499	196.42764
832.905	221.55072
833.312	200.45611
833.718	203.50201
834.124	189.42868
834.531	195.48523
834.937	139.35104
835.343	183.44158
835.749	136.31429
836.155	144.37548
836.561	182.44901
836.966	163.39837
837.372	127.32451
837.777	179.44785
838.183	127.28302
838.588	119.29375
838.993	181.43724
839.399	144.35344
839.804	146.35728
840.209	177.45384
840.613	132.29788
841.018	86.21855
841.423	124.31823
841.828	176.4463
842.232	127.31385
842.637	167.39657
843.041	102.2657
843.445	125.31535
843.849	114.28322
844.253	143.34193
844.657	103.26346
845.061	121.27957
845.465	116.28345
845.869	131.30832
846.272	98.24312
846.676	77.18721
847.079	108.27978
847.483	104.25904
847.886	112.26929
848.289	73.19711
848.692	93.23763
849.095	80.19643
849.498	77.19453
849.901	114.26292
850.304	137.33096
850.707	74.18945
851.109	72.18213
851.512	97.24322
851.914	74.1927
852.316	58.14708
852.718	68.17895
853.121	84.20899
853.523	80.19308
853.925	86.22823
854.326	68.17158
854.728	83.21698
855.13	63.16644
855.531	106.25998
855.933	42.10148
856.334	69.17532
856.736	51.11826
857.137	76.17961
857.538	69.17773
857.939	44.11225
858.34	102.25045
858.741	37.09808
859.142	76.18599
859.542	67.17961
859.943	89.22316
860.343	26.06603
860.744	52.12872
861.144	41.1008
861.544	47.117
861.945	140.36105
862.345	62.15353
862.745	89.22653
863.145	53.12833
863.544	54.13835
863.944	-21.05087
864.344	57.14344
864.743	57.14231
865.143	64.16671
865.542	56.13342
865.941	71.17982
866.34	81.19612
866.74	53.14311
867.139	70.17264
867.537	70.17984
867.936	110.26849
868.335	49.12692
868.734	90.23532
869.132	92.21902
869.531	29.07072
869.929	61.14435
870.327	86.21062
870.726	26.06535
871.124	70.16767
871.522	63.16296
871.92	87.21807
872.318	44.10959
872.715	59.14618
873.113	99.24573
873.511	94.23964
873.908	27.07071
874.306	94.23879
874.703	39.09892
875.1	65.16766
875.497	80.19694
875.894	63.15911
876.291	43.1072
876.688	67.17724
877.085	26.06339
877.482	71.1795
877.878	86.21085
878.275	38.09892
878.671	119.26794
879.068	54.13264
879.464	64.15709
879.86	29.07022
880.256	39.09786
880.652	47.1217
881.048	49.12265
881.444	36.08649
881.84	49.12626
882.236	47.11967
882.631	66.16642
883.027	32.07843
883.422	44.11403
883.817	97.2509
884.213	65.16981
884.608	28.07088
885.003	66.16343
885.398	79.20293
885.793	57.14488
886.188	69.17656
886.582	41.10524
886.977	54.13092
887.371	-8.02046
887.766	12.03081
888.16	68.17158
888.554	19.04751
888.949	69.17426
889.343	55.13557
889.737	53.14497
890.131	-15.03834
890.525	52.13467
890.918	23.05854
891.312	1.00242
891.706	-3.00791
892.099	43.10976
892.492	86.19042
892.886	16.03988
893.279	55.14295
893.672	-6.0154
894.065	48.12164
894.458	74.19012
894.851	65.1611
895.244	41.10612
895.637	78.19152
896.029	71.17559
896.422	-10.02503
896.814	28.07083
897.206	15.03673
897.599	18.04501
897.991	48.1176
898.383	68.16579
898.775	32.07416
899.167	37.08942
899.559	69.17588
899.951	74.17678
900.342	28.07176
900.734	46.11818
901.125	53.14054
901.517	94.23455
901.908	80.19301
902.299	90.22653
902.69	14.03416
903.082	54.13284
903.473	47.11619
903.863	46.11917
904.254	21.05069
904.645	73.18364
905.036	64.15871
905.426	33.07682
905.817	79.1973
906.207	17.04203
906.597	28.06661
906.987	22.05807
907.378	15.03841
907.768	29.07797
908.158	49.12163
908.547	38.10027
908.937	17.044
909.327	77.19078
909.717	47.11997
910.106	19.04668
910.495	76.19191
910.885	55.14202
911.274	9.02301
911.663	25.0639
912.052	19.04744
912.441	13.03351
912.83	54.12767
913.219	32.08458
913.608	30.0747
913.997	54.13849
914.385	43.10408
914.774	77.18952
915.162	74.18076
915.55	33.08125
915.939	34.08747
916.327	30.07524
916.715	40.10355
917.103	60.14858
917.491	74.18318
917.878	36.08879
918.266	23.05988
918.654	66.17192
919.041	17.04547
919.429	76.18301
919.816	42.10738
920.203	42.10431
920.591	9.02271
920.978	-22.05456
921.365	50.13287
921.752	46.11257
922.139	84.18793
922.525	43.10681
922.912	37.0915
923.299	15.03829
923.685	43.11413
924.072	20.04664
924.458	43.1084
924.844	41.10381
925.231	68.1617
925.617	70.18116
926.003	51.13169
926.389	19.04901
926.774	42.10813
927.16	89.22308
927.546	60.15678
927.931	59.14933
928.317	25.05859
928.702	59.14065
929.088	50.12172
929.473	6.01555
929.858	42.10461
930.243	57.13988
930.628	69.1727
931.013	56.14146
931.398	50.11647
931.783	19.05041
932.167	74.18545
932.552	43.10829
932.937	37.09308
933.321	16.04121
933.705	65.16661
934.09	41.10388
934.474	49.11811
934.858	42.11042
935.242	36.086
935.626	71.18511
936.009	0
936.393	52.13369
936.777	55.1429
937.16	35.09181
937.544	37.08837
937.927	42.10922
938.311	64.15738
938.694	83.21898
939.077	57.139
939.46	-14.03436
939.843	117.25122
940.226	58.15067
940.609	91.21643
940.991	31.08043
941.374	66.16421
941.757	14.03502
942.139	75.17501
942.522	23.05508
942.904	103.24986
943.286	24.06153
943.668	63.16526
944.05	74.18498
944.432	70.17707
944.814	6.01496
945.196	59.14826
945.578	46.11424
945.959	55.13182
946.341	-26.06417
946.722	18.04321
947.104	29.07111
947.485	70.16588
947.866	73.18921
948.247	-24.06168
948.628	-7.01734
949.009	45.11772
949.39	32.08077
949.771	75.17762
950.152	92.22973
950.532	6.01534
950.913	54.13244
951.293	27.07425
951.674	116.2885
952.054	56.14287
952.434	50.12562
952.814	81.19546
953.194	52.13643
953.574	50.12345
953.954	62.15003
954.334	52.13201
954.714	20.05023
955.093	26.06469
955.473	16.0407
955.853	42.10967
956.232	-15.04142
956.611	48.11686
956.99	67.17192
957.37	48.12444
957.749	60.14645
958.128	68.17507
958.506	74.19625
958.885	54.13898
959.264	81.20471
959.643	39.09047
960.021	38.09657
960.4	51.11915
960.778	79.19623
961.156	42.10787
961.535	87.20477
961.913	89.21127
962.291	99.25996
962.669	18.04621
963.047	4.01037
963.424	29.07506
963.802	70.17549
964.18	76.19321
964.557	66.15489
964.935	88.21102
965.312	20.05276
965.69	56.1407
966.067	72.17842
966.444	58.14373
966.821	54.14009
967.198	5.01237
967.575	17.04203
967.952	86.20442
968.329	51.12654
968.705	45.09837
969.082	52.13606
969.458	38.09468
969.835	28.06936
970.211	93.2423
970.587	46.11599
970.963	54.13951
971.339	48.12709
971.715	28.07108
972.091	48.12021
972.467	78.19653
972.843	31.07854
973.219	39.094
973.594	57.1526
973.97	59.14189
974.345	-2.00495
974.721	42.10198
975.096	52.12787
975.471	85.20426
975.846	36.08794
976.221	59.15361
976.596	42.10351
976.971	55.13746
977.346	24.05681
977.72	95.24428
978.095	44.11564
978.469	17.04135
978.844	24.06075
979.218	24.05878
979.593	83.20028
979.967	38.0942
980.341	31.07291
980.715	35.09006
981.089	16.0404
981.463	70.16677
981.837	40.10028
982.21	66.15513
982.584	37.09144
982.957	46.1176
983.331	54.13028
983.704	-7.01735
984.078	50.12594
984.451	22.05506
984.824	56.13938
985.197	53.1303
985.57	38.09677
985.943	61.1508
986.316	70.17334
986.688	16.03926
987.061	66.15881
987.434	47.124
987.806	51.12604
988.179	65.15732
988.551	47.12128
988.923	43.10763
989.295	-24.06034
989.667	47.11594
990.039	59.14933
990.411	44.10358
990.783	69.16107
991.155	53.13242
991.527	50.12345
991.898	41.10451
992.27	25.06289
992.641	23.05842
993.012	45.10789
993.384	23.05573
993.755	41.10689
994.126	52.12674
994.497	80.19948
994.868	57.13442
995.239	34.08358
995.61	51.13105
995.98	27.06775
996.351	22.05567
996.722	66.15857
997.092	23.05617
997.462	36.08705
997.833	39.09386
998.203	35.08583
998.573	7.01777
998.943	46.11102
999.313	54.13269
999.683	86.21171
1000.053	69.16253
1000.423	43.10541
1000.792	43.11375
1001.162	-1.00251
1001.531	50.12544
1001.901	101.25671
1002.27	76.17312
1002.639	57.14825
1003.009	50.12031
1003.378	-10.02594
1003.747	70.16978
1004.116	18.04434
1004.485	5.01217
1004.853	44.11296
1005.222	40.10154
1005.591	47.11333
1005.959	36.08465
1006.328	40.0927
1006.696	73.1806
1007.064	37.09418
1007.433	55.13871
1007.801	38.09382
1008.169	8.0204
1008.537	81.18313
1008.905	100.23761
1009.273	11.02745
1009.64	30.07426
1010.008	51.12451
1010.375	-7.0169
1010.743	74.1721
1011.11	52.12631
1011.478	20.05027
1011.845	30.07191
1012.212	108.24948
1012.579	-10.02503
1012.946	69.16594
1013.313	52.12474
1013.68	61.13926
1014.047	57.13957
1014.414	44.10684
1014.78	62.15504
1015.147	42.10194
1015.513	53.13021
1015.88	45.11507
1016.246	-10.02484
1016.612	15.03484
1016.978	59.14666
1017.344	55.13885
1017.71	37.09026
1018.076	60.14295
1018.442	17.04403
1018.808	52.1321
1019.174	38.09742
1019.539	54.12375
1019.905	6.01455
1020.27	35.08861
1020.636	61.1482
1021.001	51.12358
1021.366	27.06653
1021.731	36.09265
1022.096	44.1132
1022.461	60.14426
1022.826	61.14692
1023.191	40.10583
1023.556	70.16773
1023.92	33.08185
1024.285	62.1533
1024.649	30.07508
1025.014	59.14821
1025.378	45.11511
1025.742	70.17657
1026.107	61.13971
1026.471	29.0681
1026.835	82.20676
1027.199	82.20446
1027.562	59.13957
1027.926	33.08185
1028.29	92.23636
1028.654	23.05437
1029.017	46.11362
1029.381	35.08561
1029.744	36.09249
1030.107	62.14822
1030.471	40.0965
1030.834	21.04879
1031.197	8.01945
1031.56	32.07674
1031.923	41.10719
1032.286	28.06691
1032.648	81.19745
1033.011	32.07477
1033.374	5.01192
1033.736	15.04025
1034.099	76.18882
1034.461	28.07158
1034.823	33.08331
1035.185	36.092
1035.548	62.15398
1035.91	58.1412
1036.272	34.07832
1036.634	48.11777
1036.995	89.21346
1037.357	10.02496
1037.719	10.02455
1038.08	24.05788
1038.442	3.00729
1038.803	30.07314
1039.165	82.21074
1039.526	36.08849
1039.887	38.09303
1040.248	47.11751
1040.609	22.05462
1040.97	96.23772
1041.331	36.09242
1041.692	110.26458
1042.053	71.16489
1042.413	60.14224
1042.774	38.09362
1043.134	63.15254
1043.495	36.0912
1043.855	48.11816
1044.215	63.15911
1044.576	76.18702
1044.936	54.12588
1045.296	47.1187
1045.656	10.02486
1046.016	9.02204
1046.375	-7.01729
1046.735	16.03756
1047.095	85.20099
1047.454	58.12542
1047.814	56.13664
1048.173	-26.06228
1048.533	66.15343
1048.892	21.05222
1049.251	78.19738
1049.61	41.10247
1049.969	83.20104
1050.328	60.13291
1050.687	-8.01992
1051.046	14.03444
1051.405	48.12224
1051.763	43.1016
1052.122	22.05597
1052.48	-13.03227
1052.839	17.04101
1053.197	44.1062
1053.555	54.12126
1053.914	19.04678
1054.272	33.07999
1054.63	66.16505
1054.988	38.09258
1055.345	37.08205
1055.703	42.10236
1056.061	-23.06039
1056.419	22.0578
1056.776	21.05123
1057.134	45.10661
1057.491	34.08601
1057.848	15.03763
1058.206	60.14372
1058.563	49.11033
1058.92	78.17947
1059.277	26.06495
1059.634	37.08834
1059.991	67.16259
1060.348	30.07013
1060.704	21.05152
1061.061	73.17034
1061.418	-7.01734
1061.774	13.03282
1062.131	46.1237
1062.487	37.08854
1062.843	4.0101
1063.199	75.18962
1063.555	65.15477
1063.911	-6.01531
1064.267	30.06393
1064.623	18.0448
1064.979	53.12678
1065.335	51.12256
1065.691	41.09938
1066.046	-24.0533
1066.402	56.13157
1066.757	37.09408
1067.112	15.03721
1067.468	96.23572
1067.823	35.08618
1068.178	31.07571
1068.533	85.20813
1068.888	6.01459
1069.243	30.07518
1069.598	15.03731
1069.952	56.13024
1070.307	46.11731
1070.662	25.06037
1071.016	14.03239
1071.371	-1.00233
1071.725	35.08487
1072.079	61.14742
1072.434	73.18047
1072.788	79.19114
1073.142	85.21144
1073.496	-3.0073
1073.85	16.03759
1074.203	130.32073
1074.557	17.04593
1074.911	18.04328
1075.265	41.09703
1075.618	56.13694
1075.971	45.10871
1076.325	37.09567
1076.678	34.08072
1077.031	63.14631
1077.385	76.17207
1077.738	43.09983
1078.091	1.00237
1078.444	66.15543
1078.796	18.04474
1079.149	22.05535
1079.502	60.14678
1079.855	48.11497
1080.207	62.1542
1080.56	21.05503
1080.912	-2.00495
1081.264	59.14409
1081.617	88.21911
1081.969	59.15213
1082.321	44.1084
1082.673	38.08994
1083.025	49.11882
1083.377	88.19314
1083.728	37.08722
1084.08	17.04309
1084.432	33.08143
1084.783	19.04533
1085.135	43.10949
1085.486	46.10938
1085.838	63.15752
1086.189	-12.0297
1086.54	37.08949
1086.891	53.13662
1087.242	-3.00741
1087.593	34.08382
1087.944	19.04371
1088.295	42.09737
1088.646	64.15831
1088.996	14.03443
1089.347	72.17849
1089.698	29.07043
1090.048	22.05707
1090.398	7.01651
1090.749	33.08062
1091.099	58.15088
1091.449	59.14842
1091.799	86.21723
1092.149	17.04333
1092.499	22.05456
1092.849	66.17045
1093.199	46.11541
1093.548	38.09365
1093.898	36.09162
1094.248	20.0519
1094.597	67.17575
1094.947	68.1816
1095.296	29.07248
1095.645	52.13615
1095.994	13.03169
1096.343	46.11698
1096.692	74.20108
1097.041	-40.10988
1097.39	78.19941
1097.739	34.08936
1098.088	83.22294
1098.437	8.02149
1098.785	15.0405
1099.134	34.09071
1099.482	60.16597
1099.83	9.02379
1100.179	58.15449
1100.527	38.10145
1100.875	25.06698
1101.223	49.1308
1101.571	31.08652
1101.919	26.06994
1102.267	-3.00854
1102.615	1.00323
1102.962	-1.00322
1103.31	3.00967
1103.658	17.05481
