Data from N2 R0 150C sample9_Subt2__6__13-51-43-099.txt Node

Date: Tue Aug 19 13:51:43 PDT 2025
User: uwsun
Spectrometer: HDX01956
Trigger mode: 0
Integration Time (sec): 5.000000E-1
Scans to average: 1
Nonlinearity correction enabled: true
Boxcar width: 0
Storing dark spectrum: false
XAxis mode: Wavelengths
Number of Pixels in Spectrum: 2068
>>>>>Begin Spectral Data<<<<<
194.03	190.54285
194.578	212.67506
195.127	200.62929
195.676	207.65316
196.225	240.643
196.773	273.75587
197.321	355.97693
197.87	514.29507
198.418	454.14248
198.966	466.19858
199.513	460.12649
200.061	469.17375
200.609	463.19437
201.156	477.02875
201.704	514.27054
202.251	508.31806
202.798	494.2548
203.345	471.14259
203.892	491.20808
204.438	517.2054
204.985	518.21601
205.532	456.17852
206.078	528.26213
206.624	508.22442
207.17	502.14349
207.716	485.15855
208.262	450.88382
208.808	489.19784
209.354	463.11517
209.899	462.13433
210.445	469.15557
210.99	513.21899
211.535	545.25332
212.08	537.23096
212.625	486.1951
213.17	499.23094
213.715	508.14039
214.259	516.17543
214.804	504.20423
215.348	504.12306
215.892	479.12411
216.436	519.17299
216.98	523.14164
217.524	476.10597
218.068	532.31269
218.612	480.18119
219.155	480.10825
219.698	460.08008
220.242	443.0846
220.785	446.02431
221.328	464.12496
221.871	414.02413
222.414	462.12429
222.956	467.11931
223.499	461.02348
224.041	450.03228
224.583	416.88217
225.126	449.97892
225.668	410.98411
226.21	436.0759
226.751	403.89093
227.293	476.07806
227.835	469.12837
228.376	451.0203
228.918	504.23441
229.459	437.07265
230	420.98662
230.541	493.12906
231.082	410.97063
231.622	394.90134
232.163	468.1117
232.704	417.01365
233.244	443.07657
233.784	452.08145
234.324	462.02082
234.864	467.04155
235.404	470.09029
235.944	443.02856
236.484	445.07458
237.023	481.11914
237.563	419.96063
238.102	451.03395
238.641	481.18431
239.18	459.06325
239.719	441.08328
240.258	463.0258
240.797	503.17822
241.335	496.18057
241.874	496.96039
242.412	515.21295
242.95	457.07615
243.488	509.1396
244.026	462.0429
244.564	463.94646
245.102	484.06551
245.64	390.92651
246.177	480.06199
246.715	501.1717
247.252	488.09677
247.789	449.84755
248.326	489.15787
248.863	501.088
249.4	485.08132
249.936	453.92266
250.473	523.19212
251.009	538.20932
251.546	499.07813
252.082	473.02142
252.618	466.01895
253.154	494.1677
253.69	444.9838
254.226	469.09418
254.761	494.10438
255.297	487.04003
255.832	497.13823
256.367	477.10677
256.903	486.03542
257.438	517.17558
257.972	490.07919
258.507	472.07461
259.042	532.13753
259.576	553.17358
260.111	497.12
260.645	494.03654
261.179	500.13572
261.713	536.1713
262.247	474.08004
262.781	477.99628
263.315	549.30414
263.849	505.23252
264.382	522.15987
264.915	555.27228
265.449	537.29318
265.982	582.28268
266.515	501.17902
267.048	507.07112
267.58	535.14075
268.113	538.13747
268.646	537.28538
269.178	519.13624
269.71	521.1171
270.243	493.09738
270.775	506.23931
271.307	510.18789
271.838	511.16144
272.37	504.20239
272.902	538.18558
273.433	461.9859
273.965	478.13636
274.496	482.1529
275.027	520.24676
275.558	534.25265
276.089	510.22924
276.62	530.29721
277.15	467.10953
277.681	551.16882
278.211	520.2017
278.741	550.18318
279.272	540.19347
279.802	536.28127
280.332	516.183
280.861	556.28908
281.391	498.10417
281.921	526.22665
282.45	577.38018
282.98	545.36223
283.509	540.1706
284.038	504.12306
284.567	542.20737
285.096	553.29096
285.625	552.22257
286.153	509.15269
286.682	594.30424
287.21	570.32105
287.739	566.29623
288.267	586.35764
288.795	513.27755
289.323	639.4381
289.851	613.3801
290.378	614.3222
290.906	592.37696
291.433	548.30251
291.961	557.21905
292.488	579.36863
293.015	613.38797
293.542	626.50913
294.069	599.39189
294.596	585.37055
295.122	638.44141
295.649	556.18021
296.175	625.4535
296.702	582.3425
297.228	614.40853
297.754	660.42927
298.28	610.32931
298.806	566.30452
299.332	649.37582
299.857	621.33586
300.383	655.5514
300.908	648.49015
301.433	582.34091
301.958	618.34562
302.483	611.44879
303.008	651.51282
303.533	633.53606
304.058	670.48794
304.582	642.44221
305.107	612.51964
305.631	629.35077
306.155	660.45721
306.679	628.38129
307.203	675.4795
307.727	674.49868
308.251	696.60187
308.775	678.52253
309.298	719.62817
309.822	704.65564
310.345	703.57322
310.868	706.57184
311.391	684.56798
311.914	733.70481
312.437	756.59697
312.96	710.55791
313.482	711.56566
314.005	684.60735
314.527	748.81417
315.049	717.66039
315.571	780.6283
316.093	795.80689
316.615	754.68915
317.137	823.63732
317.659	838.86124
318.18	799.74047
318.702	834.74728
319.223	868.65134
319.744	854.74513
320.265	796.77159
320.786	808.83607
321.307	881.97008
321.828	901.84583
322.348	919.94788
322.869	904.94393
323.389	842.13522
323.909	859.77792
324.43	918.94872
324.95	907.86482
325.47	859.89252
325.989	925.94443
326.509	974.90984
327.029	898.80782
327.548	976.93714
328.067	973.08929
328.587	947.07595
329.106	961.89538
329.625	970.21552
330.144	1034.09174
330.662	1024.03476
331.181	1014.06426
331.7	1095.2078
332.218	1031.96057
332.736	1042.11657
333.255	1041.09396
333.773	1077.17343
334.291	1125.35511
334.808	1191.24874
335.326	1130.17319
335.844	1203.34977
336.361	1184.51722
336.879	1190.35871
337.396	1193.39367
337.913	1223.32054
338.43	1255.32167
338.947	1270.44775
339.464	1259.21753
339.981	1288.4896
340.497	1285.55146
341.014	1308.59421
341.53	1262.28909
342.046	1337.61572
342.562	1334.68126
343.078	1370.57081
343.594	1344.55997
344.11	1377.57077
344.626	1371.75133
345.141	1450.54044
345.657	1406.46297
346.172	1440.70256
346.687	1457.61041
347.202	1443.51435
347.717	1518.77337
348.232	1496.87211
348.747	1497.6443
349.261	1588.60987
349.776	1550.75178
350.29	1607.99728
350.805	1648.06018
351.319	1675.87264
351.833	1560.62405
352.347	1602.78214
352.861	1588.73467
353.374	1675.75786
353.888	1666.94225
354.401	1717.83226
354.915	1653.71091
355.428	1712.06632
355.941	1744.9125
356.454	1768.7691
356.967	1709.86972
357.48	1762.82736
357.993	1752.06716
358.505	1765.03834
359.018	1884.15612
359.53	1836.09966
360.042	1786.73872
360.554	1819.04046
361.066	1828.11068
361.578	1938.76134
362.09	1869.00942
362.602	1910.79972
363.113	2001.0772
363.625	1964.91321
364.136	1980.8276
364.647	2038.14497
365.158	2071.05519
365.669	2099.18789
366.18	2077.10626
366.691	2036.86292
367.201	2085.19754
367.712	2095.02697
368.222	2097.02441
368.733	2148.93825
369.243	2202.97032
369.753	2264.20317
370.263	2373.35463
370.773	2194.29738
371.282	2273.2291
371.792	2444.28229
372.301	2388.37129
372.811	2471.69474
373.32	2372.82329
373.829	2552.30242
374.338	2662.99297
374.847	2768.20937
375.356	2793.31545
375.865	2866.75593
376.373	3004.06326
376.882	3040.57367
377.39	3137.31492
377.898	3189.43692
378.407	3419.8324
378.915	3498.56403
379.423	3660.98305
379.93	3743.64538
380.438	3940.02884
380.946	4120.71994
381.453	4194.72843
381.96	4430.49033
382.468	4690.32816
382.975	4946.18582
383.482	5131.55359
383.989	5177.32898
384.495	5464.51601
385.002	5740.95972
385.509	6058.39943
386.015	6331.51936
386.521	6646.99968
387.028	7009.9629
387.534	7208.92556
388.04	7470.27314
388.546	7727.34405
389.051	8024.62519
389.557	8651.66387
390.063	9403.44839
390.568	9682.22353
391.073	9905.15957
391.578	10270.27197
392.084	10533.93076
392.589	10884.0925
393.093	11566.27187
393.598	12760.10609
394.103	13995.69492
394.607	15305.15366
395.112	16571.6274
395.616	17445.79696
396.12	18841.83157
396.624	20795.14714
397.128	22312.75434
397.632	24796.35096
398.136	26772.87013
398.639	28480.91726
399.143	31549.48733
399.646	35471.45885
400.15	39081.26671
400.653	43450.48757
401.156	48254.9152
401.659	55587.11402
402.162	57494.26276
402.664	54480.21957
403.167	49329.08451
403.67	22278.45323
404.172	2696.20453
404.674	0
405.176	0
405.678	0
406.18	0
406.682	0
407.184	0
407.686	25783.58453
408.187	43316.52985
408.688	51225.60928
409.19	54389.01922
409.691	56215.4214
410.192	57270.57019
410.693	57845.40442
411.194	58219.2365
411.694	58633.01717
412.195	59215.68848
412.696	59364.60701
413.196	59341.61941
413.696	59632.46864
414.196	59367.6054
414.696	59763.40624
415.196	59913.34014
415.696	57659.69531
416.196	46544.22459
416.695	35704.20546
417.195	30237.85943
417.694	28711.44392
418.194	27025.24415
418.693	25426.61991
419.192	24603.22481
419.691	24347.43821
420.19	23733.43861
420.688	23223.74417
421.187	22286.26703
421.685	20970.22389
422.184	19056.27057
422.682	16463.40051
423.18	13888.46247
423.678	12304.00955
424.176	11294.51244
424.674	10516.82631
425.172	10107.73133
425.669	9609.91778
426.167	8958.29368
426.664	8279.04566
427.161	7565.24207
427.659	6807.22955
428.156	6535.66574
428.652	6109.69503
429.149	5905.52672
429.646	5644.16506
430.143	5368.75683
430.639	5048.92473
431.135	4749.54145
431.632	4447.19177
432.128	4149.69434
432.624	4025.21568
433.12	3820.54021
433.616	3733.40263
434.111	3600.91551
434.607	3374.09467
435.103	3383.38791
435.598	3358.40388
436.093	3274.05504
436.588	3011.78434
437.083	2917.89242
437.578	2838.07527
438.073	2600.49787
438.568	2562.32463
439.062	2472.76258
439.557	2392.13412
440.051	2356.94086
440.546	2221.94591
441.04	2204.19876
441.534	2165.4277
442.028	2130.10573
442.522	2066.0995
443.015	2035.73826
443.509	2095.21315
444.002	1992.15243
444.496	1901.71179
444.989	1874.0184
445.482	1913.15123
445.975	1915.88419
446.468	1855.60259
446.961	1822.62037
447.454	1748.6688
447.947	1784.9206
448.439	1671.79336
448.931	1742.7279
449.424	1723.00593
449.916	1730.94191
450.408	1705.67464
450.9	1563.78846
451.392	1639.96043
451.884	1598.6178
452.375	1598.93031
452.867	1598.56747
453.358	1600.62543
453.849	1534.36186
454.341	1534.53151
454.832	1469.34859
455.323	1495.7237
455.814	1447.5069
456.304	1454.50259
456.795	1453.50284
457.285	1353.27316
457.776	1401.39497
458.266	1352.48011
458.756	1298.4092
459.247	1307.44807
459.737	1266.41335
460.226	1320.32244
460.716	1271.42698
461.206	1177.29348
461.695	1211.40652
462.185	1158.1868
462.674	1176.21657
463.163	1131.01911
463.653	1187.03497
464.142	1152.27269
464.63	1168.33647
465.119	1082.06476
465.608	1123.14887
466.096	1016.86337
466.585	1065.04251
467.073	1044.07266
467.561	1046.09106
468.05	1034.01379
468.538	1009.08514
469.026	988.00579
469.513	1137.13713
470.001	948.83522
470.489	986.00172
470.976	999.96398
471.463	934.99214
471.951	862.86706
472.438	868.77857
472.925	808.66893
473.412	818.75291
473.899	821.64924
474.385	786.70382
474.872	811.70615
475.359	763.67814
475.845	848.56324
476.331	741.41448
476.817	765.65581
477.303	746.55863
477.789	692.51456
478.275	661.49372
478.761	668.47981
479.247	730.50025
479.732	709.60942
480.218	655.55796
480.703	649.48324
481.188	638.26852
481.673	632.34294
482.158	582.18765
482.643	607.40883
483.128	594.27141
483.612	579.26354
484.097	581.30691
484.581	566.22392
485.066	580.32408
485.55	587.22038
486.034	514.04961
486.518	531.19332
487.002	574.33768
487.486	522.20538
487.969	534.24338
488.453	512.20705
488.936	514.11841
489.42	487.02565
489.903	462.10163
490.386	481.77691
490.869	418.88603
491.352	468.08821
491.835	470.94488
492.318	567.24149
492.8	450.91926
493.283	462.13474
493.765	469.11087
494.247	439.98992
494.73	411.89267
495.212	407.95329
495.694	393.90068
496.175	419.98139
496.657	417.96026
497.139	437.76395
497.62	392.91691
498.102	383.92962
498.583	385.93622
499.064	420.93683
499.545	414.92994
500.026	385.85789
500.507	400.9147
500.988	371.90927
501.469	340.8461
501.949	392.95021
502.43	328.78226
502.91	375.78673
503.39	338.82611
503.87	412.96141
504.35	291.68299
504.83	337.7466
505.31	308.74019
505.79	362.8653
506.269	327.76806
506.749	311.71422
507.228	338.79745
507.707	305.68331
508.187	337.78876
508.666	313.77114
509.145	323.76399
509.623	312.72869
510.102	276.67311
510.581	281.67237
511.059	332.8274
511.538	319.81097
512.016	363.86985
512.494	331.80103
512.972	297.7082
513.45	281.66646
513.928	350.85448
514.406	347.84542
514.884	307.78709
515.361	334.80357
515.839	362.82915
516.316	264.64529
516.793	289.72953
517.27	259.62588
517.747	295.75633
518.224	329.77004
518.701	326.74521
519.178	232.57886
519.654	311.73845
520.131	220.54972
520.607	277.68598
521.083	235.55135
521.56	292.70388
522.036	329.73313
522.512	228.56103
522.987	265.64182
523.463	309.74499
523.939	302.74062
524.414	293.68204
524.89	290.6935
525.365	292.67663
525.84	296.72133
526.315	253.62243
526.79	257.59447
527.265	333.77604
527.74	245.6043
528.215	275.66228
528.689	282.64101
529.164	266.58994
529.638	280.72353
530.112	280.67496
530.587	275.60799
531.061	268.65701
531.534	207.50721
532.008	301.73256
532.482	233.53939
532.956	222.57209
533.429	254.62293
533.903	299.66739
534.376	249.5636
534.849	229.54587
535.322	263.63123
535.795	225.55865
536.268	207.50551
536.741	212.51859
537.213	238.56221
537.686	251.6241
538.158	248.56876
538.631	223.54701
539.103	303.69696
539.575	249.53094
540.047	248.55917
540.519	261.63475
540.991	250.61675
541.463	271.66375
541.934	219.51723
542.406	241.58853
542.877	287.66755
543.348	242.59482
543.82	242.59592
544.291	209.49839
544.762	230.5555
545.233	236.60012
545.703	268.60969
546.174	277.65546
546.645	271.66227
547.115	286.70217
547.585	231.54409
548.056	336.82428
548.526	351.83822
548.996	275.66529
549.466	318.77146
549.935	321.76806
550.405	327.72837
550.875	333.79007
551.344	341.82305
551.814	369.8545
552.283	269.59199
552.752	385.89931
553.221	363.81691
553.69	282.63634
554.159	398.97595
554.628	378.85431
555.096	366.92926
555.565	372.84178
556.033	327.77255
556.502	279.6841
556.97	316.71247
557.438	280.67164
557.906	288.6903
558.374	240.56671
558.842	190.46599
559.31	265.6103
559.777	189.46928
560.245	283.67819
560.712	217.52242
561.18	265.61517
561.647	206.4802
562.114	215.50936
562.581	232.58075
563.048	205.49017
563.514	242.60556
563.981	195.46198
564.448	196.46031
564.914	219.52763
565.381	243.56945
565.847	258.62123
566.313	213.51493
566.779	168.39209
567.245	219.53123
567.711	233.5764
568.176	212.49866
568.642	206.53105
569.108	234.59103
569.573	275.67029
570.038	286.63429
570.504	156.3668
570.969	257.66146
571.434	280.64908
571.899	234.57813
572.363	291.68139
572.828	252.59366
573.293	253.60122
573.757	252.59412
574.222	299.6982
574.686	286.67505
575.15	248.60844
575.614	262.62129
576.078	304.73529
576.542	314.73249
577.006	344.79141
577.469	292.73012
577.933	306.71832
578.396	275.66378
578.86	310.74528
579.323	320.78475
579.786	309.69085
580.249	316.7496
580.712	300.74279
581.175	248.62572
581.637	272.63553
582.1	300.68386
582.563	268.5966
583.025	283.70083
583.487	305.65005
583.95	327.73772
584.412	352.76503
584.874	253.62334
585.336	274.66424
585.797	285.63956
586.259	308.73879
586.721	252.60862
587.182	274.65024
587.643	323.748
588.105	289.70204
588.566	276.59987
589.027	288.71126
589.488	272.64002
589.949	314.76861
590.41	292.60138
590.87	269.6242
591.331	266.59067
591.791	347.82201
592.252	307.72503
592.712	248.60686
593.172	320.74414
593.632	346.77978
594.092	381.86232
594.552	343.75926
595.011	317.74429
595.471	321.72566
595.931	335.75946
596.39	409.98488
596.849	376.88363
597.308	422.92221
597.768	359.91875
598.227	327.7848
598.685	378.85953
599.144	435.00716
599.603	499.16291
600.062	411.88773
600.52	395.89182
600.978	435.01313
601.437	413.93435
601.895	448.94878
602.353	476.03734
602.811	562.23079
603.269	606.3957
603.727	595.37878
604.184	586.2942
604.642	658.5276
605.099	677.47953
605.557	710.62112
606.014	787.60555
606.471	791.83034
606.928	856.72555
607.385	885.98956
607.842	849.75486
608.299	1012.09181
608.755	1005.14147
609.212	1005.96191
609.668	1034.03376
610.125	1136.34534
610.581	1188.3591
611.037	1136.20561
611.493	1178.34245
611.949	1234.56821
612.405	1226.04808
612.861	1278.47257
613.316	1280.53859
613.772	1359.55321
614.227	1369.64714
614.683	1403.38567
615.138	1403.63996
615.593	1471.70661
616.048	1491.64449
616.503	1438.80122
616.958	1509.00387
617.412	1509.78916
617.867	1486.57821
618.321	1538.44534
618.776	1537.63865
619.23	1499.7433
619.684	1509.65053
620.138	1461.65619
620.592	1468.83565
621.046	1433.64951
621.5	1485.88414
621.954	1456.58013
622.407	1426.51375
622.861	1444.78787
623.314	1438.57688
623.768	1374.58838
624.221	1350.15633
624.674	1303.45366
625.127	1314.49908
625.58	1308.41945
626.033	1237.22944
626.485	1228.46006
626.938	1210.40397
627.39	1236.40473
627.843	1202.33073
628.295	1131.20263
628.747	1118.26811
629.199	1090.12711
629.651	1026.04157
630.103	1080.14625
630.555	1022.87346
631.006	1033.09873
631.458	1079.19928
631.909	996.97229
632.361	981.00915
632.812	1023.07086
633.263	969.82554
633.714	954.78187
634.165	918.0018
634.616	877.88545
635.067	852.67976
635.518	964.01283
635.968	875.55722
636.419	923.77443
636.869	857.81799
637.319	843.75566
637.769	856.73738
638.219	814.72484
638.669	829.78755
639.119	932.0221
639.569	873.87524
640.019	867.77851
640.468	885.75429
640.918	869.84826
641.367	874.74817
641.816	941.86543
642.265	975.95984
642.714	912.85704
643.163	966.97242
643.612	955.06899
644.061	1025.91899
644.51	1057.1194
644.958	982.88396
645.406	978.05289
645.855	1050.22349
646.303	1050.09617
646.751	1080.12839
647.199	974.93226
647.647	1066.09977
648.095	1115.19904
648.543	1079.87786
648.99	1086.18913
649.438	1101.19767
649.885	1056.25267
650.333	1172.89256
650.78	1123.33444
651.227	1117.35064
651.674	1069.06984
652.121	1079.23495
652.568	1083.2671
653.015	1083.31875
653.461	1062.16897
653.908	1078.15218
654.354	1044.12448
654.801	1027.09124
655.247	1058.99888
655.693	997.28402
656.139	1009.1111
656.585	964.01106
657.031	945.96388
657.477	961.83698
657.922	996.01107
658.368	903.9787
658.813	866.77526
659.259	915.9596
659.704	909.86893
660.149	867.83363
660.594	884.88221
661.039	867.77052
661.484	853.81028
661.929	829.74634
662.373	817.89721
662.818	820.85959
663.262	764.68771
663.707	764.7696
664.151	796.7694
664.595	737.62431
665.039	757.72813
665.483	751.75901
665.927	774.655
666.371	727.56681
666.814	715.57382
667.258	756.67975
667.701	739.45703
668.145	718.64596
668.588	673.52888
669.031	695.5451
669.474	679.52197
669.917	712.44875
670.36	682.58522
670.803	643.43472
671.245	652.2964
671.688	624.41548
672.13	677.42713
672.573	617.44897
673.015	664.49777
673.457	699.41678
673.899	586.32973
674.341	641.45084
674.783	537.22998
675.225	604.38888
675.666	634.45793
676.108	589.21094
676.549	576.28745
676.991	663.38963
677.432	628.21901
677.873	567.23992
678.314	630.41638
678.755	606.39127
679.196	592.28894
679.637	580.32886
680.078	538.19152
680.518	548.21068
680.959	568.30602
681.399	543.29136
681.839	563.29734
682.28	526.24297
682.72	527.1664
683.16	495.1712
683.6	510.1064
684.039	524.04876
684.479	523.23277
684.919	498.12797
685.358	487.18279
685.798	501.25485
686.237	522.20633
686.676	429.95908
687.115	501.12534
687.554	419.96756
687.993	461.98761
688.432	412.92658
688.871	452.00907
689.309	483.10701
689.748	389.79231
690.186	501.13454
690.625	407.92827
691.063	422.99131
691.501	434.02645
691.939	411.99231
692.377	422.99749
692.815	489.1266
693.253	432.00672
693.69	434.9392
694.128	425.00841
694.565	417.96486
695.003	451.10054
695.44	461.04974
695.877	471.07557
696.314	421.87816
696.751	442.96754
697.188	380.86128
697.625	423.93786
698.061	411.9668
698.498	456.05358
698.934	441.03197
699.371	452.03729
699.807	436.99819
700.243	389.92183
700.679	428.94757
701.115	407.92565
701.551	397.91313
701.987	436.96045
702.422	466.07545
702.858	430.98723
703.294	425.93367
703.729	433.02625
704.164	449.04621
704.599	444.9633
705.035	432.9608
705.47	491.1653
705.904	443.01639
706.339	371.8267
706.774	425.96931
707.209	451.01161
707.643	428.00012
708.078	505.19351
708.512	474.14881
708.946	388.89653
709.38	422.9677
709.814	436.96205
710.248	456.059
710.682	504.1499
711.116	460.0742
711.549	417.02987
711.983	480.06817
712.416	526.17893
712.85	479.14637
713.283	560.25936
713.716	515.21577
714.149	503.12938
714.582	572.22583
715.015	497.16506
715.448	506.20625
715.881	516.06086
716.313	547.21626
716.746	545.22533
717.178	500.14489
717.61	519.22901
718.043	582.3473
718.475	519.18251
718.907	606.41786
719.339	518.13142
719.77	533.20614
720.202	549.30164
720.634	607.39995
721.065	614.36233
721.497	617.40665
721.928	617.42021
722.359	613.40707
722.79	682.53339
723.221	642.48045
723.652	636.49043
724.083	692.45655
724.514	673.42862
724.945	665.4496
725.375	694.51384
725.806	694.56358
726.236	687.59841
726.666	708.53137
727.096	742.65749
727.526	745.71844
727.956	750.54348
728.386	751.66347
728.816	796.8037
729.246	828.82003
729.675	851.87411
730.105	748.63379
730.534	842.74543
730.964	816.81536
731.393	885.8937
731.822	908.02489
732.251	869.9305
732.68	959.9197
733.109	937.99208
733.537	1010.0886
733.966	1050.24082
734.395	1094.10479
734.823	1077.99576
735.251	1131.28673
735.68	1158.39187
736.108	1101.31593
736.536	1166.23938
736.964	1158.21973
737.392	1213.47612
737.82	1259.43169
738.247	1250.39423
738.675	1288.43418
739.102	1340.67862
739.53	1339.72624
739.957	1358.7842
740.384	1384.62245
740.811	1414.76988
741.238	1428.70214
741.665	1492.59681
742.092	1551.76554
742.519	1561.90978
742.945	1548.79181
743.372	1682.058
743.798	1684.18539
744.225	1727.93443
744.651	1691.08901
745.077	1760.14009
745.503	1833.10855
745.929	1870.08382
746.355	1903.23521
746.781	1955.28943
747.207	2002.19519
747.632	1955.3087
748.058	2049.40175
748.483	2194.15132
748.908	2185.45796
749.334	2229.47172
749.759	2199.1923
750.184	2227.34705
750.609	2417.56982
751.033	2450.33692
751.458	2497.1107
751.883	2523.61487
752.307	2632.44861
752.732	2595.8021
753.156	2623.71999
753.58	2724.49194
754.005	2719.775
754.429	2740.45354
754.853	2847.72156
755.277	2823.39789
755.7	2976.76884
756.124	3004.774
756.548	3109.55088
756.971	3044.55877
757.394	3121.0332
757.818	3136.9667
758.241	3210.90832
758.664	3330.91747
759.087	3361.1755
759.51	3296.72723
759.933	3496.58472
760.356	3522.90097
760.778	3601.74551
761.201	3592.56865
761.623	3641.45283
762.046	3613.38317
762.468	3669.31684
762.89	3744.56067
763.312	3872.58843
763.734	3846.41562
764.156	3932.57018
764.578	3972.12888
765	4000.48575
765.421	3877.836
765.843	3912.97386
766.264	3976.36945
766.686	3993.56512
767.107	4057.3479
767.528	4036.75457
767.949	4075.73373
768.37	4014.37162
768.791	4119.3478
769.212	4105.68266
769.632	4074.15953
770.053	4053.02191
770.473	4118.36896
770.894	4105.50243
771.314	4021.15961
771.734	4058.14633
772.154	4034.71328
772.575	4105.98607
772.994	4022.96699
773.414	4169.21309
773.834	4091.60399
774.254	4049.5462
774.673	3949.40622
775.093	3949.56983
775.512	3858.52943
775.931	3939.72977
776.351	3898.59692
776.77	3868.52886
777.189	3789.32476
777.607	3865.81908
778.026	3881.68172
778.445	3769.76582
778.864	3743.85689
779.282	3747.45186
779.701	3631.7302
780.119	3705.97342
780.537	3634.75777
780.955	3538.76135
781.373	3548.64264
781.791	3564.05564
782.209	3479.16012
782.627	3473.23274
783.045	3444.28309
783.462	3382.95429
783.88	3311.01843
784.297	3296.8391
784.715	3186.00536
785.132	3154.63885
785.549	3156.82974
785.966	3076.80928
786.383	3024.67795
786.8	3018.33645
787.217	2987.46377
787.633	2826.76549
788.05	2886.36062
788.466	2793.23686
788.883	2818.84988
789.299	2805.50591
789.715	2730.59461
790.131	2650.71981
790.547	2573.59573
790.963	2668.69572
791.379	2557.7359
791.795	2511.13532
792.21	2517.24984
792.626	2389.27676
793.041	2411.57543
793.457	2327.52519
793.872	2337.23143
794.287	2225.30494
794.702	2263.4063
795.117	2239.51128
795.532	2136.48814
795.947	2088.19946
796.362	2123.20819
796.776	2079.00153
797.191	1990.2538
797.605	1955.13397
798.02	1851.08784
798.434	1940.73701
798.848	1855.18622
799.262	1757.13867
799.676	1833.03942
800.09	1719.08438
800.504	1627.83688
800.918	1664.77931
801.331	1577.04043
801.745	1594.64137
802.158	1524.86488
802.572	1439.6121
802.985	1471.65703
803.398	1405.55655
803.811	1351.66541
804.224	1385.62371
804.637	1325.48551
805.05	1266.27671
805.462	1232.41161
805.875	1187.52632
806.288	1192.34956
806.7	1152.37629
807.112	1105.05857
807.525	1099.229
807.937	1050.16372
808.349	1024.15333
808.761	1041.14084
809.173	980.00214
809.584	1006.07384
809.996	901.91469
810.408	908.0415
810.819	958.93314
811.231	912.09214
811.642	921.95128
812.053	927.95461
812.464	911.89151
812.875	881.96039
813.286	811.84994
813.697	810.6514
814.108	770.66062
814.519	709.3978
814.929	718.63676
815.34	736.62109
815.75	664.54093
816.16	660.4851
816.571	653.52582
816.981	600.28814
817.391	632.40173
817.801	581.35321
818.211	546.18513
818.62	575.29392
819.03	558.25895
819.44	519.25497
819.849	495.1572
820.259	479.13591
820.668	464.08483
821.077	457.08448
821.486	451.01989
821.895	434.00266
822.304	424.06648
822.713	433.97958
823.122	429.01675
823.531	456.03059
823.939	414.9676
824.348	394.92303
824.756	348.84549
825.164	370.88678
825.573	397.97116
825.981	347.8274
826.389	386.93321
826.797	274.66374
827.205	352.78908
827.612	382.90891
828.02	308.71002
828.428	325.80599
828.835	304.77927
829.243	310.72686
829.65	234.57495
830.057	302.71833
830.464	230.55298
830.871	258.60566
831.278	267.6296
831.685	261.57608
832.092	289.69599
832.499	198.43182
832.905	223.5555
833.312	240.5429
833.718	247.60587
834.124	153.34956
834.531	215.53305
834.937	169.42451
835.343	275.65198
835.749	155.35684
836.155	181.46896
836.561	199.48941
836.966	190.46201
837.372	194.48984
837.777	170.42603
838.183	154.34127
838.588	143.35144
838.993	199.47909
839.399	163.39866
839.804	144.35252
840.209	175.44887
840.613	118.26705
841.018	98.24852
841.423	124.31823
841.828	158.40194
842.232	126.31143
842.637	147.35042
843.041	131.33954
843.445	127.32028
843.849	131.32444
844.253	157.3744
844.657	129.32846
845.061	145.33342
845.465	121.29539
845.869	114.2692
846.272	104.25772
846.676	145.34804
847.079	145.37323
847.483	102.25415
847.886	36.08781
848.289	114.30575
848.692	102.26022
849.095	156.37764
849.498	85.21444
849.901	101.23355
850.304	144.34741
850.707	95.24232
851.109	106.26651
851.512	158.39181
851.914	79.20554
852.316	46.1169
852.718	87.22822
853.121	103.25538
853.523	115.27572
853.925	88.23346
854.326	46.11653
854.728	113.2939
855.13	99.25996
855.531	110.26959
855.933	60.14448
856.334	79.20037
856.736	41.09526
857.137	77.18194
857.538	81.20821
857.939	83.21029
858.34	86.21179
858.741	76.20014
859.142	74.18116
859.542	83.22192
859.943	47.11874
860.343	25.0635
860.744	68.16783
861.144	33.08125
861.544	67.16618
861.945	81.21103
862.345	78.19258
862.745	111.28143
863.145	93.22348
863.544	47.12056
863.944	18.04328
864.344	90.22514
864.743	93.23067
865.143	23.06033
865.542	85.20138
865.941	116.29144
866.34	72.17463
866.74	26.07051
867.139	97.23804
867.537	45.11612
867.936	54.13318
868.335	120.307
868.734	115.29941
869.132	68.16263
869.531	44.107
869.929	103.24176
870.327	88.21543
870.726	16.04029
871.124	88.21006
871.522	58.15015
871.92	59.14863
872.318	92.22715
872.715	43.10685
873.113	94.23353
873.511	112.28462
873.908	57.14851
874.306	73.18614
874.703	44.1115
875.1	57.14723
875.497	76.18723
875.894	75.18901
876.291	68.16876
876.688	93.24495
877.085	17.04152
877.482	59.14948
877.878	55.13562
878.275	44.11442
878.671	40.09152
879.068	80.19556
879.464	86.21022
879.86	32.07744
880.256	71.17713
880.652	33.08565
881.048	86.21381
881.444	13.03137
881.84	26.06726
882.236	45.11462
882.631	94.23583
883.027	52.12697
883.422	35.09084
883.817	90.23307
884.213	56.14652
884.608	40.10104
885.003	67.16588
885.398	71.18263
885.793	37.09438
886.188	64.16391
886.582	27.06948
886.977	82.19776
887.371	13.03312
887.766	35.0895
888.16	42.10647
888.554	-4.01004
888.949	56.14176
889.343	53.13069
889.737	47.12868
890.131	30.07608
890.525	39.10123
890.918	39.09899
891.312	18.04346
891.706	1.00263
892.099	18.04615
892.492	92.20345
892.886	25.06221
893.279	78.20193
893.672	-17.04371
894.065	39.09899
894.458	97.2482
894.851	63.1562
895.244	25.06489
895.637	51.12585
896.029	45.11182
896.422	71.17514
896.814	17.04309
897.206	27.06596
897.599	66.16361
897.991	43.10545
898.383	95.23045
898.775	42.09714
899.167	20.04849
899.559	14.03603
899.951	48.11524
900.342	16.04109
900.734	24.0619
901.125	47.12475
901.517	98.24436
901.908	58.14051
902.299	60.15183
902.69	88.21175
903.082	49.12065
903.473	48.11864
903.863	11.02867
904.254	35.08427
904.645	80.201
905.036	35.08726
905.426	47.10911
905.817	80.19977
906.207	47.11555
906.597	19.04528
906.987	30.07908
907.378	33.08423
907.768	55.14725
908.158	59.14618
908.547	50.13167
908.937	29.07491
909.327	48.11956
909.717	109.27518
910.106	2.00493
910.495	85.21429
910.885	83.21327
911.274	40.10169
911.663	47.11967
912.052	40.09949
912.441	41.10517
912.83	77.18123
913.219	30.07932
913.608	41.10188
913.997	9.02326
914.385	33.08002
914.774	49.12123
915.162	65.15904
915.55	64.15668
915.939	23.05929
916.327	1.00252
916.715	38.09841
917.103	43.10681
917.491	43.10704
917.878	2.00496
918.266	-7.01832
918.654	50.1306
919.041	42.11187
919.429	36.08735
919.816	52.13271
920.203	21.05235
920.591	25.06291
920.978	16.0394
921.365	57.15129
921.752	53.12953
922.139	80.17913
922.525	62.15347
922.912	21.05209
923.299	47.11929
923.685	29.07715
924.072	37.086
924.458	25.06323
924.844	34.08619
925.231	53.12639
925.617	50.12984
926.003	55.14192
926.389	34.08747
926.774	54.13873
927.16	43.10868
927.546	43.11268
927.931	61.15433
928.317	39.09115
928.702	36.0862
929.088	60.1458
929.473	27.06974
929.858	20.05001
930.243	19.04695
930.628	48.1206
931.013	48.12142
931.398	59.13719
931.783	38.10051
932.167	74.18545
932.552	-8.02033
932.937	49.123
933.321	63.16092
933.705	44.1132
934.09	36.09129
934.474	15.03639
934.858	39.10258
935.242	48.1144
935.626	59.15414
936.009	-14.03752
936.393	53.13624
936.777	28.07309
937.16	10.02634
937.544	78.18483
937.927	56.14528
938.311	70.17194
938.694	15.04003
939.077	14.03441
939.46	-14.03436
939.843	121.25958
940.226	33.0861
940.609	137.32295
940.991	30.07785
941.374	80.19854
941.757	36.0897
942.139	82.19108
942.522	16.03837
942.904	78.1901
943.286	33.08447
943.668	75.19634
944.05	52.13051
944.432	70.17707
944.814	26.06457
945.196	75.18793
945.578	73.1804
945.959	107.2539
946.341	16.03918
946.722	13.03124
947.104	52.12697
947.485	49.11658
947.866	56.14558
948.247	17.04338
948.628	3.00742
949.009	80.20804
949.39	39.09832
949.771	106.24953
950.152	67.16806
950.532	29.07387
950.913	75.18323
951.293	36.09886
951.674	90.2249
952.054	56.14287
952.434	63.15791
952.814	39.09486
953.194	40.10516
953.574	-8.01996
953.954	27.06577
954.334	74.18712
954.714	47.11747
955.093	40.09927
955.473	22.05591
955.853	37.0967
956.232	19.05218
956.611	88.21263
956.99	44.11336
957.37	53.13728
957.749	69.16814
958.128	65.16743
958.506	47.12521
958.885	51.13132
959.264	110.27656
959.643	33.07664
960.021	54.13684
960.4	73.16981
960.778	82.20357
961.156	50.12823
961.535	36.08557
961.913	59.14086
962.291	94.24704
962.669	41.10484
963.047	52.13364
963.424	18.04668
963.802	57.14324
964.18	73.18568
964.557	31.07325
964.935	59.14226
965.312	44.1156
965.69	41.10329
966.067	89.21986
966.444	16.03995
966.821	58.15036
967.198	37.09103
967.575	-9.02236
967.952	82.19506
968.329	68.1682
968.705	23.05051
969.082	85.22115
969.458	48.11938
969.835	8.01989
970.211	85.22176
970.587	66.16582
970.963	84.21588
971.339	51.13496
971.715	28.07108
972.091	71.17707
972.467	51.12912
972.843	49.12375
973.219	31.07483
973.594	82.21863
973.97	34.08215
974.345	69.16851
974.721	24.05847
975.096	44.10836
975.471	62.14964
975.846	26.06363
976.221	90.23307
976.596	35.08637
976.971	34.0853
977.346	41.09673
977.72	46.11929
978.095	60.15726
978.469	23.05588
978.844	30.07586
979.218	28.06852
979.593	61.14781
979.967	21.05222
980.341	27.06355
980.715	75.19164
981.089	21.05298
981.463	85.20193
981.837	21.05283
982.21	60.14119
982.584	62.15252
982.957	57.14544
983.331	25.06065
983.704	9.02224
984.078	83.20782
984.451	49.12203
984.824	56.13938
985.197	42.10347
985.57	86.21716
985.943	35.08694
986.316	123.30162
986.688	54.13156
987.061	80.19199
987.434	32.08464
987.806	61.15047
988.179	58.14057
988.551	90.23049
988.923	29.07277
989.295	-6.01504
989.667	37.09144
990.039	61.15433
990.411	59.13849
990.783	53.12411
991.155	54.13489
991.527	34.08419
991.898	70.17751
992.27	0
992.641	44.11134
993.012	113.26741
993.384	28.06778
993.755	57.1482
994.126	66.16044
994.497	53.1328
994.868	41.09699
995.239	25.06156
995.61	49.12595
995.98	74.18411
996.351	32.08083
996.722	90.21524
997.092	73.17662
997.462	30.07262
997.833	28.06753
998.203	63.15369
998.573	4.01016
998.943	76.18239
999.313	69.16908
999.683	55.13617
1000.053	74.17414
1000.423	59.1442
1000.792	57.15043
1001.162	-2.00502
1001.531	83.20699
1001.901	80.20409
1002.27	84.19103
1002.639	15.03929
1003.009	83.19847
1003.378	21.05419
1003.747	67.16259
1004.116	9.02221
1004.485	41.09912
1004.853	41.10532
1005.222	20.05095
1005.591	20.04847
1005.959	75.17501
1006.328	47.10877
1006.696	86.21226
1007.064	24.06123
1007.433	46.1162
1007.801	40.09872
1008.169	14.03565
1008.537	94.21195
1008.905	31.07464
1009.273	27.06719
1009.64	75.18412
1010.008	60.14623
1010.375	7.01686
1010.743	75.17439
1011.11	60.14552
1011.478	42.10514
1011.845	28.06714
1012.212	69.16063
1012.579	29.07206
1012.946	46.11111
1013.313	46.11048
1013.68	49.11213
1014.047	51.12502
1014.414	39.09479
1014.78	9.02272
1015.147	28.06814
1015.513	63.15449
1015.88	12.03086
1016.246	22.05434
1016.612	27.06256
1016.978	62.15403
1017.344	52.13135
1017.71	27.06599
1018.076	71.1688
1018.442	-9.02342
1018.808	52.1321
1019.174	53.13552
1019.539	43.09876
1019.905	49.11788
1020.27	25.06341
1020.636	46.11207
1021.001	15.03659
1021.366	65.15904
1021.731	37.09521
1022.096	11.02846
1022.461	90.21516
1022.826	18.04371
1023.191	-7.01867
1023.556	45.10834
1023.92	14.03485
1024.285	79.19473
1024.649	92.22765
1025.014	37.09331
1025.378	28.07184
1025.742	64.16161
1026.107	48.11022
1026.471	43.10069
1026.835	50.12679
1027.199	80.19955
1027.562	90.21162
1027.926	46.11383
1028.29	62.16012
1028.654	78.1824
1029.017	8.0199
1029.381	53.1292
1029.744	-18.04668
1030.107	66.15767
1030.471	-16.03901
1030.834	34.07879
1031.197	37.08949
1031.56	39.0934
1031.923	18.04724
1032.286	25.05978
1032.648	91.22141
1033.011	25.0585
1033.374	18.0428
1033.736	39.10424
1034.099	64.15935
1034.461	-19.04898
1034.823	-11.02799
1035.185	44.11229
1035.548	82.2029
1035.91	45.10982
1036.272	24.0554
1036.634	46.11291
1036.995	64.15423
1037.357	31.07709
1037.719	24.05878
1038.08	59.14135
1038.442	16.03876
1038.803	21.05129
1039.165	60.15479
1039.526	45.11043
1039.887	44.1076
1040.248	10.02517
1040.609	0
1040.97	53.13227
1041.331	19.04892
1041.692	65.15768
1042.053	76.17633
1042.413	23.05491
1042.774	60.14721
1043.134	79.1907
1043.495	30.07608
1043.855	48.11816
1044.215	73.18403
1044.576	42.104
1044.936	115.26486
1045.296	80.20085
1045.656	27.06692
1046.016	28.06832
1046.375	25.0614
1046.735	53.12353
1047.095	14.03356
1047.454	37.08037
1047.814	64.15592
1048.173	8.01904
1048.533	45.10505
1048.892	36.08928
1049.251	94.23719
1049.61	55.13712
1049.969	106.25564
1050.328	30.06687
1050.687	21.05201
1051.046	1.00247
1051.405	93.23496
1051.763	19.0451
1052.122	24.06103
1052.48	21.0518
1052.839	45.10797
1053.197	27.06537
1053.555	-18.04102
1053.914	1.00247
1054.272	14.03406
1054.63	88.21919
1054.988	33.08047
1055.345	39.08644
1055.703	69.16732
1056.061	31.08066
1056.419	20.05256
1056.776	22.05366
1057.134	73.17202
1057.491	27.06838
1057.848	36.08996
1058.206	36.08662
1058.563	60.13479
1058.92	10.02332
1059.277	31.07737
1059.634	69.16373
1059.991	109.26243
1060.348	69.16006
1060.704	30.07347
1061.061	77.17954
1061.418	-11.02727
1061.774	27.06799
1062.131	43.11569
1062.487	21.05041
1062.843	17.04284
1063.199	35.08912
1063.555	50.1194
1063.911	33.08364
1064.267	58.12284
1064.623	10.02493
1064.979	42.10068
1065.335	42.1011
1065.691	69.16638
1066.046	14.03084
1066.402	55.12925
1066.757	23.05863
1067.112	32.07912
1067.468	107.26219
1067.823	59.14463
1068.178	37.09026
1068.533	63.15489
1068.888	34.08225
1069.243	32.08017
1069.598	68.16752
1069.952	39.09101
1070.307	43.10972
1070.662	30.07238
1071.016	77.17593
1071.371	96.21982
1071.725	37.08969
1072.079	28.06809
1072.434	26.06483
1072.788	51.12404
1073.142	70.17461
1073.496	13.03152
1073.85	-4.00943
1074.203	131.32314
1074.557	33.08893
1074.911	34.0815
1075.265	5.01191
1075.618	12.02958
1075.971	44.10632
1076.325	24.0622
1076.678	97.2275
1077.031	67.15548
1077.385	127.28454
1077.738	57.13196
1078.091	46.10787
1078.444	77.18095
1078.796	5.01246
1079.149	20.05034
1079.502	81.19738
1079.855	55.13156
1080.207	96.23728
1080.56	9.02363
1080.912	13.03208
1081.264	51.12474
1081.617	89.22156
1081.969	35.09063
1082.321	34.08392
1082.673	38.08994
1083.025	77.18574
1083.377	-179.41489
1083.728	51.1199
1084.08	27.06831
1084.432	73.17881
1084.783	57.13499
1085.135	32.08164
1085.486	65.154
1085.838	70.1748
1086.189	28.0688
1086.54	39.09429
1086.891	44.11359
1087.242	0
1087.593	44.10828
1087.944	20.046
1088.295	39.09047
1088.646	17.04241
1088.996	16.03933
1089.347	22.05504
1089.698	27.0656
1090.048	39.10088
1090.398	6.01415
1090.749	69.16744
1091.099	89.23029
1091.449	21.05319
1091.799	86.21723
1092.149	85.21406
1092.499	27.0669
1092.849	41.10634
1093.199	16.04036
1093.548	31.0765
1093.898	44.11182
1094.248	31.0803
1094.597	9.02384
1094.947	4.0108
1095.296	29.07248
1095.645	51.13356
1095.994	69.16644
1096.343	53.13462
1096.692	146.39209
1097.041	-33.09055
1097.39	86.21956
1097.739	79.20603
1098.088	74.19906
1098.437	19.05094
1098.785	27.07276
1099.134	47.12513
1099.482	42.11651
1099.83	45.11824
1100.179	66.17556
1100.527	16.04287
1100.875	-27.07295
1101.223	57.15195
1101.571	40.11148
1101.919	46.12334
1102.267	35.09904
1102.615	8.0258
1102.962	0
1103.31	10.0322
1103.658	6.01937
