Data from N2 R0 150C sample1_Subt2__0__13-00-25-670.txt Node

Date: Tue Aug 19 13:00:25 PDT 2025
User: uwsun
Spectrometer: HDX01956
Trigger mode: 0
Integration Time (sec): 5.000000E-1
Scans to average: 1
Nonlinearity correction enabled: true
Boxcar width: 0
Storing dark spectrum: false
XAxis mode: Wavelengths
Number of Pixels in Spectrum: 2068
>>>>>Begin Spectral Data<<<<<
194.03	25.07318
194.578	21.06839
195.127	22.07073
195.676	22.07098
196.225	56.15456
196.773	16.04607
197.321	88.25234
197.87	140.37684
198.418	85.22839
198.966	103.28208
199.513	52.13717
200.061	114.30404
200.609	120.32848
201.156	70.1644
201.704	111.29501
202.251	110.30532
202.798	98.26672
203.345	146.37639
203.892	118.31074
204.438	99.25011
204.985	103.2617
205.532	113.30986
206.078	89.23084
206.624	120.31087
207.17	111.2732
207.716	100.25682
208.262	65.13926
208.808	114.29909
209.354	103.2654
209.899	92.2417
210.445	71.18801
210.99	134.34209
211.535	142.35329
212.08	165.407
212.625	111.29225
213.17	125.33
213.715	114.27701
214.259	127.31246
214.804	89.22981
215.348	107.25839
215.892	108.27222
216.436	124.30322
216.98	133.31474
217.524	87.21799
218.068	154.4069
218.612	108.2844
219.155	66.16517
219.698	120.30095
220.242	129.33482
220.785	117.28691
221.328	103.26706
221.871	56.14787
222.414	102.26533
222.956	88.22648
223.499	89.21322
224.041	118.2892
224.583	45.10315
225.126	84.19728
225.668	55.14088
226.21	72.18986
226.751	107.25115
227.293	128.31091
227.835	116.29822
228.376	122.295
228.918	99.26101
229.459	93.24321
230	109.27154
230.541	115.28378
231.082	40.10144
231.622	82.19933
232.163	85.21712
232.704	82.21221
233.244	97.25142
233.784	123.31329
234.324	81.19354
234.864	78.18825
235.404	102.25424
235.944	76.18957
236.484	75.19406
237.023	140.34819
237.563	73.17894
238.102	81.19981
238.641	104.27424
239.18	79.19709
239.719	96.25127
240.258	87.20819
240.797	110.27785
241.335	114.29165
241.874	141.29621
242.412	119.30225
242.95	102.25719
243.488	134.32365
244.026	71.17333
244.564	153.33474
245.102	128.30331
245.64	89.22365
246.177	114.27191
246.715	111.27983
247.252	143.34467
247.789	126.2567
248.326	92.23487
248.863	87.20588
249.4	116.2788
249.936	111.24367
250.473	115.28409
251.009	120.29323
251.546	87.20485
252.082	126.2928
252.618	73.17315
253.154	88.22466
253.69	72.17187
254.226	103.25799
254.761	167.39916
255.297	110.25451
255.832	101.25005
256.367	122.30343
256.903	68.15827
257.438	120.29519
257.972	147.3476
258.507	130.31695
259.042	96.22494
259.576	122.28362
260.111	106.25834
260.645	73.16766
261.179	92.22656
261.713	139.3297
262.247	130.3173
262.781	141.31643
263.315	114.2938
263.849	92.24211
264.382	136.32687
264.915	135.33594
265.449	118.30706
265.982	110.26669
266.515	100.25404
267.048	171.38848
267.58	152.35154
268.113	142.32672
268.646	115.29776
269.178	109.25964
269.71	159.36809
270.243	112.26939
270.775	125.32822
271.307	89.22477
271.838	104.25621
272.37	98.2523
272.902	117.28094
273.433	55.12794
273.965	143.36243
274.496	70.18084
275.027	114.29482
275.558	117.29717
276.089	116.30082
276.62	92.24374
277.15	63.16154
277.681	129.29924
278.211	52.13149
278.741	127.29844
279.272	99.23925
279.802	105.27197
280.332	102.25359
280.861	113.28528
281.391	117.2804
281.921	102.25802
282.45	150.38845
282.98	103.27829
283.509	109.25834
284.038	112.27021
284.567	97.23628
285.096	152.38325
285.625	111.26876
286.153	38.09441
286.682	99.24025
287.21	153.38432
287.739	179.44234
288.267	112.28412
288.795	88.23633
289.323	145.35964
289.851	163.40118
290.378	124.29542
290.906	159.40183
291.433	108.27872
291.961	83.20006
292.488	112.28894
293.015	161.39845
293.542	170.44554
294.069	93.23788
294.596	153.38915
295.122	141.35112
295.649	111.25881
296.175	159.40412
296.702	107.27042
297.228	126.31759
297.754	180.43015
298.28	133.31948
298.806	177.44012
299.332	121.28634
299.857	88.21118
300.383	134.34953
300.908	120.30527
301.433	132.33176
301.958	116.27975
302.483	115.299
303.008	139.35592
303.533	130.34545
304.058	154.37896
304.582	169.41686
305.107	171.45914
305.631	156.36952
306.155	143.35014
306.679	138.33507
307.203	140.34171
307.727	120.29769
308.251	123.31561
308.775	173.42908
309.298	179.45011
309.822	171.44412
310.345	195.48241
310.868	91.22851
311.391	183.46199
311.914	161.41686
312.437	150.35915
312.96	147.361
313.482	147.3622
314.005	167.43224
314.527	172.46236
315.049	135.34882
315.571	196.46246
316.093	193.49226
316.615	213.53059
317.137	178.40758
317.659	246.61379
318.18	147.3646
318.702	165.39694
319.223	208.45958
319.744	211.49428
320.265	211.52676
320.786	185.47352
321.307	169.43333
321.828	246.57885
322.348	216.52818
322.869	217.53564
323.389	-28.04877
323.909	203.48204
324.43	190.46737
324.95	174.41692
325.47	212.5305
325.989	227.55063
326.509	201.46624
327.029	166.39062
327.548	183.43054
328.067	258.63975
328.587	205.51992
329.106	187.436
329.625	243.6365
330.144	237.56732
330.662	217.5127
331.181	222.53375
331.7	283.67741
332.218	275.61941
332.736	287.68384
333.255	221.52882
333.773	246.59144
334.291	235.58879
334.808	257.5966
335.326	288.66657
335.844	285.67803
336.361	286.72672
336.879	287.68908
337.396	290.70329
337.913	282.65812
338.43	269.6205
338.947	300.71303
339.464	307.67589
339.981	258.6217
340.497	271.66522
341.014	268.66042
341.53	214.49197
342.046	314.7629
342.562	331.81877
343.078	329.77577
343.594	305.72756
344.11	332.78026
344.626	306.76456
345.141	292.6675
345.657	345.77323
346.172	336.80195
346.687	331.76501
347.202	328.74012
347.717	330.78371
348.232	322.79257
348.747	347.79688
349.261	360.79439
349.776	375.86874
350.29	367.89413
350.805	372.90952
351.319	413.94764
351.833	310.69951
352.347	361.833
352.861	332.7635
353.374	363.81591
353.888	376.88707
354.401	364.82603
354.915	386.85709
355.428	357.86198
355.941	412.93948
356.454	414.90397
356.967	381.87178
357.48	350.7875
357.993	399.94661
358.505	353.83654
359.018	412.96783
359.53	455.05397
360.042	401.86762
360.554	413.95636
361.066	407.95776
361.578	396.83977
362.09	382.8746
362.602	402.86365
363.113	484.07575
363.625	442.96019
364.136	442.93771
364.647	437.99225
365.158	459.00974
365.669	459.03633
366.18	460.02274
366.691	472.99567
367.201	489.10194
367.712	507.09358
368.222	475.03056
368.733	538.12158
369.243	511.07345
369.753	541.18199
370.263	509.14334
370.773	500.13251
371.282	576.25512
371.792	614.32276
372.301	529.18591
372.811	540.27511
373.32	534.06437
373.829	561.21903
374.338	563.1444
374.847	625.30584
375.356	604.29284
375.865	661.24871
376.373	696.39109
376.882	696.52525
377.39	699.46517
377.898	744.57846
378.407	767.4649
378.915	738.35466
379.423	843.64839
379.93	837.55102
380.438	866.72896
380.946	968.81609
381.453	914.75079
381.96	1018.86424
382.468	1061.9164
382.975	1172.05778
383.482	1161.84264
383.989	1197.19103
384.495	1267.00627
385.002	1279.81543
385.509	1477.262
386.015	1482.76291
386.521	1591.15507
387.028	1536.03432
387.534	1698.01069
388.04	1629.16603
388.546	1749.05996
389.051	1781.94673
389.557	1894.08137
390.063	2169.11524
390.568	2211.2055
391.073	2306.96521
391.578	2407.21235
392.084	2370.76897
392.589	2474.49051
393.093	2699.73413
393.598	2978.37896
394.103	3223.27029
394.607	3599.82672
395.112	3709.83847
395.616	4151.39741
396.12	4309.85432
396.624	4872.46936
397.128	5316.32051
397.632	5856.19613
398.136	6319.48486
398.639	6635.90455
399.143	7485.75239
399.646	8356.76935
400.15	9257.95265
400.653	10181.41591
401.156	11448.15734
401.659	13191.20965
402.162	16446.78467
402.664	21193.59431
403.167	27474.91448
403.67	19516.30388
404.172	2696.20453
404.674	0
405.176	0
405.678	0
406.18	0
406.682	0
407.184	0
407.686	25783.58453
408.187	43316.52985
408.688	51225.60928
409.19	37124.13316
409.691	29621.31722
410.192	24914.35964
410.693	21785.09896
411.194	19761.42165
411.694	19019.9805
412.195	17691.02847
412.696	16108.94374
413.196	14829.38354
413.696	14702.57613
414.196	14730.66939
414.696	14579.12383
415.196	13851.73656
415.696	12877.1828
416.196	10407.22337
416.695	8024.93887
417.195	6749.95139
417.694	6546.7946
418.194	6310.46503
418.693	5797.22138
419.192	5558.2817
419.691	5612.31255
420.19	5425.35549
420.688	5055.46498
421.187	4992.19416
421.685	4612.73958
422.184	4215.27854
422.682	3761.59982
423.18	3176.35599
423.678	2847.69304
424.176	2637.8554
424.674	2460.77841
425.172	2407.13772
425.669	2281.38045
426.167	2117.21802
426.664	2021.21714
427.161	1740.11537
427.659	1642.34169
428.156	1502.86884
428.652	1492.43744
429.149	1396.22532
429.646	1363.971
430.143	1287.1103
430.639	1210.02451
431.135	1146.11365
431.632	1146.92431
432.128	984.8353
432.624	976.96949
433.12	898.61681
433.616	937.61289
434.111	884.68509
434.607	819.61801
435.103	848.44648
435.598	830.42481
436.093	752.49207
436.588	657.25387
437.083	665.2925
437.578	628.27645
438.073	671.47566
438.568	619.33383
439.062	625.19673
439.557	575.21556
440.051	544.1125
440.546	540.11877
441.04	565.23502
441.534	606.38627
442.028	461.01754
442.522	501.10461
443.015	500.01404
443.509	507.14071
444.002	511.15113
444.496	511.04702
444.989	491.09879
445.482	448.03588
445.975	435.9472
446.468	400.82343
446.961	463.94989
447.454	382.82069
447.947	408.92473
448.439	380.86023
448.931	436.94232
449.424	420.98431
449.916	464.05637
450.408	397.8597
450.9	412.95348
451.392	368.87998
451.884	378.83061
452.375	424.00468
452.867	359.78041
453.358	390.85625
453.849	359.74519
454.341	383.83434
454.832	392.82003
455.323	366.85746
455.814	340.7625
456.304	324.72632
456.795	344.76829
457.285	274.59654
457.776	318.70231
458.266	377.86159
458.756	303.70197
459.247	339.78691
459.737	356.82882
460.226	363.79916
460.716	375.87183
461.206	305.71779
461.695	267.6474
462.185	262.60375
462.674	291.66803
463.163	306.66337
463.653	353.74124
464.142	307.72615
464.63	339.80864
465.119	252.57816
465.608	282.64983
466.096	269.58652
466.585	301.68434
467.073	278.65108
467.561	238.56525
468.05	254.58695
468.538	263.63482
469.026	272.64301
469.513	402.89298
470.001	251.5672
470.489	271.64052
470.976	251.5806
471.463	224.5514
471.951	242.59372
472.438	231.54176
472.925	182.42893
473.412	195.47426
473.899	199.4574
474.385	205.4997
474.872	259.61145
475.359	191.47078
475.845	262.55441
476.331	140.30649
476.817	233.562
477.303	212.49574
477.789	187.45327
478.275	181.44941
478.761	206.50073
479.247	227.51987
479.732	201.50361
480.218	169.43983
480.703	193.482
481.188	178.39231
481.673	146.34343
482.158	179.39923
482.643	165.41685
483.128	175.40899
483.612	161.38291
484.097	164.40088
484.581	153.36052
485.066	154.38217
485.55	187.42397
486.034	64.14425
486.518	200.48068
487.002	206.51549
487.486	121.30209
487.969	175.43689
488.453	92.23487
488.936	174.40657
489.42	140.31786
489.903	114.29042
490.386	174.3055
490.869	101.2289
491.352	150.37129
491.835	128.27762
492.318	183.43372
492.8	148.32305
493.283	189.4885
493.765	152.3827
494.247	168.39978
494.73	152.34833
495.212	136.33541
495.694	114.27587
496.175	116.28777
496.657	161.38967
497.139	142.26757
497.62	127.31246
498.102	113.28813
498.583	100.2561
499.064	143.33722
499.545	157.37124
500.026	119.27975
500.507	132.3181
500.988	152.38763
501.469	126.32574
501.949	155.39242
502.43	148.36514
502.91	163.35797
503.39	118.30019
503.87	136.33454
504.35	102.24822
504.83	117.27108
505.31	81.20303
505.79	136.3391
506.269	136.33133
506.749	97.2323
507.228	109.26858
507.707	165.38032
508.187	112.27368
508.666	124.31612
509.145	159.38801
509.623	76.18571
510.102	139.34765
510.581	86.21343
511.059	115.29787
511.538	77.2041
512.016	158.39338
512.494	118.297
512.972	91.22554
513.45	112.27429
513.928	132.33532
514.406	104.26485
514.884	125.33067
515.361	154.38315
515.839	131.31396
516.316	132.33056
516.793	145.37543
517.27	54.13553
517.747	106.28074
518.224	103.25173
518.701	167.39397
519.178	89.22781
519.654	118.29059
520.131	94.24023
520.607	100.25565
521.083	72.1743
521.56	178.43834
522.036	113.26306
522.512	85.21467
522.987	126.31315
523.463	151.37493
523.939	145.36593
524.414	114.27472
524.89	111.27451
525.365	102.24525
525.84	104.26251
526.315	138.34671
526.79	136.32215
527.265	117.28424
527.74	105.26565
528.215	106.26344
528.689	154.35914
529.164	78.17975
529.638	125.33166
530.112	116.28829
530.587	156.35347
531.061	95.24035
531.534	105.26214
532.008	119.29946
532.482	71.16964
532.956	100.26316
533.429	132.33104
533.903	123.28453
534.376	92.21489
534.849	129.3134
535.322	100.24744
535.795	135.3407
536.268	83.20737
536.741	85.21283
537.213	114.27576
537.686	122.31047
538.158	46.10976
538.631	52.13159
539.103	93.22289
539.575	84.18553
540.047	103.23912
540.519	132.32877
540.991	98.24852
541.463	89.22533
541.934	102.24636
542.406	105.2629
542.877	140.33508
543.348	133.33349
543.82	75.19036
544.291	117.28393
544.762	104.25715
545.233	123.31903
545.703	119.27888
546.174	111.27108
546.645	118.29657
547.115	125.31602
547.585	106.25573
548.056	156.39545
548.526	200.49142
548.996	95.23761
549.466	89.22517
549.935	125.31026
550.405	144.33291
550.875	129.31809
551.344	135.3385
551.814	196.46945
552.283	148.33398
552.752	164.39969
553.221	184.42926
553.69	172.39685
554.159	186.47399
554.628	130.30865
555.096	211.55044
555.565	232.53995
556.033	153.37365
556.502	188.46875
556.97	166.38575
557.438	167.4092
557.906	152.37376
558.374	179.42768
558.842	199.48724
559.31	243.56209
559.777	178.44285
560.245	260.62581
560.712	261.62309
561.18	253.58871
561.647	231.53582
562.114	269.63062
562.581	291.72064
563.048	260.61512
563.514	330.81256
563.981	297.68971
564.448	357.81196
564.914	368.86147
565.381	408.9251
565.847	436.01207
566.313	429.99458
566.779	436.96366
567.245	463.06915
567.711	467.10315
568.176	498.10372
568.642	536.29929
569.108	571.3523
569.573	682.53277
570.038	658.34421
570.504	652.38188
570.969	717.69308
571.434	810.67754
571.899	769.709
572.363	873.80773
572.828	888.8294
573.293	862.80439
573.757	907.86231
574.222	1019.03745
574.686	1035.08187
575.15	1056.19453
575.614	1042.09263
576.078	1149.32845
576.542	1141.22319
577.006	1125.17955
577.469	1169.44837
577.933	1192.30802
578.396	1192.37034
578.86	1260.47461
579.323	1287.58019
579.786	1283.29041
580.249	1280.46472
580.712	1282.59188
581.175	1244.56625
581.637	1211.30215
582.1	1298.35937
582.563	1322.29949
583.025	1301.60949
583.487	1345.22307
583.95	1296.3427
584.412	1329.28936
584.874	1214.4509
585.336	1322.56393
585.797	1281.28449
586.259	1265.47344
586.721	1338.55953
587.182	1374.56202
587.643	1322.45026
588.105	1402.68483
588.566	1311.22363
589.027	1357.68099
589.488	1432.60261
589.949	1504.85596
590.41	1493.25736
590.87	1517.64813
591.331	1547.52592
591.791	1587.8531
592.252	1689.91666
592.712	1724.04896
593.172	1852.00905
593.632	1873.91814
594.092	1926.0037
594.552	2043.95261
595.011	2131.24868
595.471	2195.1078
595.931	2319.19175
596.39	2472.65432
596.849	2502.49421
597.308	2612.18526
597.768	2814.10584
598.227	2970.66686
598.685	3092.39065
599.144	3317.57394
599.603	3546.66524
600.062	3699.97714
600.52	3926.16224
600.978	4163.36103
601.437	4389.9864
601.895	4691.41389
602.353	4976.50136
602.811	5339.45927
603.269	5687.71564
603.727	6074.5602
604.184	6413.08219
604.642	6748.44656
605.099	7142.05914
605.557	7396.39062
606.014	7927.15895
606.471	8363.0282
606.928	8715.02199
607.385	9345.2917
607.842	9709.98673
608.299	10207.31996
608.755	10662.73815
609.212	11079.6067
609.668	11537.61487
610.125	12152.35587
610.581	12690.70558
611.037	13164.15955
611.493	13639.28074
611.949	14225.21509
612.405	14587.2349
612.861	15064.4976
613.316	15478.1198
613.772	15847.45662
614.227	16187.53789
614.683	16630.55827
615.138	16809.81066
615.593	17193.40623
616.048	17309.39528
616.503	17790.67079
616.958	17693.67821
617.412	17999.00682
617.867	17947.7449
618.321	17994.75175
618.776	18081.39462
619.23	17920.26819
619.684	17891.67808
620.138	17749.45402
620.592	17716.78943
621.046	17384.7861
621.5	17374.44808
621.954	16994.82575
622.407	16759.30915
622.861	16559.32554
623.314	16251.24559
623.768	16019.16194
624.221	15816.72945
624.674	15467.74807
625.127	15113.08603
625.58	15024.66764
626.033	14816.31399
626.485	14529.30225
626.938	14328.74129
627.39	14036.498
627.843	13770.50865
628.295	13530.80643
628.747	13358.13987
629.199	13252.84428
629.651	13173.2325
630.103	12919.38929
630.555	12727.96161
631.006	12550.94004
631.458	12350.64461
631.909	12252.42744
632.361	12113.42264
632.812	12342.74115
633.263	12107.99446
633.714	12099.02942
634.165	12029.65026
634.616	12023.7714
635.067	11981.15439
635.518	12088.18033
635.968	12051.23795
636.419	12051.60779
636.869	12095.27493
637.319	12300.58944
637.769	12410.41947
638.219	12668.73019
638.669	12826.54997
639.119	13129.27494
639.569	13191.94061
640.019	13431.16297
640.468	14005.02486
640.918	14048.52258
641.367	14352.89599
641.816	14943.17024
642.265	15134.66433
642.714	15721.55996
643.163	16070.97803
643.612	16598.64402
644.061	16852.13412
644.51	17176.4399
644.958	17758.87428
645.406	18141.71217
645.855	18813.84016
646.303	19118.33393
646.751	19600.04984
647.199	20015.28006
647.647	20640.74424
648.095	20975.20483
648.543	21116.51959
648.99	21560.23957
649.438	21889.17455
649.885	22213.35908
650.333	22347.52701
650.78	22660.16814
651.227	22916.59811
651.674	22978.99706
652.121	22893.92752
652.568	23268.04931
653.015	23074.62014
653.461	23002.9931
653.908	22955.8138
654.354	22676.4512
654.801	22643.04986
655.247	22439.86628
655.693	22279.62218
656.139	22143.15355
656.585	22007.53184
657.031	21614.06641
657.477	21428.46878
657.922	21187.34848
658.368	20753.49486
658.813	20633.811
659.259	19864.54952
659.704	19875.80116
660.149	19466.66602
660.594	19118.6789
661.039	18564.42467
661.484	18197.82791
661.929	17802.12033
662.373	17685.44454
662.818	17370.19186
663.262	16917.72109
663.707	16627.40078
664.151	16398.59915
664.595	16002.74471
665.039	15870.60723
665.483	15595.36095
665.927	15398.96447
666.371	14998.12113
666.814	14832.2798
667.258	14655.40517
667.701	14332.34602
668.145	14043.90704
668.588	13648.07174
669.031	13695.64324
669.474	13386.29091
669.917	13392.3544
670.36	13144.20134
670.803	13117.53231
671.245	12724.001
671.688	12678.53686
672.13	12489.91933
672.573	12423.72703
673.015	12306.30011
673.457	12229.63081
673.899	11876.03963
674.341	11882.01589
674.783	11820.76032
675.225	11558.38718
675.666	11506.11608
676.108	11373.13088
676.549	11329.51533
676.991	11191.11671
677.432	11155.36334
677.873	10888.76274
678.314	10772.18908
678.755	10459.07446
679.196	10470.22147
679.637	10218.34126
680.078	9973.67799
680.518	10010.78227
680.959	9734.05438
681.399	9650.8875
681.839	9542.62266
682.28	9430.41507
682.72	9243.95702
683.16	8965.59873
683.6	8855.23127
684.039	8728.90356
684.479	8583.10314
684.919	8379.71768
685.358	8350.97272
685.798	8204.03687
686.237	8063.54353
686.676	7785.11718
687.115	7790.2178
687.554	7719.22602
687.993	7548.83271
688.432	7471.98093
688.871	7319.95048
689.309	7197.11287
689.748	7046.36648
690.186	7155.05798
690.625	6948.96526
691.063	6922.17416
691.501	6748.27163
691.939	6727.37767
692.377	6649.25438
692.815	6676.17521
693.253	6503.21626
693.69	6430.73672
694.128	6407.36607
694.565	6304.18761
695.003	6254.67941
695.44	6135.21056
695.877	6147.24054
696.314	5963.6341
696.751	5924.98172
697.188	5877.15313
697.625	5817.088
698.061	5703.55979
698.498	5686.51372
698.934	5651.60791
699.371	5465.57208
699.807	5431.53274
700.243	5281.81231
700.679	5315.33837
701.115	5244.54195
701.551	5190.64197
701.987	5156.4027
702.422	4933.93501
702.858	4873.85825
703.294	4789.57487
703.729	4857.14009
704.164	4639.14815
704.599	4698.56726
705.035	4579.79
705.47	4538.412
705.904	4509.08923
706.339	4311.85602
706.774	4324.09717
707.209	4378.00149
707.643	4281.32165
708.078	4170.5741
708.512	4153.73612
708.946	4032.27368
709.38	4044.26275
709.814	4071.99893
710.248	3865.48943
710.682	3842.43709
711.116	3844.54289
711.549	3740.94186
711.983	3691.28215
712.416	3694.39256
712.85	3646.80891
713.283	3569.49681
713.716	3550.77855
714.149	3547.4145
714.582	3421.23806
715.015	3356.73459
715.448	3379.86189
715.881	3310.94807
716.313	3258.46322
716.746	3189.53691
717.178	3149.59801
717.61	3169.84283
718.043	3149.77278
718.475	2992.58937
718.907	3031.86687
719.339	2979.33689
719.77	2926.56045
720.202	2947.87179
720.634	2958.76935
721.065	2791.52486
721.497	2815.68946
721.928	2818.74716
722.359	2765.71438
722.79	2736.66786
723.221	2708.76027
723.652	2620.81836
724.083	2704.31502
724.514	2663.33021
724.945	2686.46577
725.375	2558.46758
725.806	2563.64085
726.236	2500.78388
726.666	2547.43574
727.096	2559.64602
727.526	2581.83464
727.956	2590.24421
728.386	2487.58323
728.816	2495.75547
729.246	2474.62081
729.675	2453.64576
730.105	2376.46114
730.534	2409.32171
730.964	2414.64214
731.393	2457.53873
731.822	2360.72651
732.251	2400.68351
732.68	2413.28376
733.109	2426.54863
733.537	2379.47494
733.966	2469.71103
734.395	2386.24064
734.823	2325.04218
735.251	2452.52813
735.68	2424.64489
736.108	2355.6367
736.536	2395.31004
736.964	2383.28882
737.392	2408.63918
737.82	2410.43669
738.247	2435.40076
738.675	2421.3764
739.102	2378.65942
739.53	2396.75289
739.957	2400.80779
740.384	2386.47195
740.811	2409.66074
741.238	2419.52654
741.665	2425.24649
742.092	2444.41268
742.519	2371.57677
742.945	2410.44296
743.372	2505.65987
743.798	2512.84193
744.225	2490.41688
744.651	2516.69496
745.077	2541.67663
745.503	2490.522
745.929	2495.4508
746.355	2520.61806
746.781	2560.64639
747.207	2552.48099
747.632	2583.67913
748.058	2643.7221
748.483	2704.32181
748.908	2602.6612
749.334	2722.68067
749.759	2667.36016
750.184	2712.53306
750.609	2702.67318
751.033	2761.41547
751.458	2815.15759
751.883	2803.69662
752.307	2815.48382
752.732	2819.87168
753.156	2854.78053
753.58	2940.52021
754.005	2874.81079
754.429	2907.47439
754.853	2860.7238
755.277	2922.40558
755.7	3017.77258
756.124	3027.77586
756.548	3024.55094
756.971	3021.55831
757.394	3007.02055
757.818	3110.96515
758.241	3082.90408
758.664	3108.91859
759.087	3142.2118
759.51	3124.73408
759.933	3203.62377
760.356	3239.92654
760.778	3324.78882
761.201	3321.61848
761.623	3306.5226
762.046	3237.45784
762.468	3278.4061
762.89	3382.64252
763.312	3431.70013
763.734	3412.53292
764.156	3452.69949
764.578	3380.31812
765	3460.64351
765.421	3362.93956
765.843	3410.07301
766.264	3383.54051
766.686	3462.71424
767.107	3411.54653
767.528	3440.90708
767.949	3501.89311
768.37	3452.54443
768.791	3434.56672
769.212	3456.86363
769.632	3427.37742
770.053	3499.15141
770.473	3587.55321
770.894	3428.70331
771.314	3395.36269
771.734	3436.35682
772.154	3380.87539
772.575	3457.22416
772.994	3451.17268
773.414	3429.46531
773.834	3506.77835
774.254	3417.72399
774.673	3431.55645
775.093	3282.72573
775.512	3374.64903
775.931	3333.86331
776.351	3416.7187
776.77	3366.6528
777.189	3390.43266
777.607	3288.92512
778.026	3415.79234
778.445	3286.85038
778.864	3292.92763
779.282	3282.5544
779.701	3240.78644
780.119	3289.02715
780.537	3308.80886
780.955	3193.79839
781.373	3248.68607
781.791	3171.1457
782.209	3131.22546
782.627	3152.22959
783.045	3124.33356
783.462	3119.95797
783.88	3103.01363
784.297	3041.83742
784.715	2962.98355
785.132	2970.63483
785.549	2912.80987
785.966	2912.79274
786.383	2911.66823
786.8	2904.33534
787.217	2882.45802
787.633	2702.73544
788.05	2810.35442
788.466	2706.22723
788.883	2709.82085
789.299	2710.4891
789.715	2684.58369
790.131	2608.70584
790.547	2603.60565
790.963	2663.69423
791.379	2609.75565
791.795	2567.14804
792.21	2526.2523
792.626	2474.30711
793.041	2458.59674
793.457	2413.56796
793.872	2406.25839
794.287	2380.38029
794.702	2300.42597
795.117	2349.57367
795.532	2332.61172
795.947	2336.33428
796.362	2220.26331
796.776	2295.10618
797.191	2244.42341
797.605	2145.26286
798.02	2092.27045
798.434	2093.81837
798.848	2060.35322
799.262	2081.42029
799.676	1959.14046
800.09	1976.32072
800.504	1891.07569
800.918	1916.98861
801.331	1879.36821
801.745	1852.85944
802.158	1825.18357
802.572	1713.89965
802.985	1738.93212
803.398	1729.89579
803.811	1662.04406
804.224	1612.88875
804.637	1634.83806
805.05	1536.57646
805.462	1564.82648
805.875	1488.96263
806.288	1444.68111
806.7	1534.89771
807.112	1420.44375
807.525	1466.72878
807.937	1412.67694
808.349	1393.69492
808.761	1328.55737
809.173	1252.40266
809.584	1280.47879
809.996	1230.42686
810.408	1175.49862
810.819	1201.28859
811.231	1220.62726
811.642	1187.36855
812.053	1151.30716
812.464	1153.26461
812.875	1130.38372
813.286	1048.27497
813.697	1060.03825
814.108	1086.18314
814.519	951.7697
814.929	933.03326
815.34	918.94534
815.75	889.97167
816.16	872.8775
816.571	849.90786
816.981	855.73575
817.391	847.7952
817.801	823.82603
818.211	775.60106
818.62	708.55026
819.03	742.6118
819.44	716.66755
819.849	664.50142
820.259	675.54085
820.668	648.46105
821.077	662.50964
821.486	606.32783
821.895	588.31754
822.304	575.40772
822.713	567.24567
823.122	553.27984
823.531	578.27439
823.939	512.17147
824.348	560.26707
824.756	535.25182
825.164	512.19162
825.573	513.22553
825.981	474.10045
826.389	490.15913
826.797	365.86897
827.205	417.92226
827.612	446.04593
828.02	397.89889
828.428	387.94882
828.835	379.95867
829.243	381.88088
829.65	314.76004
830.057	376.88157
830.464	330.77828
830.871	364.83674
831.278	300.70287
831.685	344.74606
832.092	340.81087
832.499	274.58792
832.905	295.72519
833.312	321.71412
833.718	318.76972
834.124	241.54083
834.531	240.5923
834.937	228.56661
835.343	321.75426
835.749	228.51723
836.155	232.59578
836.561	251.61135
836.966	215.52035
837.372	269.67007
837.777	258.63625
838.183	235.51196
838.588	170.4157
838.993	181.43724
839.399	202.49045
839.804	140.34298
840.209	220.55984
840.613	179.40005
841.018	158.39638
841.423	193.48931
841.828	197.49768
842.232	191.46644
842.637	162.38506
843.041	183.47005
843.445	144.36204
843.849	134.33169
844.253	190.45022
844.657	116.29604
845.061	199.45264
845.465	158.38305
845.869	150.35173
846.272	132.32542
846.676	138.33168
847.079	152.39077
847.483	126.31257
847.886	111.26694
848.289	90.24234
848.692	113.28772
849.095	135.3281
849.498	130.32532
849.901	122.28093
850.304	99.24088
850.707	84.21468
851.109	80.20208
851.512	139.34589
851.914	127.3277
852.316	110.27637
852.718	100.26174
853.121	108.26753
853.523	138.32941
853.925	113.29852
854.326	68.17158
854.728	79.20667
855.13	88.2315
855.531	116.28398
855.933	69.16587
856.334	83.21037
856.736	78.1799
857.137	103.24214
857.538	90.23098
857.939	100.2526
858.34	101.24804
858.741	77.20274
859.142	135.32674
859.542	94.25087
859.943	85.21329
860.343	59.14895
860.744	84.20671
861.144	39.09592
861.544	52.12933
861.945	98.25458
862.345	17.04244
862.745	101.25653
863.145	109.26113
863.544	76.19396
863.944	28.0672
864.344	78.19555
864.743	69.17189
865.143	73.18987
865.542	59.14049
865.941	109.2742
866.34	44.10728
866.74	53.14311
867.139	63.15558
867.537	63.16205
867.936	53.13074
868.335	85.21879
868.734	93.24304
869.132	93.22136
869.531	14.03424
869.929	85.20022
870.327	66.16224
870.726	87.21626
871.124	95.22646
871.522	94.24183
871.92	113.28191
872.318	64.15883
872.715	7.01751
873.113	69.17221
873.511	70.17921
873.908	66.17169
874.306	39.10004
874.703	43.10899
875.1	60.1549
875.497	94.23081
875.894	44.1115
876.291	39.0973
876.688	60.15891
877.085	29.07067
877.482	49.12437
877.878	16.03974
878.275	69.17866
878.671	64.14572
879.068	54.13264
879.464	41.10106
879.86	55.13252
880.256	35.08789
880.652	44.11399
881.048	35.08783
881.444	43.10317
881.84	21.05438
882.236	43.10957
882.631	106.26536
883.027	29.07111
883.422	9.02346
883.817	101.26106
884.213	57.14912
884.608	53.13357
885.003	51.12664
885.398	38.09831
885.793	43.10957
886.188	35.09009
886.582	27.06948
886.977	43.10447
887.371	-6.01534
887.766	55.14014
888.16	54.1366
888.554	41.1021
888.949	29.07376
889.343	22.05456
889.737	73.19903
890.131	15.03814
890.525	54.1398
890.918	-16.04101
891.312	-5.01212
891.706	-37.09808
892.099	10.02567
892.492	61.13577
892.886	-4.01001
893.279	40.10423
893.672	-28.07214
894.065	65.16422
894.458	73.18758
894.851	40.09959
895.244	13.03381
895.637	47.11607
896.029	69.17071
896.422	16.03987
896.814	13.03297
897.206	11.02695
897.599	43.10704
897.991	24.05906
898.383	64.15616
898.775	65.14965
899.167	63.15151
899.559	51.13041
899.951	64.15318
900.342	-11.02838
900.734	53.136
901.125	57.15104
901.517	25.06316
901.908	60.1453
902.299	78.19674
902.69	77.18567
903.082	57.14014
903.473	42.10393
903.863	25.065
904.254	49.11766
904.645	102.25525
905.036	31.07734
905.426	72.16632
905.817	24.06054
906.207	52.12773
906.597	9.02149
906.987	43.1131
907.378	1.00257
907.768	33.08867
908.158	44.10931
908.547	43.11337
908.937	10.02592
909.327	68.16876
909.717	74.18799
910.106	23.05646
910.495	64.16195
910.885	83.21327
911.274	68.17201
911.663	12.03074
912.052	36.0896
912.441	-4.01034
912.83	59.13935
913.219	42.11083
913.608	48.11912
913.997	7.0181
914.385	62.14953
914.774	78.19195
915.162	37.091
915.55	16.03952
915.939	-14.03632
916.327	-7.01767
916.715	4.01042
917.103	70.17302
917.491	37.09221
917.878	-4.00994
918.266	-15.03931
918.654	63.16419
919.041	23.06146
919.429	9.02195
919.816	-11.02838
920.203	23.05732
920.591	20.05038
920.978	-32.0795
921.365	33.08794
921.752	59.14404
922.139	65.14599
922.525	89.21922
922.912	-10.02494
923.299	23.05863
923.685	18.04798
924.072	2.00468
924.458	21.05315
924.844	29.07358
925.231	52.12403
925.617	64.1658
926.003	51.13169
926.389	36.09259
926.774	59.15145
927.16	28.07095
927.546	34.08923
927.931	36.09149
928.317	18.04224
928.702	28.06714
929.088	61.1482
929.473	30.07745
929.858	-8.02011
930.243	5.01239
930.628	78.19491
931.013	33.0837
931.398	17.03986
931.783	27.07155
932.167	78.19534
932.552	18.04553
932.937	54.13543
933.321	39.10004
933.705	23.05939
934.09	16.04072
934.474	30.07257
934.858	12.03171
935.242	25.05985
935.626	24.06307
936.009	-21.05635
936.393	-3.00779
936.777	-5.01312
937.16	19.04998
937.544	8.01921
937.927	37.0963
938.311	49.12083
938.694	52.13791
939.077	5.01231
939.46	-21.05161
939.843	113.24284
940.226	11.02881
940.609	64.15301
940.991	4.01043
941.374	46.11487
941.757	22.05496
942.139	51.11957
942.522	15.03598
942.904	42.10305
943.286	14.03596
943.668	24.06337
944.05	48.12055
944.432	47.11938
944.814	7.01744
945.196	66.16564
945.578	41.10192
945.959	51.12232
946.341	3.00736
946.722	36.08613
947.104	57.13905
947.485	34.08113
947.866	102.26305
948.247	-2.00512
948.628	23.05667
949.009	79.20547
949.39	3.00761
949.771	47.11191
950.152	89.22236
950.532	16.04085
950.913	69.16876
951.293	25.06877
951.674	92.22981
952.054	65.16556
952.434	22.05555
952.814	71.17165
953.194	23.06064
953.574	9.02239
953.954	13.03175
954.334	21.0536
954.714	17.04272
955.093	-3.0075
955.473	32.08118
955.853	13.03411
956.232	25.0686
956.611	11.02696
956.99	65.16685
957.37	44.11415
957.749	5.01233
958.128	32.0829
958.506	43.11463
958.885	38.09807
959.264	87.21964
959.643	15.03496
960.021	43.10918
960.4	47.10989
960.778	65.16187
961.156	71.18142
961.535	49.11618
961.913	57.13614
962.291	47.1245
962.669	11.02828
963.047	11.02847
963.424	30.07764
963.802	26.0657
964.18	73.18568
964.557	75.1757
964.935	56.13511
965.312	10.02642
965.69	39.09829
966.067	48.11947
966.444	13.03248
966.821	52.13495
967.198	59.14457
967.575	-15.0373
967.952	42.10068
968.329	32.07968
968.705	37.08102
969.082	37.09706
969.458	26.06492
969.835	15.03725
970.211	79.20632
970.587	30.07586
970.963	33.08556
971.339	11.0293
971.715	22.05591
972.091	20.05034
972.467	50.12661
972.843	16.04065
973.219	26.06282
973.594	35.09404
973.97	59.14189
974.345	51.12497
974.721	-9.02206
975.096	25.06178
975.471	47.11376
975.846	-7.01724
976.221	73.1896
976.596	70.17162
976.971	-1.00252
977.346	44.10374
977.72	45.11672
978.095	11.02907
978.469	19.04619
978.844	7.01777
979.218	16.03924
979.593	10.02446
979.967	57.14081
980.341	27.06355
980.715	34.0875
981.089	-4.01014
981.463	85.20193
981.837	50.12513
982.21	6.01427
982.584	29.07177
982.957	62.15806
983.331	62.14936
983.704	-31.07717
984.078	29.07332
984.451	10.02508
984.824	34.08496
985.197	1.00248
985.57	32.08158
985.943	47.11649
986.316	36.0897
986.688	19.04659
987.061	44.10632
987.434	8.02124
987.806	38.09413
988.179	42.1021
988.551	61.15702
988.923	0
989.295	2.00501
989.667	18.04464
990.039	25.06366
990.411	34.0802
990.783	12.02833
991.155	64.15958
991.527	23.05707
991.898	35.08931
992.27	1.00253
992.641	10.02546
993.012	22.05298
993.384	-28.0685
993.755	8.02097
994.126	4.00984
994.497	24.06045
994.868	55.12975
995.239	11.02715
995.61	27.06967
995.98	54.13484
996.351	-10.02545
996.722	42.10137
997.092	38.09255
997.462	38.09185
997.833	51.12246
998.203	16.03937
998.573	-3.00763
998.943	47.11341
999.313	31.0765
999.683	46.11408
1000.053	58.13691
1000.423	0
1000.792	39.10324
1001.162	9.02255
1001.531	22.05547
1001.901	63.16121
1002.27	44.10087
1002.639	42.10952
1003.009	17.04116
1003.378	-28.07286
1003.747	79.19128
1004.116	6.01481
1004.485	25.06062
1004.853	43.11042
1005.222	21.05349
1005.591	27.06535
1005.959	36.08465
1006.328	39.0904
1006.696	12.03002
1007.064	27.06885
1007.433	30.076
1007.801	24.05941
1008.169	22.05595
1008.537	13.0298
1008.905	50.11995
1009.273	-16.04013
1009.64	48.11843
1010.008	71.17269
1010.375	0
1010.743	40.09365
1011.11	28.06832
1011.478	25.06278
1011.845	-25.06055
1012.212	73.16981
1012.579	3.00749
1012.946	18.04371
1013.313	80.19089
1013.68	41.09398
1014.047	59.14441
1014.414	19.04635
1014.78	1.00253
1015.147	7.0171
1015.513	88.21479
1015.88	12.03086
1016.246	25.06171
1016.612	-9.021
1016.978	52.12943
1017.344	38.09623
1017.71	10.02452
1018.076	35.08379
1018.442	13.0337
1018.808	45.11446
1019.174	-3.00775
1019.539	108.24481
1019.905	1.00243
1020.27	16.04065
1020.636	49.11931
1021.001	33.08023
1021.366	18.04443
1021.731	-13.03374
1022.096	37.09531
1022.461	52.12522
1022.826	33.0799
1023.191	6.01597
1023.556	15.03632
1023.92	-15.03753
1024.285	53.13127
1024.649	50.12467
1025.014	24.06067
1025.378	46.11764
1025.742	48.12155
1026.107	-1.00232
1026.471	28.06576
1026.835	48.12177
1027.199	60.15021
1027.562	36.08554
1027.926	31.07692
1028.29	67.17288
1028.654	57.13384
1029.017	19.04716
1029.381	6.01475
1029.744	9.02323
1030.107	51.12218
1030.471	5.01214
1030.834	41.09488
1031.197	13.03158
1031.56	27.06481
1031.923	7.01841
1032.286	19.04548
1032.648	55.13472
1033.011	-11.02592
1033.374	17.04043
1033.736	7.01881
1034.099	95.2352
1034.461	6.0154
1034.823	24.06069
1035.185	46.11735
1035.548	33.08239
1035.91	41.10013
1036.272	-16.03723
1036.634	48.11777
1036.995	67.16137
1037.357	-1.0025
1037.719	-4.00985
1038.08	27.06508
1038.442	11.02667
1038.803	41.09976
1039.165	50.12922
1039.526	12.02963
1039.887	77.18714
1040.248	34.08521
1040.609	4.00996
1040.97	36.09012
1041.331	23.05918
1041.692	79.19114
1042.053	47.10967
1042.413	30.07153
1042.774	38.09362
1043.134	88.21207
1043.495	17.04321
1043.855	5.01241
1044.215	47.11904
1044.576	43.10646
1044.936	36.08422
1045.296	39.09864
1045.656	-6.01496
1046.016	1.00245
1046.375	36.08823
1046.735	38.08883
1047.095	55.13081
1047.454	35.07606
1047.814	18.04423
1048.173	3.00715
1048.533	22.05159
1048.892	30.07448
1049.251	48.12211
1049.61	60.14945
1049.969	44.10736
1050.328	3.00672
1050.687	14.03472
1051.046	3.00739
1051.405	21.05374
1051.763	18.04274
1052.122	28.07116
1052.48	-34.08472
1052.839	14.03379
1053.197	52.12531
1053.555	-36.08233
1053.914	-12.02972
1054.272	4.00975
1054.63	37.09301
1054.988	15.0367
1055.345	11.02452
1055.703	31.07571
1056.061	15.03913
1056.419	22.0578
1056.776	14.0342
1057.134	39.09251
1057.491	35.08852
1057.848	17.04263
1058.206	17.04105
1058.563	41.09247
1058.92	40.09273
1059.277	10.02505
1059.634	50.11908
1059.991	38.09272
1060.348	35.08174
1060.704	-3.00739
1061.061	39.09161
1061.418	27.06648
1061.774	47.11794
1062.131	12.03245
1062.487	6.01444
1062.843	15.03782
1063.199	16.04088
1063.555	64.15242
1063.911	14.0356
1064.267	50.10608
1064.623	35.08684
1064.979	42.10068
1065.335	-6.01457
1065.691	-9.02202
1066.046	-8.01771
1066.402	46.10829
1066.757	50.12684
1067.112	5.01242
1067.468	50.12381
1067.823	63.15432
1068.178	-8.01968
1068.533	29.07175
1068.888	31.07503
1069.243	39.09758
1069.598	12.02987
1069.952	-11.02592
1070.307	43.10972
1070.662	-28.06829
1071.016	-21.04893
1071.371	-24.05628
1071.725	14.03408
1072.079	17.04143
1072.434	35.08713
1072.788	46.11199
1073.142	95.23589
1073.496	43.10368
1073.85	36.08425
1074.203	63.15735
1074.557	50.13437
1074.911	13.03129
1075.265	5.01191
1075.618	45.11027
1075.971	43.10392
1076.325	16.04152
1076.678	44.10427
1077.031	14.03283
1077.385	14.0321
1077.738	42.09752
1078.091	25.05886
1078.444	28.06643
1078.796	-27.06765
1079.149	16.0403
1079.502	62.15161
1079.855	34.08166
1080.207	-1.00252
1080.56	-10.02634
1080.912	30.0738
1081.264	9.02218
1081.617	83.20684
1081.969	53.13681
1082.321	7.01736
1082.673	25.05932
1083.025	60.14519
1083.377	-177.41009
1083.728	49.11524
1084.08	-34.08695
1084.432	52.12787
1084.783	48.11388
1085.135	21.05368
1085.486	27.06444
1085.838	51.12779
1086.189	-6.01484
1086.54	23.05577
1086.891	49.12639
1087.242	3.0074
1087.593	36.08872
1087.944	-6.01387
1088.295	68.15683
1088.646	45.1117
1088.996	-7.01728
1089.347	23.05753
1089.698	32.07767
1090.048	-25.06538
1090.398	7.01651
1090.749	-8.01969
1091.099	44.11473
1091.449	28.07083
1091.799	32.08161
1092.149	50.1267
1092.499	20.04962
1092.849	40.10377
1093.199	-8.02027
1093.548	35.0863
1093.898	27.06882
1094.248	3.00781
1094.597	22.05815
1094.947	4.0108
1095.296	32.07994
1095.645	18.0474
1095.994	-1.00244
1096.343	24.06127
1096.692	67.18226
1097.041	-47.12925
1097.39	39.10039
1097.739	-7.01852
1098.088	52.14039
1098.437	9.02417
1098.785	-3.00812
1099.134	15.04015
1099.482	18.05012
1099.83	7.01851
1100.179	28.07495
1100.527	12.03217
1100.875	31.08297
1101.223	14.03759
1101.571	-15.04216
1101.919	16.04311
1102.267	3.00853
1102.615	12.03868
1102.962	-3.00967
1103.31	-5.01613
1103.658	9.02904
