Data from N2 R0 150C sample4_Subt2__3__13-04-27-664.txt Node

Date: Tue Aug 19 13:04:27 PDT 2025
User: uwsun
Spectrometer: HDX01956
Trigger mode: 0
Integration Time (sec): 5.000000E-1
Scans to average: 1
Nonlinearity correction enabled: true
Boxcar width: 0
Storing dark spectrum: false
XAxis mode: Wavelengths
Number of Pixels in Spectrum: 2068
>>>>>Begin Spectral Data<<<<<
194.03	249.7051
194.578	242.76777
195.127	258.80586
195.676	250.7846
196.225	296.78567
196.773	313.86113
197.321	466.25706
197.87	583.451
198.418	569.40279
198.966	631.57678
199.513	601.43381
200.061	588.44037
200.609	628.57408
201.156	577.2182
201.704	579.41438
202.251	620.57792
202.798	572.43312
203.345	602.42496
203.892	558.35621
204.438	611.39856
204.985	636.45904
205.532	609.53272
206.078	632.48105
206.624	604.4297
207.17	629.39651
207.716	629.46166
208.262	653.21971
208.808	640.5243
209.354	621.45157
209.899	619.47622
210.445	640.52779
210.99	618.43919
211.535	657.47744
212.08	647.45078
212.625	669.59005
213.17	629.51494
213.715	679.4714
214.259	651.44301
214.804	649.50817
215.348	583.27818
215.892	642.45929
216.436	644.41889
216.98	673.42303
217.524	631.42182
218.068	683.63886
218.612	613.47193
219.155	558.26868
219.698	628.42686
220.242	616.46037
220.785	588.31268
221.328	522.25204
221.871	540.30556
222.414	565.34888
222.956	585.37108
223.499	578.25256
224.041	569.27466
224.583	533.09957
225.126	517.10898
225.668	528.23663
226.21	497.21297
226.751	546.16903
227.293	596.31741
227.835	571.34761
228.376	558.23537
228.918	600.44369
229.459	584.39508
230	569.29555
230.541	657.45572
231.082	469.09546
231.622	520.15734
232.163	597.38342
232.704	558.32122
233.244	535.27815
233.784	602.3997
234.324	567.22582
234.864	585.27341
235.404	547.24991
235.944	595.34062
236.484	597.40087
237.023	584.33161
237.563	605.33316
238.102	525.18609
238.641	574.38941
239.18	609.36941
239.719	612.45645
240.258	592.27694
240.797	584.34659
241.335	599.39791
241.874	627.17452
242.412	614.41864
242.95	575.32345
243.488	643.40042
244.026	584.28602
244.564	627.23242
245.102	579.24967
245.64	589.3433
246.177	575.24738
246.715	626.42863
247.252	568.25597
247.789	656.17425
248.326	645.48177
248.863	665.39444
249.4	623.34992
249.936	626.22322
250.473	579.30506
251.009	604.33956
251.546	595.25955
252.082	598.25736
252.618	607.28835
253.154	615.42011
253.69	579.24486
254.226	628.41995
254.761	655.41632
255.297	577.20861
255.832	615.37557
256.367	664.48436
256.903	551.15763
257.438	615.37105
257.972	644.37322
258.507	682.48764
259.042	650.35485
259.576	602.26411
260.111	649.41768
260.645	611.24947
261.179	631.39574
261.713	612.31619
262.247	663.45378
262.781	642.29012
263.315	662.53871
263.849	626.49378
264.382	658.4213
264.915	638.43849
265.449	718.67024
265.982	671.45158
266.515	680.54511
267.048	653.33609
267.58	626.3088
268.113	625.29661
268.646	667.55734
269.178	613.3158
269.71	685.41746
270.243	671.43921
270.775	646.54153
271.307	612.39721
271.838	635.40751
272.37	602.40959
272.902	631.36379
273.433	639.31212
273.965	623.44031
274.496	589.38047
275.027	661.54272
275.558	658.50654
276.089	673.57258
276.62	647.54951
277.15	634.45851
277.681	677.39714
278.211	655.47354
278.741	680.42248
279.272	645.39468
279.802	703.62731
280.332	705.55568
280.861	698.57323
281.391	654.40361
281.921	655.48916
282.45	720.67555
282.98	712.72621
283.509	650.37644
284.038	722.53707
284.567	663.44036
285.096	743.67029
285.625	701.50491
286.153	641.41316
286.682	743.58079
287.21	784.74055
287.739	706.57184
288.267	747.67586
288.795	713.71151
289.323	767.68131
289.851	752.64529
290.378	705.48882
290.906	743.6771
291.433	745.70413
291.961	754.58232
292.488	760.73393
293.015	751.65312
293.542	736.73762
294.069	728.6489
294.596	745.69117
295.122	781.71345
295.649	750.52548
296.175	803.80227
296.702	789.7455
297.228	825.81305
297.754	847.76165
298.28	754.59344
298.806	731.62988
299.332	807.65235
299.857	790.63827
300.383	791.82456
300.908	734.65913
301.433	810.78193
301.958	798.6718
302.483	781.7915
303.008	800.8047
303.533	831.94183
304.058	821.76652
304.582	818.77172
305.107	812.94286
305.631	816.68246
306.155	851.80447
306.679	866.81038
307.203	878.84276
307.727	852.82502
308.251	877.94586
308.775	870.8772
309.298	894.95282
309.822	849.94049
310.345	912.95359
310.868	899.92202
311.391	894.96349
311.914	888.00056
312.437	951.92382
312.96	903.90149
313.482	919.93604
314.005	932.08272
314.527	953.2205
315.049	935.07018
315.571	965.93261
316.093	993.16505
316.615	969.07357
317.137	1037.96151
317.659	1060.24468
318.18	967.03021
318.702	1073.12887
319.223	1078.94768
319.744	1034.02615
320.265	1084.26771
320.786	1035.24247
321.307	1051.26657
321.828	1126.18925
322.348	1142.30219
322.869	1171.3731
323.389	1056.32642
323.909	1130.19704
324.43	1177.3572
324.95	1168.26037
325.47	1120.33179
325.989	1183.34536
326.509	1180.20142
327.029	1206.2567
327.548	1214.27616
328.067	1243.51579
328.587	1230.53735
329.106	1206.24234
329.625	1243.68417
330.144	1295.46581
330.662	1215.30866
331.181	1319.50198
331.7	1356.57297
332.218	1395.42141
332.736	1368.57579
333.255	1388.573
333.773	1408.62947
334.291	1432.79735
334.808	1404.51569
335.326	1482.61431
335.844	1489.71544
336.361	1513.98969
336.879	1535.80246
337.396	1530.83577
337.913	1569.73231
338.43	1633.74407
338.947	1561.8033
339.464	1594.56959
339.981	1572.83672
340.497	1627.97854
341.014	1664.03114
341.53	1672.72656
342.046	1682.02752
342.562	1746.18288
343.078	1754.98936
343.594	1701.96673
344.11	1743.96811
344.626	1819.28134
345.141	1789.86555
345.657	1803.84148
346.172	1810.09607
346.687	1832.97701
347.202	1865.90219
347.717	1938.17816
348.232	1955.35077
348.747	1960.06099
349.261	1892.85824
349.776	1998.1514
350.29	2063.42895
350.805	2115.49008
351.319	2023.16
351.833	2025.99553
352.347	2002.12403
352.861	2108.15074
353.374	2095.06739
353.888	2040.26577
354.401	2158.14747
354.915	2115.0454
355.428	2176.45407
355.941	2229.25442
356.454	2179.02958
356.967	2218.23508
357.48	2216.12384
357.993	2248.44941
358.505	2230.38789
359.018	2316.44833
359.53	2445.48916
360.042	2363.04926
360.554	2361.3966
361.066	2420.50176
361.578	2402.96201
362.09	2418.32932
362.602	2375.02079
363.113	2467.31114
363.625	2496.15059
364.136	2484.03191
364.647	2584.39837
365.158	2634.27547
365.669	2586.40331
366.18	2576.31955
366.691	2576.05492
367.201	2615.43313
367.712	2659.229
368.222	2655.22387
368.733	2740.09789
369.243	2790.11034
369.753	2899.36372
370.263	2895.48545
370.773	2831.51662
371.282	2932.39159
371.792	3088.3709
372.301	3100.50317
372.811	3097.84864
373.32	3140.83752
373.829	3252.3399
374.338	3402.9194
374.847	3416.15503
375.356	3545.24122
375.865	3740.51974
376.373	3917.80926
376.882	3875.41667
377.39	3946.0971
377.898	4162.14578
378.407	4295.45306
378.915	4464.09693
379.423	4612.52784
379.93	4810.08983
380.438	4939.50753
380.946	5311.06717
381.453	5444.04301
381.96	5693.80929
382.468	6173.61265
382.975	6435.55409
383.482	6575.1002
383.989	6683.75324
384.495	6862.22206
385.002	7292.0653
385.509	7700.65496
386.015	8189.85044
386.521	8575.5562
387.028	8945.25618
387.534	9253.02017
388.04	9431.40372
388.546	9744.42207
389.051	10259.3925
389.557	11121.08813
390.063	11934.70134
390.568	12317.93909
391.073	12721.46026
391.578	13266.87465
392.084	13545.71601
392.589	13946.38133
393.093	15006.59002
393.598	16351.00914
394.103	17793.28728
394.607	19759.98227
395.112	21067.41016
395.616	22328.94722
396.12	24093.10555
396.624	26957.36858
397.128	28971.55715
397.632	32444.1734
398.136	34833.225
398.639	37062.06182
399.143	41068.53614
399.646	45987.13513
400.15	51038.74005
400.653	56097.29009
401.156	58979.13695
401.659	59169.42152
402.162	58431.12733
402.664	54480.21957
403.167	49329.08451
403.67	22278.45323
404.172	2696.20453
404.674	0
405.176	0
405.678	0
406.18	0
406.682	0
407.184	0
407.686	25783.58453
408.187	43316.52985
408.688	51225.60928
409.19	54389.01922
409.691	56215.4214
410.192	57270.57019
410.693	57845.40442
411.194	58219.2365
411.694	58633.01717
412.195	59215.68848
412.696	59364.60701
413.196	59341.61941
413.696	59632.46864
414.196	59367.6054
414.696	59763.40624
415.196	59913.34014
415.696	60584.13941
416.196	57283.04235
416.695	44341.62687
417.195	38241.97024
417.694	35870.32988
418.194	34348.99523
418.693	31811.13466
419.192	30909.01907
419.691	30789.69387
420.19	30044.17426
420.688	29345.74956
421.187	27996.37174
421.685	25950.64998
422.184	23702.1046
422.682	20559.36621
423.18	17532.50725
423.678	15606.06267
424.176	14497.9939
424.674	13588.01225
425.172	12921.43437
425.669	12137.38208
426.167	11450.65965
426.664	10442.8783
427.161	9503.65779
427.659	8833.04809
428.156	8327.08855
428.652	7900.98883
429.149	7426.53817
429.646	7210.1306
430.143	6758.36471
430.639	6392.38617
431.135	6003.89734
431.632	5741.51195
432.128	5456.97949
432.624	5113.64289
433.12	4941.93985
433.616	4795.83786
434.111	4537.47429
434.607	4419.66281
435.103	4319.94272
435.598	4224.0037
436.093	4107.75447
436.588	3804.54201
437.083	3585.7414
437.578	3498.97488
438.073	3411.53309
438.568	3241.36454
439.062	3183.7315
439.557	3052.21739
440.051	2915.00921
440.546	2817.07249
441.04	2829.38913
441.534	2822.69791
442.028	2740.31361
442.522	2619.32986
443.015	2533.89891
443.509	2602.44078
444.002	2475.41154
444.496	2523.95619
444.989	2493.3623
445.482	2417.46059
445.975	2462.14551
446.468	2376.82427
446.961	2398.8779
447.454	2273.96631
447.947	2301.25597
448.439	2209.17821
448.931	2194.01196
449.424	2106.32068
449.916	2219.30167
450.408	2148.9625
450.9	2144.27738
451.392	2101.36579
451.884	2050.95664
452.375	2050.34768
452.867	1991.86023
453.358	1996.93162
453.849	1961.66017
454.341	1969.87649
454.832	1863.65986
455.323	1878.10052
455.814	1852.87757
456.304	1842.85527
456.795	1818.83864
457.285	1699.59533
457.776	1759.72893
458.266	1641.79762
458.756	1673.82388
459.247	1698.88248
459.737	1682.89157
460.226	1591.60696
460.716	1604.82197
461.206	1602.81407
461.695	1517.804
462.185	1510.61187
462.674	1545.65527
463.163	1510.43985
463.653	1515.37646
464.142	1509.73283
464.63	1468.73653
465.119	1386.45426
465.608	1489.60305
466.096	1429.35379
466.585	1369.43712
467.073	1313.44613
467.561	1342.50217
468.05	1340.42377
468.538	1340.56704
469.026	1274.42048
469.513	1374.43542
470.001	1195.17752
470.489	1286.4351
470.976	1206.2556
471.463	1187.3925
471.951	1122.29478
472.438	1106.14419
472.925	1067.07576
473.412	1062.15531
473.899	1095.06098
474.385	1049.14575
474.872	1064.11342
475.359	1041.15519
475.845	1075.87088
476.331	952.72563
476.817	945.96736
477.303	918.84558
477.789	951.96848
478.275	856.858
478.761	884.87082
479.247	906.78887
479.732	913.9872
480.218	870.98411
480.703	846.85727
481.188	802.53445
481.673	824.67845
482.158	851.63189
482.643	747.68613
483.128	742.53795
483.612	776.62352
484.097	705.54596
484.581	741.54305
485.066	801.74777
485.55	720.45309
486.034	661.30547
486.518	753.61595
487.002	734.65711
487.486	650.46318
487.969	691.55966
488.453	621.43341
488.936	662.39577
489.42	602.23632
489.903	629.45246
490.386	607.94579
490.869	567.16092
491.352	551.26057
491.835	550.08361
492.318	657.41157
492.8	545.0876
493.283	570.37248
493.765	552.28686
494.247	613.33105
494.73	549.15545
495.212	537.22358
495.694	530.17914
496.175	543.23876
496.657	520.17072
497.139	521.89074
497.62	481.1033
498.102	525.23797
498.583	447.0721
499.064	508.11048
499.545	478.05756
500.026	465.01697
500.507	493.10417
500.988	466.11966
501.469	463.124
501.949	455.0876
502.43	465.0776
502.91	456.93954
503.39	422.013
503.87	495.1341
504.35	424.96917
504.83	405.8845
505.31	434.01575
505.79	417.98625
506.269	490.11207
506.749	416.93519
507.228	420.97507
507.707	488.05005
508.187	354.82578
508.666	443.0629
509.145	385.89966
509.623	373.86068
510.102	374.89534
510.581	360.84835
511.059	419.02535
511.538	390.97893
512.016	427.0085
512.494	411.97957
512.972	356.83925
513.45	412.95235
513.928	425.02079
514.406	388.93804
514.884	411.03206
515.361	389.92609
515.839	410.93001
516.316	385.91974
516.793	375.93198
517.27	369.8731
517.747	334.85044
518.224	418.96122
518.701	393.88622
519.178	351.85676
519.654	364.85544
520.131	323.79196
520.607	368.89607
521.083	368.84086
521.56	391.92478
522.036	409.89626
522.512	318.76943
522.987	339.80957
523.463	392.93019
523.939	354.85974
524.414	360.82689
524.89	339.80306
525.365	339.7782
525.84	380.91144
526.315	349.84331
526.79	371.83867
527.265	406.93252
527.74	351.84878
528.215	370.87495
528.689	367.81982
529.164	333.72821
529.638	377.95768
530.112	322.77001
530.587	371.80375
531.061	301.73338
531.534	302.72688
532.008	341.82367
532.482	300.68524
532.956	279.71182
533.429	360.86545
533.903	335.74217
534.376	326.72629
534.849	321.75162
535.322	326.77302
535.795	314.7669
536.268	309.7402
536.741	322.77148
537.213	358.82591
537.686	343.83849
538.158	283.64446
538.631	322.7753
539.103	334.7635
539.575	314.66008
540.047	332.73568
540.519	360.85921
540.991	326.79294
541.463	306.74458
541.934	305.70829
542.406	333.79919
542.877	359.82311
543.348	369.88557
543.82	279.68232
544.291	305.71388
544.762	323.76635
545.233	360.8952
545.703	350.78298
546.174	357.83163
546.645	374.89637
547.115	423.00982
547.585	414.94023
548.056	400.96959
548.526	467.08822
548.996	397.93824
549.466	438.03632
549.935	466.08184
550.405	452.98066
550.875	441.02229
551.344	479.12367
551.814	462.04799
552.283	463.97733
552.752	514.16804
553.221	585.25454
553.69	493.06242
554.159	582.37599
554.628	551.1993
555.096	609.47668
555.565	571.23764
556.033	559.2589
556.502	533.24275
556.97	525.13101
557.438	523.19404
557.906	548.24591
558.374	543.20436
558.842	504.16145
559.31	514.12267
559.777	481.12793
560.245	575.29867
560.712	622.37952
561.18	603.30376
561.647	535.16393
562.114	603.31875
562.581	620.43988
563.048	637.39437
563.514	604.40932
563.981	686.46794
564.448	715.506
564.914	718.56293
565.381	744.56954
565.847	794.71387
566.313	803.72111
566.779	765.57261
567.245	828.77435
567.711	887.92571
568.176	847.74214
568.642	921.06949
569.108	918.02704
569.573	980.067
570.038	1049.95533
570.504	1030.00315
570.969	1065.34358
571.434	1152.20397
571.899	1177.39391
572.363	1186.28441
572.828	1259.37865
573.293	1279.43176
573.757	1302.43689
574.222	1386.54018
574.686	1356.52959
575.15	1357.63382
575.614	1315.47753
576.078	1410.68988
576.542	1455.62801
577.006	1461.60831
577.469	1463.86804
577.933	1490.68404
578.396	1418.6741
578.86	1419.68441
579.323	1498.85956
579.786	1440.46921
580.249	1496.73438
580.712	1393.74586
581.175	1408.79929
581.637	1302.42141
582.1	1447.53319
582.563	1402.38842
583.025	1408.75553
583.487	1366.24502
583.95	1370.43079
584.412	1406.37359
584.874	1314.59289
585.336	1349.59975
585.797	1365.38273
586.259	1317.54397
586.721	1292.49853
587.182	1362.54704
587.643	1362.49977
588.105	1379.65517
588.566	1331.24565
589.027	1333.64814
589.488	1346.49858
589.949	1324.62236
590.41	1422.19421
590.87	1363.47362
591.331	1368.34259
591.791	1454.70107
592.252	1469.6815
592.712	1492.79502
593.172	1513.68645
593.632	1576.66112
594.092	1532.6557
594.552	1724.72869
595.011	1672.88484
595.471	1682.7536
595.931	1857.92102
596.39	1967.3345
596.849	1939.17202
597.308	2068.98315
597.768	2166.75776
598.227	2189.4025
598.685	2235.2107
599.144	2388.44172
599.603	2579.61994
600.062	2571.1057
600.52	2745.35324
600.978	2813.60378
601.437	3015.40516
601.895	3128.05489
602.353	3278.24584
602.811	3530.33449
603.269	3620.71304
603.727	3724.715
604.184	4041.24657
604.642	4249.63109
605.099	4400.13665
605.557	4668.37524
606.014	4788.61693
606.471	4899.48552
606.928	5257.37615
607.385	5464.08642
607.842	5732.28169
608.299	5986.40967
608.755	6180.52473
609.212	6302.92203
609.668	6641.93123
610.125	6703.34332
610.581	6928.15303
611.037	7161.97819
611.493	7314.17023
611.949	7404.49797
612.405	7499.57726
612.861	7751.29427
613.316	7935.50216
613.772	8073.45605
614.227	8096.58939
614.683	8190.29328
615.138	8343.73237
615.593	8339.70996
616.048	8434.72036
616.503	8432.96253
616.958	8527.19291
617.412	8463.87963
617.867	8348.565
618.321	8452.5349
618.776	8313.53413
619.23	8179.56859
619.684	8196.4618
620.138	8080.43392
620.592	8045.64326
621.046	7867.32354
621.5	7721.51828
621.954	7626.05405
622.407	7500.95059
622.861	7279.33221
623.314	7251.96021
623.768	7010.10233
624.221	6892.34129
624.674	6651.04007
625.127	6704.1006
625.58	6443.99226
626.033	6380.77643
626.485	6236.41961
626.938	6138.37818
627.39	6019.33318
627.843	5948.29342
628.295	5741.31273
628.747	5698.58065
629.199	5564.35408
629.651	5381.48139
630.103	5391.54846
630.555	5227.05533
631.006	5085.79631
631.458	5107.87655
631.909	5022.6008
632.361	4812.92626
632.812	4829.9014
633.263	4710.4292
633.714	4662.38415
634.165	4568.409
634.616	4455.29381
635.067	4403.70614
635.518	4293.3069
635.968	4319.19656
636.419	4261.72862
636.869	4095.3405
637.319	4008.23446
637.769	4037.07494
638.219	3973.32129
638.669	3958.46685
639.119	3905.68536
639.569	3906.5241
640.019	3891.21892
640.468	3942.01106
640.918	3859.46847
641.367	3868.08111
641.816	3939.09152
642.265	3859.25682
642.714	3850.2517
643.163	4027.27579
643.612	3966.68763
644.061	3965.86017
644.51	3956.3252
644.958	3939.95284
645.406	3975.50133
645.855	3959.67236
646.303	3981.2775
646.751	3963.24735
647.199	4062.08968
647.647	4093.1685
648.095	4118.23624
648.543	4176.43235
648.99	4066.35585
649.438	4125.28902
649.885	4063.69318
650.333	4099.22245
650.78	4177.56807
651.227	4113.67038
651.674	4154.03867
652.121	4130.49786
652.568	4261.51875
653.015	4153.72393
653.461	4153.36845
653.908	4104.26595
654.354	4035.36883
654.801	4094.32325
655.247	4100.8968
655.693	4018.1439
656.139	4086.48056
656.585	3902.46746
657.031	3904.40885
657.477	3947.89892
657.922	3900.30393
658.368	3974.68177
658.813	3887.2148
659.259	3879.57438
659.704	3845.31035
660.149	3858.42855
660.594	3774.52569
661.039	3774.23446
661.484	3834.4399
661.929	3773.37828
662.373	3737.04783
662.818	3707.88619
663.262	3717.61986
663.707	3642.97258
664.151	3693.71474
664.595	3644.58616
665.039	3766.82753
665.483	3696.02494
665.927	3652.43578
666.371	3618.43149
666.814	3743.51831
667.258	3647.667
667.701	3670.8879
668.145	3670.82612
668.588	3596.71573
669.031	3569.60467
669.474	3655.61701
669.917	3544.0778
670.36	3703.86698
670.803	3642.53905
671.245	3628.83652
671.688	3616.63253
672.13	3652.21195
672.573	3537.88447
673.015	3694.62914
673.457	3676.99359
673.899	3640.57599
674.341	3664.62874
674.783	3707.55462
675.225	3692.68083
675.666	3782.69842
676.108	3730.91124
676.549	3774.41758
676.991	3851.08508
677.432	3930.54076
677.873	3855.22715
678.314	3912.48701
678.755	3926.59873
679.196	3920.20742
679.637	4006.51581
680.078	3941.23903
680.518	4046.19214
680.959	4030.51521
681.399	4142.69192
681.839	4177.46252
682.28	4199.59193
682.72	4252.0794
683.16	4181.56332
683.6	4281.90042
684.039	4309.3869
684.479	4284.52962
684.919	4519.06881
685.358	4554.58888
685.798	4530.8907
686.237	4576.22801
686.676	4605.80848
687.115	4621.95592
687.554	4670.99897
687.993	4736.48433
688.432	4803.71598
688.871	4960.64806
689.309	4932.90779
689.748	5040.88471
690.186	5182.70145
690.625	5253.55808
691.063	5417.71798
691.501	5332.85541
691.939	5451.90533
692.377	5626.65477
692.815	5662.55334
693.253	5732.52082
693.69	5828.93554
694.128	5974.53513
694.565	6068.27467
695.003	6153.72139
695.44	6382.12695
695.877	6358.16769
696.314	6433.50771
696.751	6609.78454
697.188	6751.90225
697.625	6932.81695
698.061	7001.16581
698.498	7178.12779
698.934	7359.21389
699.371	7399.12153
699.807	7510.11262
700.243	7616.28875
700.679	7678.01236
701.115	7815.19244
701.551	8063.40358
701.987	8178.3675
702.422	8337.72186
702.858	8549.9018
703.294	8683.95609
703.729	8795.32577
704.164	8815.31134
704.599	9133.69921
705.035	9217.88685
705.47	9408.36793
705.904	9553.62358
706.339	9486.45124
706.774	9851.34525
707.209	9862.37855
707.643	10050.87001
708.078	10192.25131
708.512	10336.65745
708.946	10466.17195
709.38	10659.84742
709.814	10646.9056
710.248	10756.13596
710.682	11144.68916
711.116	11185.79971
711.549	11240.83086
711.983	11201.06178
712.416	11295.39901
712.85	11402.60431
713.283	11601.76163
713.716	11705.03153
714.149	11680.22194
714.582	11930.73261
715.015	11719.16123
715.448	11914.0152
715.881	11780.2937
716.313	12054.17854
716.746	12051.08422
717.178	12049.00583
717.61	12099.00659
718.043	12227.78511
718.475	12269.23801
718.907	12343.31489
719.339	12311.83029
719.77	12463.40693
720.202	12406.65718
720.634	12652.25517
721.065	12553.98405
721.497	12620.14404
721.928	12679.4223
722.359	12721.71755
722.79	12812.35396
723.221	12842.3815
723.652	12866.39135
724.083	12711.30059
724.514	12811.91579
724.945	13049.26083
725.375	12967.64005
725.806	13007.58278
726.236	12848.25042
726.666	13190.22401
727.096	13101.19826
727.526	13270.00814
727.956	13344.77859
728.386	13203.97128
728.816	13298.28567
729.246	13308.61416
729.675	13315.5917
730.105	13155.79154
730.534	13170.22511
730.964	13302.46839
731.393	13308.77383
731.822	13392.86513
732.251	13365.81193
732.68	13476.54107
733.109	13482.97858
733.537	13541.53203
733.966	13577.35163
734.395	13535.0639
734.823	13564.75196
735.251	13621.07779
735.68	13533.12669
736.108	13368.88293
736.536	13341.46495
736.964	13252.86332
737.392	13201.76946
737.82	13100.49385
738.247	13238.55581
738.675	12997.92909
739.102	12803.07637
739.53	12731.48692
739.957	12742.46706
740.384	12702.78894
740.811	12610.91589
741.238	12431.06783
741.665	12453.67853
742.092	12161.71248
742.519	12118.19341
742.945	11875.10875
743.372	11919.11885
743.798	11720.95212
744.225	11723.40699
744.651	11455.86594
745.077	11348.41561
745.503	11152.68762
745.929	11048.31193
746.355	10834.37959
746.781	10764.11607
747.207	10542.40954
747.632	10267.47524
748.058	10244.40342
748.483	10244.50264
748.908	10140.10926
749.334	9907.48288
749.759	9773.14682
750.184	9596.72385
750.609	9520.57728
751.033	9366.20508
751.458	9295.02091
751.883	9077.74479
752.307	8879.34447
752.732	8717.31491
753.156	8630.15279
753.58	8423.76161
754.005	8244.78893
754.429	8081.41269
754.853	7980.53348
755.277	7816.17631
755.7	7503.34968
756.124	7491.34891
756.548	7466.13772
756.971	7115.08121
757.394	7108.55809
757.818	7118.48774
758.241	6900.44155
758.664	6727.48483
759.087	6659.75322
759.51	6540.32472
759.933	6394.24704
760.356	6283.6255
760.778	6117.54176
761.201	6044.38155
761.623	5799.3827
762.046	5779.30921
762.468	5604.34245
762.89	5414.73201
763.312	5468.77685
763.734	5250.70303
764.156	5179.94175
764.578	5065.55539
765	5009.97575
765.421	4789.42716
765.843	4684.64307
766.264	4535.10584
766.686	4504.33335
767.107	4343.21637
767.528	4258.66396
767.949	4264.65516
768.37	4106.33278
768.791	4020.38966
769.212	3841.77656
769.632	3729.29471
770.053	3641.1313
770.473	3656.53524
770.894	3577.6752
771.314	3476.3451
771.734	3414.36148
772.154	3244.88403
772.575	3169.27649
772.994	3191.22334
773.414	3152.50089
773.834	3085.80718
774.254	2933.73193
774.673	2882.57779
775.093	2687.67142
775.512	2697.61672
775.931	2646.77993
776.351	2544.63164
776.77	2517.56252
777.189	2493.3794
777.607	2338.687
778.026	2308.57786
778.445	2210.55197
778.864	2211.60945
779.282	2174.31262
779.701	2040.3839
780.119	2121.61545
780.537	1981.35492
780.955	1846.2263
781.373	1857.16631
781.791	1830.79246
782.209	1779.80163
782.627	1757.40283
783.045	1692.79447
783.462	1646.11625
783.88	1592.08464
784.297	1563.95478
784.715	1517.98516
785.132	1469.73371
785.549	1412.7595
785.966	1447.79566
786.383	1413.68594
786.8	1362.44881
787.217	1282.41225
787.633	1269.54871
788.05	1216.27881
788.466	1171.16473
788.883	1147.40541
789.299	1124.22044
789.715	1141.29127
790.131	1105.30205
790.547	986.06789
790.963	1039.18348
791.379	985.12592
791.795	962.84908
792.21	938.85904
792.626	860.76137
793.041	922.9801
793.457	925.98187
793.872	865.76006
794.287	836.76148
794.702	761.65835
795.117	768.71348
795.532	815.818
795.947	778.65065
796.362	762.61738
796.776	721.47874
797.191	711.57481
797.605	680.48265
798.02	637.41429
798.434	623.24527
798.848	663.49885
799.262	622.43373
799.676	596.32344
800.09	624.43206
800.504	475.07775
800.918	550.19738
801.331	531.27824
801.745	520.11567
802.158	525.22695
802.572	515.15258
802.985	518.16145
803.398	486.08869
803.811	423.01405
804.224	423.98959
804.637	454.03273
805.05	405.88974
805.462	388.91147
805.875	414.02712
806.288	404.94423
806.7	406.97821
807.112	387.85021
807.525	363.86056
807.937	341.81528
808.349	342.8278
808.761	327.78122
809.173	358.83544
809.584	326.7754
809.996	309.74161
810.408	318.80228
810.819	369.84569
811.231	368.93731
811.642	359.85436
812.053	442.02967
812.464	370.8614
812.875	395.96806
813.286	301.75764
813.697	354.79715
814.108	285.67908
814.519	257.56107
814.929	286.70943
815.34	291.70134
815.75	245.61627
816.16	262.63826
816.571	236.59715
816.981	227.52717
817.391	219.52803
817.801	270.66828
818.211	191.44655
818.62	273.65323
819.03	204.49419
819.44	223.57017
819.849	175.43547
820.259	156.39362
820.668	194.47844
821.077	204.50864
821.486	166.39791
821.895	199.48217
822.304	165.43515
822.713	197.46708
823.122	214.52931
823.531	175.41892
823.939	177.4329
824.348	225.54455
824.756	225.55926
825.164	159.39638
825.573	190.48265
825.981	125.31072
826.389	169.42527
826.797	98.24524
827.205	172.39985
827.612	144.35827
828.02	127.30333
828.428	177.45082
828.835	150.39486
829.243	157.37913
829.65	97.24436
830.057	155.3791
830.464	160.3898
830.871	128.30811
831.278	122.29578
831.685	158.35626
832.092	98.24454
832.499	91.20296
832.905	118.29955
833.312	126.29164
833.718	168.41813
834.124	101.23317
834.531	98.24816
834.937	74.18905
835.343	113.27628
835.749	88.2053
836.155	90.23685
836.561	64.16132
836.966	112.27632
837.372	126.32201
837.777	98.24878
838.183	137.30467
838.588	49.12251
838.993	85.20905
839.399	89.22067
839.804	60.14917
840.209	95.24708
840.613	104.23603
841.018	53.13547
841.423	57.148
841.828	90.2317
842.232	76.18957
842.637	67.16216
843.041	78.20402
843.445	102.25838
843.849	72.18025
844.253	80.19359
844.657	69.17755
845.061	77.17947
845.465	103.25229
845.869	90.21352
846.272	102.25285
846.676	35.08576
847.079	121.31276
847.483	55.13821
847.886	34.08296
848.289	32.08698
848.692	73.18719
849.095	99.24223
849.498	84.21195
849.901	52.12141
850.304	111.26947
850.707	48.12345
851.109	46.1169
851.512	119.2972
851.914	90.23372
852.316	46.1169
852.718	34.08999
853.121	84.20899
853.523	122.29211
853.925	64.17047
854.326	15.03821
854.728	60.15747
855.13	57.15074
855.531	92.22623
855.933	41.09909
856.334	90.22782
856.736	17.03968
857.137	44.10463
857.538	45.1164
857.939	93.23521
858.34	73.1802
858.741	37.09808
859.142	94.22927
859.542	47.12641
859.943	38.09616
860.343	64.16143
860.744	52.12872
861.144	15.03706
861.544	79.19552
861.945	95.24691
862.345	57.14128
862.745	62.15856
863.145	77.1856
863.544	64.16368
863.944	44.10527
864.344	55.13846
864.743	68.16943
865.143	97.25124
865.542	30.07183
865.941	71.17982
866.34	48.11694
866.74	41.11092
867.139	103.25248
867.537	37.09561
867.936	98.23974
868.335	56.14487
868.734	92.24047
869.132	79.18854
869.531	21.05129
869.929	70.16536
870.327	54.13303
870.726	51.12761
871.124	66.15821
871.522	60.15528
871.92	73.18344
872.318	58.1441
872.715	73.1804
873.113	78.19435
873.511	72.18427
873.908	63.16397
874.306	71.1811
874.703	31.07874
875.1	73.18804
875.497	91.22356
875.894	59.14911
876.291	40.09978
876.688	93.24495
877.085	39.09486
877.482	33.084
877.878	65.15998
878.275	92.23727
878.671	112.25254
879.068	35.08627
879.464	69.1692
879.86	21.05092
880.256	72.17959
880.652	58.14989
881.048	19.04781
881.444	-3.00726
881.84	78.19997
882.236	39.09944
882.631	70.17638
883.027	30.07355
883.422	-4.01045
883.817	44.11485
884.213	60.15688
884.608	46.11607
885.003	83.20489
885.398	89.22821
885.793	61.15494
886.188	58.1487
886.582	28.07204
886.977	67.16204
887.371	-12.03071
887.766	42.10726
888.16	33.08379
888.554	37.09221
888.949	41.10406
889.343	35.08659
889.737	56.1531
890.131	36.0912
890.525	22.05727
890.918	24.06108
891.312	34.08184
891.706	-18.04756
892.099	12.0308
892.492	87.1926
892.886	16.03988
893.279	86.22233
893.672	-12.03083
894.065	44.11158
894.458	84.21543
894.851	72.17823
895.244	-12.03134
895.637	60.14781
896.029	42.10442
896.422	41.10169
896.814	25.06327
897.206	2.00491
897.599	65.16116
897.991	46.11274
898.383	75.18262
898.775	23.0534
899.167	22.05332
899.559	40.10248
899.951	45.1081
900.342	15.03853
900.734	51.13091
901.125	38.10101
901.517	64.16057
901.908	48.11651
902.299	56.14181
902.69	39.09471
903.082	37.0913
903.473	51.12599
903.863	10.02607
904.254	70.16741
904.645	51.1288
905.036	-10.02513
905.426	28.06525
905.817	71.17758
906.207	42.10336
906.597	-2.00479
906.987	57.14957
907.378	45.11462
907.768	40.10736
908.158	68.1682
908.547	76.19926
908.937	-11.02861
909.327	62.15403
909.717	51.13009
910.106	22.05402
910.495	73.18443
910.885	41.10612
911.274	60.15199
911.663	-6.01542
912.052	53.13151
912.441	10.02579
912.83	31.07362
913.219	32.08458
913.608	39.09695
913.997	40.10284
914.385	42.10167
914.774	62.15302
915.162	38.09344
915.55	59.14457
915.939	33.08492
916.327	32.08023
916.715	32.08296
917.103	30.0747
917.491	15.03753
917.878	15.03714
918.266	1.00261
918.654	91.23603
919.041	24.06412
919.429	46.1114
919.816	27.06921
920.203	51.12645
920.591	-1.00253
920.978	9.02219
921.365	40.10647
921.752	52.12711
922.139	62.13934
922.525	72.1779
922.912	36.08905
923.299	35.08902
923.685	17.04532
924.072	28.0652
924.458	27.06826
924.844	40.10129
925.231	42.10037
925.617	13.03397
926.003	39.10091
926.389	25.06442
926.774	68.17427
927.16	52.13121
927.546	45.11788
927.931	29.07379
928.317	5.01176
928.702	50.1194
929.088	23.05628
929.473	40.10309
929.858	34.08481
930.243	42.10336
930.628	55.13801
931.013	53.13395
931.398	46.10723
931.783	10.02657
932.167	96.23963
932.552	6.01521
932.937	32.08057
933.321	11.02835
933.705	46.1183
934.09	50.12648
934.474	64.15382
934.858	42.11042
935.242	52.12384
935.626	55.14379
936.009	5.01336
936.393	1.00259
936.777	39.10161
937.16	-6.01585
937.544	30.07175
937.927	34.08854
938.311	34.08407
938.694	32.08515
939.077	40.09785
939.46	2.00489
939.843	102.21972
940.226	64.16609
940.609	96.2281
940.991	46.11905
941.374	28.07015
941.757	15.03752
942.139	74.17271
942.522	26.06223
942.904	43.10548
943.286	17.04364
943.668	31.08176
944.05	19.04797
944.432	46.11686
944.814	-9.02249
945.196	44.11087
945.578	35.0871
945.959	46.11043
946.341	-12.02954
946.722	44.10511
947.104	58.14146
947.485	46.10951
947.866	71.18409
948.247	17.04338
948.628	19.04685
949.009	27.07085
949.39	48.12081
949.771	79.18695
950.152	22.05563
950.532	30.0764
950.913	52.12759
951.293	18.04957
951.674	112.27876
952.054	43.10995
952.434	12.03036
952.814	19.04639
953.194	-1.00265
953.574	19.04718
953.954	65.15721
954.334	56.14206
954.714	11.02767
955.093	-10.02504
955.473	18.04578
955.853	21.05503
956.232	-8.02207
956.611	48.11686
956.99	64.16431
957.37	54.13985
957.749	31.07608
958.128	41.10605
958.506	94.24846
958.885	80.20496
959.264	53.13462
959.643	20.04657
960.021	24.06114
960.4	42.0983
960.778	77.19133
961.156	64.16374
961.535	71.16763
961.913	65.15501
962.291	57.15074
962.669	35.08959
963.047	16.04138
963.424	39.10077
963.802	77.1928
964.18	60.15296
964.557	60.14097
964.935	104.24863
965.312	-4.01059
965.69	23.05813
966.067	48.11947
966.444	5.01251
966.821	30.07815
967.198	47.11543
967.575	30.07399
967.952	45.10781
968.329	51.12654
968.705	18.03957
969.082	56.14642
969.458	50.12431
969.835	36.08905
970.211	36.09471
970.587	33.0834
970.963	38.09844
971.339	6.016
971.715	38.0963
972.091	33.08287
972.467	22.05599
972.843	38.09616
973.219	63.15116
973.594	52.13933
973.97	53.1276
974.345	38.09334
974.721	0
975.096	36.08879
975.471	25.06076
975.846	22.05388
976.221	61.15876
976.596	31.07655
976.971	70.17448
977.346	15.03557
977.72	37.0961
978.095	47.12346
978.469	7.01706
978.844	38.09595
979.218	14.03435
979.593	47.11419
979.967	40.09912
980.341	-8.01896
980.715	56.14357
981.089	-6.01521
981.463	68.16207
981.837	42.10526
982.21	45.1062
982.584	58.14278
982.957	42.10745
983.331	79.1897
983.704	-54.13499
984.078	39.09843
984.451	51.12696
984.824	45.11223
985.197	35.08634
985.57	57.14467
985.943	25.06221
986.316	45.11194
986.688	34.08314
987.061	108.2578
987.434	53.13969
987.806	56.13826
988.179	26.06339
988.551	62.15956
988.923	45.11259
989.295	6.015
989.667	26.06438
990.039	77.19426
990.411	40.09424
990.783	52.12179
991.155	56.13984
991.527	42.10385
991.898	59.14991
992.27	-12.03039
992.641	5.01274
993.012	20.04818
993.384	46.11098
993.755	41.10689
994.126	26.06368
994.497	4.01011
994.868	60.14141
995.239	25.06156
995.61	24.06196
995.98	74.18411
996.351	31.07832
996.722	70.16805
997.092	26.06346
997.462	43.10384
997.833	23.05552
998.203	39.09557
998.573	0
998.943	57.13729
999.313	63.15455
999.683	39.09684
1000.053	64.1509
1000.423	35.08592
1000.792	34.09008
1001.162	-27.06809
1001.531	31.07804
1001.901	65.16626
1002.27	47.10769
1002.639	34.08878
1003.009	5.01213
1003.378	13.03359
1003.747	33.08059
1004.116	26.06396
1004.485	4.00974
1004.853	54.13839
1005.222	19.04841
1005.591	47.11333
1005.959	69.1612
1006.328	22.05116
1006.696	46.11437
1007.064	24.06123
1007.433	41.10366
1007.801	40.09872
1008.169	17.04327
1008.537	44.10023
1008.905	32.07703
1009.273	17.04238
1009.64	38.09393
1010.008	71.17269
1010.375	14.03367
1010.743	68.15833
1011.11	11.02692
1011.478	6.01512
1011.845	11.02646
1012.212	14.03294
1012.579	5.01248
1012.946	36.08712
1013.313	32.07706
1013.68	19.04374
1014.047	34.08361
1014.414	25.06092
1014.78	-23.0584
1015.147	17.04146
1015.513	79.19315
1015.88	7.01802
1016.246	-10.02484
1016.612	31.07177
1016.978	12.03008
1017.344	55.13885
1017.71	28.06842
1018.076	62.14766
1018.442	-1.0026
1018.808	27.06889
1019.174	49.12538
1019.539	12.02773
1019.905	30.07243
1020.27	55.13876
1020.636	36.08787
1021.001	13.03173
1021.366	12.02965
1021.731	12.03101
1022.096	8.02071
1022.461	55.13237
1022.826	43.10392
1023.191	-2.00533
1023.556	67.16064
1023.92	20.04972
1024.285	57.14107
1024.649	2.00503
1025.014	71.17797
1025.378	21.05394
1025.742	43.10899
1026.107	3.00695
1026.471	-3.00709
1026.835	43.10918
1027.199	84.20937
1027.562	9.0215
1027.926	30.07445
1028.29	34.08823
1028.654	47.11058
1029.017	28.06939
1029.381	31.07588
1029.744	34.08738
1030.107	66.15767
1030.471	-21.05125
1030.834	10.02328
1031.197	47.11346
1031.56	-2.00483
1031.923	14.03677
1032.286	48.11427
1032.648	108.26194
1033.011	-26.06145
1033.374	64.15084
1033.736	40.1069
1034.099	55.13717
1034.461	26.06649
1034.823	-22.05609
1035.185	10.02567
1035.548	64.15889
1035.91	25.06124
1036.272	12.02776
1036.634	5.01237
1036.995	49.11842
1037.357	5.01249
1037.719	-9.02218
1038.08	5.0121
1038.442	14.03393
1038.803	52.12626
1039.165	34.08811
1039.526	57.13957
1039.887	44.1076
1040.248	3.00756
1040.609	4.00996
1040.97	36.09012
1041.331	16.04122
1041.692	47.1144
1042.053	67.15573
1042.413	59.13989
1042.774	35.08627
1043.134	54.13097
1043.495	49.12384
1043.855	8.01984
1044.215	18.04582
1044.576	64.15784
1044.936	36.08422
1045.296	48.1212
1045.656	14.03478
1046.016	35.08529
1046.375	11.02708
1046.735	11.02585
1047.095	29.06932
1047.454	45.09758
1047.814	48.11729
1048.173	-10.02388
1048.533	11.02585
1048.892	8.01994
1049.251	59.1498
1049.61	2.00503
1049.969	99.23907
1050.328	72.15909
1050.687	21.05201
1051.046	0
1051.405	53.13486
1051.763	42.09926
1052.122	-2.00511
1052.48	-13.03227
1052.839	29.06979
1053.197	64.15388
1053.555	-3.00682
1053.914	16.03942
1054.272	16.03891
1054.63	49.12291
1054.988	32.07805
1055.345	46.10181
1055.703	39.0951
1056.061	43.11165
1056.419	-13.03436
1056.776	-15.03684
1057.134	40.09486
1057.491	33.08349
1057.848	-18.04542
1058.206	40.09618
1058.563	36.08127
1058.92	3.00701
1059.277	2.00502
1059.634	53.12615
1059.991	79.19128
1060.348	25.0585
1060.704	-3.00739
1061.061	75.17494
1061.418	17.04193
1061.774	29.07301
1062.131	22.05939
1062.487	29.0695
1062.843	28.07042
1063.199	67.16963
1063.555	50.1194
1063.911	-21.05374
1064.267	65.13746
1064.623	3.00749
1064.979	61.14569
1065.335	71.16997
1065.691	27.06562
1066.046	-45.10037
1066.402	53.1246
1066.757	14.03574
1067.112	12.02978
1067.468	65.16052
1067.823	62.1519
1068.178	25.06112
1068.533	40.09876
1068.888	49.1182
1069.243	15.03769
1069.598	14.03483
1069.952	34.07942
1070.307	33.08435
1070.662	41.09871
1071.016	51.11713
1071.371	34.07882
1071.725	-1.00244
1072.079	6.01465
1072.434	39.09702
1072.788	68.16486
1073.142	64.15981
1073.496	23.05567
1073.85	12.02822
1074.203	74.18445
1074.557	28.07552
1074.911	39.0934
1075.265	26.06171
1075.618	37.0908
1075.971	43.10392
1076.325	44.11363
1076.678	75.17666
1077.031	24.05617
1077.385	96.21646
1077.738	56.12967
1078.091	25.05886
1078.444	58.1368
1078.796	-1.00249
1079.149	14.03528
1079.502	71.17333
1079.855	52.12446
1080.207	38.09492
1080.56	17.04458
1080.912	43.10552
1081.264	53.12958
1081.617	69.17239
1081.969	38.09834
1082.321	18.04456
1082.673	30.07112
1083.025	59.1428
1083.377	90.19745
1083.728	18.04259
1084.08	33.0834
1084.432	36.08879
1084.783	48.11388
1085.135	76.19238
1085.486	75.17735
1085.838	29.07295
1086.189	47.11508
1086.54	20.04853
1086.891	27.06991
1087.242	-3.00741
1087.593	40.09851
1087.944	31.07114
1088.295	32.07433
1088.646	99.24331
1088.996	0
1089.347	56.13923
1089.698	27.0656
1090.048	9.0234
1090.398	6.01415
1090.749	30.07333
1091.099	94.24301
1091.449	53.13347
1091.799	44.11198
1092.149	53.13424
1092.499	13.03229
1092.849	51.13205
1093.199	30.07548
1093.548	45.11076
1093.898	44.11182
1094.248	11.02859
1094.597	24.06342
1094.947	-17.04604
1095.296	-5.01257
1095.645	35.09191
1095.994	7.01708
1096.343	10.02559
1096.692	92.24926
1097.041	-3.00819
1097.39	40.10295
1097.739	-4.01058
1098.088	72.19375
1098.437	27.07229
1098.785	-15.0407
1099.134	13.0348
1099.482	62.17145
1099.83	19.05014
1100.179	29.07762
1100.527	21.05622
1100.875	18.04828
1101.223	25.067
1101.571	12.03359
1101.919	31.08332
1102.267	15.04257
1102.615	14.04512
1102.962	0
1103.31	7.02255
1103.658	13.04193
