Data from N2 R0 150C sample3_Subt2__2__13-05-46-162.txt Node

Date: Tue Aug 19 13:05:46 PDT 2025
User: uwsun
Spectrometer: HDX01956
Trigger mode: 0
Integration Time (sec): 5.000000E-1
Scans to average: 1
Nonlinearity correction enabled: true
Boxcar width: 0
Storing dark spectrum: false
XAxis mode: Wavelengths
Number of Pixels in Spectrum: 2068
>>>>>Begin Spectral Data<<<<<
194.03	77.2237
194.578	67.21705
195.127	71.22695
195.676	69.2214
196.225	112.30639
196.773	102.28996
197.321	132.37603
197.87	208.55361
198.418	158.41943
198.966	218.58599
199.513	176.45451
200.061	201.5283
200.609	224.60291
201.156	137.31754
201.704	194.50843
202.251	193.5287
202.798	197.52756
203.345	214.54515
203.892	175.45638
204.438	229.56505
204.985	225.55926
205.532	218.58772
206.078	201.51122
206.624	184.47138
207.17	214.51666
207.716	172.43616
208.262	148.3114
208.808	177.45939
209.354	186.47232
209.899	181.46831
210.445	186.48299
210.99	190.48025
211.535	221.54191
212.08	227.55352
212.625	195.5061
213.17	185.48345
213.715	232.55122
214.259	223.5389
214.804	192.48687
215.348	217.5131
215.892	199.49338
216.436	236.56503
216.98	241.55835
217.524	177.43628
218.068	248.64485
218.612	220.56832
219.155	219.53282
219.698	214.52756
220.242	185.47551
220.785	174.42216
221.328	181.46296
221.871	162.4201
222.414	186.47683
222.956	191.4827
223.499	199.46672
224.041	231.55422
224.583	139.31258
225.126	173.39923
225.668	174.43636
226.21	176.45593
226.751	168.38962
227.293	187.44918
227.835	176.44772
228.376	210.49934
228.918	197.51076
229.459	164.42367
230	180.44261
230.541	216.52307
231.082	122.30486
231.622	169.40409
232.163	196.49082
232.704	158.4035
233.244	192.48946
233.784	189.47577
234.324	182.42643
234.864	146.34784
235.404	181.44466
235.944	168.41203
236.484	187.47444
237.023	198.48722
237.563	183.43941
238.102	146.35582
238.641	184.47862
239.18	158.38851
239.719	185.47684
240.258	220.51304
240.797	186.46343
241.335	189.47713
241.874	244.50094
242.412	233.57978
242.95	202.50018
243.488	199.47473
244.026	204.48563
244.564	196.42492
245.102	194.45383
245.64	230.56324
246.177	223.52075
246.715	196.48657
247.252	216.51341
247.789	226.44994
248.326	180.45238
248.863	200.46291
249.4	226.53179
249.936	200.43081
250.473	198.48164
251.009	218.52294
251.546	193.44503
252.082	233.52997
252.618	183.42483
253.154	209.52214
253.69	182.42526
254.226	194.47791
254.761	227.53633
255.297	162.37094
255.832	152.3728
256.367	204.49976
256.903	159.36342
257.438	236.56805
257.972	209.48825
258.507	179.43241
259.042	238.5421
259.576	258.58362
260.111	191.45809
260.645	163.3676
261.179	128.31312
261.713	198.46428
262.247	226.54171
262.781	168.37493
263.315	200.50769
263.849	231.59352
264.382	190.45196
264.915	240.58576
265.449	255.64785
265.982	275.64594
266.515	197.49181
267.048	201.45385
267.58	252.57121
268.113	219.49611
268.646	201.51267
269.178	157.37052
269.71	230.52494
270.243	172.40899
270.775	177.46065
271.307	216.53308
271.838	195.47231
272.37	182.46167
272.902	246.57614
273.433	171.38864
273.965	215.53791
274.496	168.42662
275.027	228.57793
275.558	207.51733
276.089	175.44919
276.62	197.5127
277.15	223.5557
277.681	233.52932
278.211	159.39436
278.741	192.44546
279.272	227.53529
279.802	173.44281
280.332	206.50241
280.861	216.53523
281.391	205.48304
281.921	190.47305
282.45	206.52828
282.98	242.63894
283.509	192.44775
284.038	228.53796
284.567	197.47086
285.096	225.55987
285.625	242.57143
286.153	180.43557
286.682	259.60955
287.21	246.60755
287.739	234.5724
288.267	241.59728
288.795	171.45295
289.323	251.61044
289.851	282.67875
290.378	250.58115
290.906	190.47751
291.433	207.52499
291.961	192.4532
292.488	226.57144
293.015	257.62479
293.542	233.60408
294.069	196.49224
294.596	238.5962
295.122	257.62643
295.649	222.50628
296.175	295.73161
296.702	217.53761
297.228	302.73705
297.754	281.65849
298.28	274.64046
298.806	270.65995
299.332	261.60085
299.857	248.57696
300.383	262.66834
300.908	207.51846
301.433	263.64535
301.958	243.5719
302.483	235.59832
303.008	254.63719
303.533	249.64845
304.058	243.58811
304.582	246.59817
305.107	270.71309
305.631	292.67341
306.155	283.67483
306.679	206.49378
307.203	275.65425
307.727	302.72412
308.251	248.62236
308.775	265.64617
309.298	281.69359
309.822	291.74007
310.345	272.66335
310.868	273.66294
311.391	290.71803
311.914	304.76752
312.437	330.76285
312.96	323.76724
313.482	255.61575
314.005	286.72492
314.527	301.79186
315.049	281.70756
315.571	311.71736
316.093	353.87477
316.615	325.79302
317.137	344.76131
317.659	355.86813
318.18	307.73905
318.702	272.64101
319.223	342.73444
319.744	308.70776
320.265	345.84024
320.786	341.84874
321.307	358.88732
321.828	374.85801
322.348	351.83661
322.869	393.93848
323.389	355.55613
323.909	361.83101
324.43	358.85313
324.95	354.81896
325.47	347.847
325.989	401.94071
326.509	405.90133
327.029	392.88162
327.548	379.85745
328.067	403.97264
328.587	394.96543
329.106	339.76666
329.625	399.01476
330.144	406.94034
330.662	374.85663
331.181	418.96736
331.7	428.99599
332.218	528.12556
332.736	475.08864
333.255	423.97291
333.773	427.99112
334.291	425.02581
334.808	458.0187
335.326	488.08241
335.844	519.1768
336.361	450.10766
336.879	508.16602
337.396	505.17276
337.913	487.08848
338.43	498.09409
338.947	450.0364
339.464	516.08421
339.981	530.20882
340.497	473.11519
341.014	549.2801
341.53	496.0737
342.046	490.14885
342.562	545.29264
343.078	539.21677
343.594	525.19716
344.11	636.40359
344.626	536.28079
345.141	516.1242
345.657	550.17862
346.172	593.34318
346.687	601.31216
347.202	576.23176
347.717	591.33051
348.232	610.41887
348.747	660.41833
349.261	637.32213
349.776	639.40052
350.29	611.41813
350.805	668.54045
351.319	605.3326
351.833	534.14773
352.347	616.34693
352.861	662.41958
353.374	633.34186
353.888	670.48794
354.401	667.41833
354.915	688.42971
355.428	651.48185
355.941	662.43117
356.454	666.37471
356.967	665.43246
357.48	671.40827
357.993	711.58265
358.505	678.50322
359.018	750.64298
359.53	764.66243
360.042	762.51968
360.554	721.56515
361.066	717.58284
361.578	781.51546
362.09	747.58242
362.602	750.48879
363.113	777.62311
363.625	763.54245
364.136	797.55832
364.647	846.75918
365.158	800.63542
365.669	766.62235
366.18	808.66818
366.691	853.64752
367.201	875.81752
367.712	842.6872
368.222	810.63346
368.733	893.71667
369.243	850.65386
369.753	906.82811
370.263	882.83085
370.773	846.78257
371.282	920.85978
371.792	1012.99562
372.301	909.87982
372.811	936.03938
373.32	939.69813
373.829	998.9689
374.338	1019.85906
374.847	1087.0399
375.356	1054.03734
375.865	1161.93006
376.373	1215.1397
376.882	1148.27637
377.39	1197.23488
377.898	1200.29383
378.407	1302.16986
378.915	1374.12815
379.423	1379.35966
379.93	1444.28035
380.438	1586.64805
380.946	1582.53016
381.453	1633.59857
381.96	1764.64336
382.468	1850.69397
382.975	1891.72221
383.482	1987.44925
383.989	2015.96094
384.495	2127.58957
385.002	2238.29354
385.509	2370.74519
386.015	2426.99881
386.521	2676.47524
387.028	2715.34333
387.534	2845.14497
388.04	2934.42407
388.546	2951.15841
389.051	3088.93159
389.557	3262.00852
390.063	3644.79633
390.568	3769.84894
391.073	3850.47598
391.578	4080.67005
392.084	4059.11033
392.589	4332.62984
393.093	4550.85378
393.598	5046.31526
394.103	5488.15612
394.607	5914.89153
395.112	6383.00417
395.616	6874.15267
396.12	7440.7013
396.624	8100.99269
397.128	8791.93243
397.632	9838.80648
398.136	10714.81635
398.639	11330.63423
399.143	12372.42438
399.646	14027.39385
400.15	15234.49455
400.653	16990.01738
401.156	19027.64528
401.659	22222.96976
402.162	27109.73472
402.664	34783.14953
403.167	46411.73993
403.67	21519.17979
404.172	2696.20453
404.674	0
405.176	0
405.678	0
406.18	0
406.682	0
407.184	0
407.686	25783.58453
408.187	43316.52985
408.688	51225.60928
409.19	54389.01922
409.691	48914.78592
410.192	42199.88585
410.693	36969.66534
411.194	33536.78608
411.694	31932.0609
412.195	29952.15673
412.696	27640.47029
413.196	25701.25871
413.696	25095.23836
414.196	25520.01531
414.696	25256.5193
415.196	24280.26933
415.696	22464.97107
416.196	18196.53747
416.695	13747.63935
417.195	11715.37464
417.694	11060.78752
418.194	10546.48391
418.693	9858.59359
419.192	9479.49717
419.691	9422.19091
420.19	9176.14799
420.688	8963.32336
421.187	8588.59235
421.685	8010.69185
422.184	7376.61376
422.682	6278.8515
423.18	5367.25198
423.678	4698.77139
424.176	4405.0632
424.674	4071.12657
425.172	3931.65429
425.669	3763.074
426.167	3537.00046
426.664	3251.14694
427.161	2831.27016
427.659	2680.70202
428.156	2545.13386
428.652	2472.01448
429.149	2337.79647
429.646	2147.4028
430.143	2101.70968
430.639	1966.64402
431.135	1843.82814
431.632	1738.46542
432.128	1671.6013
432.624	1571.74436
433.12	1476.27434
433.616	1488.19594
434.111	1370.30873
434.607	1319.30446
435.103	1296.95148
435.598	1348.00176
436.093	1200.13455
436.588	1153.94083
437.083	1136.96442
437.578	1111.01175
438.073	1011.06419
438.568	935.87936
439.062	953.68241
439.557	927.81031
440.051	859.633
440.546	890.70146
441.04	810.67978
441.534	834.82096
442.028	788.62176
442.522	739.54911
443.015	750.43549
443.509	800.69295
444.002	779.6596
444.496	782.5055
444.989	745.58093
445.482	713.56286
445.975	716.46417
446.468	722.37715
446.961	699.35611
447.454	671.35004
447.947	693.47751
448.439	624.3403
448.931	675.38241
449.424	640.43301
449.916	669.4608
450.408	616.26966
450.9	624.3811
451.392	615.39871
451.884	571.20182
452.375	627.42832
452.867	578.19603
453.358	574.20947
453.849	570.12572
454.341	548.15005
454.832	572.14713
455.323	538.21575
455.814	577.22885
456.304	572.21475
456.795	545.16462
457.285	554.13247
457.776	527.11102
458.266	517.14613
458.756	470.05063
459.247	521.16364
459.737	510.14911
460.226	553.16694
460.716	547.22632
461.206	495.11957
461.695	438.02553
462.185	411.91884
462.674	501.09954
463.163	438.92274
463.653	534.07474
464.142	435.00119
464.63	455.05897
465.119	404.89854
465.608	442.98589
466.096	351.75198
466.585	442.97611
467.073	421.95825
467.561	403.92655
468.05	412.92203
468.538	410.96201
469.026	306.7186
469.513	525.1344
470.001	365.80559
470.489	361.8383
470.976	397.89158
471.463	341.82119
471.951	301.73037
472.438	346.79315
472.925	318.72956
473.412	305.72644
473.899	288.65014
474.385	309.73851
474.872	358.82887
475.359	326.78344
475.845	309.64713
476.331	285.60479
476.817	272.65121
477.303	290.66773
477.789	246.58965
478.275	244.59885
478.761	247.59576
479.247	359.8003
479.732	257.63739
480.218	268.68557
480.703	251.62024
481.188	234.50967
481.673	240.55416
482.158	271.59289
482.643	200.5021
483.128	190.44274
483.612	254.59325
484.097	214.51822
484.581	238.55151
485.066	253.61645
485.55	229.51475
486.034	128.28472
486.518	223.53361
487.002	262.64896
487.486	208.51107
487.969	190.47305
488.453	158.39866
488.936	229.52929
489.42	158.35742
489.903	199.49932
490.386	185.32387
490.869	174.38848
491.352	168.41447
491.835	138.29867
492.318	261.60924
492.8	177.38397
493.283	221.56803
493.765	163.40959
494.247	197.46618
494.73	162.3705
495.212	134.3306
495.694	164.39311
496.175	137.33856
496.657	180.43409
497.139	178.33243
497.62	140.34362
498.102	188.473
498.583	137.34858
499.064	212.49322
499.545	155.36665
500.026	124.29122
500.507	131.31575
500.988	148.3777
501.469	156.40119
501.949	198.49744
502.43	168.41295
502.91	161.35373
503.39	117.29769
503.87	190.4627
504.35	103.25061
504.83	153.35196
505.31	108.26939
505.79	155.38514
506.269	155.37628
506.749	117.27912
507.228	148.36204
507.707	154.35574
508.187	111.27128
508.666	139.35342
509.145	169.41164
509.623	125.30265
510.102	137.34277
510.581	126.3104
511.059	115.29787
511.538	125.32867
512.016	208.51315
512.494	154.3851
512.972	123.30307
513.45	156.37892
513.928	192.48254
514.406	163.41077
514.884	125.33067
515.361	149.37105
515.839	162.38595
516.316	123.30853
516.793	130.33747
517.27	110.27328
517.747	115.30411
518.224	156.3775
518.701	180.42356
519.178	106.27052
519.654	111.2737
520.131	113.28782
520.607	128.32562
521.083	85.20527
521.56	139.34476
522.036	132.30614
522.512	120.30116
522.987	122.30343
523.463	104.26045
523.939	95.24189
524.414	143.34271
524.89	106.26239
525.365	140.33418
525.84	140.3511
526.315	156.39066
526.79	156.36809
527.265	167.4019
527.74	114.28796
528.215	152.37459
528.689	93.21948
529.164	90.20691
529.638	126.33426
530.112	101.2517
530.587	124.28279
531.061	136.34156
531.534	92.23023
532.008	121.30438
532.482	72.172
532.956	100.26316
533.429	112.2819
533.903	77.17975
534.376	116.26967
534.849	134.32524
535.322	121.29825
535.795	118.2987
536.268	125.30992
536.741	93.23252
537.213	105.25442
537.686	109.27803
538.158	83.19664
538.631	103.25827
539.103	87.20875
539.575	105.23089
540.047	126.29118
540.519	153.37962
540.991	127.32039
541.463	147.36832
541.934	100.24162
542.406	158.39181
542.877	173.41144
543.348	124.31143
543.82	119.29967
544.291	138.33356
544.762	147.3606
545.233	157.40482
545.703	129.30172
546.174	150.36366
546.645	140.35047
547.115	162.40686
547.585	134.32157
548.056	197.49573
548.526	207.50796
548.996	160.39546
549.466	170.42387
549.935	186.45651
550.405	178.40872
550.875	183.44674
551.344	233.57386
551.814	202.48327
552.283	227.50397
552.752	242.58116
553.221	284.64948
553.69	226.51581
554.159	270.6778
554.628	268.6193
555.096	334.85284
555.565	295.67802
556.033	307.72812
556.502	319.77635
556.97	279.63381
557.438	311.74158
557.906	358.84659
558.374	345.79799
558.842	368.87258
559.31	362.81749
559.777	412.98101
560.245	434.00782
560.712	469.07272
561.18	526.15571
561.647	467.03038
562.114	499.11488
562.581	574.34502
563.048	617.35622
563.514	599.39901
563.981	663.4257
564.448	740.55018
564.914	713.55368
565.381	807.67914
565.847	834.78491
566.313	843.79138
566.779	882.76582
567.245	975.02194
567.711	989.09917
568.176	1082.10749
568.642	1162.4832
569.108	1127.381
569.573	1289.53699
570.038	1343.32337
570.504	1340.41766
570.969	1467.95893
571.434	1482.61431
571.899	1556.89688
572.363	1624.80736
572.828	1695.87047
573.293	1704.91427
573.757	1737.91243
574.222	1872.02518
574.686	1834.02876
575.15	1947.26363
575.614	1940.11393
576.078	2010.29588
576.542	2009.13601
577.006	2032.11578
577.469	1997.43597
577.933	2044.18154
578.396	2059.2957
578.86	2059.30852
579.323	2009.37587
579.786	2067.97896
580.249	2037.23464
580.712	1894.30573
581.175	1907.36206
581.637	1925.0458
582.1	1840.90133
582.563	1801.75161
583.025	1805.20867
583.487	1828.63559
583.95	1778.83262
584.412	1751.68982
584.874	1698.05494
585.336	1684.99099
585.797	1600.62543
586.259	1621.90864
586.721	1578.8476
587.182	1497.70828
587.643	1522.68385
588.105	1518.82728
588.566	1465.38441
589.027	1431.77906
589.488	1427.59673
589.949	1443.78001
590.41	1374.14915
590.87	1348.45552
591.331	1369.34369
591.791	1421.66096
592.252	1417.61982
592.712	1346.61058
593.172	1382.53534
593.632	1437.51559
594.092	1390.4981
594.552	1471.49268
595.011	1415.60449
595.471	1401.46883
595.931	1495.59052
596.39	1516.87604
596.849	1546.79943
597.308	1480.51406
597.768	1570.14196
598.227	1554.85072
598.685	1661.79898
599.144	1743.99798
599.603	1884.20346
600.062	1871.80199
600.52	1903.98924
600.978	1955.20549
601.437	2079.13312
601.895	2155.91725
602.353	2234.11494
602.811	2385.28755
603.269	2432.61056
603.727	2575.69178
604.184	2698.45012
604.642	2895.86327
605.099	2840.52016
605.557	3029.84146
606.014	3180.26764
606.471	3269.04356
606.928	3480.2317
607.385	3627.93556
607.842	3667.32023
608.299	3880.4841
608.755	3932.65834
609.212	4027.05072
609.668	4213.05718
610.125	4316.47809
610.581	4420.24442
611.037	4648.89882
611.493	4580.15521
611.949	4886.39307
612.405	4806.07526
612.861	4853.97703
613.316	4977.07576
613.772	5059.7957
614.227	5117.96442
614.683	5101.25152
615.138	5168.81095
615.593	5197.7575
616.048	5226.54899
616.503	5230.05853
616.958	5254.31159
617.412	5131.88157
617.867	5149.45715
618.321	5173.05063
618.776	5064.52001
619.23	5072.8376
619.684	4951.67428
620.138	4818.88313
620.592	4760.31303
621.046	4673.02535
621.5	4676.42136
621.954	4599.84462
622.407	4508.81973
622.861	4335.49058
623.314	4383.9984
623.768	4225.28205
624.221	4129.39352
624.674	4050.25435
625.127	3906.3879
625.58	3944.20057
626.033	3765.02677
626.485	3832.61051
626.938	3651.58712
627.39	3636.50157
627.843	3543.45924
628.295	3488.40157
628.747	3428.63542
629.199	3268.39969
629.651	3274.42483
630.103	3262.48875
630.555	3124.00631
631.006	3082.56391
631.458	3080.63954
631.909	2939.37497
632.361	2910.53729
632.812	2822.5154
633.263	2782.09165
633.714	2701.02968
634.165	2770.78379
634.616	2612.61074
635.067	2552.14268
635.518	2624.56509
635.968	2564.72613
636.419	2544.10238
636.869	2408.44628
637.319	2454.36155
637.769	2374.22585
638.219	2313.3539
638.669	2380.4837
639.119	2346.60707
639.569	2317.47926
640.019	2330.26684
640.468	2309.12573
640.918	2309.42454
641.367	2207.10794
641.816	2240.15078
642.265	2205.22436
642.714	2225.229
643.163	2275.31925
643.612	2275.58282
644.061	2277.01436
644.51	2254.32235
644.958	2220.04674
645.406	2266.45368
645.855	2263.56358
646.303	2300.31953
646.751	2293.2902
647.199	2304.21535
647.647	2238.24735
648.095	2372.36448
648.543	2291.79136
648.99	2350.42227
649.438	2387.41019
649.885	2303.62773
650.333	2306.61734
650.78	2486.66694
651.227	2402.68033
651.674	2403.24902
652.121	2389.55866
652.568	2319.57589
653.015	2390.72231
653.461	2411.48523
653.908	2357.3743
654.354	2380.43607
654.801	2342.40419
655.247	2391.1256
655.693	2365.96105
656.139	2397.53743
656.585	2410.48269
657.031	2333.40602
657.477	2428.08788
657.922	2377.35015
658.368	2350.62366
658.813	2395.28938
659.259	2459.57582
659.704	2510.38932
660.149	2485.47289
660.594	2482.5232
661.039	2479.30238
661.484	2522.48837
661.929	2556.43633
662.373	2531.93025
662.818	2642.84689
663.262	2573.61565
663.707	2654.90847
664.151	2748.73841
664.595	2692.60857
665.039	2819.86449
665.483	2820.01349
665.927	2835.51241
666.371	2895.50705
666.814	2916.61534
667.258	2954.72449
667.701	3079.03667
668.145	3083.88112
668.588	3129.76749
669.031	3220.65653
669.474	3214.68813
669.917	3274.14408
670.36	3411.91865
670.803	3383.59405
671.245	3516.87491
671.688	3497.65856
672.13	3534.24694
672.573	3539.88412
673.015	3724.6207
673.457	3718.9783
673.899	3800.52875
674.341	3865.56758
674.783	4005.45144
675.225	3914.61179
675.666	4087.59061
676.108	4142.72885
676.549	4322.1877
676.991	4418.81777
677.432	4455.26788
677.873	4382.98705
678.314	4604.16696
678.755	4619.28258
679.196	4688.8285
679.637	4817.11866
680.078	4787.81543
680.518	4955.71739
680.959	5067.98656
681.399	5201.14508
681.839	5201.91988
682.28	5291.01447
682.72	5357.47344
683.16	5379.92647
683.6	5542.20923
684.039	5639.67008
684.479	5734.74727
684.919	5901.32324
685.358	6073.77225
685.798	6285.9644
686.237	6211.37616
686.676	6402.9406
687.115	6608.03442
687.554	6812.06589
687.993	6941.67236
688.432	6960.88725
688.871	7155.91929
689.309	7270.12278
689.748	7505.54536
690.186	7709.21514
690.625	7736.16146
691.063	7953.44513
691.501	8193.6712
691.939	8450.96583
692.377	8573.02287
692.815	8765.23142
693.253	9008.59545
693.69	9215.85787
694.128	9316.16877
694.565	9544.60421
695.003	9741.0979
695.44	9975.67482
695.877	10333.72708
696.314	10388.14616
696.751	10665.99788
697.188	10909.86336
697.625	11095.68639
698.061	11350.52947
698.498	11651.96706
698.934	11800.64124
699.371	11833.9231
699.807	12213.02693
700.243	12532.68339
700.679	12657.01987
701.115	13027.24167
701.551	13217.46179
701.987	13350.83819
702.422	13630.25288
702.858	13833.01033
703.294	14132.08744
703.729	14137.97674
704.164	14457.8849
704.599	14590.22969
705.035	14694.82554
705.47	14989.21202
705.904	15058.61663
706.339	15417.96524
706.774	15610.26629
707.209	15761.0015
707.643	15805.74584
708.078	16048.75746
708.512	16198.94319
708.946	16321.70385
709.38	16358.12282
709.814	16549.02654
710.248	16494.16754
710.682	16721.9207
711.116	16727.6571
711.549	16668.88912
711.983	16817.68225
712.416	16838.55843
712.85	16898.96713
713.283	17051.81596
713.716	16799.99449
714.149	16616.07279
714.582	16692.64089
715.015	16694.02882
715.448	16558.08945
715.881	16422.66619
716.313	16388.53729
716.746	16385.27705
717.178	16306.21052
717.61	16324.61594
718.043	16194.43139
718.475	15956.47339
718.907	15896.9804
719.339	15787.52764
719.77	15766.56804
720.202	15480.72892
720.634	15485.07841
721.065	15343.35555
721.497	15155.04357
721.928	15074.1122
722.359	14967.17534
722.79	14952.15036
723.221	14900.38758
723.652	14718.50566
724.083	14659.47648
724.514	14325.45046
724.945	14094.14772
725.375	14106.15436
725.806	13828.50136
726.236	13590.31895
726.666	13542.78531
727.096	13657.17497
727.526	13431.13634
727.956	13470.71673
728.386	13322.80499
728.816	13110.00037
729.246	13126.35202
729.675	12843.42233
730.105	12791.36284
730.534	12610.5019
730.964	12720.62311
731.393	12613.16949
731.822	12504.13562
732.251	12527.37286
732.68	12447.5681
733.109	12119.27387
733.537	12249.06957
733.966	12044.68942
734.395	12156.91521
734.823	11923.89247
735.251	11825.77302
735.68	11784.41808
736.108	11595.48524
736.536	11480.30663
736.964	11372.82412
737.392	11186.71422
737.82	11316.43591
738.247	11107.57785
738.675	11048.3475
739.102	10801.20494
739.53	10843.31746
739.957	10630.56336
740.384	10631.69385
740.811	10524.26139
741.238	10398.90053
741.665	10125.13567
742.092	10117.07324
742.519	10005.73905
742.945	9851.34063
743.372	9816.25693
743.798	9736.09292
744.225	9573.6661
744.651	9406.36529
745.077	9120.8391
745.503	9236.99348
745.929	9132.7806
746.355	8922.50401
746.781	8778.30777
747.207	8571.95164
747.632	8429.91775
748.058	8378.8844
748.483	8434.67625
748.908	8269.75046
749.334	8181.6651
749.759	7941.24745
750.184	7839.31499
750.609	7779.40891
751.033	7659.11316
751.458	7595.86341
751.883	7367.27458
752.307	7340.05776
752.732	7028.43779
753.156	7012.32926
753.58	6989.04219
754.005	6717.39645
754.429	6701.01651
754.853	6399.38018
755.277	6352.01411
755.7	6338.43555
756.124	6145.51204
756.548	6047.28623
756.971	5880.36837
757.394	5796.98007
757.818	5696.94971
758.241	5640.90658
758.664	5517.98932
759.087	5319.24797
759.51	5321.87096
759.933	5230.79138
760.356	5152.20171
760.778	4998.12998
761.201	4873.00036
761.623	4801.9263
762.046	4708.89288
762.468	4613.89092
762.89	4536.22138
763.312	4467.33067
763.734	4350.19786
764.156	4286.42208
764.578	4252.0001
765	4156.42081
765.421	3968.80602
765.843	3893.97961
766.264	3794.43646
766.686	3691.66403
767.107	3656.49044
767.528	3540.89237
767.949	3568.88175
768.37	3370.55858
768.791	3347.58059
769.212	3238.88154
769.632	3138.41808
770.053	3155.15615
770.473	3057.61653
770.894	2989.72041
771.314	2858.39655
771.734	2824.39565
772.154	2716.81598
772.575	2706.2701
772.994	2688.22242
773.414	2691.46685
773.834	2593.7095
774.254	2608.65873
774.673	2518.49347
775.093	2354.54126
775.512	2315.47011
775.931	2279.60733
776.351	2251.49076
776.77	2185.3981
777.189	2166.2316
777.607	2143.55977
778.026	2094.43913
778.445	1987.38655
778.864	1997.44671
779.282	1937.14968
779.701	1807.18289
780.119	1897.42121
780.537	1841.2316
780.955	1699.0806
781.373	1702.01905
781.791	1647.64472
782.209	1645.68732
782.627	1642.26537
783.045	1588.69588
783.462	1560.01395
783.88	1512.98565
784.297	1455.82177
784.715	1500.96328
785.132	1405.65529
785.549	1396.73839
785.966	1343.6582
786.383	1317.56085
786.8	1342.42495
787.217	1276.40443
787.633	1190.43294
788.05	1184.23603
788.466	1147.13285
788.883	1135.38647
789.299	1131.23066
789.715	1106.23865
790.131	1128.33812
790.547	1036.1491
790.963	1068.23028
791.379	1029.20022
791.795	962.84908
792.21	981.92494
792.626	873.78279
793.041	959.04158
793.457	925.98187
793.872	884.79101
794.287	838.76493
794.702	829.78069
795.117	828.82459
795.532	775.74296
795.947	807.70145
796.362	836.74608
796.776	738.50786
797.191	770.6847
797.605	746.60401
798.02	701.53589
798.434	675.33316
798.848	695.56105
799.262	662.51388
799.676	656.43872
800.09	670.5236
800.504	589.30598
800.918	568.23191
801.331	579.38128
801.745	566.20251
802.158	576.33287
802.572	532.18653
802.985	504.13325
803.398	534.18461
803.811	468.11255
804.224	448.0408
804.637	464.05339
805.05	445.96938
805.462	464.07167
805.875	436.07748
806.288	395.92483
806.7	420.00704
807.112	392.86028
807.525	393.92627
807.937	336.80409
808.349	398.95314
808.761	368.87225
809.173	313.7369
809.584	362.85505
809.996	301.72351
810.408	311.78561
810.819	363.83294
811.231	327.83894
811.642	342.81657
812.053	374.88475
812.464	390.90437
812.875	337.83483
813.286	295.74334
813.697	303.68944
814.108	267.63839
814.519	295.63884
814.929	268.66697
815.34	310.74443
815.75	270.6761
816.16	272.66137
816.571	214.54361
816.981	211.49157
817.391	271.64696
817.801	225.5615
818.211	190.4443
818.62	257.61683
819.03	210.50815
819.44	216.55296
819.849	180.4475
820.259	135.34191
820.668	182.44984
821.077	209.52063
821.486	216.51281
821.895	200.48451
822.304	198.51927
822.713	185.43964
823.122	173.43112
823.531	171.40966
823.939	157.38541
824.348	180.43934
824.756	168.42192
825.164	151.37698
825.573	133.34127
825.981	126.31315
826.389	173.43503
826.797	84.21074
827.205	150.35022
827.612	159.39451
828.02	70.16901
828.428	141.36142
828.835	154.40512
829.243	123.29893
829.65	118.29614
830.057	109.26887
830.464	110.27049
830.871	135.32453
831.278	56.13745
831.685	103.23485
832.092	139.34426
832.499	49.11024
832.905	103.26217
833.312	115.26676
833.718	109.2742
834.124	103.2377
834.531	83.21074
834.937	68.17391
835.343	165.3995
835.749	120.2782
836.155	86.22647
836.561	76.19115
836.966	61.15191
837.372	68.17555
837.777	89.22629
838.183	123.27433
838.588	21.05277
838.993	98.24045
839.399	78.19378
839.804	22.05508
840.209	169.43394
840.613	105.23825
841.018	24.06166
841.423	97.25012
841.828	99.25448
842.232	90.22392
842.637	96.23108
843.041	90.23492
843.445	107.27081
843.849	54.13562
844.253	72.1745
844.657	84.21558
845.061	84.19551
845.465	72.17738
845.869	88.20885
846.272	91.22604
846.676	56.13669
847.079	94.2441
847.483	32.08075
847.886	55.13367
848.289	48.13013
848.692	62.15929
849.095	93.2278
849.498	72.18206
849.901	37.08664
850.304	83.20255
850.707	61.15653
851.109	36.09165
851.512	108.27027
851.914	88.2286
852.316	10.02557
852.718	32.08472
853.121	57.14251
853.523	104.24987
853.925	91.24129
854.326	-1.00255
854.728	55.14447
855.13	60.15859
855.531	72.1777
855.933	37.08949
856.334	65.16527
856.736	63.14574
857.137	74.17495
857.538	44.11383
857.939	63.16019
858.34	33.08206
858.741	64.16888
859.142	84.20526
859.542	31.0836
859.943	40.10118
860.343	24.06097
860.744	32.0795
861.144	15.03706
861.544	-5.01256
861.945	78.20332
862.345	58.14373
862.745	74.18885
863.145	57.13791
863.544	56.14342
863.944	47.11238
864.344	70.17574
864.743	85.21114
865.143	55.14349
865.542	29.06945
865.941	80.20229
866.34	39.09518
866.74	13.03533
867.139	65.16046
867.537	32.08276
867.936	77.1891
868.335	59.15256
868.734	63.16548
869.132	55.13187
869.531	61.14786
869.929	64.15137
870.327	59.14522
870.726	39.09779
871.124	51.1226
871.522	63.16296
871.92	127.31603
872.318	45.11206
872.715	29.07225
873.113	41.10284
873.511	48.12336
873.908	40.10452
874.306	73.18614
874.703	35.08884
875.1	24.06235
875.497	51.12622
875.894	10.02549
876.291	32.07994
876.688	54.14316
877.085	8.01957
877.482	14.03575
877.878	52.12829
878.275	34.08857
878.671	53.12095
879.068	69.16901
879.464	17.04209
879.86	21.05092
880.256	68.16974
880.652	22.05721
881.048	49.12265
881.444	26.06259
881.84	73.18732
882.236	28.07153
882.631	64.16143
883.027	67.16314
883.422	43.11145
883.817	55.1433
884.213	80.20846
884.608	37.09351
885.003	66.16343
885.398	82.21052
885.793	47.11967
886.188	66.16897
886.582	13.03353
886.977	57.13812
887.371	-20.05126
887.766	47.11993
888.16	69.17407
888.554	24.05995
888.949	39.09902
889.343	46.11357
889.737	35.09601
890.131	9.02291
890.525	30.07799
890.918	3.00766
891.312	-39.09518
891.706	-30.07943
892.099	21.05381
892.492	94.20779
892.886	4.00999
893.279	47.12233
893.672	-4.01026
894.065	24.06108
894.458	124.31578
894.851	52.12919
895.244	20.05196
895.637	56.13806
896.029	60.14868
896.422	25.06219
896.814	21.05319
897.206	39.09507
897.599	49.12185
897.991	-2.00495
898.383	95.23045
898.775	31.07185
899.167	57.13723
899.559	56.14307
899.951	55.13187
900.342	16.04109
900.734	43.11053
901.125	52.13791
901.517	60.15064
901.908	68.16443
902.299	86.21661
902.69	71.17139
903.082	58.14257
903.473	61.15042
903.863	27.07018
904.254	35.08427
904.645	46.11628
905.036	50.12431
905.426	53.1229
905.817	47.11806
906.207	47.11555
906.597	-14.03357
906.987	65.17033
907.378	6.01539
907.768	57.15255
908.158	32.07968
908.547	14.03709
908.937	1.0026
909.327	82.20298
909.717	34.08698
910.106	11.02706
910.495	109.27361
910.885	45.1164
911.274	22.05611
911.663	26.06645
912.052	28.06979
912.441	20.05149
912.83	58.13702
913.219	59.15524
913.608	9.02249
913.997	38.09773
914.385	116.27689
914.774	32.07941
915.162	56.13725
915.55	28.06901
915.939	25.06442
916.327	8.02014
916.715	13.03381
917.103	36.08954
917.491	38.09468
917.878	-10.02487
918.266	-14.03668
918.654	54.14095
919.041	32.08538
919.429	49.1186
919.816	15.03853
920.203	33.08209
920.591	-4.01012
920.978	47.11508
921.365	34.09059
921.752	42.10286
922.139	72.16148
922.525	13.03247
922.912	33.08167
923.299	45.11426
923.685	31.08245
924.072	41.09522
924.458	29.07329
924.844	38.09626
925.231	16.03843
925.617	48.12469
926.003	12.03119
926.389	27.06955
926.774	21.05426
927.16	51.12871
927.546	33.08662
927.931	39.09906
928.317	8.01881
928.702	28.06714
929.088	33.08059
929.473	-12.03121
929.858	33.08233
930.243	57.13988
930.628	50.12558
931.013	49.12393
931.398	39.09104
931.783	24.06363
932.167	48.12086
932.552	30.07573
932.937	23.058
933.321	30.07707
933.705	43.11065
934.09	27.06858
934.474	41.09897
934.858	19.05014
935.242	35.08363
935.626	49.12823
936.009	-25.06713
936.393	23.05943
936.777	17.04446
937.16	16.04211
937.544	50.11912
937.927	20.05221
938.311	37.09144
938.694	45.11948
939.077	31.07596
939.46	-39.09617
939.843	99.21339
940.226	-3.00787
940.609	111.26298
940.991	24.06235
941.374	14.03516
941.757	42.10454
942.139	44.1033
942.522	13.03119
942.904	59.14431
943.286	25.06408
943.668	41.10795
944.05	46.11557
944.432	71.17957
944.814	14.03485
945.196	44.11087
945.578	78.19258
945.959	50.11995
946.341	35.08541
946.722	34.08138
947.104	47.11487
947.485	3.0072
947.866	49.12753
948.247	-18.04621
948.628	12.02963
949.009	24.06301
949.39	13.03293
949.771	82.19394
950.152	93.23219
950.532	1.00256
950.913	54.13244
951.293	4.01104
951.674	72.18051
952.054	61.15549
952.434	40.10068
952.814	37.09003
953.194	66.17275
953.574	36.08911
953.954	72.1739
954.334	32.08152
954.714	36.09016
955.093	-12.03006
955.473	38.0963
955.853	37.0967
956.232	-10.02759
956.611	11.02696
956.99	54.13888
957.37	62.16034
957.749	37.0907
958.128	86.22071
958.506	60.15949
958.885	41.10576
959.264	99.2494
959.643	30.06972
960.021	57.14437
960.4	53.12377
960.778	63.15695
961.156	28.07209
961.535	69.16297
961.913	43.10298
962.291	74.19513
962.669	13.0334
963.047	11.02847
963.424	35.0905
963.802	21.05311
964.18	53.13528
964.557	46.10837
964.935	40.0968
965.312	10.02642
965.69	12.03039
966.067	70.17353
966.444	46.11424
966.821	37.09627
967.198	31.07636
967.575	-6.0149
967.952	35.08401
968.329	19.04742
968.705	22.04833
969.082	51.13346
969.458	66.16361
969.835	18.04467
970.211	61.1598
970.587	28.07083
970.963	5.01303
971.339	39.10341
971.715	3.00765
972.091	13.03276
972.467	22.05599
972.843	27.06846
973.219	38.09161
973.594	93.2475
973.97	43.10372
974.345	12.02962
974.721	7.01711
975.096	29.07161
975.471	63.15202
975.846	34.08308
976.221	55.1433
976.596	25.0618
976.971	28.07032
977.346	23.05445
977.72	71.18333
978.095	58.15207
978.469	16.03892
978.844	57.14344
979.218	-6.01478
979.593	26.06342
979.967	49.12123
980.341	37.08692
980.715	53.13595
981.089	-9.02283
981.463	109.25774
981.837	37.09281
982.21	55.12955
982.584	26.06438
982.957	30.07691
983.331	52.1255
983.704	-1.00248
984.078	48.12094
984.451	-15.03779
984.824	67.16643
985.197	39.09613
985.57	68.17226
985.943	30.07459
986.316	71.17578
986.688	31.07585
987.061	50.12068
987.434	27.07147
987.806	41.10151
988.179	49.11896
988.551	58.14937
988.923	22.05527
989.295	-13.03262
989.667	36.08898
990.039	56.14181
990.411	33.07785
990.783	64.14955
991.155	35.08773
991.527	42.10385
991.898	24.06136
992.27	12.03026
992.641	8.02037
993.012	88.20926
993.384	29.07019
993.755	50.13016
994.126	27.06611
994.497	25.06296
994.868	39.09229
995.239	37.0909
995.61	75.19191
995.98	65.16199
996.351	3.00762
996.722	66.15857
997.092	21.05131
997.462	39.09425
997.833	42.10102
998.203	35.08583
998.573	28.07083
998.943	79.18948
999.313	29.07159
999.683	93.22865
1000.053	85.19959
1000.423	20.04924
1000.792	51.13473
1001.162	10.02505
1001.531	84.20945
1001.901	75.19151
1002.27	18.04148
1002.639	40.10434
1003.009	20.0484
1003.378	-26.06764
1003.747	116.27891
1004.116	28.06885
1004.485	-9.02196
1004.853	27.06952
1005.222	22.05603
1005.591	73.17515
1005.959	83.19337
1006.328	19.04421
1006.696	69.17083
1007.064	28.07138
1007.433	54.13621
1007.801	41.10117
1008.169	10.02549
1008.537	36.08214
1008.905	48.11519
1009.273	28.06967
1009.64	22.05454
1010.008	50.12209
1010.375	1.00241
1010.743	70.16293
1011.11	45.10945
1011.478	24.06028
1011.845	31.0743
1012.212	41.09597
1012.579	18.04482
1012.946	18.04371
1013.313	44.10571
1013.68	60.137
1014.047	13.03209
1014.414	47.11406
1014.78	17.04286
1015.147	54.13077
1015.513	48.11803
1015.88	8.02059
1016.246	6.01486
1016.612	41.09473
1016.978	31.07745
1017.344	39.09874
1017.71	3.00736
1018.076	31.07427
1018.442	13.0337
1018.808	44.11194
1019.174	32.08213
1019.539	20.04615
1019.905	-9.02189
1020.27	65.16369
1020.636	33.08059
1021.001	24.05845
1021.366	-6.01487
1021.731	-31.08071
1022.096	49.12595
1022.461	71.17036
1022.826	40.09672
1023.191	25.06631
1023.556	32.07723
1023.92	6.01496
1024.285	65.16063
1024.649	42.10488
1025.014	58.14572
1025.378	65.16568
1025.742	45.11401
1026.107	21.04848
1026.471	18.04236
1026.835	84.21173
1027.199	49.12291
1027.562	50.11848
1027.926	36.08924
1028.29	75.19326
1028.654	36.08488
1029.017	-5.01247
1029.381	-10.02466
1029.744	0
1030.107	41.09841
1030.471	-11.02679
1030.834	24.05573
1031.197	23.05577
1031.56	-27.06547
1031.923	30.07858
1032.286	56.13311
1032.648	97.23575
1033.011	-3.00706
1033.374	47.11114
1033.736	42.1122
1034.099	58.14457
1034.461	-49.12696
1034.823	-23.05865
1035.185	60.15269
1035.548	56.13923
1035.91	36.088
1036.272	-20.04657
1036.634	20.04933
1036.995	58.13993
1037.357	3.0075
1037.719	-22.05434
1038.08	31.07466
1038.442	9.02183
1038.803	-7.01718
1039.165	51.13178
1039.526	41.10069
1039.887	31.07599
1040.248	-11.02779
1040.609	1.00249
1040.97	38.0951
1041.331	15.03865
1041.692	46.11199
1042.053	30.07024
1042.413	43.10227
1042.774	47.1156
1043.134	107.25693
1043.495	-17.04347
1043.855	18.04456
1044.215	90.2262
1044.576	45.11137
1044.936	51.11896
1045.296	24.06086
1045.656	15.03726
1046.016	18.044
1046.375	-11.02719
1046.735	18.04224
1047.095	16.03834
1047.454	35.07606
1047.814	34.0833
1048.173	-22.05266
1048.533	32.07489
1048.892	24.05965
1049.251	31.0791
1049.61	25.06266
1049.969	56.13633
1050.328	37.08235
1050.687	12.02977
1051.046	-2.00493
1051.405	29.0741
1051.763	-18.04303
1052.122	-1.00255
1052.48	4.0099
1052.839	-18.04371
1053.197	29.07019
1053.555	-10.02275
1053.914	0
1054.272	-6.01465
1054.63	7.01769
1054.988	16.03914
1055.345	20.04451
1055.703	60.14574
1056.061	-10.0262
1056.419	22.0578
1056.776	-18.04423
1057.134	36.08544
1057.491	22.05577
1057.848	-1.00252
1058.206	1.00242
1058.563	46.10364
1058.92	0
1059.277	-20.05038
1059.634	40.09545
1059.991	73.17695
1060.348	14.03283
1060.704	47.11474
1061.061	53.12416
1061.418	20.04931
1061.774	67.16752
1062.131	8.02165
1062.487	44.10515
1062.843	-11.02786
1063.199	58.14708
1063.555	46.10993
1063.911	-5.01276
1064.267	48.10189
1064.623	23.05719
1064.979	65.15513
1065.335	44.10587
1065.691	59.14253
1066.046	-12.02658
1066.402	3.00712
1066.757	40.10165
1067.112	5.01242
1067.468	45.11153
1067.823	35.08618
1068.178	20.04894
1068.533	71.1743
1068.888	4.00973
1069.243	8.02013
1069.598	-10.02499
1069.952	26.06083
1070.307	65.16521
1070.662	34.08197
1071.016	-9.02092
1071.371	37.08573
1071.725	39.0945
1072.079	15.03657
1072.434	14.03498
1072.788	56.13608
1073.142	72.17953
1073.496	30.07252
1073.85	34.0796
1074.203	98.2432
1074.557	34.09161
1074.911	-27.06547
1075.265	48.11344
1075.618	21.05169
1075.971	44.10632
1076.325	51.13155
1076.678	46.10896
1077.031	20.04684
1077.385	60.13628
1077.738	45.10443
1078.091	14.03303
1078.444	51.12046
1078.796	26.06452
1079.149	15.03779
1079.502	67.16369
1079.855	48.11497
1080.207	35.08748
1080.56	-34.08993
1080.912	26.06401
1081.264	31.0761
1081.617	20.05041
1081.969	12.03119
1082.321	-4.00994
1082.673	42.09933
1083.025	27.06574
1083.377	80.17588
1083.728	-21.05006
1084.08	-19.04846
1084.432	15.03714
1084.783	4.00957
1085.135	26.0664
1085.486	34.08104
1085.838	45.11288
1086.189	13.03203
1086.54	16.03885
1086.891	16.04151
1087.242	7.01725
1087.593	15.03711
1087.944	-22.05102
1088.295	45.10426
1088.646	53.13136
1088.996	-70.1748
1089.347	4.01004
1089.698	-10.02446
1090.048	-34.08905
1090.398	1.00236
1090.749	44.10728
1091.099	52.13541
1091.449	-7.01782
1091.799	34.08668
1092.149	62.15678
1092.499	-12.02994
1092.849	27.0702
1093.199	67.16746
1093.548	23.05684
1093.898	20.05104
1094.248	14.03637
1094.597	37.09755
1094.947	-6.01622
1095.296	-33.0834
1095.645	69.18014
1095.994	8.01952
1096.343	1.00256
1096.692	69.18764
1097.041	-48.13202
1097.39	47.12081
1097.739	-3.00793
1098.088	86.23089
1098.437	45.12012
1098.785	-9.0244
1099.134	10.02679
1099.482	10.02788
1099.83	18.04751
1100.179	27.07229
1100.527	38.10145
1100.875	0
1101.223	39.10428
1101.571	17.04755
1101.919	25.06726
1102.267	-8.02278
1102.615	0
1102.962	-3.00967
1103.31	3.00967
1103.658	6.01937
