Data from N2 R0 150C sample8_Subt2__3__13-27-50-132.txt Node

Date: Tue Aug 19 13:27:50 PDT 2025
User: uwsun
Spectrometer: HDX01956
Trigger mode: 0
Integration Time (sec): 5.000000E-1
Scans to average: 1
Nonlinearity correction enabled: true
Boxcar width: 0
Storing dark spectrum: false
XAxis mode: Wavelengths
Number of Pixels in Spectrum: 2068
>>>>>Begin Spectral Data<<<<<
194.03	180.51505
194.578	193.61598
195.127	154.48733
195.676	170.53887
196.225	193.52109
196.773	191.53565
197.321	321.88815
197.87	407.0446
198.418	382.97569
198.966	394.02573
199.513	353.88338
200.061	399.01082
200.609	381.99883
201.156	349.77479
201.704	387.98064
202.251	365.97211
202.798	392.01319
203.345	404.99432
203.892	400.00025
204.438	385.92255
204.985	421.00657
205.532	410.06783
206.078	431.04892
206.624	390.96271
207.17	428.99128
207.716	357.87529
208.262	375.74955
208.808	452.11464
209.354	433.04869
209.899	395.9838
210.445	391.97914
210.99	380.92769
211.535	434.01972
212.08	458.06617
212.625	402.00345
213.17	424.06
213.715	411.94268
214.259	420.977
214.804	393.96067
215.348	372.85308
215.892	387.92628
216.436	380.88467
216.98	469.03523
217.524	430.00794
218.068	474.1818
218.612	420.04469
219.155	413.9681
219.698	372.89022
220.242	359.8945
220.785	400.92902
221.328	359.88931
221.871	372.9294
222.414	384.94999
222.956	395.96161
223.499	370.83862
224.041	365.85328
224.583	359.77078
225.126	323.72304
225.668	371.89712
226.21	368.92141
226.751	399.88282
227.293	397.91531
227.835	372.91324
228.376	358.8269
228.918	409.01893
229.459	392.97226
230	348.82899
230.541	423.98417
231.082	330.79335
231.622	355.81851
232.163	352.85648
232.704	357.8795
233.244	392.96374
233.784	365.88959
234.324	388.87226
234.864	370.84339
235.404	360.85493
235.944	385.90601
236.484	344.84827
237.023	378.89905
237.563	342.79623
238.102	314.74112
238.641	354.89371
239.18	372.87832
239.719	394.97829
240.258	405.90991
240.797	414.98842
241.335	359.87856
241.874	397.7869
242.412	378.91559
242.95	367.8811
243.488	380.87491
244.026	399.91406
244.564	407.84255
245.102	406.9101
245.64	388.92212
246.177	379.8578
246.715	435.0302
247.252	390.89578
247.789	458.86264
248.326	373.90468
248.863	446.98164
249.4	407.92377
249.936	391.80762
250.473	400.93599
251.009	410.94735
251.546	421.92644
252.082	405.88899
252.618	379.84557
253.154	423.01328
253.69	339.76759
254.226	354.84619
254.761	438.9923
255.297	345.76082
255.832	385.90319
256.367	393.92879
256.903	392.85376
257.438	427.99034
257.972	416.93213
258.507	407.94061
259.042	446.973
259.576	432.94246
260.111	404.92941
260.645	383.82478
261.179	389.90509
261.713	434.97045
262.247	427.98407
262.781	391.83224
263.315	448.08448
263.849	467.14768
264.382	429.9733
264.915	463.08058
265.449	476.15927
265.982	457.03306
266.515	451.07145
267.048	419.90384
267.58	442.96305
268.113	423.91834
268.646	445.08346
269.178	396.89097
269.71	441.96352
270.243	439.98992
270.775	386.9682
271.307	400.95355
271.838	405.94193
272.37	471.13062
272.902	410.92926
273.433	368.80286
273.965	431.03366
274.496	405.98483
275.027	485.17045
275.558	459.09216
276.089	457.11231
276.62	444.10369
277.15	357.86783
277.681	456.98891
278.211	362.86431
278.741	439.96847
279.272	454.02106
279.802	413.00989
280.332	453.0514
280.861	483.13572
281.391	412.93152
281.921	451.06693
282.45	448.09747
282.98	455.15541
283.509	417.92918
284.038	470.05452
284.567	458.03764
285.096	489.15564
285.625	460.03796
286.153	423.9764
286.682	460.03796
287.21	479.12979
287.739	483.12425
288.267	473.11993
288.795	424.07257
289.323	503.16305
289.851	520.19266
290.378	482.06687
290.906	483.14717
291.433	464.12032
291.961	470.04717
292.488	472.13839
293.015	487.13045
293.542	504.24261
294.069	406.9808
294.596	491.17111
295.122	507.17556
295.649	495.06445
296.175	546.2893
296.702	514.20145
297.228	509.19183
297.754	567.25193
298.28	530.17426
298.806	513.19465
299.332	540.17159
299.857	487.07728
300.383	523.26987
300.908	509.20252
301.433	519.21054
301.958	498.1115
302.483	491.19074
303.008	581.36859
303.533	496.23405
304.058	550.25148
304.582	553.26465
305.107	567.41931
305.631	521.14447
306.155	566.27391
306.679	541.21136
307.203	590.31607
307.727	541.23568
308.251	574.35287
308.775	532.22996
309.298	608.40754
309.822	586.40944
310.345	575.32029
310.868	610.38481
311.391	599.39627
311.914	586.40199
312.437	608.3255
312.96	575.29709
313.482	642.43396
314.005	588.40731
314.527	611.51963
315.049	606.43389
315.571	669.4306
316.093	677.57514
316.615	645.47704
317.137	660.36231
317.659	682.56339
318.18	622.40523
318.702	639.39581
319.223	686.36221
319.744	659.40555
320.265	648.486
320.786	719.66305
321.307	705.63323
321.828	715.52577
322.348	741.63109
322.869	753.67136
323.389	495.74415
323.909	746.58271
324.43	754.6573
324.95	717.53665
325.47	724.63983
325.989	767.6679
326.509	795.62408
327.029	756.57118
327.548	760.58371
328.067	825.82896
328.587	766.74412
329.106	814.66031
329.625	826.94256
330.144	872.83016
330.662	812.69367
331.181	859.81116
331.7	887.87431
332.218	926.80537
332.736	919.91997
333.255	884.84314
333.773	874.84643
334.291	930.0297
334.808	933.87276
335.326	979.95166
335.844	942.95374
336.361	975.16595
336.879	1004.07525
337.396	995.08634
337.913	954.92857
338.43	1017.99286
338.947	1042.11657
339.464	1029.92082
339.981	1068.17143
340.497	1050.19747
341.014	1084.26074
341.53	1022.96646
342.046	1057.20291
342.562	1159.4221
343.078	1157.2831
343.594	1116.2415
344.11	1152.26846
344.626	1144.41432
345.141	1183.21517
345.657	1189.1992
346.172	1213.4016
346.687	1145.21314
347.202	1233.26505
347.717	1254.44097
348.232	1223.49992
348.747	1233.32488
349.261	1232.22096
349.776	1222.35055
350.29	1278.57442
350.805	1358.70099
351.319	1322.47685
351.833	1284.31858
352.347	1300.43432
352.861	1306.41454
353.374	1402.47889
353.888	1343.56728
354.401	1419.52911
354.915	1375.4253
355.428	1376.67392
355.941	1420.57683
356.454	1417.4392
356.967	1422.5701
357.48	1469.54789
357.993	1455.74209
358.505	1459.71238
359.018	1478.74445
359.53	1543.8073
360.042	1535.52278
360.554	1509.73146
361.066	1449.71223
361.578	1469.39229
362.09	1511.67327
362.602	1558.52227
363.113	1527.66707
363.625	1597.62406
364.136	1587.53609
364.647	1605.7823
365.158	1655.74104
365.669	1608.78826
366.18	1672.79579
366.691	1646.59069
367.201	1672.86671
367.712	1717.76133
368.222	1703.74623
368.733	1727.67252
369.243	1834.75956
369.753	1874.96398
370.263	1869.04451
370.773	1783.99825
371.282	1808.9295
371.792	1910.99613
372.301	1999.15212
372.811	2015.40769
373.32	2041.70408
373.829	2094.1073
374.338	2164.86337
374.847	2227.06531
375.356	2245.16093
375.865	2351.71915
376.373	2479.02447
376.882	2434.44876
377.39	2552.26993
377.898	2593.38977
378.407	2677.92403
378.915	2797.7152
379.423	2960.12794
379.93	3057.84654
380.438	3208.2438
380.946	3365.00906
381.453	3429.03404
381.96	3558.89001
382.468	3957.7139
382.975	4117.64008
383.482	4193.07634
383.989	4307.81159
384.495	4388.10116
385.002	4698.45403
385.509	4999.87976
386.015	5245.77281
386.521	5505.24249
387.028	5690.01972
387.534	5856.77556
388.04	6005.04255
388.546	6227.74527
389.051	6458.58087
389.557	7020.82269
390.063	7664.24034
390.568	7887.51582
391.073	8076.67519
391.578	8556.48798
392.084	8667.746
392.589	8978.62151
393.093	9660.47854
393.598	10530.2795
394.103	11428.03174
394.607	12434.37574
395.112	13480.66025
395.616	14524.36337
396.12	15655.19019
396.624	17235.03656
397.128	19057.68884
397.632	21044.63097
398.136	22506.87884
398.639	24028.2693
399.143	26718.21484
399.646	30085.02027
400.15	33101.39829
400.653	36491.99917
401.156	40895.81843
401.659	47840.00666
402.162	56479.20989
402.664	53856.79857
403.167	49329.08451
403.67	22278.45323
404.172	2696.20453
404.674	0
405.176	0
405.678	0
406.18	0
406.682	0
407.184	0
407.686	25783.58453
408.187	43316.52985
408.688	51225.60928
409.19	54389.01922
409.691	56215.4214
410.192	57270.57019
410.693	57845.40442
411.194	58219.2365
411.694	58633.01717
412.195	59215.68848
412.696	56761.7532
413.196	52856.28832
413.696	51475.4229
414.196	51683.48195
414.696	51037.81748
415.196	48927.81176
415.696	45184.26606
416.196	36927.69471
416.695	28661.20655
417.195	24275.45321
417.694	22950.62484
418.194	21843.67326
418.693	20288.54825
419.192	19658.73994
419.691	19469.67722
420.19	18979.11637
420.688	18286.8777
421.187	17678.29432
421.685	16541.80863
422.184	14939.10336
422.682	13020.43692
423.18	11166.41382
423.678	9846.12619
424.176	9281.23301
424.674	8724.86754
425.172	8222.9271
425.669	7893.60327
426.167	7283.01934
426.664	6659.81999
427.161	6034.85935
427.659	5638.45592
428.156	5269.93215
428.652	4992.22593
429.149	4791.08097
429.646	4514.74283
430.143	4280.35805
430.639	4102.44838
431.135	3940.95802
431.632	3680.57381
432.128	3385.99347
432.624	3249.43837
433.12	3152.76483
433.616	3029.62911
434.111	2848.05228
434.607	2821.15096
435.103	2666.53074
435.598	2730.53451
436.093	2644.08076
436.588	2361.75899
437.083	2291.82245
437.578	2214.94493
438.073	2072.24603
438.568	2095.12448
439.062	1966.59793
439.557	2018.95922
440.051	1836.68946
440.546	1794.70329
441.04	1781.91005
441.534	1806.14285
442.028	1720.8133
442.522	1624.7501
443.015	1652.49249
443.509	1653.85557
444.002	1600.80909
444.496	1599.48947
444.989	1495.65977
445.482	1489.73442
445.975	1527.55918
446.468	1505.33902
446.961	1494.36135
447.454	1439.39251
447.947	1393.5232
448.439	1348.44814
448.931	1427.4332
449.424	1338.56687
449.916	1353.52954
450.408	1418.40425
450.9	1329.51127
451.392	1296.54189
451.884	1255.24825
452.375	1270.51756
452.867	1206.14857
453.358	1234.22684
453.849	1197.02169
454.341	1196.15473
454.832	1146.99852
455.323	1157.28523
455.814	1146.14096
456.304	1143.12748
456.795	1153.14192
457.285	1105.98089
457.776	1049.96112
458.266	1061.08649
458.756	992.9808
459.247	1053.09395
459.737	1048.10181
460.226	1073.00765
460.716	1048.10759
461.206	994.01982
461.695	937.98088
462.185	952.88857
462.674	966.9146
463.163	956.78386
463.653	939.71625
464.142	918.9107
464.63	914.93602
465.119	921.82658
465.608	908.82797
466.096	898.69528
466.585	902.79842
467.073	814.70309
467.561	824.73238
468.05	854.7349
468.538	751.64207
469.026	824.73618
469.513	929.83562
470.001	737.49799
470.489	835.75437
470.976	775.6032
471.463	771.70212
471.951	717.60062
472.438	701.49006
472.925	653.39514
473.412	665.47163
473.899	631.32247
474.385	666.48027
474.872	667.44721
475.359	666.49434
475.845	628.22075
476.331	610.20092
476.817	611.36549
477.303	631.35158
477.789	595.3286
478.275	543.25617
478.761	553.254
479.247	582.23548
479.732	546.27983
480.218	573.38413
480.703	546.27335
481.188	502.02924
481.673	500.09251
482.158	549.12857
482.643	501.18679
483.128	479.05029
483.612	488.08511
484.097	468.07664
484.581	445.98868
485.066	467.08993
485.55	483.02701
486.034	428.89256
486.518	476.08155
487.002	468.11298
487.486	388.92141
487.969	422.00378
488.453	369.89565
488.936	386.86421
489.42	407.87382
489.903	368.89506
490.386	490.78944
490.869	401.85315
491.352	373.88529
491.835	390.79851
492.318	406.92057
492.8	418.86009
493.283	387.96564
493.765	358.86782
494.247	331.76288
494.73	387.84484
495.212	316.75336
495.694	344.79615
496.175	343.81536
496.657	354.82546
497.139	303.54838
497.62	301.71664
498.102	322.79053
498.583	299.73882
499.064	340.77095
499.545	316.7241
500.026	297.67388
500.507	311.72393
500.988	343.84502
501.469	326.81334
501.949	303.74678
502.43	342.81345
502.91	320.6795
503.39	252.62579
503.87	323.76694
504.35	307.71828
504.83	315.70106
505.31	261.63285
505.79	298.72105
506.269	300.70836
506.749	247.57452
507.228	304.72198
507.707	253.57289
508.187	195.46911
508.666	247.61595
509.145	290.69032
509.623	273.6425
510.102	292.70999
510.581	237.57186
511.059	253.63958
511.538	223.57657
512.016	301.72982
512.494	280.68413
512.972	217.52539
513.45	262.62368
513.928	257.63832
514.406	275.67903
514.884	276.71147
515.361	253.61806
515.839	246.57659
516.316	269.6569
516.793	249.63306
517.27	195.47692
517.747	242.62622
518.224	299.70395
518.701	318.7281
519.178	186.46796
519.654	241.57997
520.131	222.55452
520.607	193.48531
521.083	226.53117
521.56	265.64207
522.036	276.62179
522.512	212.52321
522.987	226.55139
523.463	209.51343
523.939	277.68246
524.414	226.53304
524.89	216.52385
525.365	254.59301
525.84	267.6542
526.315	230.56825
526.79	210.4903
527.265	240.56957
527.74	239.59016
528.215	238.5772
528.689	246.56327
529.164	184.41505
529.638	220.57441
530.112	211.51528
530.587	208.4663
531.061	193.47973
531.534	197.4836
532.008	244.60018
532.482	149.35069
532.956	128.33525
533.429	203.50256
533.903	195.44462
534.376	205.46817
534.849	223.53218
535.322	209.50678
535.795	192.47959
536.268	144.35579
536.741	168.41432
537.213	227.53737
537.686	195.48981
538.158	212.48971
538.631	137.34141
539.103	206.48304
539.575	149.32461
540.047	164.37613
540.519	210.5156
540.991	191.47632
541.463	238.5865
541.934	212.50138
542.406	188.46364
542.877	233.54773
543.348	184.45711
543.82	156.39024
544.291	197.47086
544.762	180.43885
545.233	161.41484
545.703	170.39442
546.174	208.49876
546.645	215.5309
547.115	291.71378
547.585	203.48074
548.056	241.60164
548.526	273.66169
548.996	233.56815
549.466	230.56721
549.935	264.63856
550.405	215.49002
550.875	237.57272
551.344	260.63717
551.814	284.66877
552.283	228.50609
552.752	236.5674
553.221	306.69669
553.69	314.70391
554.159	285.71352
554.628	297.68235
555.096	320.81912
555.565	289.66503
556.033	289.68781
556.502	251.61865
556.97	237.54299
557.438	223.54072
557.906	252.60816
558.374	201.47821
558.842	186.45651
559.31	226.52454
559.777	203.50275
560.245	237.57294
560.712	247.59125
561.18	303.69808
561.647	234.54246
562.114	249.58602
562.581	262.65228
563.048	233.55413
563.514	222.55752
563.981	228.53671
564.448	305.701
564.914	312.7384
565.381	306.70822
565.847	322.76589
566.313	332.78451
566.779	316.71596
567.245	331.78593
567.711	346.83811
568.176	340.77971
568.642	345.86773
569.108	374.92086
569.573	490.14392
570.038	466.99465
570.504	434.96485
570.969	502.23404
571.434	490.08641
571.899	567.31228
572.363	532.18457
572.828	600.31522
573.293	605.33761
573.757	590.29708
574.222	664.43672
574.686	673.46644
575.15	654.48059
575.614	707.52953
576.078	692.54827
576.542	779.64811
577.006	710.5115
577.469	771.75657
577.933	850.78004
578.396	741.62768
578.86	802.74443
579.323	777.74034
579.786	828.65071
580.249	807.72969
580.712	759.7174
581.175	804.82183
581.637	752.58852
582.1	778.59973
582.563	753.50553
583.025	808.80423
583.487	763.46288
583.95	762.56398
584.412	777.53421
584.874	700.57903
585.336	693.54447
585.797	685.40861
586.259	699.54886
586.721	687.51972
587.182	674.47327
587.643	649.40334
588.105	644.45734
588.566	603.21748
589.027	625.44493
589.488	607.33254
589.949	631.45074
590.41	590.13204
590.87	582.26446
591.331	564.17275
591.791	635.41802
592.252	539.21331
592.712	558.28402
593.172	577.27138
593.632	609.29653
594.092	564.22686
594.552	608.26943
595.011	524.17829
595.471	495.07723
595.931	514.12078
596.39	558.30341
596.849	558.26254
597.308	552.1712
597.768	565.39088
598.227	551.2636
598.685	541.18747
599.144	542.22878
599.603	625.4209
600.062	620.27735
600.52	588.27318
600.978	561.27474
601.437	687.46533
601.895	623.26714
602.353	657.37764
602.811	716.51768
603.269	751.68001
603.727	758.7002
604.184	806.69897
604.642	774.75596
605.099	823.74355
605.557	855.89548
606.014	828.67362
606.471	962.14893
606.928	953.87871
607.385	994.18317
607.842	1016.0207
608.299	1102.23257
608.755	1118.32455
609.212	1153.17152
609.668	1187.25205
610.125	1225.47931
610.581	1268.47177
611.037	1272.39105
611.493	1252.4474
611.949	1318.69249
612.405	1320.14982
612.861	1325.53521
613.316	1395.6937
613.772	1465.68218
614.227	1376.6563
614.683	1408.39103
615.138	1424.66595
615.593	1423.64913
616.048	1496.65
616.503	1446.81155
616.958	1461.94148
617.412	1458.72847
617.867	1467.55772
618.321	1520.42877
618.776	1428.52119
619.23	1465.70354
619.684	1473.61107
620.138	1450.64338
620.592	1476.84575
621.046	1391.59826
621.5	1447.8353
621.954	1403.51964
622.407	1344.41877
622.861	1308.60618
623.314	1282.38761
623.768	1292.48197
624.221	1213.01137
624.674	1205.32275
625.127	1253.41778
625.58	1238.32923
626.033	1187.16615
626.485	1125.3066
626.938	1153.3207
627.39	1151.28392
627.843	1104.18998
628.295	1013.0273
628.747	1124.2772
629.199	1038.05023
629.651	1062.09578
630.103	1079.14476
630.555	980.81521
631.006	1022.08151
631.458	978.03851
631.909	946.89496
632.361	931.92963
632.812	931.92534
633.263	892.71187
633.714	894.6943
634.165	908.9859
634.616	887.90288
635.067	812.61578
635.518	815.75885
635.968	850.52239
636.419	847.65778
636.869	769.66235
637.319	766.62235
637.769	822.68119
638.219	746.60401
638.669	774.68847
639.119	841.86135
639.569	790.72703
640.019	762.59982
640.468	795.60868
640.918	759.65259
641.367	731.51007
641.816	798.63427
642.265	791.65675
642.714	715.5205
643.163	856.79103
643.612	810.81019
644.061	843.64839
644.51	880.83723
644.958	759.53365
645.406	786.72045
645.855	810.80573
646.303	797.68476
646.751	845.75749
647.199	806.66108
647.647	838.73944
648.095	871.81642
648.543	871.59812
648.99	816.74712
649.438	887.8588
649.885	876.94244
650.333	938.61333
650.78	890.94653
651.227	928.03299
651.674	861.75032
652.121	820.79716
652.568	886.93615
653.015	877.96194
653.461	875.86344
653.908	824.74225
654.354	818.75065
654.801	814.73833
655.247	904.77158
655.693	854.01186
656.139	836.81687
656.585	797.72511
657.031	794.7051
657.477	775.54742
657.922	842.76095
658.368	815.81875
658.813	798.66076
659.259	788.73352
659.704	785.65865
660.149	835.77821
660.594	864.84756
661.039	820.69222
661.484	799.71548
661.929	791.68008
662.373	806.87571
662.818	869.95121
663.262	843.83171
663.707	792.82433
664.151	842.8539
664.595	802.74369
665.039	838.88199
665.483	856.96392
665.927	849.78615
666.371	855.79248
666.814	820.7655
667.258	888.91931
667.701	905.7156
668.145	921.02397
668.588	899.94929
669.031	895.9077
669.474	934.98441
669.917	940.81452
670.36	952.09347
670.803	929.95114
671.245	950.75954
671.688	983.06656
672.13	990.9449
672.573	918.02788
673.015	1013.12134
673.457	1034.9373
673.899	1022.11345
674.341	1000.09729
674.783	969.0264
675.225	948.02902
675.666	1055.22102
676.108	1047.93333
676.549	1049.11587
676.991	1049.01175
677.432	1116.91851
677.873	1059.07573
678.314	1101.2361
678.755	1024.15333
679.196	1087.11875
679.637	1082.22875
680.078	1039.06128
680.518	1070.10668
680.959	1077.22388
681.399	1092.32152
681.839	1031.1534
682.28	1040.21183
682.72	1081.11696
683.16	1037.19545
683.6	1084.0656
684.039	1090.90055
684.479	1061.23853
684.919	1052.11468
685.358	1062.29955
685.798	1180.58965
686.237	1147.32124
686.676	1120.14363
687.115	1067.1189
687.554	1139.24856
687.993	1183.13826
688.432	1170.21918
688.871	1072.08797
689.309	1105.21683
689.748	1184.97869
690.186	1208.3435
690.625	1169.25212
691.063	1174.34741
691.501	1238.47218
691.939	1160.39707
692.377	1202.40569
692.815	1226.40996
693.253	1270.47218
693.69	1250.23298
694.128	1271.52362
694.565	1266.43075
695.003	1284.64413
695.44	1316.48122
695.877	1320.50086
696.314	1307.19307
696.751	1310.3418
697.188	1351.45546
697.625	1277.32631
698.061	1323.55316
698.498	1401.63107
698.934	1373.62728
699.371	1408.61533
699.807	1400.58126
700.243	1375.63111
700.679	1388.45782
701.115	1443.59179
701.551	1450.63017
701.987	1441.50692
702.422	1448.6912
702.858	1485.68648
703.294	1446.49662
703.729	1441.75114
704.164	1494.76746
704.599	1481.50705
705.035	1479.57607
705.47	1473.8339
705.904	1522.74194
706.339	1504.56735
706.774	1561.74378
707.209	1515.6625
707.643	1579.86017
708.078	1624.00657
708.512	1562.00787
708.946	1591.79536
709.38	1593.79457
709.814	1579.65552
710.248	1605.88562
710.682	1611.86138
711.116	1569.86907
711.549	1592.0774
711.983	1615.75883
712.416	1662.86446
712.85	1627.03949
713.283	1587.82429
713.716	1644.03182
714.149	1598.78963
714.582	1634.7126
715.015	1621.96751
715.448	1626.04279
715.881	1603.50725
716.313	1660.84899
716.746	1626.85353
717.178	1577.83504
717.61	1583.9783
718.043	1623.98445
718.475	1562.81433
718.907	1669.09253
719.339	1618.72379
719.77	1563.80123
720.202	1601.02421
720.634	1623.98888
721.065	1622.85235
721.497	1604.93261
721.928	1545.89955
722.359	1592.94098
722.79	1623.95055
723.221	1561.94246
723.652	1562.9977
724.083	1608.71409
724.514	1583.7038
724.945	1572.77534
725.375	1652.88148
725.806	1498.82268
726.236	1527.96449
726.666	1514.71645
727.096	1585.92872
727.526	1547.99916
727.956	1577.65214
728.386	1537.85089
728.816	1580.011
729.246	1593.94355
729.675	1581.95294
730.105	1491.74898
730.534	1511.67053
730.964	1547.92304
731.393	1486.7702
731.822	1545.99668
732.251	1531.93598
732.68	1545.68047
733.109	1499.80066
733.537	1597.87697
733.966	1629.04621
734.395	1586.69964
734.823	1600.58798
735.251	1548.83686
735.68	1639.02628
736.108	1593.99427
736.536	1576.73529
736.964	1584.73204
737.392	1610.99631
737.82	1533.77091
738.247	1517.72255
738.675	1629.82859
739.102	1540.93854
739.53	1558.01575
739.957	1523.00681
740.384	1573.84639
740.811	1533.92026
741.238	1602.90565
741.665	1509.61492
742.092	1575.79139
742.519	1542.88758
742.945	1523.76384
743.372	1579.94488
743.798	1583.06643
744.225	1563.77001
744.651	1551.93203
745.077	1570.9359
745.503	1534.80691
745.929	1532.75725
746.355	1519.84368
746.781	1559.89894
747.207	1533.76533
747.632	1551.9052
748.058	1618.99654
748.483	1579.68978
748.908	1588.93211
749.334	1627.96524
749.759	1517.65364
750.184	1575.81712
750.609	1628.96485
751.033	1531.69216
751.458	1640.63558
751.883	1561.88989
752.307	1601.80288
752.732	1525.94808
753.156	1595.97337
753.58	1588.80375
754.005	1515.89417
754.429	1574.76319
754.853	1530.86364
755.277	1512.65651
755.7	1578.93655
756.124	1602.96534
756.548	1573.80353
756.971	1456.67559
757.394	1613.1203
757.818	1546.00091
758.241	1522.94019
758.664	1592.03104
759.087	1556.59618
759.51	1588.92345
759.933	1533.80159
760.356	1499.92096
760.778	1587.95696
761.201	1544.81685
761.623	1543.76382
762.046	1531.71162
762.468	1517.67154
762.89	1567.8597
763.312	1614.94657
763.734	1483.70986
764.156	1521.8419
764.578	1592.71136
765	1572.87244
765.421	1440.85379
765.843	1463.95086
766.264	1470.69605
766.686	1409.71178
767.107	1441.66698
767.528	1455.86163
767.949	1436.83404
768.37	1405.62578
768.791	1436.67276
769.212	1419.7946
769.632	1374.50682
770.053	1372.86308
770.473	1322.53732
770.894	1391.68087
771.314	1350.4678
771.734	1306.41454
772.154	1317.65609
772.575	1261.30167
772.994	1306.33343
773.414	1341.50704
773.834	1247.52161
774.254	1280.53976
774.673	1218.38304
775.093	1212.43685
775.512	1198.38888
775.931	1176.44095
776.351	1183.39745
776.77	1176.35789
777.189	1058.09953
777.607	1130.392
778.026	1056.22748
778.445	1058.24724
778.864	1114.3673
779.282	1027.0903
779.701	1032.1806
780.119	1036.27357
780.537	1011.1552
780.955	976.09081
781.373	964.0332
781.791	953.82868
782.209	975.88801
782.627	926.14452
783.045	928.85373
783.462	918.04301
783.88	829.89706
784.297	824.83695
784.715	812.86076
785.132	835.79665
785.549	850.88088
785.966	775.73657
786.383	754.66146
786.8	761.57772
787.217	752.59822
787.633	716.62039
788.05	715.50468
788.466	620.30311
788.883	660.53225
789.299	647.42045
789.715	632.4174
790.131	622.43429
790.547	617.3993
790.963	657.49672
791.379	596.39335
791.795	617.28341
792.21	500.09112
792.626	529.16353
793.041	549.27258
793.457	580.33417
793.872	505.11066
794.287	484.09754
794.702	487.12199
795.117	477.12724
795.532	468.11766
795.947	447.01575
796.362	500.12103
796.776	432.94486
797.191	445.03931
797.605	445.01773
798.02	400.93305
798.434	329.70333
798.848	386.923
799.262	428.02392
799.676	339.79406
800.09	392.94271
800.504	309.72607
800.918	373.84388
801.331	275.69519
801.745	324.72572
802.158	281.68926
802.572	251.59326
802.985	317.74138
803.398	330.76436
803.811	278.68631
804.224	263.63459
804.637	262.62033
805.05	257.58218
805.462	292.69882
805.875	198.51167
806.288	285.68168
806.7	249.61778
807.112	161.37051
807.525	250.60561
807.937	201.49342
808.349	219.54237
808.761	240.58292
809.173	192.46268
809.584	191.4661
809.996	204.49939
810.408	179.46282
810.819	184.43735
811.231	203.53211
811.642	239.58191
812.053	288.69266
812.464	321.75456
812.875	215.5445
813.286	185.47535
813.697	210.48683
814.108	170.414
814.519	149.33273
814.929	190.47957
815.34	221.5397
815.75	157.40116
816.16	151.37548
816.571	90.23364
816.981	134.31692
817.391	205.49559
817.801	177.44556
818.211	114.27056
818.62	164.40059
819.03	141.34563
819.44	135.35051
819.849	119.29914
820.259	87.22223
820.668	124.30975
821.077	149.37522
821.486	142.34194
821.895	128.31428
822.304	94.25087
822.713	144.34491
823.122	125.31422
823.531	96.23327
823.939	111.27481
824.348	109.26956
824.756	136.34353
825.164	119.29882
825.573	141.36129
825.981	111.27662
826.389	121.30711
826.797	59.14869
827.205	82.19401
827.612	131.3267
828.02	76.18329
828.428	88.22766
828.835	90.23932
829.243	155.37444
829.65	46.11694
830.057	92.22765
830.464	62.15381
830.871	104.25148
831.278	70.17137
831.685	74.16972
832.092	120.29823
832.499	89.19858
832.905	80.20445
833.312	93.21667
833.718	66.16731
834.124	68.15802
834.531	121.30515
834.937	20.05158
835.343	109.26669
835.749	47.11054
836.155	86.22647
836.561	104.26026
836.966	86.21319
837.372	90.23146
837.777	105.26622
838.183	58.1311
838.588	7.01763
838.993	60.14825
839.399	43.10751
839.804	43.10724
840.209	116.30061
840.613	64.14643
841.018	47.12026
841.423	67.17366
841.828	88.22663
842.232	106.26296
842.637	121.28988
843.041	55.14442
843.445	53.13543
843.849	54.13562
844.253	95.22924
844.657	80.20546
845.061	83.19322
845.465	77.18952
845.869	111.26227
846.272	79.19666
846.676	37.09063
847.079	56.14637
847.483	81.20259
847.886	60.14569
848.289	36.09779
848.692	69.17705
849.095	114.27815
849.498	34.08656
849.901	37.08664
850.304	62.1519
850.707	58.14891
851.109	70.17713
851.512	72.18135
851.914	71.18498
852.316	36.09165
852.718	9.02392
853.121	78.19428
853.523	85.20496
853.925	47.12554
854.326	27.06863
854.728	69.18082
855.13	85.22373
855.531	72.1777
855.933	55.13257
856.334	31.0793
856.736	53.12285
857.137	69.16329
857.538	54.13946
857.939	74.18779
858.34	59.14602
858.741	36.09544
859.142	95.23166
859.542	44.1184
859.943	59.14874
860.343	26.06603
860.744	92.22606
861.144	-7.01736
861.544	48.11947
861.945	99.25713
862.345	58.14373
862.745	68.17372
863.145	72.17371
863.544	17.04384
863.944	13.03129
864.344	77.19308
864.743	21.05277
865.143	39.10203
865.542	66.15694
865.941	69.17482
866.34	53.129
866.74	36.09747
867.139	83.20421
867.537	69.1773
867.936	75.18426
868.335	29.07537
868.734	95.24818
869.132	93.22136
869.531	36.08767
869.929	63.14903
870.327	22.05452
870.726	36.09032
871.124	65.15584
871.522	49.12705
871.92	73.18344
872.318	33.08236
872.715	15.03746
873.113	64.15987
873.511	96.24465
873.908	62.16139
874.306	69.17606
874.703	40.10144
875.1	52.13443
875.497	124.30277
875.894	59.14911
876.291	60.14912
876.688	82.21638
877.085	30.07309
877.482	55.13945
877.878	25.06199
878.275	56.14533
878.671	59.13448
879.068	68.1666
879.464	10.02479
879.86	7.01702
880.256	46.11528
880.652	39.10112
881.048	46.1152
881.444	-4.00968
881.84	50.12882
882.236	47.11967
882.631	113.28252
883.027	47.11487
883.422	13.03387
883.817	107.27628
884.213	52.13615
884.608	22.05575
885.003	71.17565
885.398	95.24334
885.793	66.16749
886.188	61.15631
886.582	23.05922
886.977	80.19301
887.371	40.10144
887.766	35.0895
888.16	73.18403
888.554	40.09963
888.949	64.16178
889.343	49.12092
889.737	86.23398
890.131	51.12885
890.525	63.16284
890.918	48.12164
891.312	28.06748
891.706	-13.03432
892.099	33.08438
892.492	54.12037
892.886	11.02744
893.279	72.18659
893.672	-9.02311
894.065	26.06614
894.458	65.16726
894.851	73.18067
895.244	30.0778
895.637	55.13562
896.029	-3.00752
896.422	55.13607
896.814	26.06579
897.206	-8.01967
897.599	33.0823
897.991	29.0713
898.383	100.24235
898.775	60.13827
899.167	44.1062
899.559	55.14054
899.951	46.11048
900.342	51.13018
900.734	52.13346
901.125	82.21638
901.517	33.08325
901.908	73.17635
902.299	121.30285
902.69	55.13317
903.082	72.17653
903.473	62.15285
903.863	75.19332
904.254	64.15324
904.645	71.17867
905.036	18.04501
905.426	80.18451
905.817	34.08561
906.207	22.05434
906.597	23.05477
906.987	80.20911
907.378	-10.02572
907.768	52.13929
908.158	46.11424
908.547	28.07401
908.937	5.01297
909.327	62.15403
909.717	74.18799
910.106	-7.01728
910.495	66.16695
910.885	75.19299
911.274	56.14196
911.663	46.11715
912.052	24.05987
912.441	-9.02329
912.83	40.09482
913.219	54.1422
913.608	80.19737
913.997	18.04645
914.385	43.10408
914.774	25.06212
915.162	12.02965
915.55	49.12029
915.939	31.0798
916.327	15.03772
916.715	34.08811
917.103	14.03496
917.491	18.04501
917.878	33.08143
918.266	-22.05772
918.654	97.25133
919.041	23.06146
919.429	3.00732
919.816	38.09722
920.203	13.03246
920.591	23.0579
920.978	-26.06452
921.365	13.03476
921.752	30.07363
922.139	78.17472
922.525	68.16814
922.912	25.06196
923.299	47.11929
923.685	43.11413
924.072	31.07214
924.458	38.09588
924.844	34.08619
925.231	34.08138
925.617	36.09371
926.003	23.05968
926.389	32.08236
926.774	57.14636
927.16	68.17109
927.546	16.04212
927.931	68.17183
928.317	12.02819
928.702	26.06237
929.088	36.08787
929.473	42.10821
929.858	17.04254
930.243	58.14231
930.628	88.2195
931.013	73.18384
931.398	58.13489
931.783	62.16333
932.167	64.16068
932.552	11.02786
932.937	67.16764
933.321	37.09494
933.705	40.10298
934.09	30.07616
934.474	44.10616
934.858	36.09474
935.242	39.09311
935.626	57.14896
936.009	-6.01606
936.393	64.1642
936.777	35.09125
937.16	58.15155
937.544	48.1144
937.927	101.25998
938.311	80.19614
938.694	44.11685
939.077	26.06377
939.46	-18.04421
939.843	119.2554
940.226	77.19937
940.609	103.2444
940.991	50.12931
941.374	1.00252
941.757	70.17334
942.139	97.22537
942.522	34.08125
942.904	68.16604
943.286	17.04364
943.668	57.14967
944.05	37.09311
944.432	72.18206
944.814	31.07692
945.196	55.13831
945.578	40.09945
945.959	39.09375
946.341	36.08784
946.722	40.09563
947.104	49.11971
947.485	48.11423
947.866	54.14042
948.247	-26.06684
948.628	38.09337
949.009	48.12551
949.39	60.15069
949.771	77.18229
950.152	35.0883
950.532	27.0688
950.913	29.07146
951.293	47.12884
951.674	106.26411
952.054	94.2382
952.434	38.09568
952.814	53.12857
953.194	0
953.574	10.02487
953.954	57.13806
954.334	44.11186
954.714	13.03269
955.093	48.11895
955.473	27.06855
955.853	-3.00789
956.232	21.05766
956.611	71.1721
956.99	42.10824
957.37	35.09094
957.749	65.15851
958.128	79.203
958.506	71.18839
958.885	39.10063
959.264	59.1497
959.643	48.11115
960.021	28.07128
960.4	49.11452
960.778	44.10999
961.156	75.19151
961.535	54.12791
961.913	87.2066
962.291	76.20034
962.669	20.05133
963.047	23.05941
963.424	17.04409
963.802	49.12331
964.18	99.25065
964.557	44.1037
964.935	57.13749
965.312	11.02906
965.69	10.02533
966.067	60.14901
966.444	35.0871
966.821	41.1066
967.198	60.147
967.575	1.00248
967.952	66.15749
968.329	32.07968
968.705	28.06143
969.082	41.10748
969.458	42.10457
969.835	50.12336
970.211	51.13383
970.587	33.0834
970.963	40.10359
971.339	26.06909
971.715	27.06855
972.091	100.24808
972.467	51.12912
972.843	18.04571
973.219	23.05561
973.594	72.19228
973.97	33.07975
974.345	31.07624
974.721	1.00245
975.096	28.06916
975.471	57.1377
975.846	53.12905
976.221	60.15619
976.596	58.14252
976.971	68.16956
977.346	28.06622
977.72	40.10384
978.095	75.19607
978.469	24.0583
978.844	14.0355
979.218	21.05146
979.593	35.08522
979.967	49.12123
980.341	43.10089
980.715	43.11049
981.089	33.08308
981.463	90.2136
981.837	47.11768
982.21	69.16209
982.584	75.18405
982.957	13.03343
983.331	51.12311
983.704	6.01484
984.078	30.07583
984.451	29.07248
984.824	43.10728
985.197	35.08634
985.57	21.05364
985.943	65.16057
986.316	49.1218
986.688	39.09528
987.061	62.1493
987.434	51.13446
987.806	38.09413
988.179	68.16449
988.551	81.20777
988.923	25.06278
989.295	1.0025
989.667	68.16709
990.039	43.10914
990.411	68.15933
990.783	37.08692
991.155	63.15712
991.527	70.1722
991.898	23.05881
992.27	-17.04309
992.641	79.19866
993.012	79.18818
993.384	46.11098
993.755	41.10689
994.126	42.10255
994.497	49.12287
994.868	57.13442
995.239	46.11282
995.61	32.0825
995.98	35.0877
996.351	26.06575
996.722	86.20584
997.092	-21.05171
997.462	44.10624
997.833	63.15093
998.203	27.06631
998.573	34.08591
998.943	46.11102
999.313	23.05684
999.683	96.23589
1000.053	69.16253
1000.423	54.1321
1000.792	35.09271
1001.162	32.07985
1001.531	82.20454
1001.901	43.11042
1002.27	59.13486
1002.639	44.1147
1003.009	39.09404
1003.378	9.02327
1003.747	60.1458
1004.116	51.12488
1004.485	46.11111
1004.853	84.21415
1005.222	2.00511
1005.591	71.17042
1005.959	46.10795
1006.328	67.15443
1006.696	61.15125
1007.064	63.15962
1007.433	26.06591
1007.801	23.05694
1008.169	-20.05124
1008.537	48.10925
1008.905	49.11757
1009.273	33.08203
1009.64	55.13552
1010.008	70.17029
1010.375	8.01926
1010.743	103.23817
1011.11	63.15271
1011.478	10.02518
1011.845	74.1759
1012.212	79.18355
1012.579	12.02991
1012.946	91.21793
1013.313	39.09379
1013.68	43.09852
1014.047	52.12744
1014.414	20.04878
1014.78	36.09045
1015.147	11.02685
1015.513	52.12778
1015.88	18.04624
1016.246	12.02969
1016.612	39.09015
1016.978	63.15649
1017.344	58.14635
1017.71	28.06842
1018.076	77.18285
1018.442	4.01038
1018.808	20.0511
1019.174	72.18349
1019.539	56.12828
1019.905	17.04115
1020.27	35.08861
1020.636	67.16259
1021.001	37.08989
1021.366	9.02225
1021.731	23.05933
1022.096	-4.01038
1022.461	64.15377
1022.826	43.10392
1023.191	19.05045
1023.556	51.12265
1023.92	26.06457
1024.285	52.12881
1024.649	70.17391
1025.014	68.17054
1025.378	61.15559
1025.742	54.1366
1026.107	21.04848
1026.471	19.0447
1026.835	51.12931
1027.199	57.14277
1027.562	53.12552
1027.926	28.06951
1028.29	73.18817
1028.654	88.20539
1029.017	42.10381
1029.381	52.12678
1029.744	19.04896
1030.107	44.10555
1030.471	5.01214
1030.834	62.14288
1031.197	37.08949
1031.56	8.01927
1031.923	30.07858
1032.286	59.14016
1032.648	91.22141
1033.011	-32.07571
1033.374	20.04754
1033.736	31.08297
1034.099	78.19371
1034.461	12.03077
1034.823	16.04052
1035.185	32.08184
1035.548	82.2029
1035.91	40.09771
1036.272	20.0462
1036.634	34.08364
1036.995	79.18984
1037.357	62.1533
1037.719	-3.00738
1038.08	46.11048
1038.442	12.02909
1038.803	48.11664
1039.165	82.21074
1039.526	-4.00991
1039.887	47.11487
1040.248	-22.05569
1040.609	25.06203
1040.97	50.12485
1041.331	64.16351
1041.692	65.15768
1042.053	61.14195
1042.413	58.13755
1042.774	38.09362
1043.134	47.11414
1043.495	24.06093
1043.855	62.15223
1044.215	70.17657
1044.576	77.18945
1044.936	55.12819
1045.296	68.17109
1045.656	-10.02495
1046.016	20.04887
1046.375	-7.01729
1046.735	15.03522
1047.095	48.11432
1047.454	65.14035
1047.814	67.16314
1048.173	50.11803
1048.533	-23.05441
1048.892	50.12368
1049.251	101.25453
1049.61	23.05767
1049.969	89.21533
1050.328	39.08677
1050.687	25.06187
1051.046	-14.03462
1051.405	80.20258
1051.763	30.07106
1052.122	34.08631
1052.48	-11.02729
1052.839	25.06021
1053.197	47.11337
1053.555	-11.02503
1053.914	-22.05458
1054.272	27.06552
1054.63	88.21919
1054.988	49.11913
1055.345	69.15198
1055.703	74.17928
1056.061	23.05992
1056.419	39.10217
1056.776	57.13812
1057.134	32.07601
1057.491	27.06838
1057.848	10.02511
1058.206	43.10333
1058.563	31.07006
1058.92	33.07661
1059.277	38.09472
1059.634	46.10964
1059.991	100.24117
1060.348	27.06315
1060.704	28.0686
1061.061	71.16574
1061.418	-26.06464
1061.774	35.08802
1062.131	26.07015
1062.487	54.1288
1062.843	25.06291
1063.199	34.08659
1063.555	64.15242
1063.911	27.06851
1064.267	96.20163
1064.623	38.09424
1064.979	74.1763
1065.335	40.09632
1065.691	29.07046
1066.046	-12.02658
1066.402	52.12227
1066.757	29.07384
1067.112	19.04709
1067.468	103.25258
1067.823	104.25281
1068.178	32.07814
1068.533	72.17672
1068.888	42.10145
1069.243	40.10006
1069.598	61.15047
1069.952	33.0771
1070.307	59.15012
1070.662	35.08436
1071.016	-1.00232
1071.371	-2.00467
1071.725	67.16149
1072.079	40.09705
1072.434	15.03748
1072.788	57.13848
1073.142	99.24564
1073.496	56.1347
1073.85	31.07262
1074.203	125.30868
1074.557	40.10767
1074.911	35.08388
1075.265	60.14147
1075.618	33.08104
1075.971	49.11829
1076.325	57.14688
1076.678	26.06183
1077.031	51.11873
1077.385	86.19431
1077.738	63.14568
1078.091	19.04479
1078.444	69.1624
1078.796	30.0744
1079.149	45.11276
1079.502	69.16851
1079.855	25.06014
1080.207	110.27119
1080.56	14.03673
1080.912	11.02715
1081.264	38.09317
1081.617	84.2093
1081.969	58.14958
1082.321	6.01488
1082.673	33.07818
1083.025	53.12842
1083.377	-121.27723
1083.728	29.06847
1084.08	1.00254
1084.432	58.14247
1084.783	45.10682
1085.135	51.12967
1085.486	76.17968
1085.838	70.1748
1086.189	16.0394
1086.54	63.15162
1086.891	53.13662
1087.242	27.06631
1087.593	45.11072
1087.944	43.09844
1088.295	62.14317
1088.646	95.23365
1088.996	-12.02965
1089.347	34.08487
1089.698	21.05108
1090.048	9.0234
1090.398	42.09837
1090.749	81.19612
1091.099	93.24047
1091.449	67.1683
1091.799	37.09428
1092.149	32.08135
1092.499	52.12825
1092.849	66.17045
1093.199	3.00758
1093.548	55.13512
1093.898	46.11686
1094.248	15.03896
1094.597	79.20681
1094.947	25.06724
1095.296	49.12203
1095.645	54.14134
1095.994	64.15452
1096.343	34.08665
1096.692	102.2759
1097.041	-33.09055
1097.39	97.24716
1097.739	46.12065
1098.088	89.23882
1098.437	25.06695
1098.785	25.06739
1099.134	71.18826
1099.482	27.07507
1099.83	33.08689
1100.179	34.09092
1100.527	37.0988
1100.875	20.05362
1101.223	30.08033
1101.571	40.11148
1101.919	18.04848
1102.267	28.07931
1102.615	10.03224
1102.962	7.02253
1103.31	6.01933
1103.658	16.05159
