Data from N2 R0 150C sample5_Subt2__2__13-20-17-642.txt Node

Date: Tue Aug 19 13:20:17 PDT 2025
User: uwsun
Spectrometer: HDX01956
Trigger mode: 0
Integration Time (sec): 5.000000E-1
Scans to average: 1
Nonlinearity correction enabled: true
Boxcar width: 0
Storing dark spectrum: false
XAxis mode: Wavelengths
Number of Pixels in Spectrum: 2068
>>>>>Begin Spectral Data<<<<<
194.03	94.27241
194.578	73.23633
195.127	98.31224
195.676	80.25636
196.225	135.36794
196.773	132.37355
197.321	206.58027
197.87	265.69859
198.418	221.58046
198.966	250.66846
199.513	207.53168
200.061	232.60656
200.609	257.68797
201.156	223.50804
201.704	266.68855
202.251	239.64988
202.798	262.69405
203.345	220.55984
203.892	239.61643
204.438	202.50091
204.985	267.65856
205.532	226.60849
206.078	253.63753
206.624	262.66198
207.17	250.59946
207.716	240.6012
208.262	213.44174
208.808	237.60873
209.354	216.54558
209.899	218.56042
210.445	256.65671
210.99	213.53617
211.535	268.65141
212.08	273.65995
212.625	253.65004
213.17	278.71488
213.715	266.62785
214.259	251.60335
214.804	226.56961
215.348	215.50857
215.892	198.49099
216.436	258.61511
216.98	335.76162
217.524	194.47668
218.068	281.72649
218.612	273.69872
219.155	278.66887
219.698	262.64016
220.242	221.56446
220.785	230.55214
221.328	230.58321
221.871	216.55489
222.414	264.6675
222.956	237.59401
223.499	241.56057
224.041	234.5611
224.583	182.40567
225.126	189.43476
225.668	181.45334
226.21	208.53584
226.751	236.53994
227.293	300.70507
227.835	267.66822
228.376	283.66343
228.918	270.69116
229.459	245.62399
230	195.47816
230.541	259.6221
231.082	135.33655
231.622	229.54126
232.163	215.53655
232.704	243.61124
233.244	197.50176
233.784	221.55312
234.324	231.53604
234.864	211.4964
235.404	245.59473
235.944	231.55991
236.484	235.59112
237.023	237.57898
237.563	223.53137
238.102	175.42419
238.641	230.59353
239.18	242.5858
239.719	213.54633
240.258	254.58835
240.797	283.69262
241.335	260.64801
241.874	284.5778
242.412	244.60593
242.95	209.51685
243.488	258.6085
244.026	199.47418
244.564	246.52762
245.102	248.574
245.64	239.5843
246.177	276.63778
246.715	298.72594
247.252	258.60826
247.789	262.51724
248.326	284.70035
248.863	276.62916
249.4	231.54303
249.936	216.46368
250.473	258.62052
251.009	257.6119
251.546	238.54386
252.082	280.6308
252.618	239.54867
253.154	271.6694
253.69	223.51686
254.226	250.60948
254.761	300.69874
255.297	249.56016
255.832	236.56977
256.367	306.73539
256.903	185.42063
257.438	262.62751
257.972	294.67532
258.507	247.589
259.042	278.62808
259.576	272.61353
260.111	257.60861
260.645	258.57053
261.179	230.55193
261.713	298.68505
262.247	288.68214
262.781	285.62062
263.315	283.70775
263.849	261.66708
264.382	243.57212
264.915	271.65759
265.449	281.7106
265.982	334.77546
266.515	228.56599
267.048	306.67609
267.58	303.67967
268.113	234.52847
268.646	286.71847
269.178	231.53731
269.71	278.62834
270.243	283.6585
270.775	231.59559
271.307	253.62013
271.838	297.70549
272.37	235.59048
272.902	258.60283
273.433	235.52715
273.965	242.60249
274.496	265.6613
275.027	283.7103
275.558	305.74866
276.089	290.72931
276.62	277.71094
277.15	234.58195
277.681	275.61941
278.211	184.45428
278.741	259.59291
279.272	255.59804
279.802	295.73881
280.332	316.7548
280.861	313.76176
281.391	222.52137
281.921	303.7388
282.45	352.87945
282.98	312.81399
283.509	274.62863
284.038	305.70885
284.567	196.46856
285.096	326.7962
285.625	286.66955
286.153	295.69831
286.682	298.696
287.21	318.77493
287.739	295.71339
288.267	307.75162
288.795	273.71069
289.323	314.75461
289.851	355.84258
290.378	291.67097
290.906	284.70164
291.433	255.64119
291.961	308.71059
292.488	276.69161
293.015	317.76196
293.542	341.8675
294.069	273.67607
294.596	273.67953
295.122	321.77304
295.649	313.70066
296.175	373.9118
296.702	325.78918
297.228	337.81708
297.754	347.80261
298.28	378.86544
298.806	316.76575
299.332	335.75977
299.857	330.75527
300.383	314.79361
300.908	334.81725
301.433	236.582
301.958	338.78072
302.483	324.81186
303.008	373.91552
303.533	312.80368
304.058	353.83654
304.582	338.80764
305.107	328.85776
305.631	304.6994
306.155	323.76428
306.679	315.7393
307.203	388.90294
307.727	329.78479
308.251	322.79724
308.775	375.89551
309.298	356.86653
309.822	365.91604
310.345	408.96963
310.868	350.83759
311.391	337.82719
311.914	354.88573
312.437	373.85486
312.96	352.83144
313.482	353.83654
314.005	371.92607
314.527	383.9935
315.049	348.86569
315.571	433.9744
316.093	412.00763
316.615	427.01978
317.137	397.86887
317.659	439.05448
318.18	390.92402
318.702	372.85957
319.223	430.90589
319.744	452.00658
320.265	427.02172
320.786	448.09098
321.307	413.01102
321.828	491.09788
322.348	430.00716
322.869	485.13556
323.389	479.72355
323.909	452.01946
324.43	438.02553
324.95	469.05809
325.47	424.01781
325.989	490.12734
326.509	480.04961
327.029	463.0241
327.548	465.03152
328.067	534.2546
328.587	507.21394
329.106	455.0026
329.625	467.17377
330.144	491.11592
330.662	479.07189
331.181	527.1911
331.7	504.15314
332.218	615.28662
332.736	602.34508
333.255	546.22282
333.773	548.23938
334.291	534.26287
334.808	590.27697
335.326	633.36228
335.844	627.39091
336.361	610.45779
336.879	621.39357
337.396	612.3916
337.913	616.3407
338.43	647.37754
338.947	619.37827
339.464	639.30681
339.981	647.44127
340.497	618.41658
341.014	648.48184
341.53	590.25195
342.046	653.48282
342.562	715.64072
343.078	717.56042
343.594	702.54422
344.11	670.46822
344.626	707.63464
345.141	691.4503
345.657	716.48004
346.172	746.63765
346.687	734.5579
347.202	676.41472
347.717	772.67417
348.232	763.72156
348.747	770.61593
349.261	795.59254
349.776	779.65744
350.29	792.77286
350.805	857.90227
351.319	846.7701
351.833	809.63704
352.347	761.61351
352.861	799.66321
353.374	793.62292
353.888	765.66566
354.401	846.72955
354.915	835.67893
355.428	875.90206
355.941	872.80124
356.454	913.78125
356.967	852.76225
357.48	890.77857
357.993	885.8994
358.505	817.75941
359.018	917.93858
359.53	968.01408
360.042	925.77572
360.554	911.89822
361.066	914.93518
361.578	1007.85006
362.09	954.93033
362.602	961.81487
363.113	974.94662
363.625	922.79671
364.136	986.84267
364.647	1076.12247
365.158	985.93008
365.669	939.91423
366.18	994.96741
366.691	1032.90889
367.201	1028.06162
367.712	1036.98391
368.222	1023.96321
368.733	1073.97455
369.243	1097.00943
369.753	1169.21674
370.263	1144.23587
370.773	1114.20883
371.282	1161.2175
371.792	1274.35868
372.301	1205.32717
372.811	1176.4334
373.32	1197.02387
373.829	1256.3287
374.338	1302.20769
374.847	1343.36493
375.356	1409.4971
375.865	1382.16052
376.373	1515.46506
376.882	1538.77789
377.39	1539.63653
377.898	1582.7515
378.407	1721.5513
378.915	1716.40348
379.423	1783.73326
379.93	1855.59933
380.438	1968.9575
380.946	2047.86353
381.453	2141.9405
381.96	2225.9016
382.468	2402.94779
382.975	2493.97136
383.482	2536.57855
383.989	2622.19811
384.495	2718.6868
385.002	2866.28361
385.509	3012.76538
386.015	3200.82516
386.521	3340.33957
387.028	3435.15682
387.534	3581.89098
388.04	3684.17645
388.546	3910.76907
389.051	4002.51083
389.557	4375.45196
390.063	4656.2434
390.568	4881.23668
391.073	5031.82856
391.578	5221.04848
392.084	5244.4944
392.589	5254.1923
393.093	5870.33202
393.598	6451.13758
394.103	6868.30788
394.607	7671.01204
395.112	8259.99404
395.616	8757.21357
396.12	9503.10346
396.624	10457.78671
397.128	11146.98339
397.632	12640.71206
398.136	13629.0559
398.639	14343.65887
399.143	15845.58824
399.646	17921.18097
400.15	19749.84199
400.653	21764.64201
401.156	24436.37336
401.659	28155.43905
402.162	34269.16094
402.664	44651.42764
403.167	47835.86139
403.67	22278.45323
404.172	2696.20453
404.674	0
405.176	0
405.678	0
406.18	0
406.682	0
407.184	0
407.686	25783.58453
408.187	43316.52985
408.688	51225.60928
409.19	54389.01922
409.691	56215.4214
410.192	53795.60721
410.693	47096.75739
411.194	42957.53347
411.694	40987.75142
412.195	38699.99324
412.696	35143.12132
413.196	32503.57144
413.696	32134.17392
414.196	32729.14737
414.696	32616.9062
415.196	31276.93524
415.696	28608.61682
416.196	23288.37909
416.695	17846.75714
417.195	14937.61438
417.694	14241.66466
418.194	13616.42844
418.693	12548.31523
419.192	12328.61225
419.691	12010.98552
420.19	11897.88066
420.688	11469.65864
421.187	11048.10725
421.685	10347.78961
422.184	9400.2485
422.682	8107.74462
423.18	6821.3162
423.678	6027.312
424.176	5667.48477
424.674	5114.57117
425.172	5060.03266
425.669	4822.4957
426.167	4483.50157
426.664	4069.76917
427.161	3739.95511
427.659	3489.54952
428.156	3343.93519
428.652	3116.04177
429.149	2923.84554
429.646	2878.43784
430.143	2699.84405
430.639	2525.82639
431.135	2451.13607
431.632	2338.73771
432.128	2069.86796
432.624	2024.13198
433.12	1901.58194
433.616	1858.44868
434.111	1787.68387
434.607	1704.68602
435.103	1690.25676
435.598	1654.23823
436.093	1604.56423
436.588	1478.27348
437.083	1405.25942
437.578	1419.37317
438.073	1322.51191
438.568	1271.35834
439.062	1223.00918
439.557	1183.17074
440.051	1083.94829
440.546	1055.93748
441.04	1110.14788
441.534	1100.26588
442.028	1044.02468
442.522	973.93521
443.015	1042.85572
443.509	991.0087
444.002	987.00694
444.496	960.77015
444.989	929.89297
445.482	924.93595
445.975	940.82577
446.468	944.70503
446.961	928.70335
447.454	881.68788
447.947	857.76272
448.439	827.69944
448.931	868.70094
449.424	834.79335
449.916	866.81277
450.408	784.55565
450.9	783.67606
451.392	785.72439
451.884	794.59017
452.375	798.75553
452.867	782.54518
453.358	780.57002
453.849	749.41803
454.341	782.55745
454.832	734.41769
455.323	727.58019
455.814	771.57358
456.304	663.38045
456.795	699.44453
457.285	661.3189
457.776	676.37915
458.266	666.43124
458.756	633.36812
459.247	642.39853
459.737	687.49255
460.226	680.39549
460.716	680.48327
461.206	636.39774
461.695	601.36298
462.185	597.28141
462.674	660.40068
463.163	579.18018
463.653	633.2454
464.142	565.26724
464.63	610.37697
465.119	530.14596
465.608	620.32999
466.096	559.14193
466.585	516.11992
467.073	529.1757
467.561	463.04963
468.05	511.11823
468.538	499.14831
469.026	522.17187
469.513	634.33842
470.001	455.98527
470.489	495.11685
470.976	532.1596
471.463	449.05687
471.951	446.05041
472.438	450.00791
472.925	427.95815
473.412	429.99733
473.899	424.93049
474.385	409.95873
474.872	437.99586
475.359	400.9477
475.845	435.8856
476.331	359.74951
476.817	394.92123
477.303	364.8257
477.789	352.8266
478.275	326.7879
478.761	363.85625
479.247	375.83319
479.732	384.93012
480.218	298.75827
480.703	355.86039
481.188	312.66829
481.673	310.70579
482.158	325.7029
482.643	290.71619
483.128	307.69882
483.612	314.72471
484.097	290.69218
484.581	275.63257
485.066	322.77442
485.55	343.75292
486.034	233.50696
486.518	279.66045
487.002	303.74486
487.486	258.62804
487.969	270.6624
488.453	172.4329
488.936	245.56447
489.42	220.49138
489.903	265.65699
490.386	275.47006
490.869	262.57429
491.352	271.65586
491.835	244.5161
492.318	287.66649
492.8	209.45029
493.283	259.66127
493.765	248.61361
494.247	217.51151
494.73	230.5188
495.212	244.58975
495.694	210.49895
496.175	220.53535
496.657	243.57902
497.139	235.43269
497.62	207.50174
498.102	202.50694
498.583	182.45938
499.064	268.61659
499.545	226.52724
500.026	205.47383
500.507	218.51676
500.988	241.60491
501.469	182.46593
501.949	201.5047
502.43	201.49104
502.91	200.43581
503.39	158.39909
503.87	257.618
504.35	182.43626
504.83	201.45793
505.31	181.44548
505.79	155.38514
506.269	216.51834
506.749	151.35788
507.228	205.49615
507.707	224.51022
508.187	184.44357
508.666	202.50785
509.145	195.47266
509.623	151.36381
510.102	189.46842
510.581	153.37504
511.059	148.38115
511.538	164.42836
512.016	209.51552
512.494	193.47921
512.972	207.50212
513.45	163.3954
513.928	212.53088
514.406	184.46194
514.884	191.49964
515.361	216.53131
515.839	191.4525
516.316	237.58221
516.793	207.5302
517.27	159.39148
517.747	226.58644
518.224	204.48917
518.701	253.58685
519.178	174.43872
519.654	202.48972
520.131	181.45547
520.607	181.45612
521.083	176.41769
521.56	239.58191
522.036	234.5317
522.512	144.35983
522.987	197.48324
523.463	214.52523
523.939	199.49734
524.414	184.43752
524.89	151.37069
525.365	163.38737
525.84	170.42403
526.315	183.45604
526.79	205.4791
527.265	222.52868
527.74	148.37156
528.215	196.4791
528.689	144.33648
529.164	189.42589
529.638	195.51132
530.112	189.46345
530.587	189.42537
531.061	158.39524
531.534	135.33521
532.008	160.39967
532.482	115.27246
532.956	115.30187
533.429	149.37253
533.903	130.3003
534.376	120.27875
534.849	186.44703
535.322	176.42941
535.795	164.41173
536.268	130.32203
536.741	132.3277
537.213	175.41844
537.686	152.38476
538.158	148.34623
538.631	125.31219
539.103	136.32327
539.575	126.27584
540.047	168.38499
540.519	146.36272
540.991	174.43526
541.463	146.36588
541.934	162.38684
542.406	132.32889
542.877	140.33508
543.348	195.48347
543.82	132.33164
544.291	177.42468
544.762	104.25715
545.233	167.42985
545.703	175.40562
546.174	144.34951
546.645	183.45455
547.115	222.5515
547.585	163.389
548.056	181.45677
548.526	198.48668
548.996	154.38105
549.466	172.4287
549.935	174.42801
550.405	207.47255
550.875	195.47497
551.344	212.52417
551.814	220.52452
552.283	127.28782
552.752	212.51203
553.221	269.61704
553.69	195.44785
554.159	239.60334
554.628	187.43909
555.096	274.70705
555.565	227.52884
556.033	213.51435
556.502	139.34966
556.97	207.47712
557.438	236.57085
557.906	204.49679
558.374	208.4942
558.842	143.35377
559.31	199.46434
559.777	162.40422
560.245	242.58447
560.712	217.52242
561.18	255.59313
561.647	218.50697
562.114	255.59944
562.581	260.64754
563.048	276.65095
563.514	272.67692
563.981	235.55243
564.448	311.71393
564.914	325.76723
565.381	336.77301
565.847	347.82137
566.313	350.82415
566.779	329.74344
567.245	348.82358
567.711	418.99873
568.176	407.92078
568.642	425.0512
569.108	461.11453
569.573	518.20276
570.038	535.12297
570.504	479.05294
570.969	613.47638
571.434	629.35483
571.899	676.53105
572.363	657.42549
572.828	696.49513
573.293	745.59946
573.757	762.61528
574.222	802.68462
574.686	857.7951
575.15	836.82302
575.614	867.81207
576.078	858.85445
576.542	947.93055
577.006	965.9415
577.469	903.00092
577.933	989.00646
578.396	970.02716
578.86	1031.13256
579.323	1042.20557
579.786	1047.98239
580.249	1039.11476
580.712	1024.19092
581.175	1006.18466
581.637	955.9284
582.1	1017.97976
582.563	1023.919
583.025	966.08532
583.487	1024.84142
583.95	1035.99485
584.412	1019.89931
584.874	962.05284
585.336	937.98346
585.797	932.81107
586.259	901.91303
586.721	863.83946
587.182	893.86233
587.643	890.82615
588.105	874.88583
588.566	882.66827
589.027	895.9587
589.488	843.75954
589.949	886.93371
590.41	853.53443
590.87	806.66851
591.331	829.62327
591.791	881.86812
592.252	842.77878
592.712	845.83372
593.172	829.73106
593.632	900.79609
594.092	860.75423
594.552	871.71365
595.011	776.6557
595.471	845.70374
595.931	859.73754
596.39	948.04381
596.849	895.88711
597.308	916.79091
597.768	966.20022
598.227	934.9784
598.685	972.94172
599.144	990.0399
599.603	1121.29221
600.062	1153.09334
600.52	1140.17886
600.978	1180.34535
601.437	1190.26267
601.895	1304.24667
602.353	1363.4177
602.811	1419.55108
603.269	1517.86066
603.727	1617.99101
604.184	1632.82571
604.642	1740.17819
605.099	1776.99357
605.557	1933.33701
606.014	2065.03163
606.471	2156.65366
606.928	2259.14784
607.385	2369.74412
607.842	2516.35251
608.299	2624.56733
608.755	2779.76
609.212	2810.30551
609.668	2919.38863
610.125	3150.7857
610.581	3211.62847
611.037	3437.40205
611.493	3486.58673
611.949	3620.91986
612.405	3642.67022
612.861	3833.46605
613.316	3963.57642
613.772	4108.29653
614.227	4177.45952
614.683	4310.69178
615.138	4401.23275
615.593	4544.12238
616.048	4537.93517
616.503	4640.38696
616.958	4763.58526
617.412	4804.06686
617.867	4674.72558
618.321	4849.2322
618.776	4890.61876
619.23	4812.98461
619.684	4821.74794
620.138	4770.91003
620.592	4787.29827
621.046	4764.97453
621.5	4809.34946
621.954	4661.81046
622.407	4634.75078
622.861	4595.36061
623.314	4587.89011
623.768	4484.15388
624.221	4377.261
624.674	4319.12943
625.127	4289.22177
625.58	4316.03002
626.033	4171.84829
626.485	4190.47183
626.938	4127.41853
627.39	4189.29571
627.843	4068.27872
628.295	4004.23036
628.747	3981.47848
629.199	3876.23612
629.651	3935.24145
630.103	3931.31199
630.555	3792.81327
631.006	3853.41312
631.458	3894.48486
631.909	3887.18357
632.361	3820.40191
632.812	3819.38801
633.263	3785.89515
633.714	3896.77992
634.165	3997.66738
634.616	3940.52333
635.067	3957.92534
635.518	4033.42253
635.968	4153.28575
636.419	4251.73375
636.869	4218.28531
637.319	4311.09473
637.769	4382.90723
638.219	4506.06963
638.669	4679.12338
639.119	4759.29154
639.569	4860.06352
640.019	4992.65703
640.468	5282.29745
640.918	5414.67336
641.367	5523.21022
641.816	5699.16321
642.265	5805.24987
642.714	6082.12227
643.163	6249.15503
643.612	6534.44361
644.061	6529.67046
644.51	6732.05685
644.958	6875.71617
645.406	7019.19882
645.855	7115.34295
646.303	7411.06674
646.751	7543.08215
647.199	7678.06182
647.647	7756.16448
648.095	7925.31679
648.543	7973.92839
648.99	8041.45689
649.438	8172.53601
649.885	8184.76933
650.333	8183.04787
650.78	8169.70986
651.227	8311.86993
651.674	8178.41331
652.121	8224.70016
652.568	8203.72902
653.015	8236.85011
653.461	8214.62351
653.908	8059.42626
654.354	8002.42917
654.801	7742.26148
655.247	7710.9664
655.693	7599.81226
656.139	7580.30457
656.585	7469.20548
657.031	7374.13596
657.477	7234.72274
657.922	7218.02097
658.368	7075.3562
658.813	6860.92252
659.259	6797.25054
659.704	6755.00184
660.149	6720.11946
660.594	6637.19906
661.039	6514.9465
661.484	6308.2232
661.929	6200.17787
662.373	6172.87467
662.818	6209.67938
663.262	6032.47609
663.707	5963.86767
664.151	5938.61264
664.595	5823.51535
665.039	5950.74878
665.483	5742.05056
665.927	5798.36829
666.371	5759.37222
666.814	5715.52634
667.258	5646.69368
667.701	5727.83263
668.145	5745.82288
668.588	5794.65795
669.031	5644.60542
669.474	5585.67335
669.917	5649.0235
670.36	5684.90846
670.803	5674.53806
671.245	5613.8158
671.688	5540.70359
672.13	5557.24839
672.573	5469.00687
673.015	5555.71411
673.457	5550.0292
673.899	5442.70116
674.341	5457.75799
674.783	5455.69096
675.225	5359.87788
675.666	5317.94864
676.108	5383.04904
676.549	5349.62333
676.991	5353.29707
677.432	5315.78953
677.873	5124.57617
678.314	5005.94379
678.755	5043.04779
679.196	4889.7155
679.637	4845.10305
680.078	4749.83673
680.518	4697.86269
680.959	4632.22912
681.399	4548.50378
681.839	4457.32959
682.28	4339.52862
682.72	4383.01377
683.16	4200.55506
683.6	4169.95572
684.039	4092.50009
684.479	4053.62811
684.919	4048.29606
685.358	3987.83536
685.798	3852.14983
686.237	3821.56211
686.676	3797.19254
687.115	3741.35795
687.554	3733.42525
687.993	3647.01224
688.432	3577.28103
688.871	3505.31922
689.309	3459.54579
689.748	3316.72533
690.186	3420.49656
690.625	3371.41489
691.063	3314.64051
691.501	3223.72424
691.939	3239.82075
692.377	3145.69296
692.815	3154.62345
693.253	3116.62686
693.69	3140.15972
694.128	2957.72728
694.565	2962.54595
695.003	2960.94332
695.44	2932.51239
695.877	2888.53761
696.314	2833.96261
696.751	2682.22824
697.188	2720.35395
697.625	2756.28594
698.061	2611.57464
698.498	2649.54509
698.934	2595.58525
699.371	2475.44778
699.807	2459.40144
700.243	2450.53366
700.679	2324.17175
701.115	2316.27879
701.551	2320.32695
701.987	2334.15967
702.422	2126.31321
702.858	2136.25174
703.294	2181.06848
703.729	2116.40426
704.164	2112.33403
704.599	2047.96031
705.035	2015.03494
705.47	2008.38226
705.904	1966.15446
706.339	1863.88577
706.774	1853.01649
707.209	1843.97116
707.643	1818.09842
708.078	1827.21672
708.512	1752.22401
708.946	1652.85757
709.38	1620.8224
709.814	1672.7431
710.248	1555.83064
710.682	1605.85503
711.116	1594.89687
711.549	1429.86916
711.983	1499.63832
712.416	1454.64143
712.85	1460.83882
713.283	1468.69103
713.716	1374.7027
714.149	1398.56608
714.582	1362.42646
715.015	1235.47693
715.448	1297.62165
715.881	1271.17508
716.313	1183.28458
716.746	1179.30713
717.178	1164.31029
717.61	1108.32406
718.043	1094.27459
718.475	1088.19417
718.907	1076.28452
719.339	1048.03342
719.77	1061.14304
720.202	995.15483
720.634	1085.26333
721.065	979.00685
721.497	986.07967
721.928	951.04199
722.359	952.03584
722.79	912.95443
723.221	896.96212
723.652	848.90522
724.083	860.74393
724.514	848.73208
724.945	814.71884
725.375	828.75529
725.806	785.73593
726.236	729.68219
726.666	749.60598
727.096	763.69707
727.526	732.69279
727.956	716.48466
728.386	716.5974
728.816	632.47932
729.246	683.54661
729.675	661.51311
730.105	587.32527
730.534	613.33501
730.964	617.42868
731.393	599.36009
731.822	660.54791
732.251	601.40862
732.68	647.38768
733.109	575.31765
733.537	580.3145
733.966	599.40283
734.395	549.19393
734.823	549.14987
735.251	574.30773
735.68	577.34599
736.108	554.30467
736.536	521.15501
736.964	515.13932
737.392	528.24385
737.82	538.21723
738.247	515.16015
738.675	483.09106
739.102	499.18977
739.53	492.1925
739.957	494.2081
740.384	477.10197
740.811	461.10406
741.238	480.11659
741.665	404.90562
742.092	486.10297
742.519	427.01706
742.945	454.04563
743.372	463.09959
743.798	444.09126
744.225	486.1003
744.651	424.01973
745.077	466.10651
745.503	410.96276
745.929	455.04272
746.355	494.15644
746.781	453.07126
747.207	470.07608
747.632	444.05621
748.058	412.99191
748.483	463.0241
748.908	424.00816
749.334	477.11984
749.759	414.93451
750.184	436.00649
750.609	455.07226
751.033	431.97625
751.458	445.95827
751.883	469.10232
752.307	428.98028
752.732	414.01028
753.156	474.1264
753.58	479.08816
754.005	423.01905
754.429	426.97296
754.853	425.00996
755.277	412.93265
755.7	480.13412
756.124	435.03694
756.548	455.04314
756.971	410.95149
757.394	451.11196
757.818	414.01778
758.241	424.03166
758.664	466.12728
759.087	463.00277
759.51	452.06662
759.933	480.10825
760.356	440.07026
760.778	512.20564
761.201	473.09444
761.623	494.12161
762.046	522.16515
762.468	434.98084
762.89	460.0721
763.312	486.13768
763.734	483.10346
764.156	488.14237
764.578	564.22478
765	468.0912
765.421	462.12219
765.843	477.17703
766.264	502.14303
766.686	415.98948
767.107	460.05779
767.528	484.16693
767.949	471.13747
768.37	430.99749
768.791	500.14489
769.212	449.08344
769.632	457.02551
770.053	460.1514
770.473	438.01793
770.894	437.03296
771.314	473.05452
771.734	472.05294
772.154	426.03267
772.575	470.02814
772.994	436.95441
773.414	414.95165
773.834	475.12857
774.254	497.1646
774.673	415.9667
775.093	403.96162
775.512	399.94369
775.931	438.05705
776.351	417.99349
776.77	393.93094
777.189	402.92075
777.607	471.13918
778.026	419.00597
778.445	373.91112
778.864	410.0031
779.282	449.03306
779.701	364.88236
780.119	431.0649
780.537	392.94878
780.955	369.89498
781.373	394.93601
781.791	389.84849
782.209	393.86738
782.627	407.03842
783.045	404.90562
783.462	409.00527
783.88	392.97651
784.297	344.84358
784.715	404.00008
785.132	401.94402
785.549	398.96438
785.966	374.90795
786.383	376.89498
786.8	381.85776
787.217	365.84189
787.633	319.78099
788.05	369.83653
788.466	327.73259
788.883	289.72092
789.299	341.79781
789.715	318.76016
790.131	339.82686
790.547	312.75236
790.963	381.91748
791.379	295.73135
791.795	289.64587
792.21	309.70281
792.626	258.6007
793.041	315.76519
793.457	335.80949
793.872	243.56477
794.287	309.72692
794.702	275.66153
795.117	296.72537
795.532	316.77809
795.947	270.6368
796.362	295.69048
796.776	259.58719
797.191	307.73793
797.605	312.73412
798.02	228.54983
798.434	231.50432
798.848	264.64601
799.262	273.67385
799.676	263.62522
800.09	290.71093
800.504	230.54878
800.918	297.68235
801.331	226.57632
801.745	204.46823
802.158	208.51711
802.572	236.55943
802.985	218.51975
803.398	219.51843
803.811	172.4329
804.224	184.4506
804.637	212.5068
805.05	188.43186
805.462	212.51512
805.875	172.44649
806.288	228.55129
806.7	168.42299
807.112	177.40602
807.525	211.5149
807.937	169.41732
808.349	169.42237
808.761	160.39445
809.173	168.40668
809.584	190.46374
809.996	147.36367
810.408	138.35935
810.819	166.39594
811.231	174.45835
811.642	183.45023
812.053	238.57785
812.464	263.62522
812.875	165.4216
813.286	179.46041
813.697	208.48238
814.108	136.33331
814.519	114.25642
814.929	150.38132
815.34	189.46431
815.75	144.36878
816.16	119.29763
816.571	81.2106
816.981	169.39698
817.391	141.34499
817.801	174.43825
818.211	106.25196
818.62	186.45246
819.03	111.2736
819.44	124.32256
819.849	91.2299
820.259	87.22223
820.668	132.32925
821.077	150.37767
821.486	168.40255
821.895	101.24923
822.304	106.28233
822.713	109.26282
823.122	100.25251
823.531	127.3068
823.939	117.28935
824.348	131.32266
824.756	136.34353
825.164	116.29144
825.573	139.35629
825.981	130.32285
826.389	146.36891
826.797	40.10115
827.205	115.27035
827.612	123.30719
828.02	77.18567
828.428	96.24801
828.835	74.1973
829.243	122.29656
829.65	73.18469
830.057	105.2592
830.464	81.20025
830.871	94.22773
831.278	47.11555
831.685	122.27711
832.092	97.24208
832.499	56.12581
832.905	86.21956
833.312	105.24405
833.718	100.25196
834.124	72.16718
834.531	89.22573
834.937	40.1028
835.343	109.26669
835.749	38.08953
836.155	45.11932
836.561	85.21344
836.966	85.21075
837.372	62.16023
837.777	75.19117
838.183	100.2241
838.588	22.05527
838.993	106.25969
839.399	33.08266
839.804	53.13194
840.209	96.24964
840.613	28.06453
841.018	57.1456
841.423	31.08085
841.828	85.21902
842.232	88.21903
842.637	99.23817
843.041	62.16261
843.445	57.14555
843.849	26.06563
844.253	69.16732
844.657	78.20039
845.061	89.20694
845.465	57.14081
845.869	92.21818
846.272	60.14988
846.676	50.12218
847.079	79.20568
847.483	28.0707
847.886	83.20066
848.289	78.21044
848.692	76.19478
849.095	118.28769
849.498	72.18206
849.901	34.07967
850.304	86.20976
850.707	31.07996
851.109	59.14959
851.512	104.26045
851.914	83.2158
852.316	7.01791
852.718	62.16333
853.121	52.13013
853.523	106.25457
853.925	64.17047
854.326	18.04582
854.728	97.25298
855.13	26.06911
855.531	79.19473
855.933	29.07024
856.334	81.20537
856.736	57.13201
857.137	21.05016
857.538	60.15479
857.939	110.27736
858.34	88.21663
858.741	51.13487
859.142	75.18357
859.542	77.20608
859.943	57.14375
860.343	18.04578
860.744	56.13852
861.144	7.01732
861.544	79.19552
861.945	88.229
862.345	70.17308
862.745	100.25404
863.145	77.1856
863.544	17.04384
863.944	57.13604
864.344	49.12349
864.743	33.08275
865.143	62.16156
865.542	77.18271
865.941	71.17982
866.34	51.12418
866.74	45.12167
867.139	74.18237
867.537	53.13657
867.936	68.16728
868.335	76.19593
868.734	102.26615
869.132	85.20263
869.531	51.12386
869.929	68.1607
870.327	75.18405
870.726	29.07285
871.124	110.26147
871.522	44.11418
871.92	83.2082
872.318	35.08732
872.715	50.12409
873.113	94.23353
873.511	114.2896
873.908	14.03674
874.306	76.19368
874.703	42.10647
875.1	44.11391
875.497	66.16289
875.894	76.19149
876.291	72.17855
876.688	110.28889
877.085	48.11655
877.482	56.14196
877.878	41.10136
878.275	70.18122
878.671	103.23267
879.068	56.1375
879.464	100.24381
879.86	2.00487
880.256	39.09786
880.652	24.06239
881.048	57.14246
881.444	38.09126
881.84	70.17971
882.236	86.21747
882.631	91.22843
883.027	10.02461
883.422	9.02346
883.817	80.20754
884.213	83.21617
884.608	88.22038
885.003	88.21703
885.398	40.10345
885.793	31.07916
886.188	81.20683
886.582	26.06691
886.977	61.1477
887.371	4.01021
887.766	12.03081
888.16	42.10647
888.554	33.0823
888.949	59.14927
889.343	43.10623
889.737	21.05773
890.131	12.03053
890.525	25.06505
890.918	20.05093
891.312	15.03624
891.706	1.00263
892.099	17.04359
892.492	97.21428
892.886	19.04733
893.279	57.1481
893.672	-1.00256
894.065	46.11661
894.458	68.17488
894.851	64.15865
895.244	44.11383
895.637	81.19878
896.029	14.03498
896.422	64.15807
896.814	58.14593
897.206	15.03673
897.599	74.18318
897.991	50.12245
898.383	94.22807
898.775	71.16326
899.167	56.13485
899.559	44.11265
899.951	80.19089
900.342	16.04109
900.734	45.11563
901.125	65.17201
901.517	61.15312
901.908	44.10688
902.299	73.1843
902.69	43.10435
903.082	34.08395
903.473	50.12354
903.863	28.07276
904.254	74.17684
904.645	89.22324
905.036	32.07982
905.426	46.10681
905.817	72.18005
906.207	38.09358
906.597	-6.01437
906.987	59.15477
907.378	5.01283
907.768	34.09134
908.158	47.1167
908.547	53.1395
908.937	54.13888
909.327	62.15403
909.717	51.13009
910.106	37.0906
910.495	62.15695
910.885	73.18791
911.274	23.05865
911.663	19.04862
912.052	21.05241
912.441	13.03351
912.83	54.12767
913.219	13.03447
913.608	55.13632
913.997	24.06187
914.385	46.11127
914.774	65.16034
915.162	58.1421
915.55	33.08125
915.939	12.03099
916.327	18.04524
916.715	21.05454
917.103	53.13141
917.491	38.09468
917.878	38.09368
918.266	12.0313
918.654	97.25133
919.041	26.06944
919.429	32.0777
919.816	31.07941
920.203	64.15831
920.591	34.08542
920.978	10.02465
921.365	18.04809
921.752	35.08583
922.139	109.24261
922.525	70.17302
922.912	42.10377
923.299	40.10165
923.685	43.11413
924.072	36.08369
924.458	27.06826
924.844	76.19122
925.231	69.16404
925.617	34.08854
926.003	44.11375
926.389	43.11045
926.774	32.08253
927.16	71.17854
927.546	63.16453
927.931	69.17432
928.317	12.02819
928.702	38.09095
929.088	69.16738
929.473	25.0646
929.858	50.12436
930.243	54.13259
930.628	60.15042
931.013	43.10887
931.398	64.14867
931.783	50.13198
932.167	85.2126
932.552	3.00761
932.937	48.12051
933.321	20.05147
933.705	52.1336
934.09	10.02548
934.474	40.09658
934.858	24.06329
935.242	34.08125
935.626	84.21851
936.009	-20.05366
936.393	33.08512
936.777	17.04446
937.16	2.00528
937.544	62.14737
937.927	75.19393
938.311	47.11594
938.694	11.02937
939.077	39.09542
939.46	11.02687
939.843	101.21761
940.226	32.0835
940.609	73.17422
940.991	17.04422
941.374	33.0826
941.757	48.11934
942.139	53.12421
942.522	66.15676
942.904	24.05908
943.286	31.07938
943.668	52.13666
944.05	40.10061
944.432	98.24666
944.814	-8.01999
945.196	37.09334
945.578	88.21687
945.959	89.21192
946.341	44.1072
946.722	36.08613
947.104	48.11729
947.485	39.09297
947.866	113.29087
948.247	4.01023
948.628	42.10313
949.009	47.12291
949.39	37.09331
949.771	73.17295
950.152	92.22973
950.532	50.12688
950.913	66.16152
951.293	15.04133
951.674	96.23963
952.054	64.16305
952.434	42.10567
952.814	73.17642
953.194	31.08162
953.574	54.13323
953.954	30.07303
954.334	52.13201
954.714	29.07272
955.093	42.10419
955.473	-16.04093
955.853	17.04458
956.232	8.02201
956.611	91.21975
956.99	54.13888
957.37	44.11415
957.749	74.18015
958.128	67.17252
958.506	64.17001
958.885	77.19737
959.264	97.24445
959.643	59.13632
960.021	76.19184
960.4	92.2132
960.778	81.20113
961.156	66.16879
961.535	4.00957
961.913	43.10298
962.291	76.20034
962.669	34.08705
963.047	25.06455
963.424	44.11359
963.802	44.11083
964.18	55.14034
964.557	80.18723
964.935	82.19686
965.312	22.05801
965.69	52.13074
966.067	110.27069
966.444	9.0225
966.821	49.12723
967.198	68.16635
967.575	6.01486
967.952	85.20208
968.329	52.129
968.705	56.12213
969.082	45.11788
969.458	34.08478
969.835	34.08413
970.211	89.23203
970.587	22.05571
970.963	19.04938
971.339	51.13496
971.715	48.12142
972.091	38.09534
972.467	65.16416
972.843	51.12876
973.219	57.13692
973.594	53.14199
973.97	48.11567
974.345	37.0909
974.721	40.09716
975.096	17.04207
975.471	75.18057
975.846	41.10006
976.221	52.13555
976.596	77.18854
976.971	26.06532
977.346	54.12707
977.72	54.13985
978.095	59.15466
978.469	48.11607
978.844	31.07838
979.218	13.0319
979.593	54.13102
979.967	59.1457
980.341	53.12411
980.715	53.13595
981.089	19.04795
981.463	89.21127
981.837	57.14246
982.21	54.12722
982.584	18.04464
982.957	49.12521
983.331	76.1826
983.704	23.05669
984.078	83.20782
984.451	1.00251
984.824	40.09985
985.197	41.10103
985.57	75.18975
985.943	34.08447
986.316	94.23174
986.688	40.09771
987.061	100.23907
987.434	44.11614
987.806	56.13826
988.179	61.14775
988.551	77.19765
988.923	43.10763
989.295	-3.00751
989.667	33.08161
990.039	74.18679
990.411	86.2008
990.783	78.18176
991.155	55.13736
991.527	84.2061
991.898	49.12472
992.27	30.0754
992.641	53.1339
993.012	67.15996
993.384	14.03398
993.755	63.16363
994.126	31.07585
994.497	82.20439
994.868	86.20166
995.239	26.06401
995.61	55.14123
995.98	81.20127
996.351	28.07078
996.722	62.14907
997.092	23.05617
997.462	41.09905
997.833	55.13197
998.203	47.115
998.573	39.09846
998.943	108.2576
999.313	35.0863
999.683	92.22623
1000.053	134.31164
1000.423	-12.02972
1000.792	88.23103
1001.162	9.02255
1001.531	53.1329
1001.901	102.25921
1002.27	76.17312
1002.639	52.13536
1003.009	35.08446
1003.378	11.02843
1003.747	82.19843
1004.116	7.01728
1004.485	13.0316
1004.853	60.15361
1005.222	16.04079
1005.591	63.15145
1005.959	61.14273
1006.328	52.12022
1006.696	77.19036
1007.064	13.03323
1007.433	70.17606
1007.801	34.08401
1008.169	16.04073
1008.537	60.13623
1008.905	65.15548
1009.273	41.10177
1009.64	30.07426
1010.008	86.20858
1010.375	-4.00965
1010.743	94.21775
1011.11	73.17662
1011.478	55.13736
1011.845	42.10045
1012.212	71.16522
1012.579	35.08688
1012.946	50.12068
1013.313	69.16499
1013.68	43.09852
1014.047	47.1153
1014.414	56.13567
1014.78	18.04537
1015.147	31.0754
1015.513	46.11316
1015.88	58.14797
1016.246	22.05434
1016.612	21.04871
1016.978	61.15158
1017.344	63.15882
1017.71	29.07085
1018.076	28.06712
1018.442	2.00519
1018.808	38.09677
1019.174	63.16081
1019.539	46.10559
1019.905	29.07003
1020.27	40.10118
1020.636	48.1169
1021.001	45.10916
1021.366	54.1324
1021.731	23.05933
1022.096	-8.02077
1022.461	43.10372
1022.826	26.06304
1023.191	52.13731
1023.556	82.19604
1023.92	16.03981
1024.285	70.17283
1024.649	78.1935
1025.014	27.06821
1025.378	58.14802
1025.742	58.14661
1026.107	53.12158
1026.471	65.15156
1026.835	81.20427
1027.199	117.28988
1027.562	75.17687
1027.926	31.07692
1028.29	87.22371
1028.654	22.05201
1029.017	44.10872
1029.381	94.22738
1029.744	43.11034
1030.107	90.21401
1030.471	18.04361
1030.834	14.03257
1031.197	19.04611
1031.56	11.02648
1031.923	14.03677
1032.286	73.17295
1032.648	80.19505
1033.011	29.0678
1033.374	43.10176
1033.736	30.0803
1034.099	62.15443
1034.461	2.00514
1034.823	16.04052
1035.185	58.14766
1035.548	63.15643
1035.91	40.09771
1036.272	11.02546
1036.634	30.07385
1036.995	42.10164
1037.357	13.03243
1037.719	32.07825
1038.08	52.12474
1038.442	41.09886
1038.803	60.14547
1039.165	73.18791
1039.526	58.14199
1039.887	61.1487
1040.248	28.07025
1040.609	70.17226
1040.97	79.19623
1041.331	54.1382
1041.692	92.22204
1042.053	72.16718
1042.413	65.15394
1042.774	65.15933
1043.134	113.27102
1043.495	45.11381
1043.855	44.1084
1044.215	59.14911
1044.576	57.14076
1044.936	54.12588
1045.296	34.08607
1045.656	64.15755
1046.016	60.14552
1046.375	25.0614
1046.735	38.08883
1047.095	43.10251
1047.454	91.19539
1047.814	31.07599
1048.173	-21.05025
1048.533	56.13044
1048.892	58.14326
1049.251	62.15734
1049.61	39.09751
1049.969	51.12427
1050.328	63.13947
1050.687	56.13781
1051.046	30.07358
1051.405	52.13233
1051.763	45.10629
1052.122	11.02804
1052.48	4.0099
1052.839	40.09607
1053.197	90.21533
1053.555	-1.00227
1053.914	42.10297
1054.272	26.06311
1054.63	32.08051
1054.988	59.14318
1055.345	38.08425
1055.703	34.08299
1056.061	19.04954
1056.419	35.09175
1056.776	47.1141
1057.134	54.12772
1057.491	35.08852
1057.848	9.0226
1058.206	6.01452
1058.563	24.05431
1058.92	7.01633
1059.277	34.08481
1059.634	34.08122
1059.991	91.21984
1060.348	67.15548
1060.704	56.13648
1061.061	83.1933
1061.418	23.05667
1061.774	41.10299
1062.131	16.04324
1062.487	37.08854
1062.843	20.05038
1063.199	43.10933
1063.555	75.17824
1063.911	11.02799
1064.267	51.10818
1064.623	32.07944
1064.979	29.06969
1065.335	56.13444
1065.691	27.06562
1066.046	-34.07566
1066.402	65.15245
1066.757	57.14442
1067.112	18.04462
1067.468	76.1873
1067.823	61.14947
1068.178	71.1721
1068.533	72.17672
1068.888	61.14681
1069.243	46.11495
1069.598	36.08921
1069.952	-7.01648
1070.307	43.10972
1070.662	37.08915
1071.016	32.07377
1071.371	27.06268
1071.725	82.19709
1072.079	4.00977
1072.434	20.04992
1072.788	39.09507
1073.142	77.19182
1073.496	-4.00973
1073.85	14.03291
1074.203	131.32314
1074.557	53.14236
1074.911	4.00964
1075.265	35.08292
1075.618	25.06149
1075.971	31.07509
1076.325	36.0931
1076.678	42.09957
1077.031	65.1509
1077.385	82.18542
1077.738	62.14339
1078.091	46.10787
1078.444	81.1902
1078.796	-6.01498
1079.149	-5.01264
1079.502	58.14194
1079.855	56.13393
1080.207	72.17875
1080.56	-2.00526
1080.912	21.05174
1081.264	63.15374
1081.617	80.19948
1081.969	54.13936
1082.321	6.01488
1082.673	57.13442
1083.025	74.1786
1083.377	76.16723
1083.728	13.03079
1084.08	9.02284
1084.432	57.14004
1084.783	39.09269
1085.135	49.12463
1085.486	60.14229
1085.838	71.17726
1086.189	18.04431
1086.54	5.01217
1086.891	49.12639
1087.242	-3.00741
1087.593	14.03464
1087.944	1.00231
1088.295	99.22692
1088.646	53.13136
1088.996	3.00739
1089.347	46.11458
1089.698	40.09694
1090.048	8.0208
1090.398	19.0447
1090.749	33.08062
1091.099	78.20221
1091.449	25.06327
1091.799	86.21723
1092.149	32.08135
1092.499	17.0422
1092.849	37.09604
1093.199	31.07798
1093.548	59.14484
1093.898	72.18206
1094.248	11.02859
1094.597	29.07656
1094.947	47.12596
1095.296	19.04757
1095.645	36.09452
1095.994	35.08497
1096.343	48.12203
1096.692	88.23858
1097.041	-35.09607
1097.39	70.17921
1097.739	42.11023
1098.088	59.1591
1098.437	1.00269
1098.785	19.05127
1099.134	26.06946
1099.482	48.13302
1099.83	15.03961
1100.179	18.04826
1100.527	20.05355
1100.875	10.02686
1101.223	29.07767
1101.571	22.06148
1101.919	8.02158
1102.267	-24.06852
1102.615	4.01291
1102.962	1.00322
1103.31	-2.00645
1103.658	9.02904
