Data from N2 R0 150C sample12_Subt2__6__13-53-44-097.txt Node

Date: Tue Aug 19 13:53:44 PDT 2025
User: uwsun
Spectrometer: HDX01956
Trigger mode: 0
Integration Time (sec): 5.000000E-1
Scans to average: 1
Nonlinearity correction enabled: true
Boxcar width: 0
Storing dark spectrum: false
XAxis mode: Wavelengths
Number of Pixels in Spectrum: 2068
>>>>>Begin Spectral Data<<<<<
194.03	138.39735
194.578	122.3927
195.127	111.35311
195.676	134.42663
196.225	189.51063
196.773	158.44535
197.321	224.62923
197.87	295.77372
198.418	271.70572
198.966	363.95231
199.513	276.70032
200.061	264.68644
200.609	299.79482
201.156	286.64326
201.704	305.78415
202.251	311.83576
202.798	325.8518
203.345	318.79511
203.892	306.78
204.438	333.80587
204.985	349.84776
205.532	294.7827
206.078	296.74012
206.624	305.76468
207.17	335.79022
207.716	302.74801
208.262	312.63274
208.808	334.84323
209.354	319.79083
209.899	282.71681
210.445	331.8379
210.99	312.77136
211.535	320.77019
212.08	339.80926
212.625	333.84356
213.17	367.92899
213.715	377.8706
214.259	355.83641
214.804	303.75309
215.348	286.66719
215.892	291.70928
216.436	313.73834
216.98	331.75314
217.524	347.82835
218.068	314.80714
218.612	295.7521
219.155	297.712
219.698	331.79832
220.242	320.803
220.785	327.77045
221.328	290.72747
221.871	308.77845
222.414	299.75126
222.956	282.70104
223.499	284.65496
224.041	284.67449
224.583	273.59701
225.126	286.6451
225.668	262.64658
226.21	278.70739
226.751	307.69232
227.293	318.74474
227.835	305.75806
228.376	247.58312
228.918	307.78075
229.459	256.65074
230	244.59286
230.541	337.7974
231.082	237.57984
231.622	267.62642
232.163	267.66001
232.704	287.71619
233.244	283.70979
233.784	311.76565
234.324	323.73583
234.864	301.69568
235.404	296.71163
235.944	306.7312
236.484	235.59112
237.023	334.80114
237.563	288.67766
238.102	268.63821
238.641	333.84386
239.18	287.68882
239.719	275.69766
240.258	261.60373
240.797	316.76862
241.335	302.74692
241.874	315.63634
242.412	327.79968
242.95	239.58777
243.488	324.75433
244.026	336.77949
244.564	336.70663
245.102	318.72576
245.64	315.75916
246.177	333.76075
246.715	325.7877
247.252	321.7475
247.789	301.5888
248.326	291.71668
248.863	296.67202
249.4	306.70878
249.936	280.59276
250.473	310.73821
251.009	312.73498
251.546	301.67907
252.082	328.73166
252.618	301.6824
253.154	352.85648
253.69	265.60908
254.226	309.74499
254.761	350.80714
255.297	270.60478
255.832	284.67942
256.367	302.72633
256.903	299.66408
257.438	302.71778
257.972	339.77165
258.507	308.72584
259.042	335.74804
259.576	358.79328
260.111	325.75949
260.645	289.63493
261.179	282.67
261.713	332.75801
262.247	327.76866
262.781	274.59806
263.315	366.9015
263.849	336.84737
264.382	315.73122
264.915	379.90091
265.449	347.86712
265.982	348.80572
266.515	342.83122
267.048	355.77631
267.58	340.75685
268.113	287.64114
268.646	350.86908
269.178	324.73975
269.71	357.79387
270.243	295.6848
270.775	329.83372
271.307	317.76774
271.838	294.69877
272.37	310.76838
272.902	349.80083
273.433	315.69496
273.965	396.9581
274.496	326.80448
275.027	307.7672
275.558	356.86556
276.089	318.79568
276.62	304.77654
277.15	323.7902
277.681	350.7762
278.211	297.71796
278.741	303.68749
279.272	315.73006
279.802	316.78839
280.332	356.84381
280.861	363.87514
281.391	337.77361
281.921	342.8278
282.45	408.00668
282.98	373.96291
283.509	359.80956
284.038	352.81046
284.567	355.82274
285.096	365.88495
285.625	396.90701
286.153	307.72503
286.682	398.91122
287.21	349.84553
287.739	346.82865
288.267	331.80675
288.795	308.79696
289.323	408.96292
289.851	438.02073
290.378	338.77202
290.906	340.83131
291.433	341.84411
291.961	362.82616
292.488	351.86759
293.015	375.8914
293.542	389.98115
294.069	354.8636
294.596	366.89552
295.122	377.89822
295.649	395.86924
296.175	460.10396
296.702	375.90201
297.228	378.9094
297.754	450.01742
298.28	405.92222
298.806	402.95831
299.332	425.94622
299.857	395.89218
300.383	384.95833
300.908	358.87205
301.433	394.9432
301.958	402.91668
302.483	381.94482
303.008	437.0576
303.533	402.01682
304.058	424.99096
304.582	400.94441
305.107	415.06665
305.631	395.89218
306.155	453.0427
306.679	379.87835
307.203	412.95424
307.727	443.03139
308.251	427.03452
308.775	417.98777
309.298	455.0847
309.822	466.14585
310.345	449.05646
310.868	451.05623
311.391	477.13811
311.914	462.13098
312.437	432.97831
312.96	433.0045
313.482	455.05481
314.005	447.09804
314.527	468.1937
315.049	433.05811
315.571	474.05567
316.093	499.20111
316.615	484.14359
317.137	508.08379
317.659	541.27476
318.18	459.07081
318.702	507.13791
319.223	575.17095
319.744	503.10857
320.265	493.16511
320.786	520.2496
321.307	511.22864
321.828	528.17177
322.348	552.26261
322.869	563.29837
323.389	467.70794
323.909	514.14491
324.43	573.30677
324.95	543.20686
325.47	548.28503
325.989	564.27872
326.509	584.24943
327.029	551.19677
327.548	567.23157
328.067	595.3815
328.587	626.46526
329.106	544.17678
329.625	638.55485
330.144	698.52064
330.662	580.27133
331.181	638.40977
331.7	649.44215
332.218	691.4216
332.736	688.51023
333.255	673.4683
333.773	640.42066
334.291	717.63612
334.808	699.47807
335.326	739.55456
335.844	695.52018
336.361	764.77239
336.879	768.67185
337.396	741.6413
337.913	721.5346
338.43	762.58226
338.947	707.5458
339.464	752.49901
339.981	745.6262
340.497	751.67588
341.014	842.85081
341.53	737.51431
342.046	726.62439
342.562	815.83294
343.078	835.77206
343.594	840.79466
344.11	841.77706
344.626	851.91157
345.141	866.74812
345.657	906.79388
346.172	823.77764
346.687	888.82204
347.202	923.82715
347.717	952.98589
348.232	917.00256
348.747	963.9357
349.261	963.85499
349.776	904.87155
350.29	988.12108
350.805	1042.22278
351.319	1000.02008
351.833	921.8164
352.347	930.89972
352.861	962.93058
353.374	979.92011
353.888	1010.08396
354.401	1011.99039
354.915	1037.98917
355.428	1063.21739
355.941	1076.12049
356.454	1122.08056
356.967	1032.04784
357.48	1054.02572
357.993	1066.19771
358.505	1040.13161
359.018	1102.23459
359.53	1119.25113
360.042	1117.04516
360.554	1127.23517
361.066	1116.2579
361.578	1086.95619
362.09	1113.16954
362.602	1180.10962
363.113	1168.2293
363.625	1241.23668
364.136	1217.14546
364.647	1227.33601
365.158	1206.24013
365.669	1231.34365
366.18	1197.25681
366.691	1293.23763
367.201	1246.37513
367.712	1291.32125
368.222	1309.3406
368.733	1373.33936
369.243	1358.32785
369.753	1381.48626
370.263	1352.51469
370.773	1284.44658
371.282	1370.487
371.792	1483.60597
372.301	1478.67175
372.811	1462.83471
373.32	1488.32371
373.829	1526.64386
374.338	1580.48437
374.847	1637.66824
375.356	1662.75797
375.865	1721.43713
376.373	1786.69424
376.882	1889.11634
377.39	1860.92331
377.898	1896.03396
378.407	1991.72264
378.915	2098.60403
379.423	2171.96962
379.93	2299.79957
380.438	2377.16365
380.946	2531.04002
381.453	2513.0701
381.96	2670.00907
382.468	2863.00368
382.975	3046.99433
383.482	3118.52383
383.989	3150.21338
384.495	3275.60089
385.002	3464.10163
385.509	3721.55676
386.015	3845.52379
386.521	4076.00741
387.028	4223.76866
387.534	4347.48538
388.04	4465.76536
388.546	4623.3717
389.051	4805.06147
389.557	5161.02638
390.063	5687.76462
390.568	5708.86402
391.073	5952.50961
391.578	6218.73997
392.084	6289.29826
392.589	6470.11492
393.093	6931.49649
393.598	7634.99471
394.103	8377.19134
394.607	9120.16054
395.112	9886.75089
395.616	10390.19525
396.12	11354.58055
396.624	12172.86891
397.128	13407.69298
397.632	14872.12125
398.136	16172.49166
398.639	16989.44318
399.143	18780.75513
399.646	21219.87672
400.15	23371.85989
400.653	25838.81578
401.156	28766.41642
401.659	33536.05534
402.162	40588.11385
402.664	51727.20059
403.167	48608.61624
403.67	22278.45323
404.172	2696.20453
404.674	0
405.176	0
405.678	0
406.18	0
406.682	0
407.184	0
407.686	25783.58453
408.187	43316.52985
408.688	51225.60928
409.19	54389.01922
409.691	56215.4214
410.192	57270.57019
410.693	56154.78773
411.194	51473.34446
411.694	49148.67775
412.195	46621.49234
412.696	42156.53492
413.196	39363.17265
413.696	38530.24356
414.196	39420.53156
414.696	39486.45573
415.196	37839.93964
415.696	34983.04202
416.196	28436.08673
416.695	21478.05374
417.195	18086.31404
417.694	17225.81018
418.194	16358.23514
418.693	15154.51265
419.192	14742.58065
419.691	14575.51104
420.19	14149.64303
420.688	13896.73345
421.187	13453.31832
421.685	12637.79746
422.184	11367.66483
422.682	9853.87461
423.18	8333.09439
423.678	7189.65458
424.176	6785.50532
424.674	6483.34073
425.172	6048.68138
425.669	5711.07189
426.167	5465.99449
426.664	4927.28977
427.161	4497.54465
427.659	4271.18461
428.156	3924.65804
428.652	3708.88444
429.149	3494.72135
429.646	3355.31498
430.143	3255.78339
430.639	3004.82768
431.135	2876.20185
431.632	2690.7847
432.128	2594.04284
432.624	2383.32587
433.12	2329.75508
433.616	2253.60628
434.111	2148.89728
434.607	2089.94738
435.103	1984.40728
435.598	2004.42036
436.093	1890.78659
436.588	1781.50629
437.083	1757.55564
437.578	1630.57402
438.073	1598.83744
438.568	1544.67523
439.062	1542.31642
439.557	1464.50131
440.051	1381.29796
440.546	1323.26814
441.04	1308.41347
441.534	1318.58391
442.028	1297.36643
442.522	1217.28348
443.015	1228.08269
443.509	1276.42078
444.002	1173.28567
444.496	1190.06889
444.989	1126.19132
445.482	1163.30777
445.975	1141.11015
446.468	1123.93725
446.961	1170.01796
447.454	1049.92932
447.947	1088.1212
448.439	1020.00429
448.931	1052.97302
449.424	992.05953
449.916	1002.03334
450.408	997.88114
450.9	981.00915
451.392	972.0501
451.884	933.80915
452.375	989.08737
452.867	925.7672
453.358	895.75433
453.849	880.61345
454.341	942.80711
454.832	884.64683
455.323	828.76139
455.814	900.78364
456.304	821.64999
456.795	789.59798
457.285	817.57186
457.776	855.67425
458.266	806.6804
458.756	823.70715
459.247	825.72803
459.737	787.67375
460.226	785.57321
460.716	733.5811
461.206	768.64145
461.695	707.5692
462.185	724.51196
462.674	775.60392
463.163	711.40634
463.653	728.40071
464.142	682.49329
464.63	728.60413
465.119	664.3951
465.608	691.45986
466.096	648.29741
466.585	680.42499
467.073	650.40879
467.561	619.35948
468.05	608.30365
468.538	597.34733
469.026	652.42514
469.513	719.48989
470.001	541.14807
470.489	604.33289
470.976	537.16928
471.463	566.30245
471.951	552.27373
472.438	508.12451
472.925	462.02719
473.412	505.15427
473.899	501.07969
474.385	459.06325
474.872	559.24041
475.359	516.19292
475.845	471.95103
476.331	425.8743
476.817	445.02792
477.303	445.99278
477.789	449.03224
478.275	440.03826
478.761	448.03711
479.247	516.11088
479.732	429.02808
480.218	426.05695
480.703	409.98115
481.188	393.82704
481.673	408.91045
482.158	415.88025
482.643	369.898
483.128	372.83562
483.612	347.7956
484.097	350.82575
484.581	386.86812
485.066	442.03653
485.55	363.79346
486.034	286.61525
486.518	359.83662
487.002	409.98562
487.486	365.87064
487.969	343.83006
488.453	296.72832
488.936	330.74737
489.42	254.56332
489.903	308.75756
490.386	325.54807
490.869	314.68071
491.352	270.65356
491.835	284.59544
492.318	376.85775
492.8	321.67494
493.283	331.83432
493.765	281.69104
494.247	280.65191
494.73	321.71057
495.212	266.64025
495.694	266.62517
496.175	273.65771
496.657	301.70921
497.139	301.54504
497.62	276.66028
498.102	269.6669
498.583	286.70839
499.064	303.69223
499.545	279.64407
500.026	248.5683
500.507	290.67785
500.988	238.5977
501.469	236.59842
501.949	272.67421
502.43	219.53322
502.91	256.55119
503.39	251.62342
503.87	322.76471
504.35	226.53717
504.83	202.46011
505.31	187.45973
505.79	196.48337
506.269	261.62095
506.749	155.36708
507.228	259.62045
507.707	260.5879
508.187	230.54962
508.666	234.58491
509.145	245.58826
509.623	185.44286
510.102	220.54215
510.581	229.55339
511.059	226.57408
511.538	222.57408
512.016	267.65153
512.494	235.579
512.972	218.52771
513.45	194.46785
513.928	271.67137
514.406	239.59405
514.884	220.57264
515.361	277.67366
515.839	254.59441
516.316	281.68466
516.793	224.57202
517.27	186.45567
517.747	238.6163
518.224	238.567
518.701	310.71093
519.178	189.47526
519.654	234.56388
520.131	208.52087
520.607	191.48046
521.083	228.53566
521.56	182.44785
522.036	243.55114
522.512	188.46603
522.987	193.47378
523.463	258.62804
523.939	243.60245
524.414	256.60027
524.89	211.51221
525.365	245.57302
525.84	260.63787
526.315	205.50881
526.79	231.5371
527.265	286.67269
527.74	186.46376
528.215	227.55166
528.689	205.47326
529.164	202.45397
529.638	217.56687
530.112	195.47763
530.587	220.49199
531.061	183.45571
531.534	188.46228
532.008	225.55539
532.482	180.42109
532.956	157.40917
533.429	183.45471
533.903	239.54009
534.376	187.42861
534.849	174.41915
535.322	217.52539
535.795	161.40442
536.268	190.46547
536.741	140.34705
537.213	173.41382
537.686	180.45336
538.158	151.35304
538.631	158.39224
539.103	179.42195
539.575	156.33936
540.047	190.43348
540.519	189.46585
540.991	169.42314
541.463	178.4435
541.934	217.5127
542.406	172.42543
542.877	217.51171
543.348	205.50733
543.82	147.36832
544.291	182.43626
544.762	159.38917
545.233	193.49452
545.703	177.41009
546.174	180.43393
546.645	170.42326
547.115	179.44817
547.585	184.43735
548.056	227.56813
548.526	237.57833
548.996	147.3642
549.466	231.56957
549.935	170.41848
550.405	199.45502
550.875	230.55654
551.344	258.6325
551.814	238.56547
552.283	207.46148
552.752	229.55131
553.221	316.718
553.69	225.51364
554.159	273.68496
554.628	274.63241
555.096	304.78036
555.565	245.56875
556.033	261.62452
556.502	241.59509
556.97	225.51674
557.438	214.51978
557.906	249.60126
558.374	212.50332
558.842	183.4494
559.31	267.61466
559.777	242.59504
560.245	269.64636
560.712	247.59125
561.18	262.60856
561.647	323.73553
562.114	283.66162
562.581	263.65465
563.048	284.66877
563.514	296.73342
563.981	294.68315
564.448	314.72039
564.914	359.84189
565.381	328.75581
565.847	435.00995
566.313	387.90469
566.779	385.86002
567.245	444.02906
567.711	437.03814
568.176	450.00708
568.642	441.08766
569.108	495.18922
569.573	613.39696
570.038	594.23084
570.504	580.24835
570.969	638.52939
571.434	661.41408
571.899	674.52714
572.363	702.50868
572.828	705.51156
573.293	775.65321
573.757	774.63646
574.222	924.88915
574.686	927.91194
575.15	842.83379
575.614	894.85742
576.078	983.06656
576.542	981.98456
577.006	987.9758
577.469	981.13887
577.933	1070.13126
578.396	1019.10677
578.86	1037.14213
579.323	1105.30712
579.786	1071.01471
580.249	1093.19774
580.712	1045.22583
581.175	1065.28409
581.637	994.98937
582.1	1096.09255
582.563	1047.95256
583.025	1048.22309
583.487	1001.81052
583.95	977.90898
584.412	999.87114
584.874	949.03073
585.336	980.05349
585.797	874.72158
586.259	925.9538
586.721	897.89793
587.182	868.82016
587.643	906.85232
588.105	871.88056
588.566	793.5322
589.027	818.81906
589.488	793.67337
589.949	777.73464
590.41	772.41719
590.87	729.53485
591.331	650.32604
591.791	717.57427
592.252	724.56867
592.712	632.43306
593.172	684.47374
593.632	690.44342
594.092	645.37922
594.552	638.32332
595.011	599.32653
595.471	573.22666
595.931	547.18454
596.39	657.50515
596.849	597.3402
597.308	583.22873
597.768	605.47848
598.227	543.24722
598.685	503.11273
599.144	561.26702
599.603	584.33857
600.062	577.20009
600.52	568.23505
600.978	555.26261
601.437	527.16252
601.895	509.06172
602.353	534.1497
602.811	601.30552
603.269	540.25983
603.727	563.31279
604.184	564.25126
604.642	589.38584
605.099	560.2537
605.557	595.38966
606.014	661.38665
606.471	603.4468
606.928	594.26867
607.385	645.52065
607.842	630.3654
608.299	702.55196
608.755	712.61395
609.212	693.45194
609.668	707.49761
610.125	718.62097
610.581	774.68492
611.037	760.60753
611.493	733.60808
611.949	746.72041
612.405	741.40149
612.861	829.77535
613.316	722.61743
613.772	751.62065
614.227	738.64109
614.683	830.62791
615.138	823.76779
615.593	765.65511
616.048	720.53081
616.503	773.74201
616.958	768.79078
617.412	762.66929
617.867	697.46033
618.321	807.54961
618.776	728.5183
619.23	743.61705
619.684	743.56504
620.138	761.62753
620.592	704.60677
621.046	693.51644
621.5	782.77125
621.954	707.495
622.407	711.48576
622.861	660.51172
623.314	719.52504
623.768	685.50711
624.221	723.36005
624.674	705.5213
625.127	683.49705
625.58	656.40972
626.033	619.291
626.485	652.47905
626.938	643.44534
627.39	689.51401
627.843	642.41035
628.295	584.28441
628.747	622.40409
629.199	578.26428
629.651	576.26573
630.103	578.28236
630.555	587.19272
631.006	559.25788
631.458	565.28539
631.909	545.19175
632.361	503.14093
632.812	570.27297
633.263	526.09749
633.714	511.05788
634.165	553.29904
634.616	522.20681
635.067	516.0966
635.518	499.14876
635.968	507.98897
636.419	546.14383
636.869	533.20957
637.319	483.08529
637.769	522.13921
638.219	485.10048
638.669	496.1448
639.119	560.31115
639.569	507.17371
640.019	482.07352
640.468	428.93967
640.918	459.06199
641.367	524.132
641.816	533.15614
642.265	496.10566
642.714	470.05193
643.163	566.25935
643.612	547.28792
644.061	521.09546
644.51	591.31205
644.958	515.09803
645.406	571.30586
645.855	538.26597
646.303	568.26015
646.751	555.22795
647.199	545.18823
647.647	557.22777
648.095	553.23369
648.543	551.09144
648.99	539.22221
649.438	553.24334
649.885	555.31184
650.333	616.14962
650.78	630.45276
651.227	591.38678
651.674	582.25749
652.121	587.34895
652.568	573.33404
653.015	570.35486
653.461	588.32942
653.908	607.34371
654.354	557.25848
654.801	570.28083
655.247	591.24289
655.693	577.43294
656.139	616.4007
656.585	588.32888
657.031	571.28439
657.477	585.21891
657.922	605.33093
658.368	552.29794
658.813	569.24378
659.259	585.34113
659.704	549.2192
660.149	622.38524
660.594	618.39108
661.039	555.21262
661.484	585.31323
661.929	552.23272
662.373	610.47386
662.818	582.38288
663.262	536.23971
663.707	553.33377
664.151	622.43202
664.595	549.257
665.039	623.46023
665.483	586.41636
665.927	572.27587
666.371	582.29285
666.814	601.35416
667.258	617.41005
667.701	660.32513
668.145	692.59456
668.588	602.38703
669.031	668.49331
669.474	636.43806
669.917	661.36041
670.36	675.5711
670.803	642.43278
671.245	693.36493
671.688	665.49606
672.13	645.36911
672.573	639.49426
673.015	667.50362
673.457	665.35822
673.899	672.49855
674.341	671.50957
674.783	665.48446
675.225	677.53425
675.666	712.61199
676.108	677.36463
676.549	761.63664
676.991	795.61822
677.432	818.51687
677.873	725.5331
678.314	715.57974
678.755	774.71763
679.196	689.4696
679.637	765.68817
680.078	732.55635
680.518	740.56997
680.959	733.63031
681.399	728.67023
681.839	746.65684
682.28	766.72658
682.72	758.59771
683.16	752.69156
683.6	719.49122
684.039	767.45005
684.479	787.76058
684.919	842.77491
685.358	753.73827
685.798	739.77191
686.237	795.73833
686.676	755.57223
687.115	741.58336
687.554	844.78146
687.993	807.598
688.432	802.65726
688.871	802.66244
689.309	790.70014
689.748	769.42974
690.186	782.67067
690.625	817.70674
691.063	887.89146
691.501	831.81555
691.939	804.79383
692.377	859.85543
692.815	865.84452
693.253	910.92252
693.69	843.66316
694.128	905.94983
694.565	886.85629
695.003	907.0239
695.44	896.8624
695.877	952.96485
696.314	907.68683
696.751	901.7794
697.188	854.74671
697.625	923.8314
698.061	901.91386
698.498	908.91077
698.934	922.95552
699.371	906.89155
699.807	958.96049
700.243	929.96823
700.679	970.90288
701.115	947.91572
701.551	948.93739
701.987	1001.94212
702.422	993.05111
702.858	938.93162
703.294	956.86394
703.729	1020.14304
704.164	1025.11731
704.599	1036.96295
705.035	997.95546
705.47	1037.20116
705.904	1044.10721
706.339	987.91674
706.774	1031.0596
707.209	991.97834
707.643	1048.15092
708.078	1096.29284
708.512	1016.21012
708.946	1006.03407
709.38	1043.08936
709.814	1041.00306
710.248	1021.10622
710.682	1058.14426
711.116	1103.25029
711.549	1031.2574
711.983	1024.02252
712.416	1061.11671
712.85	1058.25112
713.283	1085.17764
713.716	1101.3028
714.149	1064.1144
714.582	1115.11101
715.015	1075.23455
715.448	1103.32722
715.881	1062.9187
716.313	1101.16733
716.746	1091.17868
717.178	1070.1696
717.61	1028.19383
718.043	1070.23642
718.475	985.03275
718.907	1134.37761
719.339	1085.08694
719.77	1075.16445
720.202	1068.27731
720.634	1076.24898
721.065	1079.1626
721.497	1086.24099
721.928	1055.21521
722.359	1092.26542
722.79	1123.29631
723.221	1007.15221
723.652	1066.28673
724.083	1086.08837
724.514	1017.99847
724.945	1050.10197
725.375	1078.1601
725.806	1051.19425
726.236	1015.20748
726.666	1060.12007
727.096	1009.1287
727.526	1050.27355
727.956	1081.05937
728.386	996.09255
728.816	991.15524
729.246	1038.17995
729.675	1027.17709
730.105	1034.1212
730.534	1028.04178
730.964	1008.15203
731.393	1002.08861
731.822	1025.23112
732.251	997.15459
732.68	1047.05216
733.109	979.06084
733.537	1038.13323
733.966	1073.27863
734.395	1057.05141
734.823	1030.93073
735.251	1042.14912
735.68	993.1259
736.108	1007.16144
736.536	1009.01
736.964	1011.00562
737.392	993.12681
737.82	991.03513
738.247	938.93162
738.675	1043.08745
739.102	986.13034
739.53	989.17173
739.957	971.16239
740.384	968.01764
740.811	1020.18142
741.238	954.01121
741.665	959.90203
742.092	1034.08604
742.519	946.02821
742.945	936.94991
743.372	943.03172
743.798	949.11336
744.225	941.93477
744.651	980.10748
745.077	977.09071
745.503	983.04488
745.929	953.96736
746.355	1007.11985
746.781	989.09554
747.207	978.01064
747.632	1002.12726
748.058	921.99954
748.483	972.92382
748.908	903.9505
749.334	953.02879
749.759	940.89159
750.184	978.01424
750.609	968.05321
751.033	994.9912
751.458	1013.91418
751.883	985.08163
752.307	946.93853
752.732	1004.17939
753.156	1000.13494
753.58	1020.06337
754.005	933.02984
754.429	942.92512
754.853	952.03235
755.277	925.87288
755.7	1034.18008
756.124	994.11481
756.548	1030.08931
756.971	919.9149
757.394	995.20586
757.818	905.02192
758.241	965.10926
758.664	946.08026
759.087	925.8081
759.51	985.08344
759.933	968.01764
760.356	965.11545
760.778	1012.15037
761.201	973.02763
761.623	945.95083
762.046	983.9868
762.468	950.91873
762.89	1043.15167
763.312	963.04303
763.734	946.96117
764.156	976.06572
764.578	991.95827
765	986.06427
765.421	920.04157
765.843	932.10572
766.264	996.04129
766.686	928.99129
767.107	949.97045
767.528	939.06786
767.949	972.12413
768.37	885.8652
768.791	962.99967
769.212	891.9712
769.632	923.87478
770.053	920.10966
770.473	918.93267
770.894	951.02366
771.314	951.91243
771.734	893.82037
772.154	930.03993
772.575	899.79036
772.994	870.72813
773.414	923.90284
773.834	908.9784
774.254	931.9973
774.673	887.87105
775.093	847.84585
775.512	823.78369
775.931	830.85565
776.351	848.84998
776.77	781.70842
777.189	811.70242
777.607	789.79469
778.026	805.79199
778.445	819.83068
778.864	828.86939
779.282	795.70396
779.701	710.60616
780.119	793.8299
780.537	769.72594
780.955	695.57953
781.373	706.57378
781.791	738.48878
782.209	706.45413
782.627	714.72395
783.045	700.47147
783.462	690.60886
783.88	630.49875
784.297	645.49062
784.715	613.46023
785.132	664.4807
785.549	654.50575
785.966	581.35321
786.383	602.36828
786.8	550.19332
787.217	567.25297
787.633	573.33404
788.05	523.14646
788.466	494.06663
788.883	495.18607
789.299	544.21983
789.715	496.14298
790.131	556.29873
790.547	473.10353
790.963	530.23793
791.379	505.20134
791.795	464.9994
792.21	414.92154
792.626	406.91758
793.041	476.11901
793.457	447.05501
793.872	453.00694
794.287	410.94547
794.702	402.94361
795.117	393.94565
795.532	352.86096
795.947	389.89616
796.362	380.87456
796.776	333.74358
797.191	368.87426
797.605	356.83045
798.02	355.83543
798.434	314.67345
798.848	347.83595
799.262	342.8334
799.676	345.80717
800.09	339.82347
800.504	293.69063
800.918	305.6996
801.331	260.65903
801.745	257.5836
802.158	247.60968
802.572	241.57073
802.985	261.61713
803.398	257.6039
803.811	244.60615
804.224	234.56771
804.637	260.61583
805.05	192.44069
805.462	218.5291
805.875	205.52912
806.288	198.48146
806.7	213.53194
807.112	178.40823
807.525	232.56392
807.937	177.43644
808.349	181.45138
808.761	198.48471
809.173	182.43941
809.584	206.50129
809.996	147.36367
810.408	148.38472
810.819	199.47164
811.231	184.48387
811.642	200.49051
812.053	254.61484
812.464	243.5799
812.875	191.48579
813.286	186.47783
813.697	172.40174
814.108	185.44927
814.519	205.45248
814.929	167.42325
815.34	163.40236
815.75	112.28844
816.16	145.36095
816.571	115.29725
816.981	122.28921
817.391	190.46063
817.801	149.37696
818.211	96.22863
818.62	163.39822
819.03	95.23486
819.44	135.35051
819.849	104.26214
820.259	70.17934
820.668	140.3487
821.077	118.29881
821.486	91.22125
821.895	125.30709
822.304	117.31106
822.713	120.28874
823.122	63.16013
823.531	121.29264
823.939	101.25051
824.348	105.25986
824.756	101.25671
825.164	90.22717
825.573	99.25554
825.981	101.25216
826.389	129.32695
826.797	70.17606
827.205	79.18702
827.612	108.27046
828.02	94.22593
828.428	119.3062
828.835	59.1577
829.243	105.25605
829.65	44.1119
830.057	115.28336
830.464	49.12185
830.871	74.17995
831.278	40.09847
831.685	113.25714
832.092	123.30552
832.499	76.17003
832.905	63.16149
833.312	97.22581
833.718	104.26186
834.124	76.17633
834.531	73.18568
834.937	9.02326
835.343	64.1579
835.749	49.11519
836.155	76.20048
836.561	87.21839
836.966	71.17649
837.372	68.17555
837.777	143.36011
838.183	58.1311
838.588	32.08025
838.993	19.0473
839.399	74.18398
839.804	8.02008
840.209	77.20089
840.613	77.17571
841.018	-6.0155
841.423	50.12998
841.828	62.1604
842.232	84.20922
842.637	82.19791
843.041	77.20144
843.445	90.22847
843.849	26.06563
844.253	62.15054
844.657	43.11115
845.061	80.18635
845.465	36.08928
845.869	112.26458
846.272	86.21381
846.676	64.15598
847.079	94.2441
847.483	69.17295
847.886	51.12404
848.289	36.09779
848.692	41.10572
849.095	106.25902
849.498	78.19703
849.901	41.09594
850.304	81.19774
850.707	21.05426
851.109	54.13704
851.512	94.23583
851.914	58.15145
852.316	37.09418
852.718	32.08472
853.121	67.16721
853.523	88.21207
853.925	55.14671
854.326	20.0509
854.728	81.21183
855.13	93.24445
855.531	65.16063
855.933	-3.00731
856.334	25.06402
856.736	92.21159
857.137	22.05254
857.538	61.15735
857.939	76.1928
858.34	49.12149
858.741	49.12962
859.142	36.08875
859.542	61.16369
859.943	72.18109
860.343	12.03055
860.744	74.18244
861.144	-4.00992
861.544	68.16863
861.945	47.12316
862.345	23.05736
862.745	78.19892
863.145	68.16418
863.544	47.12056
863.944	30.07197
864.344	56.14095
864.743	41.10266
865.143	37.09683
865.542	95.22464
865.941	70.17732
866.34	36.0879
866.74	37.10017
867.139	65.16046
867.537	38.09817
867.936	68.16728
868.335	17.04428
868.734	63.16548
869.132	58.13898
869.531	46.11182
869.929	48.11388
870.327	55.13547
870.726	27.06785
871.124	61.14636
871.522	63.16296
871.92	55.13866
872.318	46.11453
872.715	27.06729
873.113	53.13266
873.511	70.17921
873.908	41.10711
874.306	58.14828
874.703	47.11904
875.1	45.11648
875.497	63.15558
875.894	39.09892
876.291	47.11709
876.688	82.21638
877.085	18.04395
877.482	16.04085
877.878	49.12096
878.275	55.14275
878.671	101.22825
879.068	46.11316
879.464	69.1692
879.86	7.01702
880.256	52.13018
880.652	46.11913
881.048	47.11768
881.444	2.00484
881.84	23.05953
882.236	47.11967
882.631	73.18384
883.027	29.07111
883.422	37.096
883.817	66.17163
884.213	76.19818
884.608	33.08346
885.003	48.11925
885.398	70.18009
885.793	45.11462
886.188	75.19171
886.582	54.1383
886.977	76.1835
887.371	-19.04869
887.766	57.14519
888.16	64.16161
888.554	31.07734
888.949	27.0687
889.343	69.16964
889.737	33.09055
890.131	38.09623
890.525	43.11153
890.918	-5.01279
891.312	66.15791
891.706	-7.01846
892.099	23.05892
892.492	85.18825
892.886	20.04982
893.279	23.06011
893.672	-19.04887
894.065	27.06868
894.458	107.27331
894.851	65.1611
895.244	-8.02088
895.637	70.17213
896.029	24.05987
896.422	36.08937
896.814	27.06831
897.206	57.13848
897.599	78.19294
897.991	-5.01237
898.383	79.19222
898.775	29.06724
899.167	63.15151
899.559	52.13294
899.951	55.13187
900.342	53.13524
900.734	49.12582
901.125	33.0878
901.517	40.10079
901.908	56.13572
902.299	71.17931
902.69	77.18567
903.082	65.15957
903.473	65.16016
903.863	43.11145
904.254	49.11766
904.645	58.1463
905.036	64.15871
905.426	26.06061
905.817	81.20223
906.207	28.06908
906.597	13.03101
906.987	77.20137
907.378	28.07153
907.768	24.06458
908.158	36.08957
908.547	59.15514
908.937	30.07748
909.327	99.2443
909.717	55.14019
910.106	28.06868
910.495	82.20683
910.885	57.14713
911.274	40.10169
911.663	58.1474
912.052	34.08466
912.441	47.12043
912.83	51.12064
913.219	47.12392
913.608	36.08954
913.997	9.02326
914.385	70.16856
914.774	39.09666
915.162	48.11782
915.55	64.15668
915.939	27.06955
916.327	4.01008
916.715	38.09841
917.103	81.19981
917.491	8.02004
917.878	18.04454
918.266	7.01828
918.654	81.21045
919.041	25.06678
919.429	40.09698
919.816	19.04877
920.203	35.08703
920.591	49.12278
920.978	43.10537
921.365	33.08794
921.752	87.21128
922.139	70.15706
922.525	79.19494
922.912	23.05703
923.299	47.11929
923.685	29.07715
924.072	47.10903
924.458	24.06071
924.844	41.10381
925.231	45.10748
925.617	30.07817
926.003	34.08805
926.389	67.17138
926.774	54.13873
927.16	59.14869
927.546	59.15419
927.931	61.15433
928.317	36.08419
928.702	29.06953
929.088	43.10482
929.473	15.03883
929.858	12.03005
930.243	28.06908
930.628	92.22931
931.013	58.14645
931.398	8.01879
931.783	32.08472
932.167	71.17803
932.552	33.08325
932.937	52.13046
933.321	39.10004
933.705	71.1818
934.09	47.11895
934.474	30.07257
934.858	58.15207
935.242	57.13562
935.626	46.12044
936.009	-26.06983
936.393	41.10561
936.777	5.0131
937.16	-16.04233
937.544	21.05031
937.927	36.09371
938.311	39.09634
938.694	50.13265
939.077	34.08327
939.46	2.00489
939.843	116.24912
940.226	53.1378
940.609	120.28381
940.991	27.0701
941.374	55.13712
941.757	37.09218
942.139	56.13116
942.522	13.03119
942.904	36.08843
943.286	46.11748
943.668	57.14967
944.05	28.07058
944.432	66.16707
944.814	32.07939
945.196	43.10837
945.578	104.25555
945.959	74.17671
946.341	-12.02954
946.722	34.08138
947.104	53.12939
947.485	19.04547
947.866	70.18153
948.247	-9.02307
948.628	18.04439
949.009	57.14881
949.39	9.02281
949.771	56.13311
950.152	69.17302
950.532	48.12185
950.913	80.19527
951.293	19.05232
951.674	120.29823
952.054	70.17814
952.434	28.07063
952.814	25.06096
953.194	25.06589
953.574	63.15518
953.954	8.01956
954.334	36.09165
954.714	27.06773
955.093	55.13612
955.473	34.08622
955.853	23.06025
956.232	0
956.611	24.05869
956.99	67.17192
957.37	54.13985
957.749	66.16092
958.128	45.11632
958.506	61.16213
958.885	45.11599
959.264	68.17226
959.643	25.05815
960.021	96.24145
960.4	50.11683
960.778	24.06021
961.156	63.16121
961.535	80.18855
961.913	74.17617
962.291	64.16905
962.669	0
963.047	29.07483
963.424	5.013
963.802	28.07073
964.18	46.11756
964.557	42.09903
964.935	55.13272
965.312	-4.01059
965.69	66.16552
966.067	34.08484
966.444	15.03746
966.821	28.07296
967.198	76.18564
967.575	32.07889
967.952	28.0673
968.329	62.15353
968.705	52.1135
969.082	54.14124
969.458	14.03504
969.835	36.08905
970.211	61.1598
970.587	41.10347
970.963	26.0675
971.339	15.03993
971.715	7.01784
972.091	54.13509
972.467	61.15417
972.843	20.05077
973.219	22.0532
973.594	61.1632
973.97	73.17509
974.345	63.15403
974.721	35.0851
975.096	35.08634
975.471	40.09694
975.846	61.14831
976.221	62.16134
976.596	38.09372
976.971	25.06282
977.346	44.10374
977.72	39.10126
978.095	61.15985
978.469	41.09927
978.844	7.01777
979.218	-13.03206
979.593	40.09731
979.967	-3.00749
980.341	18.04244
980.715	68.17397
981.089	1.00253
981.463	81.19257
981.837	22.05533
982.21	31.07336
982.584	56.13791
982.957	48.12267
983.331	65.15649
983.704	-7.01735
984.078	68.17072
984.451	4.01004
984.824	43.10728
985.197	-1.00248
985.57	27.06889
985.943	55.13612
986.316	100.24626
986.688	43.10498
987.061	96.22968
987.434	52.13708
987.806	71.17482
988.179	48.11655
988.551	37.09564
988.923	58.14478
989.295	3.00751
989.667	31.07669
990.039	22.05605
990.411	30.07082
990.783	77.17947
991.155	106.26229
991.527	36.08911
991.898	69.17501
992.27	19.04785
992.641	53.1339
993.012	76.18114
993.384	4.00973
993.755	65.16877
994.126	73.17722
994.497	12.03029
994.868	47.11105
995.239	27.06646
995.61	21.05424
995.98	76.18902
996.351	18.04558
996.722	44.10616
997.092	36.08771
997.462	41.09905
997.833	70.16748
998.203	49.11985
998.573	-10.02547
998.943	52.12536
999.313	41.10099
999.683	75.18501
1000.053	55.1299
1000.423	51.12483
1000.792	49.12949
1001.162	18.04503
1001.531	47.11798
1001.901	91.23171
1002.27	96.21779
1002.639	55.1431
1003.009	42.10122
1003.378	17.0439
1003.747	93.22458
1004.116	41.10058
1004.485	37.08952
1004.853	49.12569
1005.222	58.14677
1005.591	14.03397
1005.959	58.13579
1006.328	74.17033
1006.696	46.11437
1007.064	15.03833
1007.433	43.10868
1007.801	54.13293
1008.169	20.05088
1008.537	71.16084
1008.905	75.17906
1009.273	51.12636
1009.64	45.11109
1010.008	93.22526
1010.375	19.04566
1010.743	104.24044
1011.11	46.11186
1011.478	17.04275
1011.845	44.10519
1012.212	52.12146
1012.579	28.06959
1012.946	62.1493
1013.313	3.00726
1013.68	89.20203
1014.047	40.09825
1014.414	72.1739
1014.78	21.0529
1015.147	41.09953
1015.513	38.09362
1015.88	43.10999
1016.246	38.09358
1016.612	16.03715
1016.978	54.13435
1017.344	69.17376
1017.71	7.01717
1018.076	81.1922
1018.442	-5.013
1018.808	54.13713
1019.174	56.14312
1019.539	-2.00463
1019.905	30.07243
1020.27	48.12125
1020.636	61.1482
1021.001	43.10435
1021.366	7.01731
1021.731	-6.01555
1022.096	-14.03638
1022.461	10.02427
1022.826	53.12784
1023.191	-9.02401
1023.556	68.163
1023.92	10.02491
1024.285	61.15086
1024.649	27.0676
1025.014	49.12331
1025.378	40.10241
1025.742	66.1666
1026.107	32.07372
1026.471	25.05875
1026.835	84.21173
1027.199	71.17739
1027.562	59.13957
1027.926	40.09909
1028.29	54.13965
1028.654	32.07551
1029.017	13.0323
1029.381	18.04416
1029.744	11.02838
1030.107	17.04099
1030.471	-7.01704
1030.834	56.12921
1031.197	48.11585
1031.56	27.06481
1031.923	26.06815
1032.286	80.18928
1032.648	71.1734
1033.011	14.03283
1033.374	46.10879
1033.736	31.08297
1034.099	62.15443
1034.461	-10.02574
1034.823	23.05817
1035.185	36.092
1035.548	45.1121
1035.91	22.05392
1036.272	-6.01393
1036.634	1.00247
1036.995	74.17799
1037.357	69.17039
1037.719	-33.08167
1038.08	70.16735
1038.442	25.06046
1038.803	30.07314
1039.165	76.19553
1039.526	50.12259
1039.887	59.14388
1040.248	16.04023
1040.609	37.09161
1040.97	86.21335
1041.331	60.15339
1041.692	75.1816
1042.053	74.17176
1042.413	61.14458
1042.774	23.05682
1043.134	73.17642
1043.495	42.10628
1043.855	29.07164
1044.215	70.17657
1044.576	65.16028
1044.936	70.16267
1045.296	91.22801
1045.656	5.01244
1046.016	-4.00982
1046.375	6.01479
1046.735	26.06092
1047.095	53.1261
1047.454	33.07174
1047.814	30.07355
1048.173	-17.04065
1048.533	32.07489
1048.892	32.07941
1049.251	59.1498
1049.61	14.03516
1049.969	98.2367
1050.328	25.05578
1050.687	-6.01493
1051.046	-29.0719
1051.405	82.20757
1051.763	19.0451
1052.122	19.04836
1052.48	-1.00248
1052.839	61.14592
1053.197	63.15151
1053.555	-1.00227
1053.914	-1.00247
1054.272	28.06794
1054.63	57.14277
1054.988	73.17669
1055.345	5.01116
1055.703	36.08784
1056.061	-6.01571
1056.419	11.02895
1056.776	13.03176
1057.134	65.1534
1057.491	28.0709
1057.848	25.0626
1058.206	23.05548
1058.563	24.05431
1058.92	41.09503
1059.277	40.09967
1059.634	31.0741
1059.991	54.13136
1060.348	48.11181
1060.704	38.09293
1061.061	50.1172
1061.418	-9.02231
1061.774	54.13533
1062.131	27.07283
1062.487	46.10989
1062.843	13.03279
1063.199	58.14708
1063.555	72.17121
1063.911	34.08616
1064.267	106.22215
1064.623	-25.06271
1064.979	64.15277
1065.335	49.11779
1065.691	28.06804
1066.046	-17.0377
1066.402	54.12692
1066.757	16.04083
1067.112	84.20572
1067.468	84.20671
1067.823	46.11303
1068.178	46.11203
1068.533	59.14516
1068.888	32.07744
1069.243	40.10006
1069.598	68.16752
1069.952	-4.00941
1070.307	68.17275
1070.662	18.04353
1071.016	27.06231
1071.371	41.09492
1071.725	20.04864
1072.079	-7.01713
1072.434	16.03997
1072.788	77.18637
1073.142	46.11524
1073.496	-8.01948
1073.85	7.01648
1074.203	121.29902
1074.557	46.1237
1074.911	39.0934
1075.265	72.16936
1075.618	22.05414
1075.971	44.10632
1076.325	38.09824
1076.678	59.13941
1077.031	32.07477
1077.385	55.12505
1077.738	38.08831
1078.091	41.09624
1078.444	52.12279
1078.796	-16.04001
1079.149	47.11772
1079.502	89.21655
1079.855	69.16461
1080.207	70.17385
1080.56	21.05503
1080.912	54.13225
1081.264	41.10047
1081.617	88.21911
1081.969	27.07001
1082.321	44.1084
1082.673	18.04277
1083.025	54.13082
1083.377	68.14988
1083.728	66.15471
1084.08	18.04561
1084.432	14.03467
1084.783	35.08324
1085.135	49.12463
1085.486	50.1188
1085.838	37.09294
1086.189	24.05902
1086.54	23.05577
1086.891	26.06733
1087.242	19.04673
1087.593	78.19074
1087.944	26.05973
1088.295	62.14317
1088.646	85.20944
1088.996	14.03443
1089.347	34.08487
1089.698	-15.03673
1090.048	27.06998
1090.398	-4.00945
1090.749	74.17941
1091.099	113.29117
1091.449	51.12848
1091.799	86.21723
1092.149	23.05856
1092.499	23.05703
1092.849	52.13462
1093.199	-8.02027
1093.548	57.13998
1093.898	28.07136
1094.248	23.05966
1094.597	61.16018
1094.947	7.01888
1095.296	15.03759
1095.645	17.04478
1095.994	56.13541
1096.343	14.0358
1096.692	78.21181
1097.041	-34.09331
1097.39	73.18679
1097.739	39.10241
1098.088	62.16711
1098.437	25.06695
1098.785	2.00541
1099.134	41.10926
1099.482	48.13302
1099.83	33.08689
1100.179	60.15976
1100.527	34.09083
1100.875	-3.00807
1101.223	20.05364
1101.571	31.08652
1101.919	58.1552
1102.267	5.01421
1102.615	8.0258
1102.962	9.02896
1103.31	6.01933
1103.658	7.02259
