Data from N2 R0 150C sample3_Subt2__1__13-05-45-162.txt Node

Date: Tue Aug 19 13:05:45 PDT 2025
User: uwsun
Spectrometer: HDX01956
Trigger mode: 0
Integration Time (sec): 5.000000E-1
Scans to average: 1
Nonlinearity correction enabled: true
Boxcar width: 0
Storing dark spectrum: false
XAxis mode: Wavelengths
Number of Pixels in Spectrum: 2068
>>>>>Begin Spectral Data<<<<<
194.03	76.22083
194.578	68.22027
195.127	74.23646
195.676	70.22458
196.225	126.34391
196.773	88.25069
197.321	148.42059
197.87	214.56901
198.418	166.44007
198.966	220.59117
199.513	156.40426
200.061	178.46967
200.609	177.48008
201.156	155.35798
201.704	177.46522
202.251	199.54461
202.798	184.4938
203.345	215.5476
203.892	134.35191
204.438	182.45297
204.985	212.5282
205.532	169.45927
206.078	218.55279
206.624	181.46394
207.17	199.48181
207.716	184.46559
208.262	182.38007
208.808	219.56427
209.354	203.51393
209.899	221.56783
210.445	211.54555
210.99	193.48758
211.535	220.53955
212.08	227.55352
212.625	204.52863
213.17	187.48851
213.715	218.51935
214.259	255.61249
214.804	206.52106
215.348	172.41025
215.892	214.52911
216.436	243.58101
216.98	214.49846
217.524	242.58932
218.068	284.73386
218.612	201.52095
219.155	187.45769
219.698	201.4967
220.242	183.47054
220.785	187.45259
221.328	161.41325
221.871	195.50279
222.414	206.52625
222.956	190.48025
223.499	121.28811
224.041	193.46641
224.583	179.39923
225.126	221.50512
225.668	178.44607
226.21	171.44336
226.751	159.36941
227.293	197.4723
227.835	207.52369
228.376	182.43509
228.918	212.54823
229.459	167.4312
230	198.48525
230.541	218.52771
231.082	122.30486
231.622	158.37859
232.163	174.43746
232.704	165.42085
233.244	149.38272
233.784	189.47577
234.324	239.55372
234.864	166.39396
235.404	181.44466
235.944	168.41203
236.484	163.41531
237.023	183.45156
237.563	207.49476
238.102	173.4195
238.641	182.47358
239.18	168.41234
239.719	185.47684
240.258	210.49068
240.797	198.49225
241.335	208.52331
241.874	232.4776
242.412	219.54633
242.95	205.50733
243.488	211.5022
244.026	186.44432
244.564	199.43114
245.102	164.38591
245.64	201.49488
246.177	231.53858
246.715	232.57214
247.252	194.46307
247.789	201.4025
248.326	238.59189
248.863	218.50277
249.4	216.50925
249.936	171.37064
250.473	194.47227
251.009	221.52983
251.546	199.45831
252.082	164.37824
252.618	178.41363
253.154	224.55809
253.69	212.49244
254.226	207.50871
254.761	301.70093
255.297	194.44136
255.832	171.41792
256.367	256.62108
256.903	140.32121
257.438	198.48002
257.972	202.47255
258.507	205.49279
259.042	195.44803
259.576	210.47969
260.111	230.54752
260.645	205.45835
261.179	173.41965
261.713	232.54038
262.247	236.5646
262.781	162.36199
263.315	223.56376
263.849	204.52663
264.382	222.52482
264.915	236.57643
265.449	277.70099
265.982	234.55404
266.515	208.51823
267.048	178.40381
267.58	211.48226
268.113	219.49611
268.646	191.48802
269.178	203.47479
269.71	225.51405
270.243	184.43651
270.775	203.52595
271.307	216.53308
271.838	200.48396
272.37	223.56154
272.902	270.62937
273.433	161.36665
273.965	214.5355
274.496	181.45857
275.027	227.5755
275.558	205.51252
276.089	219.55778
276.62	200.52024
277.15	180.45206
277.681	200.4574
278.211	152.37748
278.741	186.43205
279.272	188.44669
279.802	211.53646
280.332	193.47185
280.861	244.60151
281.391	192.45355
281.921	220.54474
282.45	257.65316
282.98	219.58046
283.509	222.51464
284.038	202.47902
284.567	205.48923
285.096	267.65928
285.625	235.55566
286.153	195.47053
286.682	208.49439
287.21	215.53402
287.739	231.56537
288.267	229.56879
288.795	206.54244
289.323	244.59419
289.851	276.66507
290.378	234.54568
290.906	205.51382
291.433	219.55424
291.961	218.51197
292.488	245.61738
293.015	256.62248
293.542	253.65366
294.069	184.4631
294.596	233.5842
295.122	218.53524
295.649	228.51933
296.175	280.69632
296.702	241.59444
297.228	267.65589
297.754	264.62071
298.28	276.64488
298.806	235.57815
299.332	233.53939
299.857	237.55257
300.383	241.61705
300.908	247.61416
301.433	221.54652
301.958	245.57638
302.483	280.70719
303.008	260.65153
303.533	240.62598
304.058	308.73626
304.582	251.60975
305.107	245.64979
305.631	237.55257
306.155	279.6658
306.679	237.56472
307.203	265.63167
307.727	285.68558
308.251	284.70806
308.775	276.6716
309.298	276.68188
309.822	302.76655
310.345	365.87464
310.868	249.60738
311.391	273.67805
311.914	304.76752
312.437	311.72165
312.96	274.657
313.482	258.62264
314.005	296.74892
314.527	295.77687
315.049	282.70995
315.571	318.73248
316.093	323.80483
316.615	344.8364
317.137	291.65115
317.659	335.82228
318.18	311.74811
318.702	303.70976
319.223	371.79174
319.744	306.70344
320.265	337.82199
320.786	354.87901
321.307	342.85015
321.828	395.90236
322.348	334.7987
322.869	322.7794
323.389	327.51642
323.909	337.77949
324.43	367.87306
324.95	318.74095
325.47	323.79196
325.989	361.85351
326.509	377.84389
327.029	357.80867
327.548	405.91141
328.067	392.94806
328.587	392.96089
329.106	346.78137
329.625	400.01712
330.144	414.95735
330.662	374.85663
331.181	379.88391
331.7	447.03418
332.218	427.93175
332.736	441.01745
333.255	415.95604
333.773	434.00385
334.291	424.02358
334.808	455.01265
335.326	459.0241
335.844	489.1154
336.361	494.20631
336.879	559.27019
337.396	489.13913
337.913	501.1166
338.43	502.10197
338.947	481.10109
339.464	539.1269
339.981	485.11604
340.497	486.143
341.014	502.18115
341.53	521.1219
342.046	532.23726
342.562	543.28839
343.078	551.24086
343.594	571.29015
344.11	532.19924
344.626	573.35965
345.141	540.1706
345.657	554.18618
346.172	565.28695
346.687	559.23115
347.202	586.25048
347.717	562.27263
348.232	594.38596
348.747	641.38307
349.261	646.33815
349.776	644.41001
350.29	616.42833
350.805	620.44328
351.319	639.39758
351.833	619.30643
352.347	635.38297
352.861	572.25008
353.374	626.32902
353.888	606.36349
354.401	622.33543
354.915	681.41735
355.428	659.49766
355.941	683.47001
356.454	743.50745
356.967	658.41948
357.48	673.41185
357.993	729.61672
358.505	629.40865
359.018	699.54757
359.53	724.58865
360.042	713.43796
360.554	705.53558
361.066	719.5866
361.578	726.42701
362.09	752.59129
362.602	694.39542
363.113	724.52998
363.625	763.54245
364.136	783.53596
364.647	783.65081
365.158	794.62534
365.669	793.66972
366.18	745.55963
366.691	832.61496
367.201	817.71879
367.712	822.65466
368.222	856.70818
368.733	901.72875
369.243	889.71388
369.753	936.87577
370.263	938.92298
370.773	885.8489
371.282	879.79343
371.792	971.93301
372.301	948.9435
372.811	945.05511
373.32	988.76475
373.829	1013.99154
374.338	992.82199
374.847	1069.01486
375.356	1060.04604
375.865	1107.86714
376.373	1183.10041
376.882	1211.36654
377.39	1209.2507
377.898	1208.30473
378.407	1285.15128
378.915	1361.1158
379.423	1408.39103
379.93	1404.24197
380.438	1528.59059
380.946	1651.59051
381.453	1640.60467
381.96	1750.63297
382.468	1929.74403
382.975	1984.77781
383.482	1983.44756
383.989	2021.96459
384.495	2089.57554
385.002	2258.29672
385.509	2409.7534
386.015	2541.99055
386.521	2660.47589
387.028	2767.33759
387.534	2849.14417
388.04	2888.43184
388.546	3027.13888
389.051	3124.91945
389.557	3298.99459
390.063	3672.78269
390.568	3823.82163
391.073	4008.3896
391.578	4058.6821
392.084	4123.07409
392.589	4129.74405
393.093	4603.82478
393.598	5030.32211
394.103	5438.17001
394.607	6072.89962
395.112	6500.04142
395.616	6764.07832
396.12	7427.68231
396.624	8087.96316
397.128	8938.40707
397.632	9745.36137
398.136	10548.78106
398.639	11136.23443
399.143	12404.71434
399.646	13828.14102
400.15	15241.58585
400.653	16933.21531
401.156	18929.21427
401.659	22238.1704
402.162	27027.98229
402.664	35022.07357
403.167	46553.7471
403.67	21603.94854
404.172	2696.20453
404.674	0
405.176	0
405.678	0
406.18	0
406.682	0
407.184	0
407.686	25783.58453
408.187	43316.52985
408.688	51225.60928
409.19	54389.01922
409.691	48934.05877
410.192	42032.23533
410.693	36914.0508
411.194	33509.55485
411.694	31840.33026
412.195	30220.36231
412.696	27502.1624
413.196	25561.76135
413.696	24849.43265
414.196	25522.03721
414.696	25233.25613
415.196	24032.24571
415.696	22422.38992
416.196	18062.62942
416.695	13754.71367
417.195	11630.73372
417.694	11128.26169
418.194	10507.24782
418.693	9942.9989
419.192	9286.73658
419.691	9376.0093
420.19	9221.31139
420.688	8919.18037
421.187	8564.51871
421.685	8069.81491
422.184	7376.61376
422.682	6293.85573
423.18	5410.23823
423.678	4698.77139
424.176	4249.15166
424.674	4101.1096
425.172	3974.63113
425.669	3709.09957
426.167	3487.02217
426.664	3206.16215
427.161	2915.2544
427.659	2731.7019
428.156	2588.13056
428.652	2378.98966
429.149	2255.77253
429.646	2224.42163
430.143	2119.71721
430.639	1995.65886
431.135	1860.84054
431.632	1778.49184
432.128	1702.62654
432.624	1566.73913
433.12	1491.28766
433.616	1505.20992
434.111	1453.39492
434.607	1376.36887
435.103	1286.94208
435.598	1335.99094
436.093	1242.18576
436.588	1122.9043
437.083	1127.95344
437.578	1060.94522
438.073	1042.11274
438.568	973.93879
439.062	976.71284
439.557	934.82099
440.051	862.63752
440.546	822.59703
441.04	898.82602
441.534	887.91511
442.028	809.65719
442.522	811.67326
443.015	795.50528
443.509	833.75017
444.002	782.66491
444.496	762.47397
444.989	656.41879
445.482	710.55726
445.975	747.51696
446.468	723.37873
446.961	740.42178
447.454	667.34321
447.947	712.51182
448.439	588.27264
448.931	693.41356
449.424	643.43885
449.916	663.44951
450.408	614.2661
450.9	629.39073
451.392	594.35662
451.884	594.244
452.375	604.38225
452.867	592.22122
453.358	612.27893
453.849	544.08082
454.341	589.22508
454.832	546.10146
455.323	539.21776
455.814	559.1951
456.304	545.16412
456.795	570.21155
457.285	521.07284
457.776	496.05265
458.266	479.07013
458.756	491.09292
459.247	498.11745
459.737	495.11866
460.226	514.09376
460.716	485.10092
461.206	493.11549
461.695	459.07039
462.185	461.01797
462.674	534.16397
463.163	413.87486
463.653	521.05165
464.142	399.92688
464.63	505.16398
465.119	454.99925
465.608	448.99803
466.096	395.8382
466.585	457.00407
467.073	380.87212
467.561	379.87557
468.05	413.92408
468.538	386.90995
469.026	396.91356
469.513	518.12092
470.001	334.74196
470.489	408.93861
470.976	397.89158
471.463	359.86157
471.951	309.74865
472.438	339.7782
472.925	315.72311
473.412	350.82639
473.899	331.74064
474.385	307.73401
474.872	383.88234
475.359	325.78118
475.845	324.67629
476.331	249.53255
476.817	284.67838
477.303	296.68073
477.789	302.71612
478.275	248.60821
478.761	318.75667
479.247	322.72332
479.732	272.67274
480.218	270.69044
480.703	278.68354
481.188	261.56522
481.673	239.55196
482.158	261.57222
482.643	225.56231
483.128	226.52288
483.612	218.51277
484.097	248.5967
484.581	224.52051
485.066	246.60018
485.55	208.46956
486.034	165.3642
486.518	188.45287
487.002	276.68188
487.486	197.48503
487.969	210.52094
488.453	185.46453
488.936	217.50276
489.42	169.38145
489.903	148.37477
490.386	206.35865
490.869	137.30821
491.352	214.52348
491.835	170.36541
492.318	235.55135
492.8	191.41311
493.283	178.46095
493.765	185.46303
494.247	168.39978
494.73	179.40797
495.212	154.37854
495.694	163.39079
496.175	214.52134
496.657	169.40841
497.139	181.33778
497.62	164.40073
498.102	139.35279
498.583	132.33616
499.064	168.39425
499.545	161.3804
500.026	115.27056
500.507	171.40903
500.988	207.52275
501.469	124.32068
501.949	159.40226
502.43	124.30728
502.91	167.36645
503.39	128.32505
503.87	153.37518
504.35	147.35471
504.83	148.34079
505.31	115.28648
505.79	166.41165
506.269	152.3692
506.749	75.18036
507.228	148.36204
507.707	122.28362
508.187	129.31422
508.666	136.34597
509.145	142.34763
509.623	137.33096
510.102	130.32567
510.581	124.30559
511.059	138.35602
511.538	107.2822
512.016	152.37886
512.494	124.31176
512.972	95.23529
513.45	112.27429
513.928	147.37243
514.406	132.33449
514.884	129.34102
515.361	161.40005
515.839	151.36051
516.316	137.34277
516.793	125.32477
517.27	59.14794
517.747	129.34033
518.224	140.3398
518.701	171.40309
519.178	98.25045
519.654	101.24951
520.131	124.31523
520.607	121.3082
521.083	120.28787
521.56	150.37129
522.036	120.27897
522.512	121.30362
522.987	136.33738
523.463	120.29965
523.939	149.37576
524.414	141.33805
524.89	80.19897
525.365	133.3179
525.84	131.32907
526.315	119.3
526.79	139.32906
527.265	126.30559
527.74	77.19578
528.215	155.38177
528.689	95.22412
529.164	84.19335
529.638	134.35501
530.112	132.3271
530.587	127.28946
531.061	102.25774
531.534	81.20311
532.008	124.31176
532.482	56.13419
532.956	79.20863
533.429	116.29175
533.903	65.15209
534.376	99.23092
534.849	114.27773
535.322	109.26927
535.795	100.25395
536.268	88.21966
536.741	101.25216
537.213	140.33699
537.686	125.31794
538.158	66.15688
538.631	106.26565
539.103	75.18036
539.575	85.1877
540.047	114.26408
540.519	67.16885
540.991	119.30064
541.463	122.30706
541.934	123.29591
542.406	108.27027
542.877	144.34439
543.348	130.32614
543.82	144.361
544.291	112.27205
544.762	108.26685
545.233	163.41985
545.703	150.34939
546.174	148.35895
546.645	150.37482
547.115	142.35791
547.585	101.2439
548.056	198.49815
548.526	209.51267
548.996	163.40266
549.466	155.38753
549.935	175.43039
550.405	204.46598
550.875	189.46087
551.344	206.5099
551.814	268.63306
552.283	197.4401
552.752	264.63134
553.221	275.63004
553.69	258.58504
554.159	249.62745
554.628	261.60397
555.096	330.84323
555.565	300.68882
556.033	316.74816
556.502	292.71424
556.97	288.65306
557.438	337.79956
557.906	354.83778
558.374	385.88341
558.842	351.83501
559.31	430.95754
559.777	364.87473
560.245	463.06915
560.712	500.13663
561.18	509.12228
561.647	499.09376
562.114	563.24153
562.581	574.34502
563.048	663.44341
563.514	585.37002
563.981	643.38857
564.448	746.5607
564.914	751.62341
565.381	777.62741
565.847	829.77611
566.313	857.81562
566.779	916.81961
567.245	986.0398
567.711	1020.15053
568.176	1067.08556
568.642	1091.36687
569.108	1171.45042
569.573	1257.49232
570.038	1366.34908
570.504	1284.34908
570.969	1423.8987
571.434	1554.69125
571.899	1546.88524
572.363	1588.77063
572.828	1669.8457
573.293	1743.95083
573.757	1762.9349
574.222	1860.01554
574.686	1894.07808
575.15	1904.22753
575.614	1972.13787
576.078	2050.32577
576.542	2015.14016
577.006	2057.13204
577.469	2009.44601
577.933	2069.19819
578.396	1992.24645
578.86	2014.27558
579.323	2018.38304
579.786	1987.93129
580.249	2005.21164
580.712	1972.37399
581.175	1952.40253
581.637	1887.01685
582.1	1943.97697
582.563	1818.7642
583.025	1765.16901
583.487	1772.59739
583.95	1816.86303
584.412	1779.71122
584.874	1683.03924
585.336	1682.98894
585.797	1653.67375
586.259	1632.92033
586.721	1543.80871
587.182	1622.84353
587.643	1516.67735
588.105	1506.81309
588.566	1487.40574
589.027	1464.82122
589.488	1438.60962
589.949	1491.84005
590.41	1412.18498
590.87	1403.52092
591.331	1402.37951
591.791	1388.6199
592.252	1432.63786
592.712	1411.69501
593.172	1419.57953
593.632	1456.53646
594.092	1410.52135
594.552	1459.48015
595.011	1464.66233
595.471	1430.50133
595.931	1417.5049
596.39	1552.91909
596.849	1535.7871
597.308	1530.56494
597.768	1574.14711
598.227	1603.90529
598.685	1630.76916
599.144	1729.98465
599.603	1843.16709
600.062	1897.81972
600.52	1938.01408
600.978	2043.27155
601.437	2112.15312
601.895	2193.93413
602.353	2260.12674
602.811	2411.29755
603.269	2463.62459
603.727	2626.70971
604.184	2680.44633
604.642	2811.84586
605.099	2939.52986
605.557	3074.84482
606.014	3206.26436
606.471	3271.04355
606.928	3457.23745
607.385	3563.94754
607.842	3587.34373
608.299	3910.47322
608.755	3930.65905
609.212	4137.00035
609.668	4283.02291
610.125	4365.45481
610.581	4494.20654
611.037	4581.93544
611.493	4699.09089
611.949	4766.45875
612.405	4860.04466
612.861	4912.94379
613.316	4990.0684
613.772	5093.77639
614.227	5083.98373
614.683	5171.21255
615.138	5189.79907
615.593	5103.81074
616.048	5205.56075
616.503	5179.08748
616.958	5250.31386
617.412	5190.84812
617.867	5186.43642
618.321	5115.08257
618.776	5121.48782
619.23	4966.89778
619.684	4952.67371
620.138	4866.85609
620.592	4763.3114
621.046	4796.95667
621.5	4677.42083
621.954	4605.84133
622.407	4517.81487
622.861	4514.40252
623.314	4358.01172
623.768	4241.27456
624.221	4169.37276
624.674	4140.21458
625.127	4004.34942
625.58	3996.17894
626.033	3900.9723
626.485	3781.62666
626.938	3816.53785
627.39	3640.50047
627.843	3544.459
628.295	3401.41995
628.747	3392.64107
629.199	3431.37124
629.651	3279.42416
630.103	3189.49582
630.555	3110.0083
631.006	3105.56361
631.458	3045.6388
631.909	3015.37571
632.361	2958.54083
632.812	2892.52359
633.263	2846.0939
633.714	2763.03392
634.165	2738.77556
634.616	2750.64783
635.067	2607.15371
635.518	2619.56362
635.968	2623.73025
636.419	2545.10259
636.869	2486.47755
637.319	2414.34653
637.769	2426.24476
638.219	2387.38742
638.669	2354.47134
639.119	2412.64115
639.569	2262.44945
640.019	2326.2651
640.468	2296.12045
640.918	2305.4225
641.367	2291.14611
641.816	2229.14556
642.265	2322.28148
642.714	2320.27454
643.163	2274.31874
643.612	2380.64171
644.061	2280.01552
644.51	2339.36409
644.958	2366.10488
645.406	2198.41383
645.855	2343.60956
646.303	2303.32097
646.751	2357.31909
647.199	2314.2197
647.647	2323.28797
648.095	2369.36318
648.543	2439.8282
648.99	2348.42133
649.438	2446.43457
649.885	2326.6411
650.333	2405.63668
650.78	2509.67677
651.227	2407.6829
651.674	2359.23225
652.121	2374.55131
652.568	2381.60887
653.015	2369.71079
653.461	2471.5103
653.908	2490.42758
654.354	2411.44966
654.801	2416.43713
655.247	2421.13531
655.693	2384.9733
656.139	2420.54803
656.585	2367.46314
657.031	2375.42556
657.477	2426.08729
657.922	2481.39024
658.368	2509.70073
658.813	2494.3242
659.259	2499.59239
659.704	2446.36706
660.149	2511.48235
660.594	2525.53939
661.039	2493.30683
661.484	2519.48733
661.929	2564.43875
662.373	2663.98778
662.818	2641.84653
663.262	2729.66154
663.707	2710.92821
664.151	2771.74399
664.595	2790.63033
665.039	2819.86449
665.483	2830.01621
665.927	2881.51771
666.371	2955.51137
666.814	2938.61747
667.258	3106.73386
667.701	3153.02658
668.145	3225.88445
668.588	3276.76326
669.031	3321.64769
669.474	3269.6845
669.917	3373.12344
670.36	3392.92058
670.803	3525.56762
671.245	3535.86872
671.688	3597.63711
672.13	3628.21951
672.573	3687.85359
673.015	3729.61926
673.457	3811.94234
673.899	3841.51506
674.341	3933.54346
674.783	4042.43652
675.225	4007.5775
675.666	4231.52922
676.108	4302.64731
676.549	4361.16834
676.991	4444.80395
677.432	4626.17182
677.873	4585.87921
678.314	4716.10624
678.755	4746.21402
679.196	4792.77032
679.637	4872.08795
680.078	4930.73462
680.518	5029.67536
680.959	5172.92693
681.399	5275.10309
681.839	5359.83093
682.28	5363.97336
682.72	5486.40389
683.16	5602.80415
683.6	5709.12661
684.039	5887.56734
684.479	5929.65061
684.919	6069.25101
685.358	6280.68433
685.798	6194.00427
686.237	6514.27789
686.676	6584.90147
687.115	6800.00758
687.554	6896.05962
687.993	6983.67565
688.432	7129.8997
688.871	7221.92973
689.309	7492.17431
689.748	7672.65009
690.186	7855.2935
690.625	8127.42904
691.063	8203.62932
691.501	8310.77174
691.939	8453.96884
692.377	8679.15128
692.815	8955.51022
693.253	9143.82328
693.69	9387.22262
694.128	9504.54481
694.565	9704.97614
695.003	9875.41278
695.44	10143.15138
695.877	10278.55426
696.314	10504.56729
696.751	10854.72726
697.188	10924.9236
697.625	11186.07844
698.061	11457.00855
698.498	11743.41696
698.934	12010.72708
699.371	12175.75688
699.807	12371.94644
700.243	12491.43588
700.679	12842.2305
701.115	13089.67161
701.551	13311.13043
701.987	13514.06024
702.422	13673.58232
702.858	14001.35911
703.294	14137.13005
703.729	14399.16142
704.164	14475.03366
704.599	14680.04991
705.035	14997.65203
705.47	15116.40067
705.904	15278.73652
706.339	15560.4129
706.774	15556.72147
707.209	15744.83329
707.643	16000.78856
708.078	16315.61767
708.512	16393.03738
708.946	16315.63706
709.38	16640.28536
709.814	16660.29663
710.248	16661.04234
710.682	16826.11541
711.116	16970.45055
711.549	16778.11657
711.983	16855.11674
712.416	16948.84038
712.85	17183.27304
713.283	17081.16147
713.716	17061.00465
714.149	16866.9513
714.582	16826.18639
715.015	16676.83447
715.448	16559.10068
715.881	16675.5698
716.313	16553.38151
716.746	16357.97535
717.178	16500.35777
717.61	16320.572
718.043	16169.16009
718.475	16223.33174
718.907	16212.30489
719.339	15907.79661
719.77	15801.93471
720.202	15489.81849
720.634	15581.03457
721.065	15454.45693
721.497	15195.4293
721.928	15297.23944
722.359	15224.60336
722.79	14969.30963
723.221	14968.00921
723.652	14745.74763
724.083	14699.84446
724.514	14454.57717
724.945	14231.29259
725.375	14254.39212
725.806	13898.04507
726.236	13808.95664
726.666	13759.4436
727.096	13671.28138
727.526	13820.00596
727.956	13630.94155
728.386	13435.61441
728.816	13142.21682
729.246	13208.91811
729.675	13175.62007
730.105	12799.41451
730.534	12890.30907
730.964	12891.70521
731.393	12616.18803
731.822	12620.82568
732.251	12425.77976
732.68	12392.23454
733.109	12383.76153
733.537	12302.37299
733.966	12317.17048
734.395	12212.23194
734.823	12234.66414
735.251	11977.5571
735.68	11904.01657
736.108	11726.10414
736.536	11485.33036
736.964	11424.06089
737.392	11387.5688
737.82	11293.33409
738.247	11258.2218
738.675	11249.1994
739.102	10994.92631
739.53	10882.45943
739.957	10808.16943
740.384	10743.09173
740.811	10683.79711
741.238	10636.69307
741.665	10386.96701
742.092	10268.52804
742.519	10018.77387
742.945	10068.92737
743.372	9948.58865
743.798	9831.31172
744.225	9670.89296
744.651	9517.58931
745.077	9509.56597
745.503	9239.99905
745.929	9101.72593
746.355	9125.82681
746.781	8914.49874
747.207	8815.27413
747.632	8604.10538
748.058	8528.03505
748.483	8391.62711
748.908	8362.83485
749.334	8317.78144
749.759	8132.39818
750.184	7844.31784
750.609	7844.44136
751.033	7829.20455
751.458	7699.92075
751.883	7471.29736
752.307	7379.06712
752.732	7160.43465
753.156	7096.3273
753.58	7070.04434
754.005	6967.36134
754.429	6694.01751
754.853	6547.33705
755.277	6491.9782
755.7	6449.39923
756.124	6241.4739
756.548	6066.2784
756.971	6112.26863
757.394	5982.88686
757.818	5788.90155
758.241	5684.88315
758.664	5604.94181
759.087	5466.16983
759.51	5379.83853
759.933	5291.75708
760.356	5260.14039
760.778	5120.0608
761.201	4987.93538
761.623	4862.89201
762.046	4820.83023
762.468	4628.8827
762.89	4591.19234
763.312	4576.27432
763.734	4396.17481
764.156	4321.40557
764.578	4276.9877
765	4221.3917
765.421	4030.78388
765.843	3912.97386
766.264	3838.42131
766.686	3810.62915
767.107	3690.48064
767.528	3627.8757
767.949	3611.87335
768.37	3388.55575
768.791	3380.57576
769.212	3315.87806
769.632	3342.39359
770.053	3196.15908
770.473	3168.61522
770.894	3076.72547
771.314	2959.40213
771.734	2802.39317
772.154	2815.84201
772.575	2787.28015
772.994	2681.22137
773.414	2764.48078
773.834	2685.73973
774.254	2671.67833
774.673	2577.51308
775.093	2428.57698
775.512	2322.47373
775.931	2338.64175
776.351	2323.53122
776.77	2210.41333
777.189	2157.22642
777.607	2085.51619
778.026	2135.46846
778.445	2005.40137
778.864	2024.46927
779.282	1925.14025
779.701	1914.28072
780.119	1943.46447
780.537	1775.16782
780.955	1740.12307
781.373	1732.04912
781.791	1708.69698
782.209	1699.73515
782.627	1683.3157
783.045	1627.73391
783.462	1575.03226
783.88	1530.00741
784.297	1558.94885
784.715	1492.9529
785.132	1426.68142
785.549	1433.78688
785.966	1337.64998
786.383	1351.60608
786.8	1316.39341
787.217	1283.41355
787.633	1277.56012
788.05	1243.31419
788.466	1149.13552
788.883	1145.40226
789.299	1148.2553
789.715	1115.25229
790.131	1118.3225
790.547	1020.12337
790.963	1098.27788
791.379	1022.18852
791.795	960.84611
792.21	974.91433
792.626	942.89388
793.041	973.06517
793.457	949.02114
793.872	917.84399
794.287	862.80598
794.702	824.77184
795.117	828.82459
795.532	811.81056
795.947	812.71013
796.362	817.71352
796.776	784.58531
797.191	771.68653
797.605	760.62924
798.02	701.53589
798.434	652.29459
798.848	691.55333
799.262	677.54356
799.676	618.3661
800.09	712.60546
800.504	563.25499
800.918	621.33185
801.331	565.35144
801.745	596.2581
802.158	566.31229
802.572	498.11837
802.985	506.13729
803.398	512.14092
803.811	440.05148
804.224	457.05987
804.637	516.15933
805.05	417.91379
805.462	494.13429
805.875	412.02252
806.288	447.03377
806.7	433.03571
807.112	400.87636
807.525	397.93497
807.937	387.91709
808.349	395.9465
808.761	402.94655
809.173	318.74794
809.584	325.77317
809.996	344.82009
810.408	316.79752
810.819	335.77302
811.231	352.8991
811.642	314.75375
812.053	364.86277
812.464	333.78093
812.875	343.84875
813.286	327.81923
813.697	361.81174
814.108	275.65651
814.519	233.51127
814.929	241.60273
815.34	325.77822
815.75	275.68799
816.16	281.6821
816.571	247.62375
816.981	233.54046
817.391	250.59923
817.801	245.60919
818.211	187.43755
818.62	255.61226
819.03	208.5035
819.44	205.52581
819.849	171.42583
820.259	180.45222
820.668	218.53524
821.077	201.50143
821.486	181.43262
821.895	215.51937
822.304	154.4069
822.713	194.46023
823.122	188.46722
823.531	195.46501
823.939	193.47062
824.348	192.46757
824.756	195.48735
825.164	153.38184
825.573	211.53399
825.981	171.42149
826.389	207.51733
826.797	119.29666
827.205	163.3796
827.612	149.37037
828.02	147.34975
828.428	168.42858
828.835	141.37174
829.243	184.44206
829.65	106.2666
830.057	134.32902
830.464	86.21241
830.871	178.42439
831.278	124.30052
831.685	159.35844
832.092	144.35631
832.499	124.27467
832.905	109.27714
833.312	128.29615
833.718	131.32824
834.124	104.23996
834.531	116.2928
834.937	59.15113
835.343	135.32871
835.749	86.20072
836.155	98.25755
836.561	107.26762
836.966	121.29803
837.372	128.327
837.777	105.26622
838.183	95.21311
838.588	63.15712
838.993	84.20663
839.399	43.10751
839.804	57.14179
840.209	128.33102
840.613	80.18245
841.018	64.16328
841.423	92.23743
841.828	91.23424
842.232	97.24103
842.637	114.27347
843.041	81.21176
843.445	99.25092
843.849	74.18519
844.253	112.26939
844.657	45.11628
845.061	99.22974
845.465	47.11632
845.869	71.16906
846.272	59.14741
846.676	61.14875
847.079	114.29502
847.483	91.22719
847.886	61.14809
848.289	65.17574
848.692	47.12107
849.095	112.27337
849.498	63.15956
849.901	41.09594
850.304	111.26947
850.707	42.10813
851.109	79.19959
851.512	84.21112
851.914	70.18241
852.316	15.03833
852.718	47.12413
853.121	90.22368
853.523	106.25457
853.925	38.10165
854.326	28.07116
854.728	50.13145
855.13	24.06382
855.531	81.19958
855.933	7.01703
856.334	45.11482
856.736	24.05595
857.137	17.04063
857.538	53.1369
857.939	75.19029
858.34	66.16313
858.741	75.19754
859.142	49.12051
859.542	83.22192
859.943	49.12375
860.343	21.05338
860.744	34.08444
861.144	29.07146
861.544	13.03256
861.945	69.18014
862.345	59.14618
862.745	74.18885
863.145	98.23527
863.544	23.05925
863.944	5.01205
864.344	48.12099
864.743	63.15712
865.143	56.14608
865.542	65.15459
865.941	39.09934
866.34	64.15546
866.74	43.1163
867.139	20.04978
867.537	37.09561
867.936	29.07185
868.335	59.15256
868.734	82.2147
869.132	44.10571
869.531	56.13587
869.929	29.06905
870.327	44.1086
870.726	49.12265
871.124	69.16531
871.522	28.07286
871.92	87.21807
872.318	41.10218
872.715	43.10685
873.113	48.12025
873.511	76.19437
873.908	25.06549
874.306	52.13308
874.703	-6.01534
875.1	0
875.497	65.16046
875.894	74.18652
876.291	21.05256
876.688	27.0719
877.085	24.05854
877.482	47.11934
877.878	45.11117
878.275	46.11958
878.671	60.13673
879.068	41.10095
879.464	66.16194
879.86	27.0654
880.256	58.14504
880.652	25.06498
881.048	30.07535
881.444	5.01208
881.84	42.10836
882.236	39.09944
882.631	68.1714
883.027	77.18714
883.422	15.03907
883.817	65.16906
884.213	50.13096
884.608	39.09853
885.003	72.17809
885.398	45.11628
885.793	27.06899
886.188	47.12073
886.582	11.02838
886.977	29.07064
887.371	-26.0667
887.766	44.11233
888.16	38.0964
888.554	5.01253
888.949	29.07376
889.343	64.15749
889.737	26.07142
890.131	4.01019
890.525	55.14236
890.918	7.01787
891.312	-11.0267
891.706	-20.05286
892.099	17.04359
892.492	64.14236
892.886	-11.02755
893.279	48.12491
893.672	-14.03598
894.065	45.1141
894.458	63.16217
894.851	54.13411
895.244	-35.09178
895.637	55.13562
896.029	15.03748
896.422	21.05228
896.814	6.01524
897.206	38.09265
897.599	17.04252
897.991	23.05661
898.383	89.21614
898.775	21.04877
899.167	27.06537
899.559	17.04373
899.951	52.12474
900.342	19.04877
900.734	8.02069
901.125	72.19031
901.517	52.13074
901.908	49.11891
902.299	40.10158
902.69	33.08023
903.082	29.07167
903.473	44.10884
903.863	9.02346
904.254	69.16505
904.645	52.1313
905.036	19.04751
905.426	44.10221
905.817	64.16028
906.207	25.06171
906.597	-38.09154
906.987	61.15996
907.378	12.03074
907.768	47.126
908.158	2.00501
908.547	16.04238
908.937	-1.0026
909.327	69.17121
909.717	46.11744
910.106	33.08086
910.495	31.07891
910.885	60.15479
911.274	5.01279
911.663	19.04862
912.052	43.10689
912.441	9.02322
912.83	20.04759
913.219	45.11868
913.608	21.05237
913.997	2.00518
914.385	15.0365
914.774	70.17251
915.162	30.07388
915.55	53.13002
915.939	12.03099
916.327	-4.01009
916.715	13.03381
917.103	41.10188
917.491	52.12924
917.878	-5.01242
918.266	-39.10262
918.654	26.06819
919.041	25.06678
919.429	38.09216
919.816	54.13776
920.203	46.11416
920.591	14.0353
920.978	-12.0297
921.365	11.02942
921.752	36.08826
922.139	79.17693
922.525	66.16325
922.912	26.06443
923.299	9.023
923.685	31.08245
924.072	21.04896
924.458	-7.0178
924.844	37.09375
925.231	15.03603
925.617	47.12212
926.003	55.14192
926.389	42.1079
926.774	8.02072
927.16	47.1187
927.546	48.12568
927.931	59.14933
928.317	-5.01179
928.702	59.14065
929.088	49.11931
929.473	37.09541
929.858	22.055
930.243	44.10824
930.628	56.1405
931.013	7.01784
931.398	10.02348
931.783	-8.02132
932.167	63.1582
932.552	23.05813
932.937	49.123
933.321	24.06172
933.705	38.09787
934.09	9.02293
934.474	23.05571
934.858	17.04488
935.242	67.15911
935.626	28.07354
936.009	-14.03752
936.393	65.16673
936.777	45.11712
937.16	-17.04499
937.544	55.13091
937.927	-1.00262
938.311	21.05205
938.694	45.11948
939.077	28.06865
939.46	-1.00245
939.843	97.20917
940.226	6.01573
940.609	63.15064
940.991	38.09848
941.374	33.0826
941.757	22.05496
942.139	24.05656
942.522	43.10258
942.904	30.07377
943.286	29.07428
943.668	24.06337
944.05	53.13299
944.432	53.13447
944.814	13.03236
945.196	11.02788
945.578	63.15598
945.959	55.13182
946.341	23.05625
946.722	19.04561
947.104	38.09303
947.485	21.05023
947.866	76.19689
948.247	-11.02821
948.628	3.00742
949.009	44.11513
949.39	78.19527
949.771	53.12605
950.152	65.1631
950.532	21.05357
950.913	35.08615
951.293	46.12612
951.674	102.25433
952.054	31.07944
952.434	37.09318
952.814	57.13817
953.194	36.09471
953.574	13.03232
953.954	17.04149
954.334	58.14708
954.714	9.02265
955.093	50.12386
955.473	-10.02556
955.853	-21.05542
956.232	-26.07192
956.611	17.04163
956.99	81.20734
957.37	63.1629
957.749	48.11742
958.128	63.16234
958.506	69.18314
958.885	34.08781
959.264	44.11194
959.643	27.06278
960.021	70.17688
960.4	42.0983
960.778	65.16187
961.156	54.13839
961.535	-1.00239
961.913	39.09347
962.291	56.14812
962.669	22.05644
963.047	26.06712
963.424	27.06991
963.802	42.10583
964.18	40.10234
964.557	70.16415
964.935	35.08478
965.312	25.06589
965.69	25.06316
966.067	70.17353
966.444	40.09945
966.821	25.06518
967.198	45.11055
967.575	21.05188
967.952	43.10306
968.329	56.13882
968.705	-5.01105
969.082	41.10748
969.458	41.1021
969.835	33.08167
970.211	29.07638
970.587	48.12099
970.963	7.01823
971.339	12.03196
971.715	38.0963
972.091	51.12765
972.467	12.03059
972.843	40.10118
973.219	9.02182
973.594	62.16585
973.97	44.10612
974.345	38.09334
974.721	22.05362
975.096	31.07653
975.471	54.13053
975.846	18.04412
976.221	30.0785
976.596	33.08146
976.971	31.07782
977.346	32.07562
977.72	59.15266
978.095	30.07903
978.469	16.03892
978.844	38.09595
979.218	-7.01724
979.593	25.06099
979.967	15.03734
980.341	4.00946
980.715	23.05931
981.089	2.00506
981.463	65.15501
981.837	36.09032
982.21	22.05215
982.584	9.02236
982.957	11.0283
983.331	33.07993
983.704	-14.03474
984.078	65.16328
984.451	37.09234
984.824	36.08993
985.197	-15.03734
985.57	3.00769
985.943	12.02993
986.316	67.166
986.688	45.10982
987.061	92.22028
987.434	22.05829
987.806	40.09905
988.179	45.10933
988.551	64.16465
988.923	46.11507
989.295	8.02
989.667	25.06192
990.039	21.05351
990.411	44.10358
990.783	42.09856
991.155	63.15712
991.527	34.08419
991.898	48.1222
992.27	-9.02278
992.641	15.03815
993.012	38.09123
993.384	-21.05131
993.755	57.1482
994.126	32.07828
994.497	20.05041
994.868	63.1484
995.239	40.09822
995.61	59.15139
995.98	24.06026
996.351	-14.03565
996.722	48.11572
997.092	9.02204
997.462	47.11341
997.833	28.06753
998.203	11.02709
998.573	14.0355
998.943	70.16818
999.313	72.17633
999.683	71.17527
1000.053	67.15788
1000.423	-4.00989
1000.792	43.11375
1001.162	9.02255
1001.531	49.12296
1001.901	55.14093
1002.27	74.16863
1002.639	38.09916
1003.009	7.01698
1003.378	0
1003.747	67.16259
1004.116	20.04925
1004.485	19.04613
1004.853	51.13077
1005.222	19.04841
1005.591	53.12765
1005.959	67.15659
1006.328	20.04653
1006.696	35.08719
1007.064	18.04597
1007.433	15.0381
1007.801	9.02234
1008.169	19.04834
1008.537	84.18979
1008.905	47.11281
1009.273	26.06471
1009.64	33.08164
1010.008	61.14864
1010.375	-8.01932
1010.743	26.06104
1011.11	79.19092
1011.478	19.04776
1011.845	-4.00965
1012.212	56.1307
1012.579	17.04234
1012.946	59.14216
1013.313	45.1081
1013.68	70.15951
1014.047	39.09581
1014.414	26.06334
1014.78	8.0202
1015.147	11.02685
1015.513	25.06174
1015.88	21.05392
1016.246	-10.02484
1016.612	11.02557
1016.978	42.10473
1017.344	64.16132
1017.71	40.09753
1018.076	46.10989
1018.442	36.09294
1018.808	9.02304
1019.174	59.15071
1019.539	41.0942
1019.905	27.06523
1020.27	33.08358
1020.636	66.16019
1021.001	18.04389
1021.366	21.0518
1021.731	-8.02075
1022.096	30.07737
1022.461	37.08935
1022.826	35.08471
1023.191	19.05045
1023.556	59.14167
1023.92	-12.03001
1024.285	62.1533
1024.649	81.20083
1025.014	80.2002
1025.378	18.04626
1025.742	70.17657
1026.107	23.05308
1026.471	16.03767
1026.835	79.1993
1027.199	117.28988
1027.562	74.17454
1027.926	42.104
1028.29	45.11656
1028.654	45.10591
1029.017	9.02238
1029.381	27.06614
1029.744	-1.00259
1030.107	6.0145
1030.471	6.01457
1030.834	17.03953
1031.197	-8.01951
1031.56	46.11001
1031.923	0
1032.286	36.0859
1032.648	85.20705
1033.011	-25.05907
1033.374	43.10176
1033.736	-3.00807
1034.099	48.11986
1034.461	-21.05415
1034.823	3.00761
1035.185	35.08946
1035.548	48.11951
1035.91	-26.06429
1036.272	25.05769
1036.634	25.0616
1036.995	52.1256
1037.357	35.08697
1037.719	12.02945
1038.08	49.11761
1038.442	21.05083
1038.803	19.04642
1039.165	80.20567
1039.526	-1.00247
1039.887	-3.0074
1040.248	-16.04046
1040.609	7.01743
1040.97	44.10999
1041.331	0
1041.692	40.09749
1042.053	57.13275
1042.413	57.1352
1042.774	8.01982
1043.134	57.13817
1043.495	16.04068
1043.855	35.08637
1044.215	45.11401
1044.576	38.09417
1044.936	40.0935
1045.296	31.07852
1045.656	22.05458
1046.016	35.08529
1046.375	17.04181
1046.735	23.05392
1047.095	40.09541
1047.454	19.04143
1047.814	2.00493
1048.173	-36.08639
1048.533	20.04692
1048.892	4.00998
1049.251	51.12967
1049.61	-11.02775
1049.969	76.18433
1050.328	4.00896
1050.687	-13.0324
1051.046	-4.00987
1051.405	80.20258
1051.763	36.08518
1052.122	21.05343
1052.48	-14.03476
1052.839	2.00484
1053.197	-9.02194
1053.555	-35.08003
1053.914	10.02466
1054.272	16.03891
1054.63	32.08051
1054.988	21.05132
1055.345	21.04672
1055.703	18.04407
1056.061	4.01046
1056.419	-4.01056
1056.776	-2.0049
1057.134	68.16039
1057.491	-13.03316
1057.848	20.05012
1058.206	56.13424
1058.563	49.11033
1058.92	-4.00935
1059.277	16.04004
1059.634	9.0216
1059.991	54.13136
1060.348	7.01644
1060.704	11.02703
1061.061	43.10093
1061.418	-23.05715
1061.774	22.05545
1062.131	39.105
1062.487	45.10752
1062.843	9.02271
1063.199	39.09923
1063.555	53.12649
1063.911	2.0051
1064.267	81.17069
1064.623	17.04232
1064.979	59.14097
1065.335	44.10587
1065.691	22.05352
1066.046	-71.15921
1066.402	37.08725
1066.757	-8.0205
1067.112	4.00994
1067.468	92.22606
1067.823	12.02967
1068.178	-30.0741
1068.533	51.12567
1068.888	12.02915
1069.243	35.08764
1069.598	34.08429
1069.952	39.09101
1070.307	33.08435
1070.662	-2.00485
1071.016	51.11713
1071.371	13.03026
1071.725	56.13526
1072.079	-9.02204
1072.434	24.05987
1072.788	26.06353
1073.142	50.12517
1073.496	-8.01948
1073.85	15.03525
1074.203	77.19182
1074.557	34.09161
1074.911	19.04568
1075.265	41.09703
1075.618	16.03942
1075.971	42.10152
1076.325	-13.0339
1076.678	52.12303
1077.031	48.11181
1077.385	4.00919
1077.738	33.07676
1078.091	57.13337
1078.444	96.22476
1078.796	10.02489
1079.149	36.09035
1079.502	71.17333
1079.855	52.12446
1080.207	35.08748
1080.56	10.02625
1080.912	-8.01982
1081.264	19.04675
1081.617	72.17979
1081.969	46.11888
1082.321	-3.00745
1082.673	25.05932
1083.025	110.26368
1083.377	56.12374
1083.728	14.03315
1084.08	-18.04591
1084.432	47.11568
1084.783	45.10682
1085.135	23.05877
1085.486	42.09995
1085.838	36.09045
1086.189	-32.0795
1086.54	12.02916
1086.891	6.01559
1087.242	8.01972
1087.593	52.12778
1087.944	-22.05102
1088.295	44.10197
1088.646	55.13627
1088.996	-11.02717
1089.347	12.03007
1089.698	0
1090.048	30.07772
1090.398	1.00236
1090.749	60.14585
1091.099	79.20476
1091.449	37.09345
1091.799	38.09681
1092.149	40.10154
1092.499	15.03725
1092.849	25.06502
1093.199	28.07048
1093.548	47.11564
1093.898	39.0992
1094.248	37.09574
1094.597	56.14717
1094.947	-11.02976
1095.296	4.01004
1095.645	31.08146
1095.994	-10.02448
1096.343	6.01537
1096.692	83.2252
1097.041	-33.09055
1097.39	98.24966
1097.739	59.1544
1098.088	65.17511
1098.437	15.04024
1098.785	15.0405
1099.134	32.0854
1099.482	31.08614
1099.83	-2.0053
1100.179	37.0989
1100.527	22.05889
1100.875	-16.04315
1101.223	26.06967
1101.571	17.04755
1101.919	44.11801
1102.267	9.02557
1102.615	11.03546
1102.962	3.00966
1103.31	7.02255
1103.658	6.01937
