Data from N2 R0 150C sample7_Subt2__1__13-26-11-134.txt Node

Date: Tue Aug 19 13:26:11 PDT 2025
User: uwsun
Spectrometer: HDX01956
Trigger mode: 0
Integration Time (sec): 5.000000E-1
Scans to average: 1
Nonlinearity correction enabled: true
Boxcar width: 0
Storing dark spectrum: false
XAxis mode: Wavelengths
Number of Pixels in Spectrum: 2068
>>>>>Begin Spectral Data<<<<<
194.03	241.68328
194.578	254.80465
195.127	222.69659
195.676	256.80283
196.225	281.74773
196.773	278.7691
197.321	426.15646
197.87	595.47767
198.418	551.36285
198.966	578.45803
199.513	564.35495
200.061	590.44474
200.609	573.45029
201.156	527.12464
201.704	642.55006
202.251	611.55746
202.798	574.43762
203.345	604.42915
203.892	609.46619
204.438	625.42663
204.985	625.43693
205.532	638.59743
206.078	583.37915
206.624	596.41292
207.17	662.45981
207.716	666.53644
208.262	612.15456
208.808	640.5243
209.354	603.41441
209.899	604.44454
210.445	662.57371
210.99	609.42071
211.535	612.38879
212.08	659.47408
212.625	628.50426
213.17	653.56566
213.715	642.40208
214.259	634.41025
214.804	596.39934
215.348	601.31271
215.892	587.34895
216.436	630.39207
216.98	672.42122
217.524	643.44534
218.068	661.59265
218.612	628.50369
219.155	613.37841
219.698	552.27323
220.242	589.40355
220.785	579.29496
221.328	511.22818
221.871	532.28813
222.414	557.33178
222.956	525.24467
223.499	531.16207
224.041	592.31999
224.583	537.10684
225.126	509.09367
225.668	537.25552
226.21	562.35524
226.751	559.19355
227.293	578.28236
227.835	565.33498
228.376	571.26077
228.918	550.33575
229.459	585.3972
230	518.19138
230.541	615.37444
231.082	538.23991
231.622	514.14538
232.163	568.32368
232.704	563.33179
233.244	563.33795
233.784	589.37294
234.324	600.28814
234.864	494.09574
235.404	550.25601
235.944	565.28073
236.484	570.34447
237.023	537.23588
237.563	572.26903
238.102	543.22232
238.641	585.41314
239.18	524.19848
239.719	565.35658
240.258	600.29201
240.797	614.4074
241.335	567.33144
241.874	585.10704
242.412	600.3901
242.95	595.36408
243.488	563.24671
244.026	569.25687
244.564	610.20374
245.102	625.33583
245.64	576.31705
246.177	590.27589
246.715	624.42463
247.252	613.34291
247.789	600.08927
248.326	577.34336
248.863	613.29997
249.4	649.39855
249.936	585.15405
250.473	638.42091
251.009	663.45256
251.546	593.25586
252.082	599.25919
252.618	601.27726
253.154	593.37523
253.69	562.21266
254.226	611.38624
254.761	670.44416
255.297	565.18657
255.832	577.30055
256.367	624.40632
256.903	606.25798
257.438	649.43678
257.972	646.3769
258.507	586.3039
259.042	608.27897
259.576	642.33637
260.111	632.38545
260.645	582.19787
261.179	590.31607
261.713	653.39213
262.247	646.42152
262.781	632.27292
263.315	606.42394
263.849	651.54607
264.382	600.31191
264.915	676.51245
265.449	681.59564
265.982	662.43483
266.515	600.38517
267.048	615.26902
267.58	647.3465
268.113	690.41094
268.646	684.59174
269.178	632.3511
269.71	671.39279
270.243	631.36495
270.775	572.38405
271.307	614.40121
271.838	646.42865
272.37	667.54211
272.902	654.40663
273.433	600.24273
273.965	658.51075
274.496	614.43211
275.027	691.60331
275.558	660.51051
276.089	643.51124
276.62	635.52421
277.15	607.40384
277.681	668.38132
278.211	613.39078
278.741	710.47548
279.272	646.39654
279.802	619.45649
280.332	671.49108
280.861	648.47531
281.391	602.30631
281.921	686.54994
282.45	700.63538
282.98	736.7764
283.509	684.4378
284.038	697.49182
284.567	668.44969
285.096	737.65882
285.625	726.55027
286.153	653.43604
286.682	696.49577
287.21	730.63871
287.739	736.62853
288.267	685.55616
288.795	687.65719
289.323	795.73248
289.851	742.62681
290.378	693.46728
290.906	728.64823
291.433	680.5756
291.961	749.57354
292.488	698.61222
293.015	773.69375
293.542	759.78398
294.069	762.71407
294.596	717.63678
295.122	767.68765
295.649	722.47779
296.175	796.78911
296.702	810.78417
297.228	755.68342
297.754	818.71222
298.28	757.59874
298.806	772.70681
299.332	797.63553
299.857	795.64682
300.383	758.75985
300.908	775.73728
301.433	740.65166
301.958	805.68388
302.483	725.68157
303.008	781.76863
303.533	843.96526
304.058	818.76119
304.582	785.71212
305.107	789.89607
305.631	819.68751
306.155	783.68471
306.679	814.72109
307.203	823.74809
307.727	822.77207
308.251	840.87801
308.775	870.8772
309.298	866.90278
309.822	853.94807
310.345	921.96907
310.868	812.76843
311.391	871.92216
311.914	908.03735
312.437	838.73867
312.96	893.88453
313.482	949.98617
314.005	901.02616
314.527	909.13613
315.049	979.14796
315.571	990.97133
316.093	992.16333
316.615	950.04115
317.137	1013.92722
317.659	1051.22995
318.18	934.97668
318.702	960.95574
319.223	1085.95687
319.744	1039.03358
320.265	1025.1719
320.786	1091.33589
321.307	1100.34761
321.828	1070.10766
322.348	1139.29771
322.869	1100.26487
323.389	821.11441
323.909	1107.16392
324.43	1152.32027
324.95	1126.20062
325.47	1140.36302
325.989	1132.27057
326.509	1174.19342
327.029	1200.24874
327.548	1243.31419
328.067	1221.48352
328.587	1239.55082
329.106	1172.1972
329.625	1234.66981
330.144	1311.48676
330.662	1246.35003
331.181	1284.45598
331.7	1349.56397
332.218	1372.39563
332.736	1351.55419
333.255	1339.51185
333.773	1348.55405
334.291	1390.74185
334.808	1392.50171
335.326	1424.54909
335.844	1485.71082
336.361	1468.9308
336.879	1574.84606
337.396	1543.85083
337.913	1541.70285
338.43	1549.66079
338.947	1555.79672
339.464	1569.54659
339.981	1555.81792
340.497	1609.95861
341.014	1625.98962
341.53	1577.63789
342.046	1644.98815
342.562	1668.09899
343.078	1731.96782
343.594	1802.06119
344.11	1704.93119
344.626	1779.24094
345.141	1745.82873
345.657	1795.83514
346.172	1846.12831
346.687	1785.93747
347.202	1837.88097
347.717	1912.15727
348.232	1924.32393
348.747	1981.07582
349.261	1901.86446
349.776	1984.14135
350.29	1945.33347
350.805	2021.41795
351.319	1973.12456
351.833	1971.96121
352.347	2018.13507
352.861	2054.11742
353.374	2101.07083
353.888	2055.27643
354.401	2132.13302
354.915	2104.03934
355.428	2149.43623
355.941	2223.25129
356.454	2229.05269
356.967	2212.23193
357.48	2192.11204
357.993	2198.41965
358.505	2171.35294
359.018	2337.45891
359.53	2276.40934
360.042	2281.01983
360.554	2365.39841
361.066	2356.47231
361.578	2323.93855
362.09	2338.29663
362.602	2378.02172
363.113	2473.31314
363.625	2458.14018
364.136	2510.03775
364.647	2547.38786
365.158	2528.25069
365.669	2528.38642
366.18	2560.3154
366.691	2564.05277
367.201	2577.4228
367.712	2615.22095
368.222	2627.21886
368.733	2735.09748
369.243	2735.10649
369.753	2831.35882
370.263	2865.48265
370.773	2749.50363
371.282	2911.39063
371.792	2966.37318
372.301	3052.50397
372.811	3014.84258
373.32	3068.84968
373.829	3203.34613
374.338	3313.94229
374.847	3422.15356
375.356	3446.26667
375.865	3604.57555
376.373	3820.85081
376.882	3790.44634
377.39	3942.09878
377.898	4041.2001
378.407	4231.4869
378.915	4338.16701
379.423	4576.5479
379.93	4667.17103
380.438	4910.524
380.946	5255.0973
381.453	5349.09276
381.96	5533.88474
382.468	6022.66077
382.975	6393.56181
383.482	6551.10036
383.989	6679.75363
384.495	6793.21364
385.002	7150.99175
385.509	7642.61423
386.015	8056.65457
386.521	8464.37536
387.028	8780.91781
387.534	8993.38425
388.04	9442.43304
388.546	9605.99436
389.051	10071.67571
389.557	10949.24741
390.063	11577.59173
390.568	12297.80612
391.073	12581.44275
391.578	13074.37384
392.084	13281.48511
392.589	13797.00224
393.093	14826.73191
393.598	16209.31532
394.103	17736.53752
394.607	19552.01602
395.112	20919.25768
395.616	21965.68419
396.12	23896.38051
396.624	26574.71843
397.128	28526.79446
397.632	31931.80242
398.136	34398.77346
398.639	36593.1402
399.143	40340.53544
399.646	45530.00535
400.15	50078.20405
400.653	55012.27807
401.156	58877.23926
401.659	59128.49791
402.162	58431.12733
402.664	54480.21957
403.167	49329.08451
403.67	22278.45323
404.172	2696.20453
404.674	0
405.176	0
405.678	0
406.18	0
406.682	0
407.184	0
407.686	25783.58453
408.187	43316.52985
408.688	51225.60928
409.19	54389.01922
409.691	56215.4214
410.192	57270.57019
410.693	57845.40442
411.194	58219.2365
411.694	58633.01717
412.195	59215.68848
412.696	59364.60701
413.196	59341.61941
413.696	59632.46864
414.196	59367.6054
414.696	59763.40624
415.196	59913.34014
415.696	60584.13941
416.196	58158.62791
416.695	44750.47539
417.195	38305.54003
417.694	36101.20219
418.194	34325.81077
418.693	32161.16288
419.192	31090.69394
419.691	30970.37475
420.19	30188.58949
420.688	29424.56269
421.187	28387.67771
421.685	26498.55015
422.184	23897.84922
422.682	20608.07222
423.18	17297.46908
423.678	15348.23264
424.176	14343.50145
424.674	13417.55518
425.172	12838.81855
425.669	11942.18928
426.167	11315.94478
426.664	10417.7777
427.161	9559.81871
427.659	8786.96425
428.156	8217.91962
428.652	7889.98017
429.149	7563.61175
429.646	7214.13245
430.143	6803.36694
430.639	6464.37594
431.135	6097.86284
431.632	5822.47989
432.128	5433.99126
432.624	5179.60563
433.12	4852.98998
433.616	4715.88317
434.111	4495.49753
434.607	4516.6101
435.103	4411.89117
435.598	4209.0119
436.093	4032.79028
436.588	3776.5543
437.083	3667.71054
437.578	3592.94485
438.073	3394.53602
438.568	3243.36428
439.062	3164.73567
439.557	3081.21524
440.051	2939.00807
440.546	2838.07296
441.04	2781.38357
441.534	2808.69524
442.028	2649.29843
442.522	2674.34131
443.015	2576.90512
443.509	2597.43941
444.002	2547.43574
444.496	2501.95205
444.989	2402.32936
445.482	2431.46648
445.975	2449.14174
446.468	2433.83716
446.961	2335.86108
447.454	2344.99113
447.947	2264.23863
448.439	2123.13162
448.931	2269.04445
449.424	2148.34809
449.916	2171.27452
450.408	2164.97011
450.9	2076.234
451.392	2000.29178
451.884	2002.92826
452.375	1966.28262
452.867	1998.86435
453.358	1941.89652
453.849	1913.63367
454.341	1866.80844
454.832	1863.65986
455.323	1858.0838
455.814	1867.88873
456.304	1872.87743
456.795	1830.84783
457.285	1747.63228
457.776	1750.72182
458.266	1704.85742
458.756	1741.8863
459.247	1670.85571
459.737	1631.84094
460.226	1660.66952
460.716	1677.89579
461.206	1537.74464
461.695	1533.82251
462.185	1507.6087
462.674	1542.65218
463.163	1494.42456
463.653	1550.40756
464.142	1449.66334
464.63	1527.80587
465.119	1437.51167
465.608	1447.55687
466.096	1385.30842
466.585	1350.41484
467.073	1348.48999
467.561	1290.43561
468.05	1402.49677
468.538	1319.53939
469.026	1293.44543
469.513	1401.46628
470.001	1220.20929
470.489	1241.37524
470.976	1216.26879
471.463	1151.33885
471.951	1134.31311
472.438	1137.18825
472.925	1086.10333
473.412	1129.25677
473.899	1059.01055
474.385	992.05497
474.872	1058.1044
475.359	1063.19005
475.845	1061.85323
476.331	952.72563
476.817	962.99525
477.303	978.93931
477.789	981.01546
478.275	904.94227
478.761	903.90315
479.247	945.84899
479.732	918.99597
480.218	878.99914
480.703	859.88069
481.188	830.5774
481.673	828.68508
482.158	872.66378
482.643	785.75826
483.128	792.62343
483.612	838.7294
484.097	750.62919
484.581	711.49035
485.066	732.62035
485.55	768.53308
486.034	672.32381
486.518	772.65
487.002	769.72382
487.486	662.48657
487.969	700.5771
488.453	661.51371
488.936	730.51642
489.42	645.31195
489.903	612.41793
490.386	655.00518
490.869	592.20536
491.352	606.37127
491.835	633.22318
492.318	665.42633
492.8	622.21941
493.283	613.46413
493.765	601.38775
494.247	596.29876
494.73	609.26506
495.212	565.28021
495.694	541.20091
496.175	542.23673
496.657	558.24665
497.139	571.96318
497.62	517.17747
498.102	497.1782
498.583	531.25359
499.064	562.21474
499.545	508.11703
500.026	544.17026
500.507	497.11224
500.988	559.31977
501.469	521.2513
501.949	506.19796
502.43	467.08182
502.91	520.0542
503.39	463.10296
503.87	509.16296
504.35	453.02733
504.83	483.03548
505.31	491.13661
505.79	521.20521
506.269	489.11002
506.749	414.93108
507.228	454.0448
507.707	460.99758
508.187	435.9985
508.666	473.12855
509.145	425.98531
509.623	444.0079
510.102	424.00314
510.581	405.94601
511.059	401.98676
511.538	447.10814
512.016	476.1138
512.494	419.9971
512.972	421.9799
513.45	407.94173
513.928	482.14545
514.406	415.99819
514.884	445.11079
515.361	462.08225
515.839	459.02874
516.316	431.01836
516.793	437.07146
517.27	404.94941
517.747	432.07848
518.224	435.9969
518.701	471.04312
519.178	363.88406
519.654	413.96129
520.131	421.01116
520.607	385.93447
521.083	376.85775
521.56	394.93133
522.036	413.90426
522.512	418.99224
522.987	387.91567
523.463	372.88614
523.939	361.87558
524.414	405.92184
524.89	407.95143
525.365	409.92568
525.84	436.03238
526.315	405.96823
526.79	417.93379
527.265	452.02651
527.74	381.91609
528.215	388.91431
528.689	365.81569
529.164	352.76666
529.638	368.93632
530.112	387.9139
530.587	348.75763
531.061	358.86293
531.534	355.84582
532.008	366.87987
532.482	310.70665
532.956	344.86754
533.429	353.84975
533.903	347.76683
534.376	370.81679
534.849	373.86445
535.322	334.79076
535.795	413.98999
536.268	307.73569
536.741	340.8118
537.213	331.76774
537.686	322.79024
538.158	334.75274
538.631	356.85162
539.103	370.83964
539.575	305.64243
540.047	370.81338
540.519	331.79439
540.991	332.80662
541.463	351.84686
541.934	383.87566
542.406	355.84841
542.877	366.83798
543.348	406.96747
543.82	316.76747
544.291	342.79466
544.762	353.83267
545.233	349.86959
545.703	370.8243
546.174	392.90685
546.645	363.87183
547.115	375.90543
547.585	403.91729
548.056	409.98972
548.526	410.96801
548.996	434.01615
549.466	375.89996
549.935	394.92953
550.405	415.90749
550.875	429.99891
551.344	465.09375
551.814	479.08289
552.283	453.95832
552.752	481.10021
553.221	510.1111
553.69	471.0197
554.159	476.14805
554.628	514.12741
555.096	535.31502
555.565	510.11956
556.033	499.13733
556.502	434.03119
556.97	436.95884
557.438	399.93529
557.906	396.92953
558.374	429.97566
558.842	363.86156
559.31	416.92906
559.777	346.83433
560.245	455.05231
560.712	422.97623
561.18	420.94496
561.647	378.85118
562.114	390.89255
562.581	388.94369
563.048	462.04799
563.514	414.00127
563.981	425.96188
564.448	396.89353
564.914	439.01122
565.381	442.99525
565.847	459.06073
566.313	463.06406
566.779	477.04326
567.245	464.07125
567.711	529.23486
568.176	517.14138
568.642	554.33844
569.108	550.30777
569.573	662.49386
570.038	633.30037
570.504	612.30829
570.969	677.61092
571.434	728.53509
571.899	726.62772
572.363	723.54686
572.828	833.73712
573.293	816.72532
573.757	848.76413
574.222	928.89563
574.686	881.83567
575.15	838.82661
575.614	923.90539
576.078	962.03163
576.542	994.00337
577.006	980.96494
577.469	1004.17847
577.933	1043.09032
578.396	1008.08909
578.86	1059.17694
579.323	1086.27688
579.786	1047.98239
580.249	1118.23526
580.712	1063.25543
581.175	1035.23393
581.637	1031.04443
582.1	1085.07697
582.563	1040.94282
583.025	1040.20992
583.487	1042.86527
583.95	1038.9992
584.412	1006.88104
584.874	975.07479
585.336	946.99861
585.797	971.86953
586.259	986.0534
586.721	916.93014
587.182	948.9531
587.643	900.84253
588.105	893.91904
588.566	907.7052
589.027	869.91216
589.488	799.68383
589.949	822.81816
590.41	791.44523
590.87	753.57709
591.331	812.5963
591.791	826.77234
592.252	755.62512
592.712	737.63582
593.172	755.60217
593.632	757.56034
594.092	712.50066
594.552	710.44927
595.011	684.48823
595.471	658.38308
595.931	671.41508
596.39	708.60552
596.849	646.43578
597.308	672.38898
597.768	681.64086
598.227	627.41625
598.685	595.29137
599.144	625.39337
599.603	706.57897
600.062	629.2933
600.52	618.32968
600.978	611.37447
601.437	661.41774
601.895	642.30021
602.353	602.27745
602.811	666.42694
603.269	670.5236
603.727	687.56322
604.184	678.46892
604.642	671.55381
605.099	687.49824
605.557	680.56192
606.014	738.52216
606.471	702.65286
606.928	725.50502
607.385	830.88682
607.842	758.59841
608.299	852.82502
608.755	842.85854
609.212	842.70661
609.668	851.74645
610.125	844.85675
610.581	862.84169
611.037	889.82778
611.493	793.71791
611.949	876.96813
612.405	772.4492
612.861	825.76829
613.316	832.82194
613.772	864.81972
614.227	825.80168
614.683	816.60568
615.138	829.7784
615.593	879.85578
616.048	809.68703
616.503	842.8709
616.958	892.02751
617.412	809.75482
617.867	780.60456
618.321	840.60031
618.776	824.68225
619.23	782.68795
619.684	805.67274
620.138	817.72631
620.592	811.81131
621.046	816.7396
621.5	791.78838
621.954	785.63187
622.407	781.60698
622.861	764.71366
623.314	779.63088
623.768	734.59846
624.221	768.42894
624.674	734.57413
625.127	740.60268
625.58	674.44286
626.033	689.41494
626.485	672.51829
626.938	696.54764
627.39	653.44565
627.843	647.41986
628.295	599.3133
628.747	645.44925
629.199	626.35557
629.651	630.36888
630.103	628.37898
630.555	547.12142
631.006	593.32522
631.458	615.38517
631.909	576.25141
632.361	586.30713
632.812	616.3628
633.263	567.17245
633.714	565.15578
634.165	636.47009
634.616	567.2993
635.067	562.18259
635.518	522.19629
635.968	521.0112
636.419	592.22778
636.869	577.2979
637.319	524.1677
637.769	578.2467
638.219	521.17369
638.669	568.29249
639.119	529.24597
639.569	550.26257
640.019	603.30987
640.468	573.21767
640.918	531.21135
641.367	570.21944
641.816	595.27382
642.265	597.30342
642.714	562.23441
643.163	645.4119
643.612	679.55807
644.061	697.40951
644.51	700.5192
644.958	617.28683
645.406	675.51176
645.855	711.61722
646.303	699.50899
646.751	750.59258
647.199	700.47663
647.647	740.56928
648.095	746.59852
648.543	749.41596
648.99	690.51717
649.438	734.58968
649.885	751.70824
650.333	815.44721
650.78	753.69416
651.227	812.82359
651.674	742.5489
652.121	736.64137
652.568	754.6933
653.015	780.77957
653.461	757.65311
653.908	844.77679
654.354	760.64673
654.801	776.67071
655.247	850.68679
655.693	793.89201
656.139	786.72623
656.585	744.62846
657.031	765.65299
657.477	787.56706
657.922	819.72149
658.368	769.73228
658.813	719.52239
659.259	804.76282
659.704	761.61631
660.149	808.73072
660.594	813.75752
661.039	753.57709
661.484	850.80509
661.929	806.70639
662.373	837.936
662.818	863.94011
663.262	808.76862
663.707	820.87834
664.151	833.83752
664.595	829.79213
665.039	894.98481
665.483	923.08748
665.927	910.88901
666.371	943.93889
666.814	934.96207
667.258	999.10666
667.701	1008.86348
668.145	959.09086
668.588	957.04786
669.031	1003.08655
669.474	1017.12038
669.917	1074.00607
670.36	1078.30853
670.803	1064.16719
671.245	1083.94036
671.688	1032.14648
672.13	1086.08438
672.573	1023.21083
673.015	1160.35131
673.457	1137.07565
673.899	1113.2554
674.341	1124.29371
674.783	1146.30396
675.225	1194.42141
675.666	1172.40469
676.108	1141.05686
676.549	1169.29395
676.991	1239.26931
677.432	1267.09109
677.873	1202.27783
678.314	1165.33206
678.755	1162.37029
679.196	1168.23359
679.637	1186.38668
680.078	1240.34663
680.518	1204.29708
680.959	1225.44674
681.399	1154.42063
681.839	1245.47876
682.28	1207.47492
682.72	1203.2891
683.16	1191.43771
683.6	1157.16634
684.039	1183.01192
684.479	1207.46607
684.919	1227.36862
685.358	1231.57042
685.798	1200.62257
686.237	1220.42835
686.676	1223.28357
687.115	1175.27557
687.554	1259.4167
687.993	1216.17979
688.432	1257.33459
688.871	1216.28884
689.309	1244.41691
689.748	1212.00916
690.186	1280.44128
690.625	1231.33688
691.063	1289.50983
691.501	1248.48646
691.939	1339.65763
692.377	1213.42162
692.815	1283.48873
693.253	1308.52355
693.69	1310.30477
694.128	1325.59826
694.565	1244.40095
695.003	1309.68068
695.44	1354.52956
695.877	1312.49046
696.314	1288.17212
696.751	1328.36321
697.188	1255.33545
697.625	1355.42073
698.061	1291.51019
698.498	1306.50893
698.934	1313.54824
699.371	1281.45316
699.807	1283.43351
700.243	1265.48387
700.679	1320.37782
701.115	1282.39582
701.551	1276.41494
701.987	1295.33793
702.422	1322.53248
702.858	1268.41834
703.294	1273.2969
703.729	1266.51774
704.164	1266.47598
704.599	1288.29174
705.035	1303.37266
705.47	1275.56778
705.904	1338.52159
706.339	1298.33566
706.774	1251.3738
707.209	1321.43693
707.643	1308.52954
708.078	1294.5901
708.512	1273.61971
708.946	1233.36554
709.38	1246.38084
709.814	1236.26888
710.248	1188.36019
710.682	1238.40749
711.116	1239.4509
711.549	1155.46347
711.983	1231.31546
712.416	1242.37545
712.85	1259.5632
713.283	1251.41621
713.716	1187.43605
714.149	1216.33229
714.582	1235.271
715.015	1171.38277
715.448	1198.47567
715.881	1159.04175
716.313	1122.19794
716.746	1174.30001
717.178	1127.25587
717.61	1122.34625
718.043	1096.27775
718.475	1100.21234
718.907	1102.32663
719.339	1130.15037
719.77	1132.24979
720.202	1062.26743
720.634	1134.34016
721.065	1069.14744
721.497	1097.25818
721.928	1079.25377
722.359	1024.15615
722.79	1072.21699
723.221	974.09635
723.652	1008.18901
724.083	1063.05526
724.514	1011.98946
724.945	986.00263
725.375	1050.11741
725.806	981.07947
726.236	981.14875
726.666	946.94288
727.096	950.02981
727.526	960.11811
727.956	915.81383
728.386	984.07273
728.816	970.11886
729.246	936.00932
729.675	944.03691
730.105	905.91154
730.534	913.86286
730.964	880.93193
731.393	809.75929
731.822	887.98837
732.251	834.86613
732.68	830.71058
733.109	839.82147
733.537	851.82327
733.966	897.97872
734.395	830.69834
734.823	834.63807
735.251	840.81167
735.68	860.89512
736.108	792.77939
736.536	832.72621
736.964	790.64847
737.392	759.70836
737.82	832.77067
738.247	823.73824
738.675	796.68447
739.102	737.67773
739.53	808.84272
739.957	742.7315
740.384	760.65792
740.811	785.76474
741.238	731.61713
741.665	707.48392
742.092	732.57928
742.519	706.59257
742.945	705.54337
743.372	802.78127
743.798	726.69217
744.225	693.50368
744.651	720.63539
745.077	737.6595
745.503	710.56705
745.929	693.51325
746.355	739.64773
746.781	694.56549
747.207	673.47883
747.632	721.62477
748.058	694.57884
748.483	754.56772
748.908	677.53239
749.334	675.52415
749.759	662.41653
750.184	716.56187
750.609	689.55072
751.033	706.50753
751.458	728.4706
751.883	651.47648
752.307	670.45774
752.732	635.48663
753.156	666.52486
753.58	694.50873
754.005	670.53955
754.429	622.36236
754.853	700.57646
755.277	616.33445
755.7	719.62092
756.124	625.43636
756.548	636.40593
756.971	607.35152
757.394	614.46903
757.818	639.50649
758.241	635.4849
758.664	654.52667
759.087	664.37732
759.51	641.45789
759.933	667.48341
760.356	607.431
760.778	653.49598
761.201	634.42073
761.623	608.349
762.046	642.39794
762.468	624.35353
762.89	659.4765
763.312	667.50668
763.734	607.35264
764.156	594.36206
764.578	612.31563
765	609.38114
765.421	588.39501
765.843	575.39366
766.264	640.41713
766.686	541.25648
767.107	545.23234
767.528	598.41113
767.949	626.46812
768.37	538.2192
768.791	611.3683
769.212	593.39256
769.632	599.30558
770.053	542.3369
770.473	566.28274
770.894	565.30299
771.314	561.22833
771.734	522.15267
772.154	501.19773
772.575	562.20593
772.994	553.17868
773.414	579.28485
773.834	565.31952
774.254	570.31688
774.673	525.19428
775.093	539.25035
775.512	499.15516
775.931	500.19284
776.351	509.18904
776.77	513.1848
777.189	472.06378
777.607	497.19629
778.026	539.26513
778.445	457.09655
778.864	522.25109
779.282	538.21624
779.701	446.06219
780.119	513.24882
780.537	469.11643
780.955	439.04849
781.373	463.08312
781.791	460.98823
782.209	436.9536
782.627	487.22543
783.045	517.12995
783.462	449.09565
783.88	410.0157
784.297	476.13637
784.715	400.99318
785.132	439.02367
785.549	446.06869
785.966	383.92822
786.383	434.01932
786.8	408.91346
787.217	372.85684
787.633	359.87236
788.05	400.90108
788.466	305.68641
788.883	351.86568
789.299	357.83262
789.715	359.85141
790.131	365.88594
790.547	300.72507
790.963	369.89061
791.379	346.84974
791.795	344.76004
792.21	321.72832
792.626	294.67964
793.041	319.77432
793.457	347.83658
793.872	256.59345
794.287	247.58809
794.702	280.67292
795.117	279.68587
795.532	298.73622
795.947	260.61441
796.362	302.70589
796.776	282.63634
797.191	273.66045
797.605	300.70754
798.02	216.52208
798.434	252.54771
798.848	260.63669
799.262	229.56982
799.676	201.48354
800.09	229.56775
800.504	204.48917
800.918	211.49312
801.331	182.46772
801.745	181.41736
802.158	252.62145
802.572	187.44747
802.985	185.44387
803.398	166.397
803.811	162.40846
804.224	154.37924
804.637	181.43526
805.05	166.383
805.462	173.42343
805.875	165.42884
806.288	148.36325
806.7	173.43518
807.112	94.21922
807.525	167.41087
807.937	122.30387
808.349	117.29517
808.761	156.38487
809.173	111.27159
809.584	146.35927
809.996	119.29591
810.408	131.34153
810.819	156.3728
811.231	196.51437
811.642	203.49759
812.053	262.63325
812.464	300.70809
812.875	189.48087
813.286	200.51254
813.697	187.43549
814.108	152.37141
814.519	139.31104
814.929	138.35156
815.34	174.42864
815.75	177.45066
816.16	127.31718
816.571	69.17977
816.981	117.27762
817.391	132.32351
817.801	125.3176
818.211	54.12964
818.62	158.38636
819.03	124.30491
819.44	104.27146
819.849	83.20999
820.259	94.23981
820.668	106.26565
821.077	130.32849
821.486	108.26174
821.895	72.17862
822.304	121.32148
822.713	133.31923
823.122	100.25251
823.531	140.33738
823.939	77.19182
824.348	123.3034
824.756	118.29902
825.164	51.12963
825.573	119.3061
825.981	135.33496
826.389	133.33685
826.797	34.08607
827.205	97.22884
827.612	94.236
828.02	109.26123
828.428	111.28602
828.835	86.22884
829.243	143.34624
829.65	60.15215
830.057	121.29781
830.464	92.22698
830.871	107.25859
831.278	24.05926
831.685	95.21696
832.092	99.24699
832.499	81.18103
832.905	67.17162
833.312	109.25315
833.718	80.20229
834.124	55.12814
834.531	57.14539
834.937	57.14606
835.343	104.2547
835.749	65.15233
836.155	22.05856
836.561	87.21839
836.966	72.17894
837.372	103.26429
837.777	70.17858
838.183	43.09749
838.588	51.12747
838.993	86.21148
839.399	13.03268
839.804	4.01005
840.209	106.27517
840.613	96.21823
841.018	57.1456
841.423	58.15057
841.828	62.1604
842.232	98.24347
842.637	101.24289
843.041	85.22206
843.445	77.19592
843.849	62.15549
844.253	110.26468
844.657	48.12396
845.061	64.14955
845.465	31.07695
845.869	93.22051
846.272	34.08533
846.676	56.13669
847.079	97.25176
847.483	52.13074
847.886	32.07811
848.289	53.14357
848.692	70.17959
849.095	77.18917
849.498	77.19453
849.901	42.09826
850.304	102.24804
850.707	57.14636
851.109	34.08659
851.512	86.21607
851.914	64.16694
852.316	53.13452
852.718	34.08999
853.121	68.16968
853.523	98.23572
853.925	69.18363
854.326	2.00511
854.728	101.26323
855.13	74.19513
855.531	66.16307
855.933	58.13972
856.334	75.19036
856.736	60.13888
857.137	49.11641
857.538	39.10098
857.939	63.16019
858.34	79.1948
858.741	34.09017
859.142	64.15697
859.542	85.22719
859.943	53.13376
860.343	34.08622
860.744	40.09923
861.144	45.11055
861.544	72.17842
861.945	98.25458
862.345	81.19988
862.745	142.35804
863.145	91.21876
863.544	74.18892
863.944	61.14547
864.344	69.17327
864.743	23.05778
865.143	64.16671
865.542	29.06945
865.941	106.26679
866.34	73.17702
866.74	51.13775
867.139	81.19936
867.537	77.19758
867.936	60.14781
868.335	103.26429
868.734	95.24818
869.132	60.14372
869.531	54.13107
869.929	66.15604
870.327	76.18647
870.726	58.14494
871.124	88.21006
871.522	83.21394
871.92	88.22054
872.318	61.15147
872.715	13.03248
873.113	66.16481
873.511	101.25717
873.908	42.10971
874.306	89.22629
874.703	56.14161
875.1	80.20582
875.497	119.29084
875.894	83.20887
876.291	40.09978
876.688	123.32232
877.085	61.14775
877.482	49.12437
877.878	66.16242
878.275	41.10667
878.671	75.17039
879.068	63.15449
879.464	47.11572
879.86	42.10145
880.256	71.17713
880.652	80.20596
881.048	70.17454
881.444	14.03378
881.84	45.11603
882.236	31.07916
882.631	102.25553
883.027	29.07111
883.422	21.05464
883.817	80.20754
884.213	54.14134
884.608	57.14354
885.003	79.19516
885.398	62.15973
885.793	22.05626
886.188	77.19675
886.582	52.13322
886.977	79.19063
887.371	16.04075
887.766	21.05383
888.16	61.15411
888.554	41.1021
888.949	78.19667
889.343	42.10377
889.737	82.22325
890.131	48.12133
890.525	30.07799
890.918	13.03315
891.312	61.14608
891.706	-17.04491
892.099	34.08692
892.492	45.10049
892.886	8.01997
893.279	63.16352
893.672	-10.02568
894.065	39.09899
894.458	93.23814
894.851	109.26798
895.244	49.12666
895.637	79.19394
896.029	34.08466
896.422	66.16295
896.814	48.12099
897.206	35.08538
897.599	75.18562
897.991	21.05171
898.383	96.23283
898.775	64.14737
899.167	56.13485
899.559	60.15318
899.951	82.19559
900.342	75.19063
900.734	49.12582
901.125	92.24235
901.517	54.13572
901.908	65.15726
902.299	97.24384
902.69	80.19279
903.082	57.14014
903.473	78.19173
903.863	49.12688
904.254	114.27035
904.645	79.19852
905.036	57.14153
905.426	36.08376
905.817	76.18992
906.207	48.11799
906.597	53.12547
906.987	68.1781
907.378	30.07662
907.768	44.11801
908.158	33.08215
908.547	42.11075
908.937	8.02074
909.327	87.21516
909.717	71.18046
910.106	35.08573
910.495	62.15695
910.885	67.17264
911.274	46.11682
911.663	34.08677
912.052	61.15114
912.441	29.07454
912.83	75.17659
913.219	51.13437
913.608	47.11666
913.997	51.13087
914.385	72.17331
914.774	52.12858
915.162	80.19519
915.55	77.18805
915.939	59.15113
916.327	-6.01515
916.715	26.06747
917.103	72.1779
917.491	24.05995
917.878	21.05194
918.266	-6.0157
918.654	121.31221
919.041	37.09863
919.429	3.00732
919.816	37.09468
920.203	66.16319
920.591	50.12526
920.978	33.08101
921.365	41.10912
921.752	71.17294
922.139	91.2033
922.525	100.24581
922.912	23.05703
923.299	70.17694
923.685	36.09567
924.072	80.18436
924.458	51.12839
924.844	43.10883
925.231	78.18512
925.617	16.04179
926.003	10.026
926.389	33.08492
926.774	43.11069
927.16	58.14619
927.546	35.09184
927.931	109.27341
928.317	83.19231
928.702	18.04325
929.088	49.11931
929.473	42.10821
929.858	47.11696
930.243	27.06663
930.628	109.27085
931.013	57.14396
931.398	40.09336
931.783	67.17635
932.167	66.16564
932.552	13.03291
932.937	40.10057
933.321	41.10513
933.705	69.17674
934.09	26.06605
934.474	66.15857
934.858	51.13387
935.242	12.0288
935.626	90.23388
936.009	-8.02142
936.393	58.14896
936.777	52.13518
937.16	53.1386
937.544	103.2429
937.927	62.16067
938.311	73.17921
938.694	57.15104
939.077	35.0857
939.46	-5.01225
939.843	135.28874
940.226	34.08869
940.609	83.19771
940.991	52.13443
941.374	36.09006
941.757	57.14148
942.139	91.21168
942.522	84.19882
942.904	87.21168
943.286	56.14277
943.668	39.10272
944.05	76.18992
944.432	66.16707
944.814	39.09663
945.196	60.15075
945.578	81.19988
945.959	67.16021
946.341	-10.02461
946.722	23.05517
947.104	44.1076
947.485	68.1612
947.866	79.20455
948.247	33.08397
948.628	6.01483
949.009	64.16689
949.39	80.2002
949.771	89.21021
950.152	83.2076
950.532	69.17451
950.913	87.21208
951.293	27.07425
951.674	86.21506
952.054	66.16808
952.434	51.12811
952.814	71.17165
953.194	21.05539
953.574	45.11121
953.954	50.12127
954.334	67.16963
954.714	56.13974
955.093	29.07211
955.473	23.05844
955.853	40.10448
956.232	13.03574
956.611	61.14814
956.99	97.24759
957.37	48.12444
957.749	71.17294
958.128	54.13936
958.506	61.16213
958.885	89.22765
959.264	85.21467
959.643	79.1818
960.021	56.14186
960.4	63.14684
960.778	67.16679
961.156	71.18142
961.535	76.17926
961.913	55.13141
962.291	74.19513
962.669	42.10738
963.047	44.11324
963.424	43.11103
963.802	82.20513
964.18	69.17563
964.557	73.17108
964.935	25.06067
965.312	4.01058
965.69	48.12077
966.067	102.25137
966.444	24.05984
966.821	43.11176
967.198	41.1008
967.575	12.02969
967.952	66.15749
968.329	82.20231
968.705	46.10054
969.082	95.24674
969.458	53.1317
969.835	75.18419
970.211	76.19858
970.587	51.12848
970.963	43.1113
971.339	38.10078
971.715	57.14396
972.091	67.16721
972.467	84.21142
972.843	42.10621
973.219	44.10595
973.594	64.17115
973.97	78.1869
974.345	100.24281
974.721	12.0293
975.096	16.03961
975.471	79.19006
975.846	47.11457
976.221	98.25344
976.596	66.16194
976.971	24.06032
977.346	12.02847
977.72	66.17057
978.095	65.17022
978.469	47.11367
978.844	40.10097
979.218	0
979.593	69.16694
979.967	92.22581
980.341	36.08458
980.715	87.22183
981.089	14.03536
981.463	126.29696
981.837	67.16715
982.21	94.21973
982.584	68.16709
982.957	39.09983
983.331	83.19915
983.704	14.03457
984.078	37.09341
984.451	44.10967
984.824	3.00754
985.197	14.03467
985.57	58.14719
985.943	60.14836
986.316	57.14148
986.688	62.15082
987.061	71.17068
987.434	37.09778
987.806	89.21841
988.179	84.20258
988.551	76.19512
988.923	75.18664
989.295	17.04243
989.667	85.20821
990.039	113.28324
990.411	46.10825
990.783	59.138
991.155	78.194
991.527	101.24703
991.898	43.10957
992.27	17.04283
992.641	61.15389
993.012	101.23957
993.384	16.03882
993.755	58.15077
994.126	30.07342
994.497	69.17239
994.868	105.2453
995.239	92.22372
995.61	33.08506
995.98	72.1792
996.351	15.038
996.722	57.13718
997.092	15.03669
997.462	52.12536
997.833	64.1533
998.203	38.09313
998.573	24.06075
998.943	78.18712
999.313	88.21487
999.683	72.1777
1000.053	52.12289
1000.423	-7.01732
1000.792	49.12949
1001.162	30.07489
1001.531	68.17005
1001.901	103.2617
1002.27	47.10769
1002.639	47.12245
1003.009	16.03875
1003.378	-3.00777
1003.747	103.24826
1004.116	92.22355
1004.485	18.04371
1004.853	72.18394
1005.222	22.05603
1005.591	41.09897
1005.959	86.20024
1006.328	20.04653
1006.696	46.11437
1007.064	20.05106
1007.433	53.13371
1007.801	50.12318
1008.169	-3.00766
1008.537	25.05717
1008.905	57.13656
1009.273	20.04983
1009.64	46.11353
1010.008	27.06621
1010.375	32.07671
1010.743	92.2132
1011.11	37.09013
1011.478	49.12251
1011.845	64.15242
1012.212	58.13531
1012.579	10.02493
1012.946	78.18726
1013.313	30.07227
1013.68	41.09398
1014.047	69.16858
1014.414	68.16437
1014.78	26.06544
1015.147	34.08265
1015.513	51.12534
1015.88	35.08965
1016.246	17.04203
1016.612	26.06025
1016.978	41.10225
1017.344	40.10126
1017.71	40.09753
1018.076	40.09567
1018.442	35.09037
1018.808	32.08158
1019.174	41.10506
1019.539	24.05533
1019.905	58.1393
1020.27	77.19349
1020.636	39.09514
1021.001	-1.00245
1021.366	-8.01984
1021.731	2.00518
1022.096	31.07994
1022.461	65.15614
1022.826	38.09192
1023.191	30.07951
1023.556	73.17482
1023.92	8.01993
1024.285	80.19716
1024.649	61.1518
1025.014	91.22727
1025.378	80.20337
1025.742	50.12657
1026.107	64.14649
1026.471	42.09837
1026.835	73.18436
1027.199	81.20201
1027.562	60.14191
1027.926	74.18217
1028.29	57.14733
1028.654	54.12687
1029.017	28.06939
1029.381	21.0515
1029.744	-5.01294
1030.107	37.08888
1030.471	-9.02191
1030.834	53.12236
1031.197	31.07506
1031.56	23.05525
1031.923	53.13827
1032.286	-12.0289
1032.648	83.20225
1033.011	31.07245
1033.374	61.14385
1033.736	23.06164
1034.099	88.21815
1034.461	-17.04381
1034.823	12.03041
1035.185	77.19537
1035.548	37.09231
1035.91	61.14842
1036.272	-8.01858
1036.634	-4.00991
1036.995	71.17087
1037.357	44.10916
1037.719	47.11461
1038.08	43.10333
1038.442	50.12036
1038.803	41.09976
1039.165	67.17264
1039.526	22.05422
1039.887	65.15833
1040.248	-2.00504
1040.609	21.05214
1040.97	32.08017
1041.331	49.12551
1041.692	138.33016
1042.053	95.21959
1042.413	70.16562
1042.774	44.10828
1043.134	92.22154
1043.495	10.02545
1043.855	46.11328
1044.215	56.14161
1044.576	82.20156
1044.936	82.1901
1045.296	73.18351
1045.656	18.04469
1046.016	37.09013
1046.375	-1.00247
1046.735	72.16718
1047.095	29.06932
1047.454	107.22895
1047.814	77.18714
1048.173	2.00476
1048.533	51.11891
1048.892	20.04974
1049.251	97.24462
1049.61	23.05767
1049.969	96.23196
1050.328	67.1482
1050.687	21.05201
1051.046	8.0197
1051.405	78.19759
1051.763	36.08518
1052.122	67.16909
1052.48	-9.02232
1052.839	54.12934
1053.197	39.09422
1053.555	-22.05017
1053.914	-16.03965
1054.272	39.09443
1054.63	97.24121
1054.988	64.15517
1055.345	91.19952
1055.703	48.11686
1056.061	38.09875
1056.419	-8.02112
1056.776	67.16204
1057.134	72.16969
1057.491	27.06838
1057.848	25.0626
1058.206	81.19324
1058.563	37.08351
1058.92	36.08353
1059.277	32.07985
1059.634	77.18243
1059.991	60.1458
1060.348	56.13024
1060.704	47.11474
1061.061	39.09161
1061.418	63.15409
1061.774	39.098
1062.131	12.03245
1062.487	41.09804
1062.843	18.04535
1063.199	61.15461
1063.555	47.1123
1063.911	9.02291
1064.267	29.06181
1064.623	39.0967
1064.979	88.20909
1065.335	18.04353
1065.691	51.12339
1066.046	-2.00442
1066.402	68.15939
1066.757	46.11678
1067.112	22.0545
1067.468	70.1727
1067.823	85.20736
1068.178	8.01962
1068.533	73.17914
1068.888	23.05575
1069.243	63.15695
1069.598	44.10888
1069.952	70.16235
1070.307	67.17024
1070.662	25.06037
1071.016	62.14208
1071.371	52.12012
1071.725	45.10892
1072.079	37.08982
1072.434	59.14623
1072.788	75.1816
1073.142	116.28693
1073.496	4.00972
1073.85	31.07262
1074.203	106.26267
1074.557	48.12904
1074.911	45.10764
1075.265	44.10406
1075.618	39.09567
1075.971	33.0799
1076.325	47.12132
1076.678	37.0878
1077.031	79.18289
1077.385	79.17875
1077.738	68.15708
1078.091	35.08225
1078.444	58.1368
1078.796	9.0224
1079.149	19.04783
1079.502	55.13467
1079.855	80.19045
1080.207	57.1419
1080.56	39.10189
1080.912	34.08358
1081.264	43.10533
1081.617	77.1921
1081.969	97.24846
1082.321	17.04209
1082.673	35.08289
1083.025	56.13562
1083.377	46.10185
1083.728	11.02606
1084.08	67.1683
1084.432	30.07407
1084.783	64.15137
1085.135	10.02561
1085.486	81.19131
1085.838	40.10043
1086.189	27.06636
1086.54	60.14448
1086.891	67.17228
1087.242	18.04428
1087.593	25.06174
1087.944	18.04142
1088.295	64.14773
1088.646	71.1754
1088.996	6.01478
1089.347	27.06748
1089.698	5.0122
1090.048	23.05966
1090.398	9.02122
1090.749	42.10244
1091.099	69.17915
1091.449	53.13347
1091.799	59.14975
1092.149	51.12922
1092.499	12.02981
1092.849	43.11149
1093.199	8.02021
1093.548	61.1497
1093.898	35.08909
1094.248	61.15718
1094.597	34.08969
1094.947	53.14189
1095.296	39.0973
1095.645	48.12576
1095.994	-5.01223
1096.343	43.10941
1096.692	55.14991
1097.041	10.02725
1097.39	69.17668
1097.739	18.04743
1098.088	89.23882
1098.437	20.05361
1098.785	-2.00542
1099.134	45.11984
1099.482	41.11375
1099.83	31.08165
1100.179	62.16503
1100.527	60.1596
1100.875	-9.02425
1101.223	31.083
1101.571	31.08652
1101.919	52.13929
1102.267	20.05672
1102.615	16.05155
1102.962	5.0161
1103.31	16.05149
1103.658	25.08052
