Data from N2 R0 150C sample1_Subt2__4__13-00-29-670.txt Node

Date: Tue Aug 19 13:00:29 PDT 2025
User: uwsun
Spectrometer: HDX01956
Trigger mode: 0
Integration Time (sec): 5.000000E-1
Scans to average: 1
Nonlinearity correction enabled: true
Boxcar width: 0
Storing dark spectrum: false
XAxis mode: Wavelengths
Number of Pixels in Spectrum: 2068
>>>>>Begin Spectral Data<<<<<
194.03	24.07026
194.578	19.06189
195.127	17.05469
195.676	26.08385
196.225	83.22811
196.773	48.13756
197.321	82.23535
197.87	138.37158
198.418	108.28909
198.966	100.274
199.513	37.09785
200.061	101.26995
200.609	118.32311
201.156	92.21514
201.704	142.37545
202.251	100.278
202.798	125.33872
203.345	103.26752
203.892	125.32878
204.438	106.26746
204.985	137.34599
205.532	97.26667
206.078	109.28174
206.624	86.2241
207.17	124.30446
207.716	105.26943
208.262	60.12869
208.808	133.34781
209.354	100.25781
209.899	110.28811
210.445	122.32029
210.99	117.29959
211.535	133.33144
212.08	139.34451
212.625	124.32576
213.17	118.31189
213.715	181.43427
214.259	149.3651
214.804	95.24504
215.348	88.21327
215.892	113.28457
216.436	93.22873
216.98	120.28469
217.524	80.20071
218.068	144.38112
218.612	96.25332
219.155	158.3888
219.698	139.3474
220.242	150.38791
220.785	125.30607
221.328	81.21082
221.871	120.31344
222.414	117.30357
222.956	125.31962
223.499	100.23907
224.041	119.29159
224.583	88.19996
225.126	81.19035
225.668	51.13073
226.21	67.17683
226.751	147.34234
227.293	100.24417
227.835	132.33841
228.376	76.18537
228.918	125.32811
229.459	111.28939
230	87.2176
230.541	159.38917
231.082	69.17407
231.622	118.2849
232.163	118.29966
232.704	96.24784
233.244	100.25906
233.784	122.3108
234.324	108.25671
234.864	131.313
235.404	88.2199
235.944	88.21903
236.484	102.26269
237.023	137.34092
237.563	142.34362
238.102	92.22648
238.641	108.2846
239.18	141.3478
239.719	135.35099
240.258	96.22933
240.797	146.36641
241.335	102.2615
241.874	177.36889
242.412	115.2923
242.95	63.15996
243.488	148.35652
244.026	130.31387
244.564	134.29435
245.102	96.22889
245.64	83.20879
246.177	107.25556
246.715	113.28477
247.252	139.33528
247.789	117.23885
248.326	108.27494
248.863	102.24068
249.4	135.32329
249.936	127.27786
250.473	113.27925
251.009	73.17994
251.546	80.18862
252.082	86.20143
252.618	52.12384
253.154	110.27974
253.69	101.23975
254.226	127.31672
254.761	143.34337
255.297	88.2045
255.832	72.1792
256.367	139.34463
256.903	62.14448
257.438	106.26142
257.972	147.3476
258.507	119.29073
259.042	152.35224
259.576	111.25861
260.111	131.31778
260.645	72.1654
261.179	54.13391
261.713	200.46879
262.247	136.33158
262.781	107.24181
263.315	170.43384
263.849	134.35013
264.382	125.30106
264.915	157.38912
265.449	158.40831
265.982	132.3187
266.515	116.29385
267.048	99.22819
267.58	164.37839
268.113	111.25698
268.646	129.3332
269.178	131.31072
269.71	116.27084
270.243	140.33495
270.775	95.25072
271.307	140.35034
271.838	96.23685
272.37	103.26494
272.902	124.29735
273.433	75.17377
273.965	123.31285
274.496	101.25953
275.027	116.29988
275.558	91.2322
276.089	119.30844
276.62	123.32418
277.15	87.22215
277.681	123.28566
278.211	44.11142
278.741	161.37583
279.272	114.27472
279.802	126.32517
280.332	96.23894
280.861	159.3981
281.391	99.23808
281.921	132.33211
282.45	170.43871
282.98	144.38646
283.509	110.26066
284.038	115.27729
284.567	135.3265
285.096	145.36606
285.625	129.31128
286.153	134.32707
286.682	157.37684
287.21	129.32544
287.739	152.37748
288.267	128.32378
288.795	92.24691
289.323	180.44359
289.851	160.39401
290.378	124.29542
290.906	136.34512
291.433	107.27619
291.961	129.30822
292.488	104.26868
293.015	168.41524
293.542	202.52652
294.069	91.23285
294.596	141.35939
295.122	168.4163
295.649	152.35154
296.175	159.40412
296.702	174.43448
297.228	173.43237
297.754	169.40471
298.28	124.29837
298.806	118.29657
299.332	128.30249
299.857	158.37411
300.383	118.30864
300.908	134.34004
301.433	110.27756
301.958	133.31972
302.483	148.38261
303.008	179.45511
303.533	133.35324
304.058	160.39329
304.582	175.43119
305.107	162.43562
305.631	137.32571
306.155	164.39999
306.679	99.24214
307.203	151.3678
307.727	159.39162
308.251	135.34567
308.775	173.42908
309.298	224.5587
309.822	176.45671
310.345	196.48479
310.868	174.43038
311.391	138.35119
311.914	204.52425
312.437	174.4147
312.96	169.41334
313.482	145.35741
314.005	188.48482
314.527	149.40205
315.049	152.39159
315.571	188.44428
316.093	174.44529
316.615	168.42192
317.137	159.36546
317.659	229.57314
318.18	175.43182
318.702	188.45029
319.223	207.45747
319.744	254.58998
320.265	193.4834
320.786	222.56452
321.307	187.47797
321.828	212.50215
322.348	219.53521
322.869	245.60164
323.389	-57.10005
323.909	218.51616
324.43	205.50286
324.95	210.49972
325.47	218.54492
325.989	188.45937
326.509	217.50176
327.029	229.53224
327.548	197.46221
328.067	244.60659
328.587	234.5904
329.106	216.50074
329.625	264.68903
330.144	243.58101
330.662	200.4741
331.181	253.60469
331.7	217.52598
332.218	281.63214
332.736	264.63182
333.255	238.56765
333.773	244.58686
334.291	241.60316
334.808	297.68398
335.326	322.74022
335.844	292.69375
336.361	290.73636
336.879	312.74553
337.396	251.61318
337.913	272.63603
338.43	343.77949
338.947	274.6545
339.464	272.60324
339.981	303.72389
340.497	297.72553
341.014	288.70708
341.53	287.65013
342.046	285.69622
342.562	335.82805
343.078	308.72922
343.594	286.68472
344.11	318.7494
344.626	326.81157
345.141	321.7295
345.657	317.71458
346.172	354.84198
346.687	368.84425
347.202	345.77577
347.717	392.91979
348.232	353.86389
348.747	378.86266
349.261	352.77804
349.776	355.82567
350.29	396.95954
350.805	391.95258
351.319	394.9075
351.833	335.75206
352.347	339.78567
352.861	380.86548
353.374	388.86762
353.888	359.84977
354.401	368.83443
354.915	418.92196
355.428	408.97559
355.941	393.8996
356.454	431.93769
356.967	387.88444
357.48	398.88667
357.993	427.00538
358.505	393.92411
359.018	408.95918
359.53	450.0434
360.042	432.92849
360.554	385.89649
361.066	466.08184
361.578	402.85137
362.09	393.89779
362.602	416.89103
363.113	438.98464
363.625	458.99155
364.136	438.93004
364.647	537.19251
365.158	431.9556
365.669	454.02606
366.18	498.09867
366.691	452.95767
367.201	560.24392
367.712	514.10704
368.222	490.05978
368.733	557.15637
369.243	552.14928
369.753	557.2129
370.263	547.21928
370.773	475.08124
371.282	508.12264
371.792	607.30962
372.301	565.25738
372.811	565.32777
373.32	593.16603
373.829	607.30626
374.338	610.22685
374.847	618.29319
375.356	677.4265
375.865	646.22479
376.373	709.41286
376.882	677.48949
377.39	769.58723
377.898	766.61741
378.407	764.46022
378.915	837.49867
379.423	882.7089
379.93	892.63058
380.438	932.83254
380.946	1016.8839
381.453	1006.88474
381.96	1054.91291
382.468	1116.98789
382.975	1188.07732
383.482	1204.88787
383.989	1235.23937
384.495	1263.00217
385.002	1400.91398
385.509	1429.21858
386.015	1433.73384
386.521	1608.16649
387.028	1657.11016
387.534	1725.02359
388.04	1766.24669
388.546	1771.06997
389.051	1909.98959
389.557	1955.10105
390.063	2275.12771
390.568	2270.21347
391.073	2315.96532
391.578	2401.21215
392.084	2477.75763
392.589	2414.50174
393.093	2809.70597
393.598	3023.36109
394.103	3224.26983
394.607	3584.83496
395.112	3956.69918
395.616	4157.39406
396.12	4475.774
396.624	4931.45193
397.128	5458.31439
397.632	6016.27173
398.136	6515.69515
398.639	6826.18373
399.143	7574.97767
399.646	8624.90757
400.15	9495.36387
400.653	10451.49846
401.156	11700.65726
401.659	13772.49857
402.162	16936.91016
402.664	21507.83965
403.167	28508.96269
403.67	19590.36552
404.172	2696.20453
404.674	0
405.176	0
405.678	0
406.18	0
406.682	0
407.184	0
407.686	25783.58453
408.187	43316.52985
408.688	51225.60928
409.19	37719.79772
409.691	30561.89586
410.192	25594.88897
410.693	22396.55169
411.194	20390.00039
411.694	19400.37831
412.195	18213.62761
412.696	16371.69849
413.196	15341.45563
413.696	14930.65175
414.196	15386.71035
414.696	14978.46458
415.196	14306.52983
415.696	13157.28106
416.196	10747.58672
416.695	8234.58679
417.195	7063.41383
417.694	6724.04009
418.194	6422.57458
418.693	5849.23861
419.192	5820.32285
419.691	5646.31603
420.19	5500.35393
420.688	5400.40837
421.187	5269.16549
421.685	4827.65369
422.184	4380.18989
422.682	3826.56297
423.18	3261.31759
423.678	2906.67497
424.176	2654.85228
424.674	2595.75781
425.172	2464.13739
425.669	2416.39713
426.167	2252.24243
426.664	1978.20376
427.161	1726.10831
427.659	1707.38691
428.156	1669.96101
428.652	1530.47381
429.149	1456.28245
429.646	1375.98118
430.143	1291.11456
430.639	1236.05365
431.135	1195.17752
431.632	1082.84801
432.128	1080.96714
432.624	1011.02236
433.12	962.70407
433.616	961.64378
434.111	902.71198
434.607	888.72627
435.103	804.38743
435.598	827.42078
436.093	771.52306
436.588	741.38578
437.083	736.40662
437.578	738.46289
438.073	685.50207
438.568	623.34131
439.062	633.20974
439.557	595.25241
440.051	590.19419
440.546	563.16052
441.04	545.19626
441.534	592.35801
442.028	577.24321
442.522	555.21007
443.015	523.05522
443.509	544.21483
444.002	490.10847
444.496	489.00683
444.989	517.15089
445.482	492.12789
445.975	494.06025
446.468	463.9396
446.961	475.97187
447.454	462.97543
447.947	419.94753
448.439	377.85396
448.931	462.99295
449.424	423.99075
449.916	455.03772
450.408	424.91286
450.9	405.93859
451.392	380.90658
451.884	366.80627
452.375	399.95207
452.867	446.95156
453.358	389.85424
453.849	382.78885
454.341	373.81429
454.832	396.82767
455.323	362.84875
455.814	390.86561
456.304	322.72214
456.795	406.89512
457.285	317.68384
457.776	335.73722
458.266	323.74622
458.756	334.76902
459.247	330.76739
459.737	363.84394
460.226	405.88376
460.716	359.83728
461.206	362.84245
461.695	276.66808
462.185	308.70322
462.674	372.84007
463.163	297.6451
463.653	350.73542
464.142	331.77927
464.63	338.80641
465.119	302.68591
465.608	352.79978
466.096	251.54937
466.585	299.68006
467.073	235.55501
467.561	255.60364
468.05	255.58915
468.538	262.63253
469.026	237.56407
469.513	409.90721
470.001	260.58646
470.489	274.64723
470.976	266.61346
471.463	255.6241
471.951	236.57965
472.438	207.48775
472.925	237.55257
473.412	209.50697
473.899	204.46842
474.385	238.57655
474.872	246.58223
475.359	228.55814
475.845	201.43101
476.331	152.33192
476.817	183.44558
477.303	219.51141
477.789	193.46729
478.275	129.32334
478.761	177.43258
479.247	214.49138
479.732	179.45027
480.218	198.51273
480.703	209.52044
481.188	151.33469
481.673	201.46772
482.158	184.40995
482.643	154.38982
483.128	138.32486
483.612	170.40361
484.097	157.38427
484.581	153.36052
485.066	184.45411
485.55	154.35149
486.034	133.29553
486.518	185.44589
487.002	171.43062
487.486	156.38699
487.969	172.42964
488.453	134.33956
488.936	162.37943
489.42	123.28023
489.903	148.37477
490.386	164.2887
490.869	139.31258
491.352	96.23998
491.835	110.23949
492.318	173.41081
492.8	209.45029
493.283	174.4509
493.765	122.30882
494.247	149.35587
494.73	165.37713
495.212	133.32819
495.694	129.31128
496.175	127.31442
496.657	165.39905
497.139	149.28027
497.62	106.26181
498.102	143.36269
498.583	96.24603
499.064	166.38971
499.545	155.36665
500.026	142.33232
500.507	135.32514
500.988	169.42969
501.469	109.28262
501.949	131.33308
502.43	120.29758
502.91	147.32392
503.39	111.28273
503.87	150.36803
504.35	88.21471
504.83	129.29817
505.31	113.2816
505.79	110.27557
506.269	152.3692
506.749	96.22994
507.228	141.34537
507.707	106.2472
508.187	100.2449
508.666	103.26356
509.145	107.26365
509.623	53.13006
510.102	130.32567
510.581	101.24996
511.059	105.27243
511.538	72.19101
512.016	152.37886
512.494	123.3093
512.972	93.23042
513.45	99.24304
513.928	151.3823
514.406	101.25735
514.884	109.28912
515.361	89.22405
515.839	133.31863
516.316	138.34521
516.793	91.23782
517.27	117.2903
517.747	119.31448
518.224	160.38688
518.701	166.39168
519.178	64.16454
519.654	84.20816
520.131	77.19737
520.607	109.27822
521.083	101.24317
521.56	122.30354
522.036	102.23797
522.512	58.14719
522.987	118.29369
523.463	117.29231
523.939	132.3339
524.414	105.25347
524.89	104.25753
525.365	147.35042
525.84	133.33397
526.315	132.33199
526.79	112.26653
527.265	184.44139
527.74	76.19327
528.215	129.31926
528.689	122.2863
529.164	109.24964
529.638	102.27168
530.112	142.35124
530.587	97.22242
531.061	86.21793
531.534	76.19074
532.008	94.23761
532.482	78.18612
532.956	41.10897
533.429	111.27943
533.903	99.2301
534.376	81.18961
534.849	119.28965
535.322	66.16433
535.795	93.23646
536.268	71.17777
536.741	124.30829
537.213	124.29939
537.686	122.31047
538.158	74.17563
538.631	110.27547
539.103	102.24404
539.575	126.27584
540.047	142.32711
540.519	141.35061
540.991	103.26096
541.463	110.27746
541.934	149.35668
542.406	125.31185
542.877	140.33508
543.348	160.39923
543.82	114.28734
544.291	101.24583
544.762	117.2886
545.233	89.23219
545.703	44.10463
546.174	140.34006
546.645	120.30149
547.115	130.32837
547.585	109.26282
548.056	134.34101
548.526	162.40085
548.996	107.26704
549.466	78.19773
549.935	141.34895
550.405	142.32841
550.875	136.33491
551.344	109.27459
551.814	167.40221
552.283	134.30325
552.752	183.44441
553.221	193.44946
553.69	137.3183
554.159	164.41956
554.628	155.36623
555.096	213.55547
555.565	195.45716
556.033	168.40913
556.502	205.50956
556.97	190.43942
557.438	184.44943
557.906	197.48038
558.374	199.47364
558.842	171.42087
559.31	189.44188
559.777	177.44045
560.245	239.57756
560.712	242.57984
561.18	280.64805
561.647	266.61272
562.114	267.62618
562.581	269.66885
563.048	342.79623
563.514	320.78939
563.981	297.68971
564.448	357.81196
564.914	424.98163
565.381	376.8581
565.847	481.10682
566.313	436.00729
566.779	430.9516
567.245	499.14419
567.711	489.15029
568.176	551.20793
568.642	554.33844
569.108	539.28429
569.573	679.52696
570.038	690.39947
570.504	613.31015
570.969	755.76976
571.434	776.61923
571.899	833.82681
572.363	798.67989
572.828	880.81615
573.293	955.9583
573.757	956.94142
574.222	998.00502
574.686	1025.06643
575.15	1066.21044
575.614	1094.17111
576.078	1115.27686
576.542	1103.16824
577.006	1158.2261
577.469	1219.52525
577.933	1206.32744
578.396	1229.42319
578.86	1253.46486
579.323	1313.61676
579.786	1294.30364
580.249	1337.53988
580.712	1340.67372
581.175	1289.6326
581.637	1253.3581
582.1	1331.39953
582.563	1286.25767
583.025	1321.63757
583.487	1318.19429
583.95	1272.3131
584.412	1308.2655
584.874	1277.5414
585.336	1300.53427
585.797	1293.2989
586.259	1334.5665
586.721	1289.49449
587.182	1338.5167
587.643	1348.4826
588.105	1374.64867
588.566	1368.28549
589.027	1431.77906
589.488	1347.49982
589.949	1505.85718
590.41	1423.19513
590.87	1490.61901
591.331	1571.54845
591.791	1647.91671
592.252	1660.88801
592.712	1726.05096
593.172	1824.98675
593.632	1897.93579
594.092	1879.96947
594.552	1980.91467
595.011	2087.22095
595.471	2139.07888
595.931	2218.14604
596.39	2376.6084
596.849	2450.47425
597.308	2563.17525
597.768	2752.08564
598.227	2866.655
598.685	2991.39291
599.144	3171.58681
599.603	3520.67059
600.062	3611.00831
600.52	3865.18652
600.978	3962.44488
601.437	4283.04058
601.895	4525.50682
602.353	4860.56724
602.811	5106.58936
603.269	5378.88296
603.727	5770.70403
604.184	6065.20056
604.642	6448.52506
605.099	6784.06359
605.557	7206.36899
606.014	7568.94734
606.471	7969.7586
606.928	8488.71886
607.385	8859.52721
607.842	9255.98104
608.299	9765.12504
608.755	10155.14652
609.212	10688.04404
609.668	11148.84328
610.125	11701.03916
610.581	12166.6109
611.037	12609.47642
611.493	12879.92412
611.949	13525.81593
612.405	13867.90758
612.861	14504.3951
613.316	14769.40624
613.772	15287.79587
614.227	15619.61052
614.683	15833.72863
615.138	16032.20295
615.593	16370.97338
616.048	16548.50334
616.503	17034.59723
616.958	16854.79395
617.412	17064.62412
617.867	17243.02928
618.321	17256.51374
618.776	17295.61545
619.23	17334.05977
619.684	17143.50196
620.138	17084.38612
620.592	17014.38954
621.046	16656.24442
621.5	16592.41164
621.954	16412.1393
622.407	16099.91738
622.861	15932.56133
623.314	15602.36442
623.768	15412.93197
624.221	15058.89776
624.674	14861.90273
625.127	14719.42394
625.58	14444.36001
626.033	14128.17625
626.485	13933.34503
626.938	13840.7601
627.39	13608.1362
627.843	13281.8546
628.295	12923.49239
628.747	12861.75002
629.199	12871.2116
629.651	12611.49669
630.103	12542.9823
630.555	12310.29865
631.006	12140.54839
631.458	12174.6464
631.909	11887.40049
632.361	11934.45693
632.812	11710.32165
633.263	11769.11882
633.714	11614.38468
634.165	11722.10045
634.616	11816.69958
635.067	11602.15223
635.518	11648.92434
635.968	11679.13387
636.419	11810.28093
636.869	12092.25843
637.319	12040.11969
637.769	12276.62314
638.219	12367.89873
638.669	12560.88589
639.119	12822.26109
639.569	13132.5311
640.019	13343.51867
640.468	13739.87718
640.918	13971.90315
641.367	14327.67648
641.816	14759.45308
642.265	15103.36305
642.714	15463.92991
643.163	15977.98517
643.612	16541.00192
644.061	16908.80088
644.51	17298.9044
644.958	17645.45542
645.406	18145.7637
645.855	18555.45562
646.303	18987.57555
646.751	19534.14273
647.199	20093.37543
647.647	20442.93345
648.095	20692.15799
648.543	21263.64607
648.99	21324.83971
649.438	22061.67977
649.885	22102.75222
650.333	22537.28537
650.78	22785.99834
651.227	22912.53909
651.674	22829.83051
652.121	22944.66499
652.568	23145.26748
653.015	23227.84542
653.461	23126.79064
653.908	23257.18695
654.354	22982.90595
654.801	22656.24173
655.247	22644.84733
655.693	22320.21185
656.139	22210.12696
656.585	21874.6022
657.031	21854.55173
657.477	21527.90877
657.922	21386.21598
658.368	20840.73751
658.813	20593.23318
659.259	20270.21481
659.704	19729.77367
660.149	19480.86025
660.594	19137.93808
661.039	18842.1009
661.484	18384.22679
661.929	18153.56101
662.373	17680.38295
662.818	17452.17281
663.262	17166.63097
663.707	16878.22649
664.151	16539.15234
664.595	16132.12318
665.039	15961.54992
665.483	15823.65385
665.927	15540.37997
666.371	15288.91649
666.814	14944.31435
667.258	14723.00829
667.701	14539.19876
668.145	14285.8793
668.588	14172.19537
669.031	13930.47342
669.474	13664.34433
669.917	13618.07946
670.36	13445.29136
670.803	13442.83823
671.245	13131.83993
671.688	12941.21714
672.13	12810.96808
672.573	12510.22933
673.015	12546.70862
673.457	12465.05968
673.899	12292.29621
674.341	12164.5156
674.783	12099.2229
675.225	11993.53822
675.666	11842.72684
676.108	11846.53962
676.549	11632.9288
676.991	11632.19459
677.432	11428.67506
677.873	11239.22722
678.314	11101.46777
678.755	11082.32959
679.196	10966.06866
679.637	10648.72466
680.078	10581.59361
680.518	10311.68726
680.959	10214.32828
681.399	10142.10288
681.839	9787.18234
682.28	9901.4695
682.72	9590.69975
683.16	9271.10472
683.6	9079.61607
684.039	8861.1307
684.479	8893.49793
684.919	8874.34839
685.358	8713.3432
685.798	8562.32747
686.237	8360.79279
686.676	8247.48079
687.115	8208.5224
687.554	8117.48207
687.993	7874.02951
688.432	7793.13299
688.871	7631.06034
689.309	7551.19367
689.748	7507.54648
690.186	7415.10552
690.625	7341.01091
691.063	7325.19577
691.501	7123.24571
691.939	7124.34045
692.377	7032.21149
692.815	6955.14404
693.253	6802.15885
693.69	6731.69551
694.128	6704.29043
694.565	6620.10456
695.003	6560.57311
695.44	6462.10494
695.877	6381.16075
696.314	6300.53391
696.751	6224.87241
697.188	6178.03342
697.625	6100.97179
698.061	5989.42324
698.498	5978.37458
698.934	5804.53067
699.371	5888.35875
699.807	5750.36767
700.243	5609.63294
700.679	5535.22159
701.115	5532.38563
701.551	5444.5015
701.987	5320.31203
702.422	5276.74078
702.858	5138.70796
703.294	5092.40313
703.729	5113.99491
704.164	4910.99756
704.599	4875.46707
705.035	4887.61748
705.47	4765.29141
705.904	4733.96727
706.339	4701.64518
706.774	4620.94135
707.209	4552.90911
707.643	4543.19011
708.078	4528.40468
708.512	4299.67346
708.946	4263.16874
709.38	4184.20026
709.814	4223.92648
710.248	4089.40216
710.682	4130.32225
711.116	3962.50043
711.549	3923.88972
711.983	3901.20644
712.416	3823.3496
712.85	3822.7619
713.283	3798.42942
713.716	3768.72563
714.149	3655.38487
714.582	3621.1835
715.015	3502.7127
715.448	3407.85885
715.881	3387.92863
716.313	3387.44384
716.746	3327.5224
717.178	3362.57846
717.61	3266.84077
718.043	3254.76992
718.475	3166.58962
718.907	3258.87298
719.339	3098.33294
719.77	3012.56548
720.202	3036.88251
720.634	3028.77593
721.065	3006.54549
721.497	2943.70855
721.928	2921.76467
722.359	2918.74225
722.79	2830.68746
723.221	2858.79574
723.652	2764.86481
724.083	2820.32973
724.514	2764.34668
724.945	2677.46379
725.375	2702.5057
725.806	2643.66769
726.236	2577.81735
726.666	2604.4524
727.096	2552.64343
727.526	2570.83009
727.956	2505.22304
728.386	2577.61703
728.816	2479.74806
729.246	2487.62635
729.675	2455.64668
730.105	2407.4751
730.534	2490.35064
730.964	2382.62606
731.393	2477.54694
731.822	2404.7509
732.251	2391.67881
732.68	2427.28886
733.109	2330.50229
733.537	2405.48676
733.966	2405.67977
734.395	2470.26986
734.823	2421.07346
735.251	2375.49378
735.68	2418.64198
736.108	2335.62569
736.536	2450.3306
736.964	2396.2939
737.392	2379.62451
737.82	2396.43069
738.247	2396.385
738.675	2397.36675
739.102	2333.63483
739.53	2418.76472
739.957	2366.78825
740.384	2353.45649
740.811	2409.66074
741.238	2417.52565
741.665	2408.24049
742.092	2436.40956
742.519	2376.5793
742.945	2444.45702
743.372	2364.5939
743.798	2435.8035
744.225	2451.40268
744.651	2437.65961
745.077	2423.62538
745.503	2476.51655
745.929	2513.45713
746.355	2542.62649
746.781	2470.6105
747.207	2511.46723
747.632	2501.64735
748.058	2567.69546
748.483	2626.30705
748.908	2529.63467
749.334	2602.64554
749.759	2546.33113
750.184	2648.51777
750.609	2662.66204
751.033	2676.40027
751.458	2711.14911
751.883	2733.68108
752.307	2796.48115
752.732	2669.82886
753.156	2779.76473
753.58	2767.49987
754.005	2766.78751
754.429	2836.46761
754.853	2737.69834
755.277	2820.39757
755.7	2854.75163
756.124	2897.76118
756.548	2897.54331
756.971	2877.54843
757.394	2965.01387
757.818	2988.95249
758.241	3056.90206
758.664	2991.90775
759.087	2986.22302
759.51	3083.73331
759.933	3101.62697
760.356	3150.92571
760.778	3154.79606
761.201	3181.6301
761.623	3194.53398
762.046	3248.45661
762.468	3082.42355
762.89	3194.66053
763.312	3318.71455
763.734	3165.56147
764.156	3249.72279
764.578	3261.33862
765	3308.66503
765.421	3303.94324
765.843	3278.07844
766.264	3340.54704
766.686	3243.73892
767.107	3313.56123
767.528	3370.91441
767.949	3380.90807
768.37	3329.56445
768.791	3359.5789
769.212	3349.87551
769.632	3423.37825
770.053	3367.16092
770.473	3424.58739
770.894	3377.71051
771.314	3306.37853
771.734	3345.37467
772.154	3379.87549
772.575	3398.23799
772.994	3484.1641
773.414	3466.45776
773.834	3335.80125
774.254	3377.72939
774.673	3369.56675
775.093	3352.71893
775.512	3306.65729
775.931	3347.86216
776.351	3325.72986
776.77	3293.66124
777.189	3299.44748
777.607	3302.92448
778.026	3286.80508
778.445	3179.85329
778.864	3258.92881
779.282	3218.56055
779.701	3123.78795
780.119	3208.02707
780.537	3169.81423
780.955	3184.79853
781.373	3113.69056
781.791	3162.14693
782.209	3128.22577
782.627	3118.22576
783.045	3068.33713
783.462	3037.95104
783.88	2993.00082
784.297	2987.83224
784.715	2973.98533
785.132	3011.6374
785.549	3002.82134
785.966	2915.79319
786.383	2869.66265
786.8	2926.33613
787.217	2779.44599
787.633	2786.75689
788.05	2768.34951
788.466	2766.23436
788.883	2695.81655
789.299	2723.49174
789.715	2705.58885
790.131	2630.71331
790.547	2618.61038
790.963	2613.67835
791.379	2594.75014
791.795	2533.14056
792.21	2566.26259
792.626	2410.28472
793.041	2487.60909
793.457	2472.5942
793.872	2443.27147
794.287	2372.37683
794.702	2372.46135
795.117	2419.60869
795.532	2365.62965
795.947	2355.34274
796.362	2319.31237
796.776	2227.07689
797.191	2169.37852
797.605	2244.31905
798.02	2124.29126
798.434	2076.81019
798.848	2171.42967
799.262	2018.37222
799.676	2004.17347
800.09	2099.41476
800.504	1878.06522
800.918	1943.00731
801.331	1867.35667
801.745	1847.85572
802.158	1810.16944
802.572	1767.94886
802.985	1770.96107
803.398	1730.8967
803.811	1646.02657
804.224	1635.91313
804.637	1683.88646
805.05	1563.60301
805.462	1613.87958
805.875	1538.02598
806.288	1511.75985
806.7	1469.81814
807.112	1385.40522
807.525	1434.68996
807.937	1375.62986
808.349	1376.67266
808.761	1394.64272
809.173	1366.5508
809.584	1251.43913
809.996	1230.42686
810.408	1269.644
810.819	1155.22509
811.231	1211.61286
811.642	1223.42031
812.053	1137.28636
812.464	1169.28752
812.875	1089.31763
813.286	1090.34523
813.697	1149.16291
814.108	1043.11717
814.519	1001.83993
814.929	968.09408
815.34	966.02411
815.75	913.01306
816.16	950.00975
816.571	866.93932
816.981	825.6862
817.391	800.71284
817.801	842.86086
818.211	748.55454
818.62	796.71086
819.03	696.52653
819.44	732.69948
819.849	675.52291
820.259	717.62299
820.668	637.43944
821.077	647.47985
821.486	620.35455
821.895	619.37827
822.304	611.48597
822.713	628.36222
823.122	604.3839
823.531	513.14621
823.939	574.2972
824.348	542.23076
824.756	538.25811
825.164	504.17481
825.573	539.28134
825.981	483.11939
826.389	501.18268
826.797	400.94587
827.205	446.98041
827.612	390.92651
828.02	401.90721
828.428	421.02339
828.835	378.95631
829.243	433.99073
829.65	334.8054
830.057	369.86634
830.464	354.83097
830.871	323.7486
831.278	336.78165
831.685	343.74405
832.092	361.85747
832.499	315.66991
832.905	283.69724
833.312	347.76779
833.718	314.76062
834.124	248.55574
834.531	236.58286
834.937	204.50919
835.343	292.69001
835.749	237.53666
836.155	238.61055
836.561	237.57876
836.966	252.60564
837.372	227.56977
837.777	227.563
838.183	246.53467
838.588	167.4086
838.993	198.47677
839.399	176.42941
839.804	116.28545
840.209	192.49101
840.613	172.38497
841.018	179.44736
841.423	152.38818
841.828	208.52443
842.232	198.48291
842.637	172.40804
843.041	133.3446
843.445	202.50256
843.849	163.40133
844.253	185.4388
844.657	145.36815
845.061	200.45482
845.465	84.20648
845.869	133.31291
846.272	137.33744
846.676	93.22543
847.079	152.39077
847.483	170.41833
847.886	106.25515
848.289	127.33989
848.692	129.32753
849.095	155.37529
849.498	121.30329
849.901	114.26292
850.304	175.41972
850.707	81.20712
851.109	118.29604
851.512	114.28497
851.914	139.35791
852.316	31.07899
852.718	55.14506
853.121	95.23589
853.523	134.3201
853.925	52.13878
854.326	51.12908
854.728	118.30664
855.13	54.14288
855.531	87.21413
855.933	48.11585
856.334	79.20037
856.736	117.26775
857.137	50.11876
857.538	125.31884
857.939	76.1928
858.34	125.30561
858.741	92.24162
859.142	72.17633
859.542	94.25087
859.943	73.18357
860.343	74.18632
860.744	68.16783
861.144	39.09592
861.544	46.11453
861.945	77.20075
862.345	43.10685
862.745	104.26401
863.145	26.06327
863.544	77.19648
863.944	42.10053
864.344	83.2079
864.743	55.13736
865.143	64.16671
865.542	71.16867
865.941	71.17982
866.34	43.10486
866.74	69.18582
867.139	81.19936
867.537	46.11868
867.936	84.20602
868.335	87.22386
868.734	109.28408
869.132	92.21902
869.531	17.04155
869.929	106.24866
870.327	61.15008
870.726	50.12513
871.124	73.17475
871.522	33.0858
871.92	82.20572
872.318	44.10959
872.715	28.06977
873.113	75.18698
873.511	117.29706
873.908	71.18454
874.306	72.18362
874.703	34.08631
875.1	67.17276
875.497	74.18237
875.894	42.10647
876.291	44.10967
876.688	102.26824
877.085	70.16927
877.482	18.04594
877.878	94.23012
878.275	50.12989
878.671	54.1232
879.068	67.16418
879.464	73.17888
879.86	7.01702
880.256	61.15246
880.652	25.06498
881.048	35.08783
881.444	11.02655
881.84	25.06469
882.236	39.09944
882.631	106.26536
883.027	11.02706
883.422	-4.01045
883.817	43.11226
884.213	72.18787
884.608	41.10355
885.003	76.18785
885.398	94.24082
885.793	57.14488
886.188	46.11818
886.582	32.08227
886.977	66.15965
887.371	26.0661
887.766	11.02825
888.16	34.08631
888.554	14.03504
888.949	53.13424
889.343	33.08167
889.737	56.1531
890.131	14.0356
890.525	45.11668
890.918	13.03315
891.312	22.05308
891.706	30.07863
892.099	15.03848
892.492	87.1926
892.886	45.11157
893.279	51.13265
893.672	-9.02311
894.065	49.12415
894.458	62.15962
894.851	50.12427
895.244	6.01562
895.637	43.10627
896.029	53.13151
896.422	38.0943
896.814	20.05066
897.206	39.09507
897.599	38.09468
897.991	34.08351
898.383	62.15133
898.775	44.10172
899.167	38.09182
899.559	48.1228
899.951	58.13898
900.342	2.00515
900.734	9.02327
901.125	38.10101
901.517	48.12077
901.908	37.08999
902.299	82.20669
902.69	60.14514
903.082	63.15472
903.473	44.10884
903.863	32.0831
904.254	83.19801
904.645	57.1438
905.036	41.1021
905.426	33.07682
905.817	80.19977
906.207	53.13016
906.597	3.00717
906.987	87.22713
907.378	26.06645
907.768	20.05385
908.158	58.14373
908.547	17.04502
908.937	-1.0026
909.327	88.21759
909.717	40.10223
910.106	4.00985
910.495	43.10922
910.885	102.26123
911.274	23.05865
911.663	14.03586
912.052	49.12167
912.441	49.12551
912.83	81.1905
913.219	43.11345
913.608	14.03496
913.997	1.00259
914.385	62.14953
914.774	44.10896
915.162	65.15904
915.55	35.08615
915.939	20.05158
916.327	-10.02526
916.715	6.01562
917.103	50.12404
917.491	21.05249
917.878	-23.05734
918.266	-34.08939
918.654	91.23603
919.041	7.01875
919.429	56.13536
919.816	58.14786
920.203	58.14362
920.591	50.12526
920.978	10.02465
921.365	33.08794
921.752	82.19933
922.139	147.3246
922.525	49.12158
922.912	24.0595
923.299	31.07891
923.685	2.00534
924.072	23.05361
924.458	20.05063
924.844	42.10632
925.231	50.11931
925.617	11.02876
926.003	16.04156
926.389	29.07467
926.774	45.11579
927.16	17.04316
927.546	22.05786
927.931	49.12424
928.317	40.09347
928.702	44.10519
929.088	73.17695
929.473	70.17946
929.858	13.03255
930.243	62.15201
930.628	40.10064
931.013	33.0837
931.398	43.1003
931.783	36.09525
932.167	69.17308
932.552	-7.01779
932.937	54.13543
933.321	56.14322
933.705	40.10298
934.09	45.11393
934.474	44.10616
934.858	30.07903
935.242	32.0765
935.626	3.00791
936.009	14.03735
936.393	42.10817
936.777	33.08607
937.16	16.04211
937.544	28.06699
937.927	61.15811
938.311	62.15252
938.694	28.07456
939.077	35.0857
939.46	-42.10362
939.843	92.1986
940.226	12.03142
940.609	71.16951
940.991	52.13443
941.374	27.06765
941.757	16.04001
942.139	50.11725
942.522	28.06699
942.904	65.1588
943.286	18.0462
943.668	26.06863
944.05	33.0831
944.432	74.18706
944.814	-7.01749
945.196	70.17556
945.578	60.14863
945.959	59.14129
946.341	-6.01475
946.722	32.07662
947.104	40.09789
947.485	29.06926
947.866	36.09391
948.247	15.03829
948.628	20.04931
949.009	65.16946
949.39	35.0883
949.771	103.24261
950.152	85.21252
950.532	16.04085
950.913	52.12759
951.293	12.03308
951.674	99.24699
952.054	46.11756
952.434	38.09568
952.814	42.1021
953.194	19.05013
953.574	58.14299
953.954	51.12367
954.334	29.07392
954.714	40.1001
955.093	49.1214
955.473	11.02801
955.853	37.0967
956.232	-10.02759
956.611	23.05625
956.99	62.15923
957.37	44.11415
957.749	60.14645
958.128	24.06226
958.506	59.15686
958.885	42.10832
959.264	72.18226
959.643	-19.04458
960.021	45.11422
960.4	67.15604
960.778	37.09261
961.156	70.1789
961.535	31.07376
961.913	54.12905
962.291	84.22113
962.669	20.05133
963.047	14.03622
963.424	40.10334
963.802	32.08077
964.18	54.13781
964.557	84.19644
964.935	39.09439
965.312	2.00529
965.69	28.0707
966.067	57.14164
966.444	36.08957
966.821	18.04699
967.198	24.05919
967.575	4.00991
967.952	39.09354
968.329	35.0871
968.705	25.05488
969.082	43.11268
969.458	12.03004
969.835	36.08905
970.211	84.21919
970.587	27.06831
970.963	36.0933
971.339	26.06909
971.715	15.03817
972.091	44.11027
972.467	33.08382
972.843	29.0735
973.219	29.07003
973.594	74.19756
973.97	62.14902
974.345	15.037
974.721	-26.06393
975.096	29.07161
975.471	55.13292
975.846	38.09279
976.221	59.15361
976.596	20.04949
976.971	64.1597
977.346	27.06387
977.72	33.08577
978.095	37.09735
978.469	57.1376
978.844	10.02538
979.218	14.03435
979.593	4.0098
979.967	49.12123
980.341	30.07057
980.715	80.20424
981.089	-12.03045
981.463	58.1385
981.837	58.14494
982.21	22.05215
982.584	38.09389
982.957	35.08965
983.331	52.1255
983.704	-19.0472
984.078	27.06829
984.451	46.11462
984.824	26.06507
985.197	54.13274
985.57	35.08918
985.943	26.06469
986.316	66.16355
986.688	2.00492
987.061	57.13739
987.434	57.15013
987.806	50.12359
988.179	11.02689
988.551	91.23301
988.923	63.15712
989.295	15.03745
989.667	7.01739
990.039	43.10914
990.411	21.04966
990.783	48.11251
991.155	34.08524
991.527	48.11856
991.898	51.12977
992.27	-29.07366
992.641	43.10883
993.012	64.15289
993.384	27.06537
993.755	65.16877
994.126	43.10498
994.497	56.14024
994.868	42.09933
995.239	25.06156
995.61	60.15393
995.98	51.12742
996.351	28.07078
996.722	49.11811
997.092	38.09255
997.462	19.04609
997.833	26.06273
998.203	50.12227
998.573	13.03297
998.943	31.07503
999.313	36.08875
999.683	70.17283
1000.053	95.22264
1000.423	0
1000.792	83.21809
1001.162	12.03005
1001.531	38.09554
1001.901	74.18899
1002.27	64.14614
1002.639	32.08359
1003.009	40.09643
1003.378	34.08753
1003.747	75.18173
1004.116	28.06885
1004.485	-16.0391
1004.853	43.11042
1005.222	-8.02048
1005.591	17.04122
1005.959	51.11957
1006.328	47.10877
1006.696	81.2001
1007.064	28.07138
1007.433	39.09864
1007.801	16.03966
1008.169	6.0153
1008.537	98.22079
1008.905	19.04585
1009.273	27.06719
1009.64	58.14283
1010.008	39.09542
1010.375	8.01926
1010.743	76.17668
1011.11	77.18616
1011.478	14.03523
1011.845	51.12176
1012.212	26.06104
1012.579	26.06464
1012.946	47.1135
1013.313	37.08901
1013.68	38.08715
1014.047	23.05667
1014.414	16.03905
1014.78	8.0202
1015.147	7.0171
1015.513	34.08382
1015.88	13.03343
1016.246	-20.04978
1016.612	23.05333
1016.978	55.13682
1017.344	70.17625
1017.71	-4.00983
1018.076	37.08854
1018.442	21.05436
1018.808	3.00769
1019.174	77.19606
1019.539	57.13055
1019.905	28.06763
1020.27	49.12375
1020.636	52.12655
1021.001	37.08989
1021.366	25.06162
1021.731	4.01035
1022.096	-2.00519
1022.461	4.00972
1022.826	45.10871
1023.191	29.07687
1023.556	63.15116
1023.92	30.07445
1024.285	-5.01251
1024.649	75.18616
1025.014	58.14572
1025.378	26.06673
1025.742	51.12908
1026.107	-39.09111
1026.471	-21.04979
1026.835	16.04082
1027.199	50.1254
1027.562	33.07846
1027.926	21.0522
1028.29	68.17543
1028.654	54.12687
1029.017	15.03726
1029.381	10.02457
1029.744	31.07971
1030.107	40.09603
1030.471	17.04119
1030.834	37.08569
1031.197	13.03158
1031.56	35.08388
1031.923	14.03677
1032.286	20.04787
1032.648	65.15892
1033.011	-4.00941
1033.374	2.00477
1033.736	15.04025
1034.099	77.19126
1034.461	2.00514
1034.823	-2.00508
1035.185	18.04615
1035.548	48.11951
1035.91	23.05636
1036.272	27.06228
1036.634	25.0616
1036.995	64.15423
1037.357	-2.005
1037.719	-9.02218
1038.08	26.06268
1038.442	12.02909
1038.803	22.05372
1039.165	59.15224
1039.526	9.02223
1039.887	58.14146
1040.248	-17.043
1040.609	17.04224
1040.97	51.12733
1041.331	28.07199
1041.692	119.28574
1042.053	78.1809
1042.413	10.02393
1042.774	26.06419
1043.134	50.12136
1043.495	21.05334
1043.855	38.09372
1044.215	92.23114
1044.576	92.22573
1044.936	16.03758
1045.296	21.05328
1045.656	5.01244
1046.016	32.07802
1046.375	6.01479
1046.735	14.03288
1047.095	-10.02408
1047.454	5.01093
1047.814	44.1076
1048.173	-49.11788
1048.533	18.04224
1048.892	24.05965
1049.251	61.15483
1049.61	11.02764
1049.969	51.12427
1050.328	30.06687
1050.687	25.06187
1051.046	-20.04951
1051.405	35.08934
1051.763	16.038
1052.122	-12.03071
1052.48	-14.03476
1052.839	30.07219
1053.197	29.07019
1053.555	5.01134
1053.914	37.0908
1054.272	21.05102
1054.63	48.12042
1054.988	8.0196
1055.345	70.15415
1055.703	0
1056.061	2.00523
1056.419	55.14369
1056.776	5.01223
1057.134	8.01909
1057.491	16.0406
1057.848	-7.01763
1058.206	54.12949
1058.563	2.00455
1058.92	17.03959
1059.277	23.05749
1059.634	-5.01203
1059.991	35.08545
1060.348	29.0678
1060.704	25.06128
1061.061	55.1288
1061.418	-10.02479
1061.774	41.10299
1062.131	36.09697
1062.487	21.05041
1062.843	17.04284
1063.199	60.1521
1063.555	47.1123
1063.911	25.06345
1064.267	68.14371
1064.623	50.12372
1064.979	16.03854
1065.335	40.09632
1065.691	27.06562
1066.046	-10.02214
1066.402	44.10362
1066.757	3.00767
1067.112	13.03226
1067.468	84.20671
1067.823	51.1252
1068.178	8.01962
1068.533	17.04215
1068.888	15.03641
1069.243	43.10751
1069.598	13.03235
1069.952	15.03517
1070.307	29.07418
1070.662	-3.00728
1071.016	-28.06532
1071.371	9.02097
1071.725	54.13048
1072.079	37.08982
1072.434	46.11428
1072.788	47.1144
1073.142	73.18199
1073.496	9.02184
1073.85	-16.03783
1074.203	51.12765
1074.557	21.0567
1074.911	-6.01449
1075.265	2.00477
1075.618	17.04187
1075.971	-1.00244
1076.325	-26.06796
1076.678	39.09251
1077.031	57.13254
1077.385	44.10027
1077.738	46.10673
1078.091	-1.00237
1078.444	44.10406
1078.796	-16.04001
1079.149	33.08287
1079.502	57.13952
1079.855	32.07688
1080.207	37.09244
1080.56	8.02101
1080.912	-12.02975
1081.264	16.03939
1081.617	27.06797
1081.969	33.08548
1082.321	17.04209
1082.673	39.09229
1083.025	50.12122
1083.377	-169.39093
1083.728	32.07551
1084.08	-8.02037
1084.432	8.01983
1084.783	24.0572
1085.135	24.06131
1085.486	47.11174
1085.838	28.07045
1086.189	-10.02474
1086.54	17.04127
1086.891	33.08536
1087.242	7.01725
1087.593	20.04943
1087.944	8.01844
1088.295	30.06972
1088.646	62.15342
1088.996	-31.07686
1089.347	39.09726
1089.698	25.06076
1090.048	-7.01825
1090.398	-22.05217
1090.749	35.08548
1091.099	52.13541
1091.449	46.11599
1091.799	19.04857
1092.149	47.11917
1092.499	24.0595
1092.849	32.08313
1093.199	35.08798
1093.548	48.11808
1093.898	16.04086
1094.248	24.06224
1094.597	29.07656
1094.947	27.0726
1095.296	0
1095.645	47.12316
1095.994	5.01221
1096.343	-3.0077
1096.692	66.17957
1097.041	-32.08779
1097.39	60.15388
1097.739	16.04218
1098.088	73.1964
1098.437	-9.02424
1098.785	-9.0244
1099.134	16.04282
1099.482	39.10824
1099.83	-12.03184
1100.179	54.14393
1100.527	4.01074
1100.875	39.10424
1101.223	-14.03776
1101.571	3.00841
1101.919	35.09401
1102.267	-10.02849
1102.615	3.00968
1102.962	6.01931
1103.31	2.00645
1103.658	13.04193
