Data from N2 R0 150C sample3_Subt2__0__13-05-44-162.txt Node

Date: Tue Aug 19 13:05:44 PDT 2025
User: uwsun
Spectrometer: HDX01956
Trigger mode: 0
Integration Time (sec): 5.000000E-1
Scans to average: 1
Nonlinearity correction enabled: true
Boxcar width: 0
Storing dark spectrum: false
XAxis mode: Wavelengths
Number of Pixels in Spectrum: 2068
>>>>>Begin Spectral Data<<<<<
194.03	68.19781
194.578	71.2299
195.127	64.20475
195.676	72.23094
196.225	83.22811
196.773	68.1943
197.321	139.39555
197.87	181.48392
198.418	172.45552
198.966	205.55223
199.513	126.32821
200.061	195.51305
200.609	162.44046
201.156	165.38032
201.704	171.44991
202.251	196.53666
202.798	183.4912
203.345	186.47617
203.892	165.43104
204.438	170.42403
204.985	234.58067
205.532	177.48039
206.078	226.57225
206.624	165.42411
207.17	209.50507
207.716	202.50949
208.262	173.362
208.808	212.5469
209.354	219.55286
209.899	200.51577
210.445	199.51559
210.99	208.52406
211.535	214.52542
212.08	244.59308
212.625	215.55608
213.17	178.46571
213.715	180.43196
214.259	190.46201
214.804	218.55023
215.348	171.40794
215.892	186.46225
216.436	192.46355
216.98	195.45591
217.524	187.46007
218.068	246.63987
218.612	202.52345
219.155	174.42691
219.698	179.44413
220.242	208.53248
220.785	159.38685
221.328	174.44561
221.871	155.40243
222.414	179.45945
222.956	205.51678
223.499	195.45769
224.041	196.47339
224.583	191.42493
225.126	148.34324
225.668	145.36554
226.21	157.40805
226.751	138.32195
227.293	184.44223
227.835	190.48214
228.376	182.43509
228.918	195.50575
229.459	203.52086
230	184.45211
230.541	213.51609
231.082	100.25088
231.622	142.34129
232.163	174.43746
232.704	191.48493
233.244	161.41268
233.784	196.49277
234.324	209.4871
234.864	183.43288
235.404	181.44466
235.944	142.34995
236.484	160.40789
237.023	186.45871
237.563	186.44635
238.102	124.30345
238.641	171.4458
239.18	180.44081
239.719	184.47435
240.258	190.4457
240.797	191.47545
241.335	164.41587
241.874	182.37889
242.412	243.60355
242.95	176.43788
243.488	191.45635
244.026	180.43048
244.564	169.36849
245.102	164.38591
245.64	147.36553
246.177	180.42389
246.715	201.49852
247.252	169.40533
247.789	227.45183
248.326	190.47666
248.863	190.44064
249.4	219.51603
249.936	192.41429
250.473	198.48164
251.009	217.52064
251.546	178.41167
252.082	204.46673
252.618	173.40241
253.154	232.57718
253.69	138.32524
254.226	175.43262
254.761	227.53633
255.297	148.33984
255.832	168.41081
256.367	233.56773
256.903	157.35899
257.438	174.42374
257.972	206.48153
258.507	177.42774
259.042	229.52256
259.576	166.38255
260.111	178.42797
260.645	124.28188
261.179	165.40085
261.713	246.57141
262.247	228.5463
262.781	207.45823
263.315	214.54187
263.849	211.54403
264.382	213.50442
264.915	233.56942
265.449	244.62112
265.982	205.48811
266.515	192.47976
267.048	191.43216
267.58	209.47788
268.113	201.457
268.646	240.60791
269.178	221.51507
269.71	244.55532
270.243	220.51828
270.775	235.60548
271.307	213.52596
271.838	187.45361
272.37	206.52032
272.902	230.54036
273.433	150.34236
273.965	253.62862
274.496	187.47326
275.027	204.51931
275.558	206.51493
276.089	216.55043
276.62	228.5902
277.15	191.47873
277.681	237.53797
278.211	142.35329
278.741	191.44322
279.272	241.56675
279.802	195.49719
280.332	215.52348
280.861	228.56372
281.391	222.52137
281.921	229.56609
282.45	247.62886
282.98	215.57024
283.509	218.50577
284.038	234.55147
284.567	192.45935
285.096	234.58131
285.625	250.5894
286.153	193.46588
286.682	239.56468
287.21	217.53879
287.739	220.53955
288.267	215.53538
288.795	190.50167
289.323	238.58023
289.851	285.68558
290.378	223.52116
290.906	225.56191
291.433	220.55667
291.961	194.45775
292.488	212.53738
293.015	243.59231
293.542	291.74686
294.069	205.514
294.596	229.57458
295.122	226.55406
295.649	222.50628
296.175	297.7363
296.702	214.53047
297.228	216.53562
297.754	289.67617
298.28	239.56249
298.806	263.64368
299.332	287.65726
299.857	190.44709
300.383	254.64885
300.908	229.57127
301.433	214.52989
301.958	186.44262
302.483	276.69759
303.008	265.66346
303.533	268.69564
304.058	258.62264
304.582	270.65356
305.107	256.67771
305.631	256.59463
306.155	260.62272
306.679	232.55334
307.203	309.73032
307.727	268.64677
308.251	253.63433
308.775	251.61363
309.298	297.73092
309.822	299.75934
310.345	306.74152
310.868	297.71796
311.391	271.67333
311.914	316.7961
312.437	317.73469
312.96	265.63651
313.482	248.59964
314.005	285.72251
314.527	320.83912
315.049	294.73857
315.571	285.6608
316.093	353.87477
316.615	352.85456
317.137	284.6364
317.659	351.85899
318.18	316.75941
318.702	310.72516
319.223	352.75429
319.744	306.70344
320.265	330.80597
320.786	330.82301
321.307	351.87108
321.828	372.85376
322.348	396.93569
322.869	381.91192
323.389	331.52213
323.909	345.79672
324.43	329.7884
324.95	382.87881
325.47	364.88567
325.989	354.8381
326.509	354.79617
327.029	371.83799
327.548	365.82813
328.067	429.02808
328.587	404.98809
329.106	345.77927
329.625	446.12512
330.144	384.89328
330.662	364.83541
331.181	442.01591
331.7	480.10342
332.218	465.00454
332.736	467.07199
333.255	402.9285
333.773	433.00173
334.291	427.03026
334.808	467.03683
335.326	484.07442
335.844	428.9901
336.361	465.14149
336.879	479.10572
337.396	485.13068
337.913	467.04799
338.43	502.10197
338.947	470.07824
339.464	508.06925
339.981	532.2129
340.497	472.11304
341.014	577.33808
341.53	474.03079
342.046	509.18904
342.562	519.23705
343.078	553.24486
343.594	574.29615
344.11	545.22533
344.626	588.39126
345.141	563.21457
345.657	537.15394
346.172	574.3051
346.687	598.30643
347.202	571.22237
347.717	586.32059
348.232	595.38803
348.747	587.28102
349.261	624.29885
349.776	594.31408
350.29	598.39148
350.805	657.51837
351.319	645.40893
351.833	622.31191
352.347	623.36025
352.861	615.332
353.374	622.32166
353.888	674.49559
354.401	686.45276
354.915	677.41026
355.428	675.5291
355.941	677.45896
356.454	724.47521
356.967	654.41205
357.48	727.50716
357.993	681.52521
358.505	719.58065
359.018	712.57212
359.53	777.68609
360.042	658.3436
360.554	720.56331
361.066	749.64251
361.578	719.41555
362.09	761.60719
362.602	702.40893
363.113	797.65758
363.625	740.50375
364.136	810.57891
364.647	784.65256
365.158	816.66214
365.669	841.75227
366.18	826.69852
366.691	798.56138
367.201	822.72742
367.712	856.70976
368.222	826.65967
368.733	894.71818
369.243	875.6925
369.753	926.85997
370.263	894.85083
370.773	857.80142
371.282	921.86138
371.792	1003.98201
372.301	995.01683
372.811	927.02357
373.32	971.74188
373.829	983.94607
374.338	1010.84677
374.847	1004.92346
375.356	1090.08907
375.865	1165.93462
376.373	1158.06908
376.882	1172.31114
377.39	1216.25988
377.898	1259.37288
378.407	1250.11224
378.915	1375.1291
379.423	1460.44549
379.93	1435.27184
380.438	1495.55663
380.946	1649.58882
381.453	1638.60293
381.96	1711.60322
382.468	1874.70968
382.975	1982.77668
383.482	1958.43677
383.989	2020.96399
384.495	2054.56172
385.002	2219.29029
385.509	2383.74803
386.015	2589.98508
386.521	2599.47705
387.028	2744.34029
387.534	2824.1491
388.04	2912.42792
388.546	3006.14452
389.051	3147.91145
389.557	3383.9609
390.063	3606.81455
390.568	3808.82927
391.073	3822.49096
391.578	4065.67827
392.084	4151.0582
392.589	4217.69427
393.093	4537.86094
393.598	5001.3347
394.103	5437.1703
394.607	5882.89167
395.112	6445.02271
395.616	6845.13211
396.12	7401.64485
396.624	8120.03618
397.128	8867.1729
397.632	9842.82589
398.136	10632.29705
398.639	11236.95319
399.143	12443.06043
399.646	13928.26778
400.15	15410.77603
400.653	16895.6861
401.156	19075.33844
401.659	22202.70202
402.162	26929.06679
402.664	34943.10129
403.167	46570.99308
403.67	21660.14137
404.172	2696.20453
404.674	0
405.176	0
405.678	0
406.18	0
406.682	0
407.184	0
407.686	25783.58453
408.187	43316.52985
408.688	51225.60928
409.19	54389.01922
409.691	49421.87295
410.192	42159.24182
410.693	37102.14002
411.194	33405.67559
411.694	32101.41197
412.195	30062.0631
412.696	27278.01791
413.196	25514.24819
413.696	24966.77747
414.196	25696.92036
414.696	25372.82923
415.196	24280.26933
415.696	22137.47848
416.196	17984.51929
416.695	13763.80931
417.195	11741.57502
417.694	11206.82167
418.194	10566.60581
418.693	9890.74685
419.192	9646.19424
419.691	9477.41173
420.19	9202.24208
420.688	9062.65402
421.187	8597.62015
421.685	8042.75811
422.184	7413.65905
422.682	6517.93771
423.18	5321.26746
423.678	4669.78686
424.176	4382.0762
424.674	4115.10167
425.172	3917.66178
425.669	3729.09018
426.167	3454.03611
426.664	3234.15278
427.161	2912.25502
427.659	2670.70188
428.156	2539.13424
428.652	2385.99173
429.149	2252.77157
429.646	2171.40909
430.143	2076.69883
430.639	2028.67499
431.135	1877.85271
431.632	1793.50142
432.128	1630.56671
432.624	1505.67355
433.12	1514.30772
433.616	1450.16384
434.111	1397.33741
434.607	1353.34322
435.103	1383.02893
435.598	1337.99276
436.093	1254.2001
436.588	1122.9043
437.083	1158.99098
437.578	1085.97876
438.073	1032.09717
438.568	966.92794
439.062	1015.76336
439.557	928.81184
440.051	866.64354
440.546	878.68334
441.04	880.79669
441.534	858.86392
442.028	798.63868
442.522	778.61695
443.015	793.50221
443.509	845.77073
444.002	781.66314
444.496	753.45966
444.989	763.61283
445.482	703.54416
445.975	772.55888
446.468	708.35497
446.961	690.34149
447.454	677.36025
447.947	695.48113
448.439	638.3663
448.931	688.40494
449.424	619.39191
449.916	688.49631
450.408	612.26254
450.9	605.34428
451.392	578.32427
451.884	574.20735
452.375	606.38627
452.867	543.13227
453.358	578.21685
453.849	581.14454
454.341	592.23051
454.832	565.13489
455.323	578.29564
455.814	583.24003
456.304	543.16034
456.795	606.27812
457.285	539.10549
457.776	487.03554
458.266	505.12227
458.756	486.08289
459.247	509.1396
459.737	484.09621
460.226	543.14831
460.716	552.23627
461.206	500.12975
461.695	431.01049
462.185	440.97778
462.674	490.07784
463.163	466.97568
463.653	508.02842
464.142	461.05565
464.63	482.11596
465.119	413.91684
465.608	425.95131
466.096	456.95475
466.585	412.91557
467.073	373.85726
467.561	377.87129
468.05	436.9709
468.538	405.95121
469.026	385.89013
469.513	563.20678
470.001	346.76669
470.489	365.84692
470.976	391.87919
471.463	362.86828
471.951	326.7873
472.438	357.81655
472.925	302.69508
473.412	319.75774
473.899	285.64377
474.385	258.62264
474.872	369.85247
475.359	350.83727
475.845	339.70524
476.331	287.60877
476.817	308.73232
477.303	279.64382
477.789	297.70495
478.275	248.60821
478.761	299.71407
479.247	297.67059
479.732	269.66568
480.218	249.63909
480.703	260.64141
481.188	204.44716
481.673	223.51666
482.158	232.51175
482.643	198.49726
483.128	194.4517
483.612	224.52627
484.097	221.53447
484.581	197.46022
485.066	233.56984
485.55	243.54465
486.034	181.39817
486.518	238.56787
487.002	236.58735
487.486	194.47791
487.969	224.55424
488.453	163.41091
488.936	216.50054
489.42	183.41186
489.903	170.42879
490.386	184.32221
490.869	195.43347
491.352	168.41447
491.835	172.36954
492.318	257.60037
492.8	177.38397
493.283	184.47599
493.765	173.43393
494.247	139.33262
494.73	144.33052
495.212	179.43795
495.694	157.37684
496.175	131.32409
496.657	195.46893
497.139	140.26393
497.62	151.36986
498.102	167.42175
498.583	167.42265
499.064	211.49099
499.545	121.28811
500.026	123.28893
500.507	175.41828
500.988	155.39507
501.469	128.33079
501.949	136.34549
502.43	108.26841
502.91	155.34098
503.39	123.31263
503.87	160.39183
504.35	112.27205
504.83	155.35641
505.31	115.28648
505.79	164.40684
506.269	158.38334
506.749	95.22759
507.228	165.40235
507.707	132.30626
508.187	109.2665
508.666	141.35838
509.145	164.39984
509.623	117.28371
510.102	130.32567
510.581	110.27179
511.059	128.33079
511.538	130.34153
512.016	154.3837
512.494	139.34853
512.972	112.27653
513.45	130.3173
513.928	123.31296
514.406	149.37643
514.884	141.37199
515.361	159.39523
515.839	146.3489
516.316	144.35983
516.793	147.38048
517.27	100.24889
517.747	145.38151
518.224	107.26131
518.701	203.47554
519.178	104.26551
519.654	144.35291
520.131	107.27283
520.607	93.23805
521.083	122.29255
521.56	139.34476
522.036	113.26306
522.512	95.2395
522.987	140.34705
523.463	104.26045
523.939	111.28183
524.414	121.29121
524.89	152.37307
525.365	140.33418
525.84	147.36819
526.315	147.36872
526.79	126.29904
527.265	150.36216
527.74	86.21832
528.215	123.30474
528.689	128.30003
529.164	108.2474
529.638	152.40148
530.112	134.33193
530.587	130.29612
531.061	152.38065
531.534	84.21051
532.008	162.40451
532.482	45.10805
532.956	87.22945
533.429	100.25224
533.903	132.3048
534.376	129.29912
534.849	107.26102
535.322	120.29584
535.795	108.27387
536.268	103.25641
536.741	96.23989
537.213	133.32057
537.686	107.27302
538.158	103.24308
538.631	118.29508
539.103	121.28844
539.575	82.18119
540.047	126.29118
540.519	135.33606
540.991	146.36707
541.463	116.29228
541.934	109.26292
542.406	129.32159
542.877	176.41834
543.348	117.29422
543.82	104.26261
544.291	141.34062
544.762	134.3295
545.233	141.36457
545.703	164.38095
546.174	174.41994
546.645	151.37725
547.115	222.5515
547.585	151.3612
548.056	168.42495
548.526	195.47958
548.996	145.35938
549.466	159.39724
549.935	177.43515
550.405	220.50091
550.875	189.46087
551.344	204.50513
551.814	243.57679
552.283	203.45294
552.752	249.59718
553.221	318.72225
553.69	247.56135
554.159	277.6945
554.628	311.7125
555.096	304.78036
555.565	338.77015
556.033	329.77697
556.502	319.77635
556.97	314.70825
557.438	327.77733
557.906	374.88167
558.374	401.91717
558.842	317.75907
559.31	396.88806
559.777	347.83658
560.245	446.03329
560.712	509.15502
561.18	555.21211
561.647	485.06615
562.114	553.22199
562.581	590.37824
563.048	634.38867
563.514	583.36586
563.981	655.41089
564.448	707.49174
564.914	736.59605
565.381	806.67743
565.847	834.78491
566.313	872.8414
566.779	918.82274
567.245	985.03818
567.711	1045.19131
568.176	1084.1104
568.642	1130.43134
569.108	1228.53772
569.573	1286.53284
570.038	1344.3245
570.504	1377.46146
570.969	1494.99504
571.434	1486.6187
571.899	1512.845
572.363	1606.78913
572.828	1721.89468
573.293	1723.93224
573.757	1763.93578
574.222	1925.06638
574.686	1902.08444
575.15	1937.25537
575.614	2014.16807
576.078	2019.30272
576.542	2035.15378
577.006	2064.13651
577.469	2095.51455
577.933	2096.21563
578.396	2025.27115
578.86	2024.28304
579.323	2145.47732
579.786	2063.97669
580.249	2051.24445
580.712	2006.40219
581.175	1971.41912
581.637	1925.0458
582.1	1946.97905
582.563	1820.76566
583.025	1802.20574
583.487	1867.66075
583.95	1784.8375
584.412	1777.70971
584.874	1664.01907
585.336	1742.04796
585.797	1598.62356
586.259	1603.88928
586.721	1557.82439
587.182	1516.72971
587.643	1586.75132
588.105	1503.80952
588.566	1514.43137
589.027	1478.83882
589.488	1447.62009
589.949	1507.85961
590.41	1415.18776
590.87	1402.51975
591.331	1403.38058
591.791	1418.65727
592.252	1416.61861
592.712	1443.73521
593.172	1383.53655
593.632	1474.55594
594.092	1392.50044
594.552	1455.47595
595.011	1464.66233
595.471	1463.53742
595.931	1456.54836
596.39	1552.91909
596.849	1555.80944
597.308	1572.60605
597.768	1644.23498
598.227	1594.89542
598.685	1699.83442
599.144	1816.06395
599.603	1809.13588
600.062	1959.85989
600.52	1965.03316
600.978	2060.2836
601.437	2131.16426
601.895	2263.96254
602.353	2298.1431
602.811	2389.28912
603.269	2494.63793
603.727	2665.72222
604.184	2739.45797
604.642	2877.85992
605.099	2911.52772
605.557	3064.84418
606.014	3305.24886
606.471	3356.04085
606.928	3444.2406
607.385	3627.93556
607.842	3704.30851
608.299	3889.48087
608.755	4012.62902
609.212	4053.0391
609.668	4272.02836
610.125	4441.41763
610.581	4581.16081
611.037	4668.8878
611.493	4716.08156
611.949	4892.38974
612.405	4865.04183
612.861	5053.86384
613.316	5056.03099
613.772	5165.73559
614.227	5326.84626
614.683	5209.19158
615.138	5283.74611
615.593	5242.73213
616.048	5420.4422
616.503	5362.98343
616.958	5347.25883
617.412	5294.78948
617.867	5310.36776
618.321	5146.06546
618.776	5136.47937
619.23	5071.83817
619.684	5043.62203
620.138	4946.81081
620.592	4887.24293
621.046	4838.93313
621.5	4815.34617
621.954	4607.84023
622.407	4583.7789
622.861	4395.46183
623.314	4362.00968
623.768	4290.25123
624.221	4222.34486
624.674	4050.25435
625.127	4056.32779
625.58	4024.16696
626.033	3919.96424
626.485	3839.60821
626.938	3827.5342
627.39	3697.48419
627.843	3648.43137
628.295	3545.38771
628.747	3473.62749
629.199	3407.37621
629.651	3309.41986
630.103	3352.47634
630.555	3163.00028
631.006	3129.56299
631.458	3116.63958
631.909	3017.37568
632.361	2959.54089
632.812	2923.52627
633.263	2809.09289
633.714	2832.03602
634.165	2830.79742
634.616	2750.64783
635.067	2673.1644
635.518	2662.5757
635.968	2568.72647
636.419	2615.11579
636.869	2447.46245
637.319	2447.359
637.769	2522.2748
638.219	2405.39498
638.669	2344.46645
639.119	2394.63218
639.569	2348.49507
640.019	2337.26986
640.468	2314.12773
640.918	2358.4486
641.367	2333.1633
641.816	2358.20136
642.265	2412.3187
642.714	2384.30156
643.163	2339.34986
643.612	2375.63909
644.061	2356.0429
644.51	2402.39165
644.958	2307.08319
645.406	2335.49057
645.855	2388.63331
646.303	2397.3626
646.751	2379.32835
647.199	2408.25705
647.647	2374.30984
648.095	2451.39634
648.543	2462.83265
648.99	2369.43109
649.438	2422.42495
649.885	2415.68908
650.333	2502.64967
650.78	2523.68257
651.227	2392.67515
651.674	2400.24792
652.121	2398.56298
652.568	2475.65349
653.015	2456.7564
653.461	2416.48741
653.908	2437.40785
654.354	2472.47439
654.801	2404.43205
655.247	2459.14674
655.693	2449.0125
656.139	2468.56895
656.585	2403.4796
657.031	2510.47983
657.477	2474.10063
657.922	2488.39266
658.368	2522.70622
658.813	2534.33636
659.259	2542.60894
659.704	2500.38602
660.149	2552.49631
660.594	2576.55693
661.039	2549.32329
661.484	2650.52731
661.929	2643.46031
662.373	2726.01054
662.818	2747.88121
663.262	2782.67346
663.707	2777.94902
664.151	2813.75328
664.595	2890.64624
665.039	2852.87184
665.483	2995.05154
665.927	2965.52411
666.371	3101.51322
666.814	3103.62443
667.258	3161.73397
667.701	3154.02642
668.145	3235.88425
668.588	3226.76602
669.031	3383.63969
669.474	3398.66985
669.917	3498.09126
670.36	3507.90613
670.803	3538.56474
671.245	3645.8303
671.688	3694.61213
672.13	3750.17885
672.573	3833.81415
673.015	3914.55913
673.457	3951.88318
673.899	4026.44597
674.341	4089.48229
674.783	4245.34759
675.225	4217.49
675.666	4364.46757
676.108	4400.59523
676.549	4417.14002
676.991	4590.72469
677.432	4692.1344
677.873	4634.85236
678.314	4773.0748
678.755	4845.15931
679.196	4878.72174
679.637	5112.95161
680.078	5095.64095
680.518	5231.5613
680.959	5278.86699
681.399	5315.08046
681.839	5474.76734
682.28	5602.84179
682.72	5635.32672
683.16	5749.72713
683.6	5865.05529
684.039	5878.57073
684.479	6025.60619
684.919	6232.1893
685.358	6363.6528
685.798	6435.90489
686.237	6559.2664
686.676	6712.88336
687.115	6861.00301
687.554	6997.05718
687.993	7137.69713
688.432	7358.94535
688.871	7532.01783
689.309	7609.21512
689.748	7768.72061
690.186	8004.3909
690.625	8121.42397
691.063	8292.70773
691.501	8544.00824
691.939	8788.35633
692.377	8937.50957
692.815	9093.73584
693.253	9339.18663
693.69	9629.79582
694.128	9871.39123
694.565	9807.22874
695.003	9986.68943
695.44	10330.72575
695.877	10577.5363
696.314	10676.22006
696.751	10898.9047
697.188	11290.4776
697.625	11444.25835
698.061	11720.25841
698.498	11915.29329
698.934	12239.98092
699.371	12446.32219
699.807	12542.97494
700.243	12780.21807
700.679	12962.03886
701.115	13265.91432
701.551	13412.87034
701.987	13796.25861
702.422	13957.80658
702.858	14222.18602
703.294	14410.49039
703.729	14644.29398
704.164	14644.52467
704.599	14928.3712
705.035	15208.69019
705.47	15295.10532
705.904	15502.95759
706.339	15731.18027
706.774	15841.65998
707.209	16016.70237
707.643	16125.1137
708.078	16440.98923
708.512	16574.0283
708.946	16546.20371
709.38	16797.0795
709.814	16748.31045
710.248	16929.116
710.682	17039.59828
711.116	16981.58006
711.549	17080.58163
711.983	16947.19152
712.416	17220.04505
712.85	17085.12242
713.283	17198.55219
713.716	17134.86921
714.149	17019.73614
714.582	16991.12024
715.015	16873.07125
715.448	16828.12998
715.881	16736.27664
716.313	16688.91976
716.746	16740.27366
717.178	16645.99549
717.61	16489.42197
718.043	16589.76876
718.475	16266.80505
718.907	16334.62532
719.339	16226.23654
719.77	15919.16058
720.202	15866.6201
720.634	15817.43777
721.065	15789.87267
721.497	15584.24658
721.928	15493.15849
722.359	15294.27484
722.79	15244.91897
723.221	15175.95738
723.652	14935.45938
724.083	14833.07377
724.514	14485.85337
724.945	14504.64889
725.375	14293.72546
725.806	14186.36894
726.236	13986.33311
726.666	13889.46942
727.096	13788.17359
727.526	13855.27645
727.956	13771.0411
728.386	13653.22507
728.816	13476.54755
729.246	13327.74933
729.675	13189.7167
730.105	13023.89133
730.534	13023.20528
730.964	12968.20215
731.393	12893.94758
731.822	12854.26258
732.251	12816.13646
732.68	12619.63236
733.109	12492.40051
733.537	12545.80853
733.966	12398.63307
734.395	12363.11731
734.823	12310.11435
735.251	12310.38687
735.68	12052.78826
736.108	11849.71106
736.536	11781.79131
736.964	11736.58184
737.392	11599.52891
737.82	11520.36568
738.247	11442.04853
738.675	11370.74095
739.102	11076.2436
739.53	11075.18722
739.957	11016.93322
740.384	10883.61637
740.811	10808.23735
741.238	10799.27618
741.665	10487.30832
742.092	10412.98821
742.519	10224.34992
742.945	10185.26441
743.372	10091.97133
743.798	10061.88489
744.225	9905.48546
744.651	9704.99789
745.077	9517.58269
745.503	9499.51702
745.929	9352.19627
746.355	9091.76977
746.781	8973.58736
747.207	8956.48821
747.632	8822.38081
748.058	8731.2734
748.483	8712.03527
748.908	8504.97861
749.334	8456.91721
749.759	8178.43916
750.184	8119.50582
750.609	8001.53331
751.033	7899.2488
751.458	7738.94445
751.883	7680.36559
752.307	7419.07779
752.732	7313.44362
753.156	7260.33522
753.58	7076.04466
754.005	6929.36464
754.429	6941.99757
754.853	6574.33016
755.277	6572.96137
755.7	6379.42159
756.124	6306.4498
756.548	6201.22612
756.971	6055.29168
757.394	6022.86778
757.818	5883.85341
758.241	5789.82851
758.664	5705.88787
759.087	5582.11071
759.51	5574.73184
759.933	5387.70364
760.356	5234.15514
760.778	5241.99156
761.201	5111.86497
761.623	4932.85244
762.046	4990.73397
762.468	4846.761
762.89	4746.10829
763.312	4682.21772
763.734	4471.13637
764.156	4443.34585
764.578	4402.92337
765	4309.35059
765.421	4123.74822
765.843	4107.90704
766.264	3986.36545
766.686	3860.61285
767.107	3759.45935
767.528	3726.85259
767.949	3657.86343
768.37	3511.53231
768.791	3468.56032
769.212	3388.87185
769.632	3322.3969
770.053	3168.15718
770.473	3235.61118
770.894	3087.7258
771.314	3115.3994
771.734	2985.40506
772.154	2847.84905
772.575	2896.28746
772.994	2840.23784
773.414	2760.48011
773.834	2711.74723
774.254	2641.66933
774.673	2548.50374
775.093	2480.59971
775.512	2457.5366
775.931	2351.64898
776.351	2409.57449
776.77	2257.44067
777.189	2264.28403
777.607	2160.57204
778.026	2233.53325
778.445	2101.47604
778.864	2070.50634
779.282	2009.20383
779.701	1937.30052
780.119	2005.52
780.537	1917.30054
780.955	1813.19517
781.373	1753.06972
781.791	1788.76093
782.209	1668.70798
782.627	1710.34804
783.045	1656.76136
783.462	1581.03953
783.88	1568.05515
784.297	1531.91644
784.715	1491.9516
785.132	1533.80856
785.549	1502.87407
785.966	1400.73473
786.383	1403.67329
786.8	1372.46061
787.217	1299.43423
787.633	1293.58277
788.05	1262.33871
788.466	1187.18571
788.883	1168.43825
789.299	1153.26249
789.715	1196.37172
790.131	1158.38443
790.547	1066.19673
790.963	1115.30449
791.379	1112.33552
791.795	1018.93066
792.21	976.91736
792.626	920.85893
793.041	939.00758
793.457	928.98702
793.872	924.8551
794.287	885.84482
794.702	853.82285
795.117	852.8681
795.532	835.85496
795.947	754.60803
796.362	855.77831
796.776	789.59362
797.191	793.72666
797.605	730.57496
798.02	702.53776
798.434	676.33483
798.848	724.61659
799.262	685.5593
799.676	655.43683
800.09	669.52163
800.504	630.38512
800.918	645.37625
801.331	617.46134
801.745	571.21184
802.158	562.30403
802.572	514.15058
802.985	525.17548
803.398	540.19645
803.811	476.12986
804.224	469.08517
804.637	511.14925
805.05	454.98709
805.462	482.10935
805.875	464.14092
806.288	456.05275
806.7	469.11429
807.112	362.79947
807.525	423.99114
807.937	384.91051
808.349	383.91985
808.761	369.87445
809.173	334.78312
809.584	324.77094
809.996	323.77314
810.408	288.7305
810.819	379.86686
811.231	335.85825
811.642	328.78525
812.053	364.86277
812.464	350.81806
812.875	347.85802
813.286	308.77428
813.697	342.77202
814.108	330.77948
814.519	256.55901
814.929	290.71882
815.34	287.69222
815.75	263.6594
816.16	231.566
816.571	215.54605
816.981	265.61079
817.391	252.6038
817.801	240.5973
818.211	189.44205
818.62	261.62595
819.03	181.44038
819.44	201.51591
819.849	239.58777
820.259	190.47648
820.668	174.4307
821.077	250.61811
821.486	166.39791
821.895	170.41416
822.304	213.55718
822.713	227.53508
823.122	188.46722
823.531	170.40734
823.939	187.4565
824.348	202.49101
824.756	203.50661
825.164	124.31109
825.573	179.45559
825.981	154.38078
826.389	199.49806
826.797	116.28934
827.205	158.36832
827.612	155.38486
828.02	124.29633
828.428	124.31879
828.835	127.33562
829.243	201.48134
829.65	106.2666
830.057	138.33859
830.464	110.27049
830.871	124.29871
831.278	108.26253
831.685	128.29038
832.092	170.41864
832.499	100.22262
832.905	120.30452
833.312	144.33211
833.718	122.30618
834.124	109.25124
834.531	117.29527
834.937	51.13082
835.343	139.3382
835.749	68.15927
836.155	89.23425
836.561	143.35533
836.966	118.2908
837.372	114.29196
837.777	126.31827
838.183	82.18444
838.588	67.16697
838.993	103.25248
839.399	68.16925
839.804	73.18106
840.209	117.30315
840.613	78.17796
841.018	77.19599
841.423	68.17622
841.828	60.15528
842.232	81.20186
842.637	135.32255
843.041	78.20402
843.445	93.23596
843.849	48.12068
844.253	100.24108
844.657	89.22821
845.061	111.25698
845.465	41.10158
845.869	103.24374
846.272	44.11023
846.676	58.14152
847.079	67.1748
847.483	64.16057
847.886	79.19114
848.289	70.1891
848.692	86.22002
849.095	95.23261
849.498	84.21195
849.901	39.09129
850.304	75.1833
850.707	29.07483
851.109	37.09418
851.512	87.21854
851.914	80.20811
852.316	9.02302
852.718	25.06627
853.121	38.09534
853.523	94.22627
853.925	67.17837
854.326	44.1115
854.728	20.05285
855.13	58.15336
855.531	67.16551
855.933	39.09429
856.334	48.12241
856.736	96.22062
857.137	41.09755
857.538	52.13434
857.939	71.18027
858.34	69.17046
858.741	56.14797
859.142	57.13998
859.542	69.18491
859.943	51.12876
860.343	14.03563
860.744	83.20429
861.144	39.09592
861.544	36.0898
861.945	58.15171
862.345	52.129
862.745	71.18129
863.145	56.13552
863.544	51.13073
863.944	63.15018
864.344	67.1683
864.743	49.12251
865.143	51.13315
865.542	35.08372
865.941	80.20229
866.34	56.13623
866.74	57.15381
867.139	43.10658
867.537	6.01559
867.936	60.14781
868.335	38.09861
868.734	76.19919
869.132	76.18148
869.531	15.03667
869.929	70.16536
870.327	74.18163
870.726	46.1152
871.124	103.24516
871.522	53.13733
871.92	58.14614
872.318	46.11453
872.715	73.1804
873.113	78.19435
873.511	80.20445
873.908	90.23315
874.306	61.15587
874.703	30.07621
875.1	35.09075
875.497	69.1702
875.894	73.18403
876.291	43.1072
876.688	70.18508
877.085	19.04639
877.482	26.06626
877.878	75.18426
878.275	9.02354
878.671	90.20385
879.068	30.07402
879.464	29.07164
879.86	41.09905
880.256	53.13266
880.652	31.08049
881.048	57.14246
881.444	29.06977
881.84	53.13647
882.236	34.08677
882.631	80.20121
883.027	68.16554
883.422	45.1166
883.817	63.16391
884.213	51.13356
884.608	44.11106
885.003	81.20003
885.398	53.13676
885.793	51.12977
886.188	63.16138
886.582	42.10779
886.977	84.20251
887.371	-5.01278
887.766	18.04616
888.16	59.14911
888.554	54.13416
888.949	38.0965
889.343	0
889.737	21.05773
890.131	34.08616
890.525	16.04169
890.918	31.07879
891.312	41.09856
891.706	-10.02639
892.099	14.03592
892.492	70.15551
892.886	12.02993
893.279	14.03664
893.672	-4.01026
894.065	10.02551
894.458	78.20025
894.851	67.166
895.244	16.04159
895.637	83.20361
896.029	24.05987
896.422	34.08444
896.814	20.05066
897.206	34.08296
897.599	39.09716
897.991	38.09327
898.383	58.14167
898.775	22.05108
899.167	41.09901
899.559	20.05142
899.951	30.07227
900.342	22.05644
900.734	24.0619
901.125	39.10365
901.517	43.10829
901.908	95.22855
902.299	53.13428
902.69	25.06087
903.082	72.17653
903.473	27.06699
903.863	18.04686
904.254	69.16505
904.645	81.20347
905.036	8.02004
905.426	46.10681
905.817	43.10809
906.207	26.06417
906.597	-6.01437
906.987	50.13136
907.378	-1.00257
907.768	32.086
908.158	69.17064
908.547	24.06348
908.937	19.04916
909.327	61.15158
909.717	45.1149
910.106	9.02215
910.495	88.22173
910.885	41.10612
911.274	53.13443
911.663	54.13733
912.052	56.13887
912.441	12.03094
912.83	45.10657
913.219	21.05561
913.608	51.1265
913.997	36.09262
914.385	8.01949
914.774	38.0942
915.162	36.08856
915.55	47.11543
915.939	27.06955
916.327	-8.0202
916.715	17.04419
917.103	25.0623
917.491	11.02754
917.878	9.02231
918.266	19.0495
918.654	60.15646
919.041	2.00536
919.429	45.109
919.816	-4.01031
920.203	55.13627
920.591	19.04787
920.978	15.03695
921.365	54.1434
921.752	46.11257
922.139	66.14821
922.525	34.08459
922.912	-2.00498
923.299	26.06624
923.685	40.10622
924.072	18.04199
924.458	18.04558
924.844	53.1339
925.231	42.10037
925.617	11.02876
926.003	37.09577
926.389	-11.02852
926.774	56.14382
927.16	20.05075
927.546	34.08923
927.931	33.08391
928.317	-4.00943
928.702	26.06237
929.088	59.14339
929.473	10.02591
929.858	16.04004
930.243	43.1058
930.628	61.1529
931.013	17.04324
931.398	35.08177
931.783	42.11101
932.167	94.23472
932.552	19.04805
932.937	42.10556
933.321	-3.00775
933.705	10.02588
934.09	43.10891
934.474	30.07257
934.858	20.05278
935.242	20.04792
935.626	25.06569
936.009	-47.12666
936.393	33.08512
936.777	24.06269
937.16	-16.04233
937.544	29.06937
937.927	34.08854
938.311	23.05699
938.694	39.10365
939.077	-5.01233
939.46	-15.03682
939.843	113.24284
940.226	38.09906
940.609	59.14119
940.991	54.13956
941.374	29.07264
941.757	16.04001
942.139	49.11492
942.522	24.05746
942.904	43.10548
943.286	18.0462
943.668	32.08438
944.05	42.1056
944.432	85.21444
944.814	55.13587
945.196	32.0808
945.578	58.14373
945.959	20.04825
946.341	26.06356
946.722	19.04561
947.104	73.17755
947.485	44.10479
947.866	75.19433
948.247	18.04592
948.628	7.0173
949.009	52.13587
949.39	32.08077
949.771	44.10483
950.152	31.07826
950.532	54.13694
950.913	29.07146
951.293	8.02207
951.674	77.19287
952.054	53.13528
952.434	41.10318
952.814	13.03177
953.194	33.08686
953.574	49.121
953.954	54.13087
954.334	21.0536
954.714	-2.00504
955.093	56.13857
955.473	4.0102
955.853	43.11226
956.232	9.02476
956.611	35.08541
956.99	58.14906
957.37	37.0961
957.749	14.03446
958.128	67.17252
958.506	68.18052
958.885	25.06467
959.264	79.19973
959.643	16.03728
960.021	38.09657
960.4	33.07737
960.778	61.15202
961.156	15.03871
961.535	15.0358
961.913	45.10773
962.291	68.17949
962.669	-10.0258
963.047	77.19703
963.424	34.08793
963.802	34.08579
964.18	78.19822
964.557	22.05207
964.935	61.14703
965.312	14.03697
965.69	27.06819
966.067	73.18087
966.444	39.09698
966.821	31.08074
967.198	61.14942
967.575	17.04203
967.952	68.1622
968.329	22.05488
968.705	-20.04432
969.082	66.17228
969.458	35.08726
969.835	16.03972
970.211	82.21404
970.587	42.10598
970.963	7.01823
971.339	28.07438
971.715	17.04324
972.091	60.14993
972.467	64.16166
972.843	53.13376
973.219	32.07723
973.594	52.13933
973.97	66.15851
974.345	33.08113
974.721	-34.08373
975.096	45.1108
975.471	55.13292
975.846	26.06363
976.221	37.0967
976.596	26.06427
976.971	50.12508
977.346	9.02136
977.72	11.0287
978.095	57.14947
978.469	58.13998
978.844	12.03044
979.218	4.00983
979.593	16.0391
979.967	35.08681
980.341	49.11483
980.715	60.15372
981.089	-8.02029
981.463	87.2066
981.837	19.04781
982.21	45.1062
982.584	69.16952
982.957	19.04881
983.331	37.08955
983.704	-20.04969
984.078	34.08588
984.451	32.07994
984.824	62.15415
985.197	49.12056
985.57	53.13462
985.943	0
986.316	33.08227
986.688	18.04415
987.061	75.18016
987.434	74.19435
987.806	79.19423
988.179	63.15254
988.551	38.09821
988.923	32.08025
989.295	35.08707
989.667	37.09144
990.039	41.1041
990.411	29.06847
990.783	51.11948
991.155	67.16697
991.527	48.11856
991.898	52.13229
992.27	23.05788
992.641	36.09123
993.012	47.11264
993.384	-2.00487
993.755	14.03667
994.126	19.04659
994.497	32.08049
994.868	81.19013
995.239	12.02962
995.61	61.15647
995.98	64.15952
996.351	5.01269
996.722	60.14432
997.092	22.05374
997.462	53.12775
997.833	39.09386
998.203	49.11985
998.573	24.06075
998.943	52.12536
999.313	14.03466
999.683	59.14597
1000.053	66.15555
1000.423	32.0786
1000.792	48.12687
1001.162	-10.02514
1001.531	27.06802
1001.901	78.19906
1002.27	52.11902
1002.639	57.14825
1003.009	38.09165
1003.378	9.02327
1003.747	49.11931
1004.116	65.15874
1004.485	15.03644
1004.853	76.19403
1005.222	21.05349
1005.591	29.07016
1005.959	51.11957
1006.328	15.03493
1006.696	48.1193
1007.064	39.09923
1007.433	31.07852
1007.801	23.05694
1008.169	-16.04096
1008.537	69.15638
1008.905	43.10329
1009.273	7.01748
1009.64	57.1404
1010.008	84.20381
1010.375	-18.04356
1010.743	87.20181
1011.11	57.13832
1011.478	26.06528
1011.845	13.03126
1012.212	76.17668
1012.579	17.04234
1012.946	53.12784
1013.313	43.10333
1013.68	69.15727
1014.047	52.12744
1014.414	39.09479
1014.78	-18.04566
1015.147	32.07782
1015.513	43.10584
1015.88	-23.05951
1016.246	-14.03481
1016.612	52.11988
1016.978	29.07248
1017.344	64.16132
1017.71	62.15054
1018.076	41.09804
1018.442	44.11344
1018.808	34.08665
1019.174	20.05144
1019.539	35.08051
1019.905	8.0194
1020.27	42.10621
1020.636	51.12414
1021.001	20.04874
1021.366	43.10564
1021.731	-3.00777
1022.096	32.0825
1022.461	42.10133
1022.826	29.07027
1023.191	5.01331
1023.556	79.18897
1023.92	22.05468
1024.285	29.07214
1024.649	33.08254
1025.014	67.16806
1025.378	47.12018
1025.742	54.1366
1026.107	8.01852
1026.471	3.00708
1026.835	48.12177
1027.199	67.16752
1027.562	41.09733
1027.926	35.08678
1028.29	67.17288
1028.654	71.16626
1029.017	60.14781
1029.381	24.05882
1029.744	11.02838
1030.107	71.16945
1030.471	19.04602
1030.834	57.13149
1031.197	39.09429
1031.56	10.02408
1031.923	25.06554
1032.286	47.11191
1032.648	38.09337
1033.011	46.10719
1033.374	38.09001
1033.736	30.0803
1034.099	67.16673
1034.461	-14.03606
1034.823	24.06069
1035.185	68.17281
1035.548	36.08983
1035.91	39.09528
1036.272	-12.0279
1036.634	19.04687
1036.995	68.16375
1037.357	41.10177
1037.719	-30.07421
1038.08	-12.02914
1038.442	-17.04144
1038.803	41.09976
1039.165	40.10355
1039.526	13.03209
1039.887	57.13905
1040.248	-24.06078
1040.609	26.0645
1040.97	10.02515
1041.331	44.11281
1041.692	51.12404
1042.053	76.17633
1042.413	58.13755
1042.774	0
1043.134	60.14536
1043.495	24.06093
1043.855	48.11816
1044.215	43.10899
1044.576	70.17245
1044.936	75.17412
1045.296	54.13621
1045.656	11.02734
1046.016	14.03425
1046.375	-26.06445
1046.735	34.07954
1047.095	2.00481
1047.454	60.12969
1047.814	49.11971
1048.173	-2.00477
1048.533	8.01881
1048.892	20.04974
1049.251	70.17739
1049.61	-8.02017
1049.969	105.25327
1050.328	19.04245
1050.687	43.10607
1051.046	-16.03958
1051.405	47.11972
1051.763	30.07106
1052.122	28.07116
1052.48	27.06653
1052.839	2.00484
1053.197	9.02187
1053.555	-24.05476
1053.914	-24.05956
1054.272	54.13038
1054.63	53.13285
1054.988	10.02449
1055.345	34.07544
1055.703	16.03918
1056.061	10.02611
1056.419	12.03158
1056.776	5.01223
1057.134	30.07128
1057.491	4.01017
1057.848	-15.03783
1058.206	40.09618
1058.563	19.04304
1058.92	47.10881
1059.277	20.05001
1059.634	53.12615
1059.991	54.13136
1060.348	42.09795
1060.704	25.06128
1061.061	56.13111
1061.418	22.05422
1061.774	15.03786
1062.131	8.02165
1062.487	45.10752
1062.843	3.00758
1063.199	34.08659
1063.555	21.05043
1063.911	30.07608
1064.267	73.1541
1064.623	9.02244
1064.979	27.06491
1065.335	10.02422
1065.691	34.08252
1066.046	-28.06223
1066.402	63.14782
1066.757	22.05609
1067.112	27.06682
1067.468	75.18487
1067.823	80.19534
1068.178	18.04407
1068.533	57.14029
1068.888	0
1069.243	15.03769
1069.598	34.08429
1069.952	-3.00706
1070.307	57.14508
1070.662	17.04112
1071.016	-23.05361
1071.371	3.007
1071.725	45.10892
1072.079	-28.0688
1072.434	9.02251
1072.788	59.14329
1073.142	42.1053
1073.496	12.0291
1073.85	9.02117
1074.203	64.15981
1074.557	11.02975
1074.911	36.08626
1075.265	-4.00955
1075.618	-12.02972
1075.971	15.03644
1076.325	23.05962
1076.678	34.08072
1077.031	48.11181
1077.385	68.15421
1077.738	38.08831
1078.091	16.03774
1078.444	22.05225
1078.796	3.00748
1079.149	36.09035
1079.502	50.12254
1079.855	61.14575
1080.207	73.1812
1080.56	-1.00263
1080.912	37.0909
1081.264	36.0883
1081.617	20.05041
1081.969	44.11375
1082.321	-9.02239
1082.673	18.04277
1083.025	40.09716
1083.377	73.16073
1083.728	32.07551
1084.08	20.05066
1084.432	15.03714
1084.783	49.11623
1085.135	23.05877
1085.486	55.13056
1085.838	16.04034
1086.189	18.04431
1086.54	10.02431
1086.891	40.10334
1087.242	-9.02225
1087.593	67.16418
1087.944	1.00231
1088.295	71.16365
1088.646	72.17783
1088.996	-3.0074
1089.347	18.04506
1089.698	-14.03427
1090.048	-24.06275
1090.398	1.00236
1090.749	30.07333
1091.099	47.12249
1091.449	21.05319
1091.799	49.12459
1092.149	61.15428
1092.499	20.04962
1092.849	20.05206
1093.199	-4.01013
1093.548	40.09854
1093.898	47.11938
1094.248	17.04414
1094.597	25.06605
1094.947	4.0108
1095.296	-1.00251
1095.645	42.11016
1095.994	-33.08113
1096.343	58.14719
1096.692	78.21181
1097.041	-35.09607
1097.39	40.10295
1097.739	26.06842
1098.088	40.1082
1098.437	-18.04855
1098.785	-16.04342
1099.134	22.05881
1099.482	36.09996
1099.83	9.02379
1100.179	40.10686
1100.527	34.09083
1100.875	-8.02155
1101.223	28.075
1101.571	22.06148
1101.919	22.05922
1102.267	-10.02849
1102.615	6.01935
1102.962	-15.0484
1103.31	-5.01613
1103.658	7.02259
