Data from N3 R7 sample 7_Subt2__0__16-54-51-410.txt Node

Date: Fri Sep 19 16:54:51 PDT 2025
User: uwsun
Spectrometer: HDX01956
Trigger mode: 0
Integration Time (sec): 5.000000E-1
Scans to average: 1
Nonlinearity correction enabled: true
Boxcar width: 0
Storing dark spectrum: false
XAxis mode: Wavelengths
Number of Pixels in Spectrum: 2068
>>>>>Begin Spectral Data<<<<<
194.03	45.12982
194.578	40.12951
195.127	33.10551
195.676	30.09586
196.225	33.08674
196.773	56.1551
197.321	73.20158
197.87	153.38612
198.418	167.4246
198.966	136.3539
199.513	120.30279
200.061	94.23651
200.609	155.40091
201.156	100.213
201.704	127.31396
202.251	130.33979
202.798	144.36943
203.345	104.25451
203.892	100.24916
204.438	135.31687
204.985	135.3165
205.532	200.52451
206.078	133.32154
206.624	161.39069
207.17	172.38814
207.716	91.21701
208.262	133.25523
208.808	139.3406
209.354	109.26213
209.899	115.28471
210.445	173.42469
210.99	121.28877
211.535	159.36415
212.08	143.32435
212.625	101.2496
213.17	132.32746
213.715	142.31363
214.259	200.45353
214.804	136.32724
215.348	168.37307
215.892	163.38319
216.436	194.43707
216.98	98.21119
217.524	127.2946
218.068	122.30177
218.612	143.34884
219.155	125.28801
219.698	129.2977
220.242	117.2852
220.785	189.4278
221.328	140.34171
221.871	129.31937
222.414	113.27195
222.956	140.33149
223.499	140.3061
224.041	130.29025
224.583	149.3086
225.126	126.27561
225.668	125.29786
226.21	124.30514
226.751	82.17398
227.293	109.24079
227.835	116.27594
228.376	115.25607
228.918	112.27653
229.459	185.45179
230	126.29234
230.541	98.21953
231.082	135.31934
231.622	134.30029
232.163	122.29211
232.704	120.29017
233.244	111.26957
233.784	127.30042
234.324	148.32004
234.864	108.23784
235.404	80.18488
235.944	125.28548
236.484	135.32403
237.023	132.30504
237.563	112.25243
238.102	144.32986
238.641	185.45566
239.18	126.28956
239.719	169.41456
240.258	136.29434
240.797	158.36846
241.335	104.24549
241.874	176.32642
242.412	119.27779
242.95	151.35401
243.488	164.36161
244.026	168.37539
244.564	196.38349
245.102	135.29461
245.64	135.31514
246.177	107.23222
246.715	116.26818
247.252	110.24336
247.789	133.22646
248.326	118.27388
248.863	101.2148
249.4	158.35115
249.936	146.28837
250.473	153.34674
251.009	139.31258
251.546	112.24178
252.082	186.39446
252.618	161.34941
253.154	119.2791
253.69	147.31917
254.226	143.33
254.761	144.30819
255.297	129.27543
255.832	123.28193
256.367	121.27601
256.903	111.23556
257.438	97.22019
257.972	81.17512
258.507	108.24521
259.042	103.21295
259.576	135.28311
260.111	179.39559
260.645	169.353
261.179	113.25547
261.713	154.32816
262.247	170.38237
262.781	185.37441
263.315	160.38016
263.849	136.33133
264.382	92.20549
264.915	168.38314
265.449	127.30379
265.982	104.22768
266.515	158.37368
267.048	179.36559
267.58	100.20902
268.113	136.28729
268.646	181.43559
269.178	152.32869
269.71	125.26318
270.243	124.2749
270.775	153.37879
271.307	116.26796
271.838	171.38801
272.37	188.44789
272.902	172.37941
273.433	142.29799
273.965	180.42834
274.496	100.24071
275.027	160.3825
275.558	112.26509
276.089	191.46331
276.62	119.29419
277.15	120.28798
277.681	108.22363
278.211	134.31667
278.741	166.35681
279.272	187.41085
279.802	146.35556
280.332	196.445
280.861	151.35235
281.391	114.25094
281.921	117.27087
282.45	184.44977
282.98	177.44891
283.509	145.31536
284.038	96.21017
284.567	126.28027
285.096	166.3891
285.625	229.50312
286.153	129.29342
286.682	166.36341
287.21	145.33861
287.739	126.2877
288.267	195.45716
288.795	147.37548
289.323	188.42978
289.851	183.41034
290.378	199.42875
290.906	208.48792
291.433	162.39246
291.961	136.29698
292.488	195.46839
293.015	200.45721
293.542	163.39925
294.069	216.50945
294.596	211.50085
295.122	177.40863
295.649	221.4696
296.175	134.31164
296.702	172.39843
297.228	174.4013
297.754	151.32743
298.28	189.41105
298.806	144.33925
299.332	124.26734
299.857	173.37498
300.383	183.44324
300.908	175.41572
301.433	246.57411
301.958	163.35692
302.483	239.57995
303.008	168.39886
303.533	174.43117
304.058	231.51733
304.582	209.47557
305.107	192.48894
305.631	167.36413
306.155	271.60515
306.679	161.36636
307.203	202.45211
307.727	244.55622
308.251	190.45196
308.775	177.4057
309.298	224.5199
309.822	154.37784
310.345	227.51507
310.868	185.42692
311.391	246.57682
311.914	242.58249
312.437	195.42302
312.96	290.64931
313.482	263.59577
314.005	214.51764
314.527	264.6656
315.049	226.54481
315.571	280.60442
316.093	251.59876
316.615	230.53678
317.137	229.47068
317.659	225.51715
318.18	196.45743
318.702	231.51562
319.223	255.49503
319.744	277.59166
320.265	272.63104
320.786	244.57995
321.307	301.71416
321.828	287.62019
322.348	270.60852
322.869	204.45639
323.389	524.86151
323.909	268.58546
324.43	284.64347
324.95	295.64239
325.47	325.7586
325.989	359.80824
326.509	284.59544
327.029	305.64921
327.548	293.62746
328.067	268.6161
328.587	331.78048
329.106	310.66171
329.625	344.8364
330.144	300.64731
330.662	354.7684
331.181	370.80996
331.7	365.79615
332.218	384.77839
332.736	316.69118
333.255	356.77471
333.773	371.82225
334.291	352.81498
334.808	312.64922
335.326	376.79109
335.844	421.91633
336.361	367.87172
336.879	384.83208
337.396	416.91755
337.913	375.79784
338.43	461.95817
338.947	410.90659
339.464	445.86967
339.981	414.91505
340.497	396.91246
341.014	392.88125
341.53	479.99558
342.046	450.0199
342.562	437.0038
343.078	418.90575
343.594	505.10229
344.11	529.13086
344.626	448.04694
345.141	493.02829
345.657	509.0255
346.172	442.97529
346.687	481.00854
347.202	512.03606
347.717	538.15981
348.232	513.17023
348.747	527.09009
349.261	578.14583
349.776	465.99273
350.29	510.15332
350.805	517.14756
351.319	563.17612
351.833	560.14527
352.347	528.09777
352.861	551.15305
353.374	554.12786
353.888	520.1267
354.401	565.15578
354.915	605.20755
355.428	609.35598
355.941	629.29737
356.454	553.10461
356.967	617.29537
357.48	621.24987
357.993	622.35549
358.505	655.4302
359.018	595.27986
359.53	578.23764
360.042	593.13973
360.554	609.2999
361.066	629.34787
361.578	671.27816
362.09	644.35005
362.602	658.26034
363.113	620.24241
363.625	692.36072
364.136	692.30642
364.647	697.40886
365.158	720.45176
365.669	721.52198
366.18	661.32378
366.691	685.30361
367.201	672.39022
367.712	703.35415
368.222	760.50656
368.733	799.47017
369.243	716.33465
369.753	742.45302
370.263	771.5501
370.773	777.64746
371.282	798.59967
371.792	826.57511
372.301	771.59776
372.811	867.90776
373.32	821.43905
373.829	868.72255
374.338	919.66188
374.847	912.70077
375.356	996.93011
375.865	1001.67587
376.373	1081.91894
376.882	1019.09085
377.39	1111.11463
377.898	1145.23941
378.407	1136.93747
378.915	1174.89049
379.423	1281.2693
379.93	1315.16603
380.438	1387.5009
380.946	1460.43228
381.453	1491.54029
381.96	1588.59699
382.468	1702.70874
382.975	1837.94331
383.482	1792.55754
383.989	1868.15084
384.495	1943.74729
385.002	2082.43832
385.509	2100.85629
386.015	2308.33746
386.521	2350.73074
387.028	2460.82612
387.534	2528.58625
388.04	2706.04347
388.546	2695.6978
389.051	2838.62755
389.557	3039.90158
390.063	3319.84228
390.568	3407.93347
391.073	3512.57168
391.578	3654.89108
392.084	3668.35112
392.589	3885.18091
393.093	4141.42843
393.598	4584.94396
394.103	4995.98493
394.607	5413.67975
395.112	5854.68626
395.616	6245.3976
396.12	6785.1033
396.624	7443.35784
397.128	8049.91285
397.632	8914.18782
398.136	9730.24211
398.639	10335.21097
399.143	11415.74504
399.646	12977.15152
400.15	14483.32408
400.653	15983.45213
401.156	17858.31196
401.659	20858.30294
402.162	25679.92634
402.664	33858.52906
403.167	47796.36474
403.67	58928.15016
404.172	55487.84425
404.674	37291.05854
405.176	4428.40989
405.678	533.47942
406.18	0
406.682	0
407.184	6962.89417
407.686	50953.82939
408.187	59237.6763
408.688	61091.12691
409.19	60906.01361
409.691	48633.64563
410.192	41081.36424
410.693	35821.92732
411.194	32167.72874
411.694	30451.48561
412.195	28271.50581
412.696	25452.97047
413.196	23802.91459
413.696	23055.02944
414.196	23159.46182
414.696	22932.69885
415.196	21963.6904
415.696	19800.70996
416.196	16224.36359
416.695	12554.11449
417.195	10561.08843
417.694	10107.00342
418.194	9507.8141
418.693	8814.9868
419.192	8430.3676
419.691	8497.46906
420.19	8265.15629
420.688	8019.97599
421.187	7743.26438
421.685	7160.23137
422.184	6474.2092
422.682	5753.07863
423.18	4755.90416
423.678	4211.17108
424.176	3938.33861
424.674	3695.20934
425.172	3556.67384
425.669	3309.10651
426.167	3163.73589
426.664	2835.71745
427.161	2537.72355
427.659	2476.11164
428.156	2324.4022
428.652	2093.11407
429.149	2018.88653
429.646	1874.39396
430.143	1922.79559
430.639	1776.64111
431.135	1600.65283
431.632	1631.4031
432.128	1472.46573
432.624	1382.53282
433.12	1366.19563
433.616	1309.99999
434.111	1296.25051
434.607	1192.12353
435.103	1107.67955
435.598	1106.66558
436.093	1090.91351
436.588	1021.76074
437.083	1020.76041
437.578	942.68065
438.073	879.76021
438.568	784.57663
439.062	912.51599
439.557	784.49562
440.051	793.46276
440.546	767.44156
441.04	682.35047
441.534	763.62267
442.028	715.43341
442.522	675.37431
443.015	719.29224
443.509	722.48845
444.002	711.4687
444.496	585.06549
444.989	661.38543
445.482	627.33317
445.975	638.23669
446.468	652.17248
446.961	596.06718
447.454	575.09498
447.947	610.26066
448.439	594.26045
448.931	573.1118
449.424	497.08525
449.916	554.1509
450.408	569.12769
450.9	514.09092
451.392	531.18308
451.884	488.96569
452.375	482.04867
452.867	514.00305
453.358	464.91519
453.849	498.91313
454.341	468.92915
454.832	501.93831
455.323	429.93731
455.814	488.97428
456.304	468.94346
456.795	421.84383
457.285	465.89412
457.776	393.78006
458.266	464.98309
458.756	391.83116
459.247	422.8906
459.737	445.95334
460.226	475.93579
460.716	423.90543
461.206	385.81876
461.695	414.93566
462.185	429.90557
462.674	369.75124
463.163	378.7389
463.653	412.76569
464.142	334.72622
464.63	380.83395
465.119	358.75488
465.608	364.74932
466.096	301.59689
466.585	340.69645
467.073	305.65768
467.561	380.83641
468.05	267.56289
468.538	345.77959
469.026	386.83606
469.513	308.58636
470.001	309.6351
470.489	299.64585
470.976	309.64828
471.463	315.72514
471.951	275.63383
472.438	294.63409
472.925	286.60572
473.412	268.59932
473.899	325.67973
474.385	306.68739
474.872	292.62005
475.359	239.54163
475.845	237.45042
476.331	218.432
476.817	208.46726
477.303	256.54717
477.789	218.48771
478.275	212.49322
478.761	213.47545
479.247	193.39937
479.732	237.55431
480.218	225.54742
480.703	239.5603
481.188	225.4418
481.673	179.3855
482.158	223.44345
482.643	199.47418
483.128	194.41052
483.612	195.4232
484.097	147.33923
484.581	185.39465
485.066	186.42144
485.55	119.24481
486.034	172.35265
486.518	159.35301
487.002	136.31641
487.486	129.29959
487.969	163.38154
488.453	182.43443
488.936	142.30049
489.42	155.32304
489.903	216.50925
490.386	150.30351
490.869	167.33349
491.352	129.2971
491.835	104.20059
492.318	160.34228
492.8	117.22594
493.283	155.37684
493.765	142.3335
494.247	62.13757
494.73	129.26933
495.212	148.33616
495.694	126.27969
496.175	103.2341
496.657	167.37832
497.139	60.09449
497.62	123.28
498.102	105.25069
498.583	60.14295
499.064	107.23064
499.545	131.28249
500.026	100.21319
500.507	118.25702
500.988	94.22128
501.469	54.12974
501.949	61.14357
502.43	91.2064
502.91	98.19147
503.39	86.20599
503.87	147.3284
504.35	85.18927
504.83	65.13679
505.31	108.25127
505.79	63.14521
506.269	79.1754
506.749	63.13795
507.228	94.21109
507.707	117.24558
508.187	88.19907
508.666	34.08044
509.145	83.18573
509.623	94.21048
510.102	96.22141
510.581	99.22573
511.059	133.32105
511.538	95.23486
512.016	156.35491
512.494	99.22756
512.972	126.28759
513.45	84.18933
513.928	136.31416
514.406	167.38953
514.884	147.365
515.361	154.35305
515.839	94.20379
516.316	119.27068
516.793	132.31714
517.27	155.35755
517.747	158.38607
518.224	109.23878
518.701	167.35084
519.178	195.46483
519.654	76.16947
520.131	141.32785
520.607	149.35028
521.083	176.38042
521.56	147.32705
522.036	185.38145
522.512	138.32296
522.987	159.3621
523.463	160.36135
523.939	118.27583
524.414	132.28642
524.89	112.2514
525.365	113.2465
525.84	170.39286
526.315	103.23561
526.79	108.22994
527.265	64.13845
527.74	90.21005
528.215	117.26397
528.689	136.28968
529.164	75.15248
529.638	114.28146
530.112	109.24914
530.587	153.3122
531.061	135.31179
531.534	96.22115
532.008	116.26786
532.482	86.18469
532.956	134.33181
533.429	75.16991
533.903	132.27333
534.376	103.2161
534.849	128.28342
535.322	132.29617
535.795	128.29792
536.268	171.39131
536.741	164.3716
537.213	136.29937
537.686	102.23637
538.158	91.19581
538.631	154.35149
539.103	168.35442
539.575	122.23961
540.047	116.24149
540.519	155.34699
540.991	135.31092
541.463	193.44183
541.934	184.39669
542.406	180.40586
542.877	169.35786
543.348	119.26673
543.82	178.41036
544.291	165.35641
544.762	259.56783
545.233	231.54916
545.703	242.49818
546.174	254.55041
546.645	235.5356
547.115	242.5452
547.585	309.66001
548.056	299.67951
548.526	341.73403
548.996	287.63637
549.466	313.69633
549.935	309.68515
550.405	350.70266
550.875	322.69507
551.344	312.69482
551.814	278.57796
552.283	337.65641
552.752	346.73086
553.221	359.70292
553.69	373.7497
554.159	416.93941
554.628	363.73196
555.096	393.90465
555.565	374.74738
556.033	391.82428
556.502	441.95129
556.97	397.78101
557.438	374.80177
557.906	419.88912
558.374	402.82457
558.842	437.93539
559.31	406.80304
559.777	407.89226
560.245	413.85535
560.712	477.9521
561.18	446.86563
561.647	396.7862
562.114	483.9681
562.581	454.00227
563.048	445.894
563.514	453.99976
563.981	462.92751
564.448	484.95553
564.914	484.98647
565.381	450.88882
565.847	531.07433
566.313	501.01491
566.779	539.06364
567.245	560.13492
567.711	559.17395
568.176	603.19074
568.642	568.25701
569.108	592.2633
569.573	582.16022
570.038	600.0727
570.504	659.26317
570.969	560.22331
571.434	667.23976
571.899	611.25793
572.363	603.16901
572.828	667.26991
573.293	635.23937
573.757	683.32943
574.222	720.3554
574.686	683.29476
575.15	651.32658
575.614	643.2467
576.078	654.30038
576.542	654.26655
577.006	618.19843
577.469	641.34701
577.933	568.08398
578.396	653.34091
578.86	600.20504
579.323	538.12108
579.786	576.05463
580.249	506.01313
580.712	525.11649
581.175	546.18161
581.637	566.13821
582.1	525.98861
582.563	448.81522
583.025	456.98765
583.487	485.84031
583.95	469.88748
584.412	465.84294
584.874	455.98149
585.336	474.99901
585.797	448.84836
586.259	393.81539
586.721	395.836
587.182	401.82381
587.643	431.86667
588.105	386.82749
588.566	427.791
589.027	397.87437
589.488	339.69645
589.949	336.73337
590.41	382.6683
590.87	287.5859
591.331	346.65775
591.791	302.62786
592.252	243.51544
592.712	335.73165
593.172	316.64671
593.632	315.60421
594.092	333.66992
594.552	284.55146
595.011	335.70468
595.471	271.55499
595.931	339.67948
596.39	315.69234
596.849	322.67958
597.308	299.58488
597.768	282.66458
598.227	301.66547
598.685	279.575
599.144	293.62584
599.603	325.69959
600.062	271.51404
600.52	338.68296
600.978	334.72592
601.437	355.72734
601.895	356.67313
602.353	372.72614
602.811	311.62364
603.269	325.7032
603.727	341.74129
604.184	382.77044
604.642	399.87362
605.099	384.79298
605.557	341.74381
606.014	368.70367
606.471	433.98038
606.928	457.89778
607.385	440.97534
607.842	463.94689
608.299	489.99417
608.755	419.89958
609.212	512.99375
609.668	501.97355
610.125	503.05197
610.581	493.99637
611.037	491.96731
611.493	492.00324
611.949	474.005
612.405	522.90037
612.861	498.9984
613.316	518.08603
613.772	527.04528
614.227	556.1304
614.683	571.03204
615.138	565.15421
615.593	454.91734
616.048	509.98957
616.503	553.17205
616.958	539.17662
617.412	515.05666
617.867	569.08721
618.321	522.89077
618.776	544.02202
619.23	529.08494
619.684	519.9946
620.138	542.04879
620.592	497.04675
621.046	500.00895
621.5	488.03159
621.954	490.94424
622.407	465.89455
622.861	462.96945
623.314	491.96867
623.768	483.98376
624.221	437.74866
624.674	476.94062
625.127	481.98058
625.58	449.86668
626.033	436.822
626.485	447.93777
626.938	435.90373
627.39	447.91168
627.843	386.78316
628.295	412.84126
628.747	401.84536
629.199	464.92894
629.651	398.80234
630.103	453.91343
630.555	434.78653
631.006	417.86055
631.458	359.74286
631.909	422.84017
632.361	347.71385
632.812	380.78332
633.263	406.75379
633.714	385.7082
634.165	367.77607
634.616	341.72141
635.067	356.68534
635.518	371.77284
635.968	449.76139
636.419	421.78145
636.869	435.89729
637.319	412.83629
637.769	437.85768
638.219	439.90025
638.669	447.94066
639.119	421.90154
639.569	503.06451
640.019	458.91481
640.468	393.75675
640.918	544.11652
641.367	480.93163
641.816	537.02396
642.265	529.04583
642.714	621.21429
643.163	519.003
643.612	535.12544
644.061	507.90226
644.51	594.14741
644.958	619.13154
645.406	632.28226
645.855	591.2298
646.303	608.18574
646.751	661.25969
647.199	633.17294
647.647	690.33129
648.095	665.25505
648.543	648.0536
648.99	717.42551
649.438	760.45607
649.885	729.51333
650.333	667.00737
650.78	755.53183
651.227	715.4585
651.674	705.32483
652.121	639.29028
652.568	680.38481
653.015	667.39064
653.461	691.36672
653.908	785.47328
654.354	678.32438
654.801	686.34193
655.247	741.29986
655.693	755.65013
656.139	670.33905
656.585	776.52472
657.031	747.44594
657.477	716.26676
657.922	761.43939
658.368	676.39164
658.813	671.25525
659.259	662.34138
659.704	701.36517
660.149	666.29291
660.594	713.40438
661.039	710.34047
661.484	696.38274
661.929	656.27649
662.373	697.50723
662.818	643.3696
663.262	621.26249
663.707	652.39751
664.151	689.43211
664.595	695.40481
665.039	627.32102
665.483	700.52178
665.927	660.28855
666.371	694.34928
666.814	646.29459
667.258	657.32669
667.701	704.20413
668.145	684.42328
668.588	657.36976
669.031	657.31333
669.474	633.28751
669.917	666.20568
670.36	669.39172
670.803	708.4138
671.245	682.15704
671.688	674.37258
672.13	649.20384
672.573	694.49786
673.015	688.37254
673.457	663.20176
673.899	637.29566
674.341	688.38524
674.783	689.39203
675.225	676.39726
675.666	670.36318
676.108	734.29598
676.549	690.34913
676.991	642.16569
677.432	659.04123
677.873	673.2857
678.314	678.34817
678.755	711.45361
679.196	719.36379
679.637	640.30679
680.078	668.29494
680.518	634.20843
680.959	679.35612
681.399	615.28946
681.839	668.36343
682.28	675.41481
682.72	621.18447
683.16	667.41033
683.6	689.28963
684.039	666.11702
684.479	664.37794
684.919	650.2714
685.358	655.40244
685.798	644.43784
686.237	688.38016
686.676	644.24121
687.115	667.30501
687.554	629.2567
687.993	578.05138
688.432	658.26459
688.871	617.1717
689.309	702.43745
689.748	642.09313
690.186	658.29619
690.625	648.29981
691.063	667.358
691.501	655.37163
691.939	627.33433
692.377	661.36224
692.815	641.31209
693.253	637.27035
693.69	636.1536
694.128	635.32149
694.565	648.3022
695.003	616.34637
695.44	635.24641
695.877	642.2747
696.314	601.06592
696.751	610.15359
697.188	619.20294
697.625	613.16126
698.061	608.24023
698.498	578.19176
698.934	574.16759
699.371	582.17528
699.807	613.22864
700.243	629.29911
700.679	599.1369
701.115	605.18854
701.551	629.25495
701.987	548.02803
702.422	524.06959
702.858	542.09738
703.294	559.06032
703.729	625.30642
704.164	561.16883
704.599	553.03054
705.035	521.00013
705.47	611.28445
705.904	528.04897
706.339	562.08808
706.774	522.04185
707.209	523.02911
707.643	607.23511
708.078	505.06316
708.512	554.2265
708.946	497.02287
709.38	513.03785
709.814	495.96419
710.248	515.06903
710.682	537.10882
711.116	513.07293
711.549	462.0463
711.983	457.90964
712.416	508.01715
712.85	562.21681
713.283	469.96611
713.716	555.19114
714.149	469.95786
714.582	503.96813
715.015	491.06217
715.448	439.96158
715.881	454.82949
716.313	499.01593
716.746	443.91994
717.178	378.8051
717.61	460.02824
718.043	521.11085
718.475	433.91762
718.907	426.93646
719.339	469.91875
719.77	438.92639
720.202	407.91366
720.634	459.98884
721.065	436.90117
721.497	437.9463
721.928	430.93969
722.359	450.9705
722.79	407.86064
723.221	396.87637
723.652	435.9817
724.083	440.8548
724.514	351.69735
724.945	385.80093
725.375	389.80061
725.806	330.72546
726.236	389.88722
726.666	333.69677
727.096	387.83519
727.526	369.84433
727.956	387.77138
728.386	333.72113
728.816	362.82582
729.246	382.8334
729.675	378.83898
730.105	383.83045
730.534	349.72443
730.964	337.75468
731.393	356.7701
731.822	371.853
732.251	333.76779
732.68	363.73229
733.109	367.80865
733.537	326.70371
733.966	383.84036
734.395	297.60741
734.823	300.59477
735.251	319.68993
735.68	308.69103
736.108	310.70408
736.536	332.69545
736.964	315.64714
737.392	324.72184
737.82	327.69543
738.247	295.6271
738.675	337.70296
739.102	339.77103
739.53	374.86076
739.957	279.65022
740.384	335.72639
740.811	333.76381
741.238	260.57087
741.665	361.75168
742.092	313.65841
742.519	288.65439
742.945	281.60645
743.372	315.70513
743.798	268.62791
744.225	275.58688
744.651	263.59698
745.077	283.63873
745.503	267.58364
745.929	255.55058
746.355	286.62715
746.781	274.61349
747.207	258.55646
747.632	253.56613
748.058	242.54453
748.483	242.49572
748.908	267.60213
749.334	265.58931
749.759	226.482
750.184	290.61983
750.609	243.53904
751.033	203.42703
751.458	310.62121
751.883	241.53928
752.307	297.6374
752.732	240.55769
753.156	273.60987
753.58	270.57309
754.005	296.68644
754.429	189.39915
754.853	262.5929
755.277	236.51076
755.7	263.5902
756.124	272.62204
756.548	241.52236
756.971	227.5023
757.394	197.46924
757.818	266.63102
758.241	209.48499
758.664	233.54623
759.087	215.44549
759.51	225.51219
759.933	165.37029
760.356	210.49549
760.778	278.63141
761.201	181.39633
761.623	145.31898
762.046	143.30386
762.468	195.42608
762.89	240.53892
763.312	181.40285
763.734	204.45206
764.156	203.46267
764.578	147.30664
765	195.43671
765.421	198.47551
765.843	175.42976
766.264	150.3313
766.686	200.4675
767.107	190.42981
767.528	161.38497
767.949	139.33008
768.37	133.30228
768.791	120.26825
769.212	185.43863
769.632	140.30118
770.053	155.38346
770.473	182.40886
770.894	126.28991
771.314	149.32323
771.734	98.2111
772.154	159.38091
772.575	149.3162
772.994	112.2368
773.414	41.09061
773.834	173.40368
774.254	84.19188
774.673	121.27244
775.093	140.32546
775.512	146.3374
775.931	118.28404
776.351	92.21303
776.77	82.18973
777.189	124.27101
777.607	126.30295
778.026	145.33901
778.445	72.17318
778.864	93.22331
779.282	69.15434
779.701	94.22309
780.119	48.1144
780.537	66.15525
780.955	85.20263
781.373	57.13296
781.791	101.21209
782.209	96.20662
782.627	59.14901
783.045	105.22399
783.462	64.15365
783.88	62.15342
784.297	87.2062
784.715	116.28503
785.132	60.13667
785.549	125.29649
785.966	82.19334
786.383	66.15434
786.8	84.18211
787.217	70.15506
787.633	17.0406
788.05	35.07586
788.466	40.08779
788.883	71.17333
789.299	20.04515
789.715	42.09733
790.131	39.09133
790.547	0
790.963	99.23029
791.379	64.15347
791.795	57.12107
792.21	59.12854
792.626	58.12885
793.041	52.12022
793.457	6.01404
793.872	41.09095
794.287	79.1818
794.702	49.11313
795.117	32.07483
795.532	67.16082
795.947	-5.01129
796.362	51.11285
796.776	12.02555
797.191	36.08283
797.605	120.26759
798.02	45.10439
798.434	97.19649
798.848	27.06256
799.262	89.21102
799.676	-2.00459
800.09	11.02555
800.504	29.06637
800.918	-12.02625
801.331	44.1086
801.745	7.01509
802.158	10.02373
802.572	61.13774
802.985	23.05168
803.398	36.08078
803.811	44.10624
804.224	37.08658
804.637	-21.04678
805.05	52.1124
805.462	26.06009
805.875	61.15318
806.288	75.17177
806.7	43.10215
807.112	-8.01754
807.525	36.08439
807.937	2.00472
808.349	13.03079
808.761	18.04123
809.173	-29.0662
809.584	21.04875
809.996	27.06298
810.408	29.07175
810.819	36.07984
811.231	60.15123
811.642	85.19811
812.053	38.08691
812.464	77.1728
812.875	46.11178
813.286	23.05611
813.697	37.07845
814.108	-11.02523
814.519	21.04326
814.929	8.01917
815.34	25.05705
815.75	13.03145
816.16	2.00464
816.571	28.06928
816.981	9.01967
817.391	-14.03197
817.801	71.16828
818.211	73.16295
818.62	25.05657
819.03	35.07971
819.44	0
819.849	70.16658
820.259	44.10696
820.668	48.11282
821.077	13.03079
821.486	7.0157
821.895	-33.07613
822.304	2.00509
822.713	-6.01335
823.122	58.13723
823.531	31.06948
823.939	36.08286
824.348	68.15521
824.756	23.05424
825.164	16.0378
825.573	23.05474
825.981	14.03291
826.389	-45.1067
826.797	18.04285
827.205	5.01079
827.612	43.09888
828.02	8.01794
828.428	-27.06552
828.835	93.23143
829.243	36.08001
829.65	-15.03573
830.057	73.16759
830.464	54.12514
830.871	14.0314
831.278	-16.03633
831.685	19.03891
832.092	50.11564
832.499	16.03234
832.905	43.10329
833.312	-64.13757
833.718	12.02814
834.124	14.03007
834.531	52.12251
834.937	-13.03151
835.343	38.08617
835.749	-15.03265
836.155	5.01246
836.561	-54.12459
836.966	41.09371
837.372	-7.01689
837.777	-16.0377
838.183	-26.0528
838.588	59.13849
838.993	4.00907
839.399	-14.03235
839.804	1.00234
840.209	15.03669
840.613	52.10845
841.018	-24.05731
841.423	-22.0533
841.828	3.0072
842.232	20.04576
842.637	7.01524
843.041	78.19159
843.445	-15.03544
843.849	6.01408
844.253	32.07038
844.657	-6.01455
845.061	8.01703
845.465	23.05367
845.869	12.02597
846.272	0
846.676	48.10907
847.079	8.01953
847.483	26.06094
847.886	-7.01577
848.289	42.10866
848.692	-10.02404
849.095	-40.09016
849.498	29.0677
849.901	-11.02343
850.304	8.01782
850.707	23.05531
851.109	-10.02351
851.512	88.20328
851.914	25.0611
852.316	18.04333
852.718	14.03493
853.121	43.09904
853.523	-24.05283
853.925	-9.02253
854.326	12.02886
854.728	-10.02456
855.13	19.04706
855.531	28.06409
855.933	5.01125
856.334	35.08289
856.736	-40.08375
857.137	19.04139
857.538	-21.05043
857.939	-19.04508
858.34	14.03186
858.741	-36.09025
859.142	1.00227
859.542	81.20646
859.943	72.16903
860.343	1.00237
860.744	71.16228
861.144	15.03448
861.544	20.04611
861.945	-17.04101
862.345	-48.10969
862.745	25.05864
863.145	-16.03525
863.544	50.12059
863.944	51.11158
864.344	-4.00926
864.743	82.1895
865.143	-19.04663
865.542	8.01731
865.941	4.00948
866.34	58.1296
866.74	-7.01801
867.139	-5.01141
867.537	39.09301
867.936	52.11749
868.335	-1.00244
868.734	43.10509
869.132	57.12408
869.531	26.05879
869.929	27.05815
870.327	19.0428
870.726	41.09552
871.124	19.04106
871.522	-24.05773
871.92	-2.00466
872.318	-7.01625
872.715	46.10605
873.113	-2.00462
873.511	9.02127
873.908	46.11253
874.306	10.02365
874.703	-4.00947
875.1	-12.02898
875.497	-31.06997
875.894	52.12194
876.291	22.05131
876.688	-61.15119
877.085	28.06252
877.482	1.00235
877.878	28.06352
878.275	-25.06035
878.671	-53.10761
879.068	22.04969
879.464	16.0365
879.86	58.12971
880.256	-27.06233
880.652	3.00723
881.048	5.01153
881.444	22.0482
881.84	-5.01201
882.236	26.06185
882.631	7.01626
883.027	-6.01346
883.422	1.00243
883.817	15.03622
884.213	-7.01716
884.608	32.07477
885.003	-18.04128
885.398	33.07785
885.793	-14.03321
886.188	54.12781
886.582	-23.05504
886.977	18.03991
887.371	25.0596
887.766	-23.05508
888.16	59.13811
888.554	40.09145
888.949	-21.04929
889.343	-14.03184
889.737	8.02078
890.131	43.10207
890.525	-1.00242
890.918	12.02889
891.312	-6.01323
891.706	32.08046
892.099	45.10723
892.492	44.08727
892.886	-2.00459
893.279	17.04107
893.672	13.03152
894.065	-25.05928
894.458	-16.03816
894.851	-14.03186
895.244	41.09901
895.637	48.10828
896.029	29.06658
896.422	13.02973
896.814	-8.01891
897.206	-6.01367
897.599	8.01818
897.991	14.03199
898.383	-4.00885
898.775	36.07498
899.167	14.03101
899.559	27.06404
899.951	27.05922
900.342	-40.0953
900.734	20.04809
901.125	-3.00742
901.517	18.0419
901.908	7.01557
902.299	20.04629
902.69	8.01775
903.082	18.04089
903.473	-5.01145
903.863	47.1144
904.254	20.0431
904.645	30.06897
905.036	16.03715
905.426	-44.09176
905.817	4.00926
906.207	-43.09805
906.597	4.00883
906.987	8.01939
907.378	3.00714
907.768	20.05057
908.158	-14.03242
908.547	-5.01237
908.937	13.03144
909.327	40.0903
909.717	7.01663
910.106	17.03836
910.495	56.13178
910.885	-14.03306
911.274	27.06397
911.663	65.1562
912.052	5.01152
912.441	1.00244
912.83	32.0678
913.219	15.03677
913.608	33.0757
913.997	-55.13207
914.385	0
914.774	14.03188
915.162	-45.10124
915.55	34.07698
915.939	8.01924
916.327	-23.05449
916.715	70.16914
917.103	17.03895
917.491	-18.0415
917.878	-22.05028
918.266	0
918.654	41.10013
919.041	-20.05005
919.429	22.04886
919.816	15.03572
920.203	1.00229
920.591	-25.05836
920.978	15.03441
921.365	-43.10782
921.752	11.02476
922.139	76.1518
922.525	-9.02039
922.912	-17.03903
923.299	17.04011
923.685	-9.02243
924.072	15.03176
924.458	15.03508
924.844	-11.02576
925.231	-15.03255
925.617	-22.0544
926.003	37.08912
926.389	38.09126
926.774	19.04576
927.16	15.03489
927.546	11.02677
927.931	20.04699
928.317	-18.03807
928.702	2.00439
929.088	-15.03365
929.473	-9.02182
929.858	37.08569
930.243	43.09718
930.628	15.03417
931.013	47.11084
931.398	27.05697
931.783	38.09461
932.167	-37.08539
932.552	-22.05155
932.937	0
933.321	-12.02845
933.705	46.11039
934.09	33.07707
934.474	60.1318
934.858	16.03961
935.242	36.07905
935.626	-19.04613
936.009	17.04301
936.393	31.07523
936.777	50.12177
937.16	-69.17058
937.544	64.13869
937.927	16.03859
938.311	44.09929
938.694	60.1495
939.077	-9.02012
939.46	57.13102
939.843	31.05794
940.226	4.00968
940.609	-15.03211
940.991	27.06491
941.374	-53.1227
941.757	-8.0186
942.139	-55.11539
942.522	22.04774
942.904	59.13235
943.286	16.038
943.668	14.03436
944.05	4.00929
944.432	40.09299
944.814	-13.02995
945.196	-1.00234
945.578	57.12797
945.959	31.06788
946.341	-4.00905
946.722	34.07465
947.104	-4.0089
947.485	53.1138
947.866	20.04809
948.247	21.05008
948.628	-4.00912
949.009	7.01708
949.39	-10.02305
949.771	36.07698
950.152	55.12688
950.532	19.04561
950.913	-2.00448
951.293	6.01567
951.674	-40.09097
952.054	-14.03305
952.434	-20.04664
952.814	-3.00657
953.194	33.08197
953.574	12.02733
953.954	26.05771
954.334	33.07779
954.714	-32.07436
955.093	-40.09203
955.473	6.01406
955.853	58.14199
956.232	15.03931
956.611	-34.07544
956.99	11.02627
957.37	17.04096
957.749	-6.0133
958.128	43.1031
958.506	13.03235
958.885	-31.07413
959.264	13.03007
959.643	49.10326
960.021	-8.0188
960.4	58.12322
960.778	-27.06169
961.156	-25.0596
961.535	-24.05121
961.913	-51.11021
962.291	33.08119
962.669	16.03847
963.047	-22.05272
963.424	5.01216
963.802	-51.11812
964.18	24.05672
964.557	-16.03389
964.935	-5.01106
965.312	9.02245
965.69	18.04216
966.067	37.08345
966.444	16.03702
966.821	4.00972
967.198	-6.01346
967.575	-9.02063
967.952	65.14167
968.329	0
968.705	-10.01948
969.082	47.11444
969.458	62.14043
969.835	54.12211
970.211	47.11376
970.587	15.03518
970.963	24.05799
971.339	-7.01761
971.715	-11.02554
972.091	-9.02086
972.467	-15.03475
972.843	19.04444
973.219	37.08129
973.594	32.07941
973.97	-6.0132
974.345	-10.02251
974.721	22.04948
975.096	-44.09994
975.471	80.17573
975.846	67.15061
976.221	-5.01208
976.596	-3.00677
976.971	41.09477
977.346	-3.00643
977.72	4.00963
978.095	24.05889
978.469	65.14407
978.844	66.15434
979.218	1.00228
979.593	34.07613
979.967	50.1144
980.341	-1.00213
980.715	-4.00948
981.089	5.01168
981.463	48.10335
981.837	52.11974
982.21	12.02575
982.584	-10.02262
982.957	-7.01672
983.331	45.09879
983.704	54.12489
984.078	0
984.451	-17.03903
984.824	29.06687
985.197	35.0791
985.57	47.10916
985.943	-32.07319
986.316	37.08484
986.688	16.03593
987.061	2.00433
987.434	31.07661
987.806	1.00226
988.179	1.00219
988.551	13.03086
988.923	-15.0348
989.295	26.0608
989.667	19.04355
990.039	31.07234
990.411	31.06696
990.783	-12.02569
991.155	47.10721
991.527	0
991.898	-13.03045
992.27	13.03037
992.641	20.0469
993.012	69.15109
993.384	5.01119
993.755	21.05025
994.126	23.05189
994.497	-11.02549
994.868	24.05143
995.239	54.12266
995.61	21.04962
995.98	21.04842
996.351	72.16765
996.722	62.13419
997.092	10.02247
997.462	11.02438
997.833	-2.00442
998.203	17.03832
998.573	23.05439
998.943	6.01299
999.313	24.05416
999.683	-20.04478
1000.053	15.03232
1000.423	16.03648
1000.792	8.01972
1001.162	-29.0682
1001.531	20.04666
1001.901	33.07673
1002.27	6.01255
1002.639	13.03157
1003.009	66.14772
1003.378	30.07254
1003.747	8.0176
1004.116	5.01132
1004.485	32.07189
1004.853	23.05498
1005.222	72.17154
1005.591	18.03952
1005.959	35.07421
1006.328	30.0622
1006.696	9.02057
1007.064	10.02379
1007.433	66.15483
1007.801	30.06831
1008.169	10.02364
1008.537	39.07987
1008.905	42.09133
1009.273	32.07395
1009.64	-3.00678
1010.008	40.08842
1010.375	34.07685
1010.743	-32.0676
1011.11	41.09061
1011.478	33.07634
1011.845	-5.01082
1012.212	-1.00209
1012.579	50.115
1012.946	-13.02856
1013.313	-8.0178
1013.68	2.00414
1014.047	21.04763
1014.414	29.0646
1014.78	31.07316
1015.147	-33.07421
1015.513	54.1232
1015.88	-40.09607
1016.246	23.05344
1016.612	-6.01267
1016.978	-1.0023
1017.344	28.06579
1017.71	-8.01794
1018.076	60.1303
1018.442	8.01939
1018.808	36.08462
1019.174	-35.08302
1019.539	19.03923
1019.905	16.03555
1020.27	27.06328
1020.636	29.06468
1021.001	13.0289
1021.366	25.05737
1021.731	41.0998
1022.096	13.03133
1022.461	-17.03734
1022.826	78.17148
1023.191	8.01998
1023.556	-20.04334
1023.92	-8.01831
1024.285	10.0228
1024.649	-3.00693
1025.014	38.08792
1025.378	65.15459
1025.742	6.01403
1026.107	11.02277
1026.471	-8.01705
1026.835	-62.14499
1027.199	54.12181
1027.562	-11.02414
1027.926	23.05244
1028.29	-5.01204
1028.654	40.08409
1029.017	63.14469
1029.381	48.1073
1029.744	-41.10069
1030.107	-34.07428
1030.471	-15.03365
1030.834	-17.03543
1031.197	22.04863
1031.56	83.18267
1031.923	-20.04922
1032.286	54.11627
1032.648	57.12529
1033.011	16.0343
1033.374	0
1033.736	-29.07295
1034.099	21.04831
1034.461	25.06017
1034.823	-18.04224
1035.185	1.00234
1035.548	2.00456
1035.91	44.09897
1036.272	33.0696
1036.634	-1.00227
1036.995	88.19233
1037.357	-7.01611
1037.719	31.07034
1038.08	-10.02183
1038.442	39.08817
1038.803	6.01339
1039.165	-4.00958
1039.526	15.03401
1039.887	10.0226
1040.248	29.06868
1040.609	59.13545
1040.97	30.0685
1041.331	-26.0614
1041.692	31.06805
1042.053	17.03548
1042.413	20.04275
1042.774	32.07224
1043.134	-20.04417
1043.495	-2.00471
1043.855	6.01368
1044.215	13.03024
1044.576	40.08993
1044.936	61.12945
1045.296	16.03731
1045.656	1.00231
1046.016	17.03781
1046.375	30.06872
1046.735	33.07031
1047.095	-2.00439
1047.454	72.13767
1047.814	-24.05396
1048.173	-8.01756
1048.533	55.11702
1048.892	13.02955
1049.251	16.03781
1049.61	-49.11331
1049.969	54.11897
1050.328	2.00394
1050.687	-3.00685
1051.046	23.05295
1051.405	-20.0464
1051.763	-20.04342
1052.122	51.12046
1052.48	-34.07845
1052.839	8.01764
1053.197	21.04618
1053.555	-29.05939
1053.914	3.00686
1054.272	52.11624
1054.63	-41.09451
1054.988	4.00888
1055.345	28.0545
1055.703	32.07097
1056.061	-19.04659
1056.419	9.02223
1056.776	14.03162
1057.134	1.00215
1057.491	1.00236
1057.848	-1.00233
1058.206	-22.04853
1058.563	32.06579
1058.92	1.00212
1059.277	-21.048
1059.634	-29.06264
1059.991	68.15145
1060.348	-13.02776
1060.704	29.06468
1061.061	8.01685
1061.418	34.07764
1061.774	89.20694
1062.131	58.14823
1062.487	2.00433
1062.843	13.03045
1063.199	46.10778
1063.555	12.02617
1063.911	7.01661
1064.267	32.05893
1064.623	-3.00695
1064.979	-17.03669
1065.335	10.02191
1065.691	27.06104
1066.046	30.05998
1066.402	-42.08962
1066.757	20.04763
1067.112	-46.1058
1067.468	7.01579
1067.823	38.0854
1068.178	34.07729
1068.533	26.05834
1068.888	-24.05332
1069.243	-5.01171
1069.598	-70.15926
1069.952	16.03417
1070.307	22.05215
1070.662	-13.02915
1071.016	55.11468
1071.371	0
1071.725	-22.04806
1072.079	1.00225
1072.434	-8.01827
1072.788	76.16849
1073.142	45.10435
1073.496	-13.02902
1073.85	-3.00648
1074.203	-12.02728
1074.557	36.09145
1074.911	19.04173
1075.265	1.00214
1075.618	38.08698
1075.971	12.0265
1076.325	26.06232
1076.678	14.02979
1077.031	-22.04643
1077.385	46.09372
1077.738	-9.01902
1078.091	9.01939
1078.444	35.07405
1078.796	5.01164
1079.149	6.01384
1079.502	5.01109
1079.855	64.13857
1080.207	-7.0162
1080.56	-22.05412
1080.912	-7.01575
1081.264	22.04946
1081.617	1.0023
1081.969	55.13272
1082.321	38.08673
1082.673	-6.01299
1083.025	-43.09543
1083.377	-276.57099
1083.728	-13.02774
1084.08	13.03079
1084.432	-68.1522
1084.783	46.10092
1085.135	16.0384
1085.486	-28.06078
1085.838	7.01623
1086.189	-27.06191
1086.54	23.05121
1086.891	14.03396
1087.242	-37.08457
1087.593	11.02484
1087.944	1.0021
1088.295	2.00417
1088.646	48.10854
1088.996	-3.00678
1089.347	9.02059
1089.698	13.02907
1090.048	4.00976
1090.398	38.08214
1090.749	40.08934
1091.099	-15.03622
1091.449	-7.01633
1091.799	-12.02835
1092.149	0
1092.499	3.00691
1092.849	7.01686
1093.199	10.02345
1093.548	36.08127
1093.898	31.07305
1094.248	24.05814
1094.597	10.02458
1094.947	10.02534
1095.296	-30.06983
1095.645	13.03186
1095.994	29.0654
1096.343	64.15236
1096.692	37.09311
1097.041	-3.00785
1097.39	5.01178
1097.739	46.1132
1098.088	-14.03539
1098.437	-19.048
1098.785	-34.0875
1099.134	-28.0701
1099.482	-12.03138
1099.83	1.00249
1100.179	35.08779
1100.527	7.01756
1100.875	-39.09895
1101.223	16.04078
1101.571	-3.00801
1101.919	-20.0505
1102.267	-16.04405
1102.615	-3.00965
1102.962	12.03846
1103.31	11.0353
1103.658	-10.03209
