Data from N3 R7 sample 1_Subt2__0__16-59-39-404.txt Node

Date: Fri Sep 19 16:59:39 PDT 2025
User: uwsun
Spectrometer: HDX01956
Trigger mode: 0
Integration Time (sec): 5.000000E-1
Scans to average: 1
Nonlinearity correction enabled: true
Boxcar width: 0
Storing dark spectrum: false
XAxis mode: Wavelengths
Number of Pixels in Spectrum: 2068
>>>>>Begin Spectral Data<<<<<
194.03	45.12982
194.578	54.17455
195.127	43.13732
195.676	40.12766
196.225	102.26497
196.773	60.16607
197.321	98.26954
197.87	144.36399
198.418	164.4172
198.966	185.47734
199.513	160.40082
200.061	134.33472
200.609	106.2765
201.156	82.17534
201.704	121.29946
202.251	111.29107
202.798	157.40186
203.345	189.45519
203.892	140.34629
204.438	165.38501
204.985	162.37779
205.532	169.44555
206.078	138.33331
206.624	164.39775
207.17	183.41203
207.716	129.30539
208.262	164.31236
208.808	135.33104
209.354	150.35791
209.899	117.28956
210.445	165.40565
210.99	141.33521
211.535	158.36193
212.08	154.34851
212.625	146.35782
213.17	149.36848
213.715	175.38384
214.259	176.40106
214.804	159.38091
215.348	172.38163
215.892	214.49807
216.436	190.4284
216.98	152.32376
217.524	141.32617
218.068	148.36433
218.612	118.2892
219.155	125.28801
219.698	131.30219
220.242	141.34216
220.785	187.42345
221.328	188.45475
221.871	171.42009
222.414	78.18897
222.956	136.32227
223.499	117.25706
224.041	121.27065
224.583	184.3781
225.126	165.35794
225.668	129.30716
226.21	96.23746
226.751	76.16146
227.293	94.20831
227.835	147.3476
228.376	158.34867
228.918	172.41997
229.459	172.42106
230	167.38431
230.541	105.23487
231.082	141.33315
231.622	163.36309
232.163	170.4033
232.704	150.36065
233.244	111.26957
233.784	83.19801
234.324	190.40716
234.864	127.27856
235.404	103.23694
235.944	121.27656
236.484	138.33105
237.023	140.32302
237.563	100.22594
238.102	155.35427
238.641	161.3983
239.18	140.32083
239.719	175.4288
240.258	108.23514
240.797	144.33674
241.335	105.2478
241.874	147.2746
242.412	144.33449
242.95	186.43307
243.488	131.29085
244.026	147.32989
244.564	159.31382
245.102	146.31787
245.64	126.29465
246.177	107.23222
246.715	152.34889
247.252	148.32483
247.789	57.09905
248.326	90.21005
248.863	90.19187
249.4	204.44905
249.936	208.40485
250.473	126.28712
251.009	146.32785
251.546	196.41548
252.082	179.38019
252.618	158.34312
253.154	141.32927
253.69	160.34643
254.226	173.39685
254.761	123.26444
255.297	128.27335
255.832	121.27746
256.367	123.28046
256.903	139.29317
257.438	168.37586
257.972	109.23424
258.507	154.34638
259.042	119.24514
259.576	146.30543
260.111	165.36572
260.645	197.40893
261.179	142.31913
261.713	134.28679
262.247	182.40835
262.781	168.34133
263.315	120.28732
263.849	155.37628
264.382	135.29885
264.915	175.39853
265.449	136.32476
265.982	154.33358
266.515	193.45335
267.048	156.32028
267.58	137.284
268.113	211.43838
268.646	170.40998
269.178	180.3869
269.71	144.30192
270.243	173.37962
270.775	158.39081
271.307	125.28824
271.838	162.36826
272.37	122.29433
272.902	219.47832
273.433	167.34851
273.965	220.51949
274.496	141.33676
275.027	184.43786
275.558	160.37518
276.089	178.43284
276.62	132.32554
277.15	142.33934
277.681	89.18508
278.211	179.41932
278.741	166.35681
279.272	183.4024
279.802	187.45191
280.332	158.36149
280.861	165.38395
281.391	119.26168
281.921	138.31815
282.45	244.58975
282.98	208.52462
283.509	171.36985
284.038	141.30575
284.567	155.3427
285.096	184.42977
285.625	193.42724
286.153	175.39434
286.682	167.36552
287.21	165.3838
287.739	114.26093
288.267	178.41869
288.795	173.43986
289.323	195.44516
289.851	192.42973
290.378	218.46777
290.906	182.4291
291.433	165.3995
291.961	154.33501
292.488	191.45914
293.015	231.52478
293.542	221.53547
294.069	180.42752
294.596	208.49401
295.122	241.54927
295.649	229.48575
296.175	175.40369
296.702	142.33089
297.228	183.4213
297.754	171.36922
298.28	168.36701
298.806	184.43011
299.332	191.40585
299.857	176.38123
300.383	201.48519
300.908	206.48643
301.433	197.46419
301.958	175.38222
302.483	274.6605
303.008	200.4719
303.533	190.46943
304.058	240.53649
304.582	202.4603
305.107	227.57448
305.631	165.35993
306.155	214.4835
306.679	200.4515
307.203	217.48418
307.727	204.4688
308.251	228.53838
308.775	193.44095
309.298	199.46416
309.822	237.57251
310.345	238.53882
310.868	247.56294
311.391	252.59019
311.914	228.55025
312.437	187.40636
312.96	225.51053
313.482	269.60862
314.005	247.59373
314.527	268.6752
315.049	241.57931
315.571	285.61455
316.093	277.65749
316.615	245.57009
317.137	204.42166
317.659	215.49516
318.18	288.65995
318.702	269.59572
319.223	236.46022
319.744	282.60169
320.265	259.60243
320.786	213.50929
321.307	299.70969
321.828	284.6141
322.348	299.66987
322.869	241.53505
323.389	254.44902
323.909	280.61012
324.43	338.75739
324.95	336.72529
325.47	322.75204
325.989	386.86421
326.509	323.67136
327.029	293.62529
327.548	297.63548
328.067	316.71945
328.587	355.83316
329.106	319.6796
329.625	329.80218
330.144	297.64125
330.662	325.70981
331.181	342.7531
331.7	328.72106
332.218	389.78763
332.736	349.75803
333.255	368.79878
333.773	379.83858
334.291	348.80636
334.808	362.74487
335.326	378.79495
335.844	440.95381
336.361	413.97226
336.879	365.79413
337.396	354.79095
337.913	412.8695
338.43	442.92257
338.947	450.98671
339.464	396.7829
339.981	432.95124
340.497	472.06898
341.014	395.88745
341.53	447.9357
342.046	446.01163
342.562	447.02477
343.078	420.90969
343.594	438.97132
344.11	501.07738
344.626	490.13586
345.141	492.02643
345.657	467.95161
346.172	494.07619
346.687	541.1196
347.202	555.11221
347.717	493.07287
348.232	540.22523
348.747	544.12104
349.261	593.1715
349.776	516.08755
350.29	552.23779
350.805	540.19298
351.319	582.21077
351.833	570.16313
352.347	501.04778
352.861	527.10858
353.374	568.15274
353.888	572.22583
354.401	601.21955
354.915	582.16775
355.428	604.34622
355.941	588.22382
356.454	629.23461
356.967	609.2808
357.48	612.23427
357.993	631.37251
358.505	584.29408
359.018	638.35982
359.53	665.39751
360.042	607.16276
360.554	670.41143
361.066	568.23296
361.578	694.31469
362.09	701.45126
362.602	642.23438
363.113	615.2338
363.625	730.42275
364.136	689.3017
364.647	656.3383
365.158	707.42976
365.669	745.56444
366.18	640.28787
366.691	747.40046
367.201	731.49252
367.712	706.35896
368.222	752.49346
368.733	748.39372
369.243	714.33157
369.753	778.51071
370.263	725.4729
370.773	801.68953
371.282	800.60294
371.792	792.52259
372.301	833.70256
372.811	846.8697
373.32	824.44318
373.829	905.78063
374.338	979.74369
374.847	925.71952
375.356	952.86402
375.865	1009.68563
376.373	1084.92279
376.882	1086.19511
377.39	1097.09497
377.898	1165.26791
378.407	1175.98337
378.915	1242.9624
379.423	1321.31639
379.93	1360.21295
380.438	1408.52545
380.946	1486.45843
381.453	1452.49913
381.96	1580.5895
382.468	1702.70874
382.975	1884.97999
383.482	1853.59648
383.989	1894.17304
384.495	1957.75548
385.002	2106.44616
385.509	2151.88003
386.015	2364.34394
386.521	2398.74118
387.028	2562.84177
387.534	2600.58975
388.04	2710.04381
388.546	2702.6978
389.051	2912.61945
389.557	3116.8903
390.063	3411.81685
390.568	3452.92067
391.073	3679.50639
391.578	3598.91088
392.084	3770.30563
392.589	4079.08174
393.093	4315.33641
393.598	4667.89682
394.103	4983.99164
394.607	5572.60385
395.112	5941.65275
395.616	6271.39189
396.12	6952.13382
396.624	7606.46414
397.128	8199.08245
397.632	9107.60255
398.136	9948.92814
398.639	10588.18969
399.143	11756.53925
399.646	13296.589
400.15	14655.98155
400.653	16379.00982
401.156	18296.14272
401.659	21334.20622
402.162	26002.15426
402.664	34332.29314
403.167	48872.88955
403.67	59006.38852
404.172	55487.84425
404.674	37291.05854
405.176	4428.40989
405.678	533.47942
406.18	0
406.682	0
407.184	6962.89417
407.686	50953.82939
408.187	59237.6763
408.688	61091.12691
409.19	61835.27436
409.691	49332.1725
410.192	41801.15662
410.693	36108.21257
411.194	32552.06985
411.694	30664.57285
412.195	28863.1968
412.696	26277.77645
413.196	24281.58732
413.696	23641.4178
414.196	23788.38966
414.696	23430.85307
415.196	22476.12877
415.696	20050.27306
416.196	16339.70658
416.695	12614.52929
417.195	10739.82497
417.694	10365.04586
418.194	9699.41383
418.693	9078.54462
419.192	8775.93319
419.691	8612.65154
420.19	8306.2096
420.688	8160.12066
421.187	7750.27212
421.685	7243.26451
422.184	6625.20307
422.682	5659.11285
423.18	4887.82966
423.678	4312.11608
424.176	4000.3079
424.674	3733.19194
425.172	3590.6613
425.669	3364.09442
426.167	3151.73843
426.664	2909.71099
427.161	2586.7279
427.659	2486.11424
428.156	2342.40468
428.652	2153.1485
429.149	2053.90621
429.646	1924.41806
430.143	1945.80997
430.639	1796.65538
431.135	1659.70741
431.632	1607.38444
432.128	1538.53122
432.624	1375.52434
433.12	1357.18658
433.616	1355.04195
434.111	1269.21902
434.607	1233.17379
435.103	1182.75425
435.598	1185.74334
436.093	1114.94356
436.588	1072.82402
437.083	1015.75408
437.578	913.64094
438.073	820.66424
438.568	875.72315
439.062	903.50468
439.557	834.57195
440.051	773.43291
440.546	814.51244
441.04	691.36545
441.534	773.64039
442.028	769.52265
442.522	691.40182
443.015	697.25967
443.509	772.57384
444.002	716.47739
444.496	608.10103
444.989	720.48964
445.482	637.35152
445.975	649.25475
446.468	663.18895
446.961	629.11685
447.454	544.04362
447.947	668.36281
448.439	601.27338
448.931	540.05589
449.424	539.16669
449.916	587.21062
450.408	605.1891
450.9	536.13225
451.392	559.23835
451.884	487.96394
452.375	485.05454
452.867	504.98755
453.358	460.90815
453.849	517.94344
454.341	528.03189
454.832	468.88364
455.323	451.98078
455.814	459.92255
456.304	441.89454
456.795	445.88699
457.285	390.76344
457.776	422.83195
458.266	469.9926
458.756	440.92532
459.247	396.8405
459.737	480.01863
460.226	451.89352
460.716	369.79907
461.206	400.84788
461.695	420.94805
462.185	416.88063
462.674	388.7865
463.163	380.74246
463.653	397.74056
464.142	393.84377
464.63	383.84
465.119	397.82994
465.608	328.68069
466.096	394.76434
466.585	330.6775
467.073	298.64355
467.561	336.7464
468.05	332.68991
468.538	391.87522
469.026	361.78609
469.513	288.55095
470.001	295.60824
470.489	320.68809
470.976	275.58128
471.463	342.78304
471.951	318.72664
472.438	325.69629
472.925	214.46037
473.412	257.57602
473.899	320.67002
474.385	280.63234
474.872	228.49091
475.359	270.60802
475.845	202.38718
476.331	271.53036
476.817	230.51435
477.303	208.4492
477.789	209.46845
478.275	240.55527
478.761	218.4861
479.247	219.45053
479.732	205.48248
480.218	205.50063
480.703	258.60259
481.188	225.4418
481.673	198.42467
482.158	174.34997
482.643	158.37945
483.128	162.34521
483.612	169.36881
484.097	183.41928
484.581	138.29739
485.066	186.42144
485.55	158.32219
486.034	213.43266
486.518	188.41487
487.002	132.30735
487.486	124.28827
487.969	173.40416
488.453	158.37888
488.936	131.27788
489.42	179.37107
489.903	135.32329
490.386	186.37324
490.869	152.30459
491.352	148.33957
491.835	123.23615
492.318	192.40789
492.8	126.24279
493.283	146.35556
493.765	134.3152
494.247	133.29074
494.73	118.24697
495.212	159.36034
495.694	146.32273
496.175	102.23187
496.657	194.43707
497.139	57.08985
497.62	103.23542
498.102	99.23663
498.583	89.21086
499.064	135.28924
499.545	114.24673
500.026	48.10349
500.507	63.13883
500.988	77.18187
501.469	50.12022
501.949	74.17373
502.43	85.19303
502.91	63.12411
503.39	100.23889
503.87	131.29363
504.35	57.12766
504.83	83.17398
505.31	99.23074
505.79	77.17699
506.269	47.10504
506.749	89.19381
507.228	67.15129
507.707	90.19003
508.187	49.11173
508.666	62.1459
509.145	37.08358
509.623	57.1286
510.102	56.13019
510.581	98.2235
511.059	63.15409
511.538	81.20076
512.016	69.15974
512.494	89.20498
512.972	81.18656
513.45	47.10673
513.928	71.16613
514.406	112.26407
514.884	84.21097
515.361	95.22037
515.839	83.18036
516.316	25.05795
516.793	52.12683
517.27	29.06857
517.747	61.15174
518.224	64.14153
518.701	79.16919
519.178	119.2878
519.654	14.03162
520.131	9.02147
520.607	33.07933
521.083	63.13947
521.56	26.0593
522.036	63.13346
522.512	51.12139
522.987	76.17598
523.463	24.05571
523.939	73.17215
524.414	46.10164
524.89	41.09337
525.365	108.23584
525.84	68.16033
526.315	6.01399
526.79	56.12058
527.265	32.0697
527.74	65.15245
528.215	69.1572
528.689	70.15124
529.164	21.04322
529.638	67.16685
530.112	83.1907
530.587	109.22464
531.061	54.12673
531.534	28.06538
532.008	48.11234
532.482	19.04139
532.956	59.1481
533.429	-36.08339
533.903	45.095
534.376	27.0576
534.849	46.10359
535.322	35.0801
535.795	80.18796
536.268	76.17724
536.741	41.09522
537.213	92.20439
537.686	-32.07612
538.158	58.12569
538.631	27.0632
539.103	21.04573
539.575	65.12938
540.047	30.06365
540.519	6.01384
540.991	42.09853
541.463	51.12008
541.934	80.17632
542.406	68.15683
542.877	47.10218
543.348	-46.1066
543.82	79.18572
544.291	45.0997
544.762	54.1235
545.233	107.26044
545.703	83.17698
546.174	135.29998
546.645	97.22724
547.115	107.24771
547.585	126.2798
548.056	136.31928
548.526	98.22196
548.996	110.25289
549.466	73.17048
549.935	116.26754
550.405	126.26605
550.875	54.12325
551.344	124.2869
551.814	83.18006
552.283	122.24979
552.752	119.26387
553.221	70.14644
553.69	112.23866
554.159	122.292
554.628	102.21802
555.096	104.25318
555.565	82.17497
556.033	109.24401
556.502	137.31477
556.97	116.24332
557.438	149.33493
557.906	128.28885
558.374	66.14565
558.842	138.31447
559.31	107.22647
559.777	107.24939
560.245	82.1824
560.712	100.21707
561.18	81.17092
561.647	127.26798
562.114	98.21391
562.581	179.41866
563.048	120.25916
563.514	97.22999
563.981	138.29777
564.448	103.22154
564.914	129.28414
565.381	130.27606
565.847	133.29406
566.313	123.27115
566.779	156.33604
567.245	157.34799
567.711	151.3461
568.176	181.39332
568.642	191.45652
569.108	169.39419
569.573	134.29534
570.038	152.3036
570.504	201.42841
570.969	146.3473
571.434	217.44903
571.899	195.43959
572.363	181.38679
572.828	205.43465
573.293	226.48451
573.757	219.47386
574.222	240.50563
574.686	166.35481
575.15	199.44769
575.614	184.39635
576.078	223.4885
576.542	194.41753
577.006	197.42098
577.469	155.36097
577.933	156.32794
578.396	208.47052
578.86	185.40766
579.323	191.42934
579.786	190.38233
580.249	198.4254
580.712	193.44077
581.175	154.36168
581.637	162.3566
582.1	154.31646
582.563	134.2633
583.025	157.36173
583.487	167.31382
583.95	118.24248
584.412	159.31073
584.874	173.39573
585.336	133.3013
585.797	192.38635
586.259	99.21889
586.721	131.29326
587.182	163.35285
587.643	132.28373
588.105	175.39225
588.566	204.39895
589.027	194.44546
589.488	122.26291
589.949	220.49199
590.41	181.33343
590.87	159.33403
591.331	131.26208
591.791	111.24059
592.252	135.29311
592.712	176.39733
593.172	222.46401
593.632	137.27409
594.092	198.41073
594.552	122.24606
595.011	239.51338
595.471	184.38425
595.931	210.43348
596.39	207.4653
596.849	208.44997
597.308	227.45162
597.768	222.52929
598.227	206.46448
598.685	235.48911
599.144	270.57959
599.603	312.67349
600.062	222.42613
600.52	306.62284
600.978	288.63207
601.437	334.68757
601.895	295.56612
602.353	320.63234
602.811	302.60686
603.269	385.82232
603.727	403.86449
604.184	424.8469
604.642	453.98052
605.099	431.88065
605.557	488.02933
606.014	508.93851
606.471	489.0925
606.928	596.13092
607.385	559.20644
607.842	576.14611
608.299	591.17192
608.755	607.24856
609.212	657.22962
609.668	606.14658
610.125	671.3519
610.581	681.31547
611.037	740.37129
611.493	655.28694
611.949	707.42388
612.405	787.26134
612.861	749.4132
613.316	762.51264
613.772	822.51976
614.227	805.54502
614.683	804.36828
615.138	858.63782
615.593	751.41282
616.048	791.43358
616.503	821.63939
616.958	859.74942
617.412	852.61692
617.867	829.48583
618.321	817.28361
618.776	833.45555
619.23	802.5448
619.684	844.48992
620.138	854.53114
620.592	793.56292
621.046	809.51841
621.5	799.5755
621.954	794.41749
622.407	801.41567
622.861	687.36832
623.314	753.393
623.768	739.41611
624.221	801.23878
624.674	708.32167
625.127	748.43097
625.58	752.34511
626.033	780.34591
626.485	698.38156
626.938	713.38792
627.39	687.32328
627.843	689.29979
628.295	698.33129
628.747	737.43744
629.199	738.38254
629.651	660.24895
630.103	674.28855
630.555	681.15565
631.006	651.27125
631.458	648.25252
631.909	701.30373
632.361	656.25408
632.812	684.31212
633.263	695.19666
633.714	728.22329
634.165	659.30273
634.616	695.35475
635.067	707.24528
635.518	721.38356
635.968	777.20083
636.419	752.28025
636.869	789.4968
637.319	788.46114
637.769	817.45902
638.219	772.46272
638.669	858.64098
639.119	841.63594
639.569	949.81488
640.019	927.65
640.468	858.46751
640.918	963.79207
641.367	1002.70361
641.816	1134.8556
642.265	1041.81534
642.714	1143.96353
643.163	1088.82158
643.612	1151.09602
644.061	1164.72527
644.51	1215.00368
644.958	1314.99176
645.406	1267.2028
645.855	1345.33541
646.303	1286.11156
646.751	1418.21728
647.199	1342.05769
647.647	1413.26346
648.095	1391.16908
648.543	1375.79656
648.99	1463.41284
649.438	1577.44075
649.885	1517.60411
650.333	1519.73819
650.78	1602.63451
651.227	1573.59566
651.674	1504.2856
652.121	1556.4952
652.568	1596.5872
653.015	1538.59652
653.461	1584.49357
653.908	1594.4125
654.354	1549.41641
654.801	1579.45236
655.247	1605.20113
655.693	1601.87984
656.139	1577.50438
656.585	1596.54415
657.031	1610.49021
657.477	1560.1749
657.922	1558.38804
658.368	1528.55327
658.813	1608.33381
659.259	1624.58338
659.704	1630.49235
660.149	1613.44374
660.594	1614.52246
661.039	1622.39904
661.484	1604.52824
661.929	1588.42316
662.373	1624.825
662.818	1586.69677
663.262	1634.57307
663.707	1631.76866
664.151	1642.70233
664.595	1623.59853
665.039	1706.75954
665.483	1742.9609
665.927	1671.50292
666.371	1685.52566
666.814	1779.65905
667.258	1695.62848
667.701	1785.21059
668.145	1839.86776
668.588	1812.83239
669.031	1855.71202
669.474	1879.77093
669.917	1901.41048
670.36	1912.90756
670.803	1961.81801
671.245	1968.24689
671.688	1970.86844
672.13	1877.4637
672.573	2059.17701
673.015	1989.81369
673.457	2053.47717
673.899	2117.9122
674.341	2072.8948
674.783	2126.93692
675.225	2098.00293
675.666	2121.94552
676.108	2186.49146
676.549	2224.84779
676.991	2240.52205
677.432	2189.05964
677.873	2242.74545
678.314	2181.88748
678.755	2264.06976
679.196	2305.77987
679.637	2300.00931
680.078	2369.83651
680.518	2275.70949
680.959	2335.96427
681.399	2298.10145
681.839	2380.0629
682.28	2413.20295
682.72	2417.73282
683.16	2425.24025
683.6	2540.74053
684.039	2477.28402
684.479	2443.15453
684.919	2513.88726
685.358	2569.33302
685.798	2550.53287
686.237	2698.06945
686.676	2665.83155
687.115	2699.92769
687.554	2746.9881
687.993	2748.50522
688.432	2808.83581
688.871	2794.73539
689.309	2907.20002
689.748	2795.29521
690.186	2942.94906
690.625	2936.02941
691.063	3028.12412
691.501	3035.26242
691.939	3053.31807
692.377	3044.18128
692.815	3155.10805
693.253	3164.96046
693.69	3152.48951
694.128	3189.18834
694.565	3181.01213
695.003	3285.44158
695.44	3238.85924
695.877	3341.90493
696.314	3351.28259
696.751	3328.6126
697.188	3387.74767
697.625	3487.57305
698.061	3474.97677
698.498	3581.96716
698.934	3453.92297
699.371	3513.87326
699.807	3569.85204
700.243	3666.01645
700.679	3596.52452
701.115	3713.67368
701.551	3750.77899
701.987	3775.32146
702.422	3699.79384
702.858	3766.74285
703.294	3874.34833
703.729	3932.98113
704.164	4014.8351
704.599	4004.18127
705.035	3948.3284
705.47	4057.94252
705.904	4012.50143
706.339	4120.34366
706.774	4229.41012
707.209	4139.37469
707.643	4260.62936
708.078	4366.64789
708.512	4409.04211
708.946	4454.44303
709.38	4451.35981
709.814	4512.06444
710.248	4500.49764
710.682	4685.39131
711.116	4674.44663
711.549	4640.94856
711.983	4701.03176
712.416	4788.09951
712.85	4936.60461
713.283	4924.13264
713.716	4945.52788
714.149	5002.03496
714.582	5045.70683
715.015	5126.38697
715.448	5165.36218
715.881	5104.33352
716.313	5255.92947
716.746	5291.94401
717.178	5374.97085
717.61	5421.41172
718.043	5471.14404
718.475	5551.92634
718.907	5661.10644
719.339	5598.48373
719.77	5721.84085
720.202	5727.19335
720.634	5931.89801
721.065	5889.62723
721.497	5973.88412
721.928	6024.91418
722.359	6107.82677
722.79	6144.63682
723.221	6250.87256
723.652	6246.05779
724.083	6365.17541
724.514	6375.18097
724.945	6475.44336
725.375	6435.39638
725.806	6528.68063
726.236	6667.96377
726.666	6641.39854
727.096	6862.62259
727.526	6956.93825
727.956	7131.2974
728.386	7021.59337
728.816	7132.92327
729.246	7201.71693
729.675	7217.80449
730.105	7301.7145
730.534	7478.56782
730.964	7323.83301
731.393	7596.8021
731.822	7709.15143
732.251	7745.14699
732.68	7832.72579
733.109	7921.09539
733.537	8024.07731
733.966	8040.18889
734.395	8154.04429
734.823	8305.17463
735.251	8304.36819
735.68	8481.67546
736.108	8531.77383
736.536	8413.43494
736.964	8567.61474
737.392	8649.89115
737.82	8842.11369
738.247	8891.19195
738.675	9040.46695
739.102	8972.44267
739.53	9079.66163
739.957	9139.75909
740.384	9216.84731
740.811	9342.14841
741.238	9402.25284
741.665	9485.46
742.092	9394.23865
742.519	9506.49795
742.945	9491.46651
743.372	9662.87587
743.798	9662.87171
744.225	9747.14255
744.651	9711.99941
745.077	9830.31248
745.503	9812.29766
745.929	9916.61812
746.355	9820.31191
746.781	9879.45703
747.207	9964.76276
747.632	9884.47659
748.058	9960.69045
748.483	10021.05402
748.908	10089.06054
749.334	10174.35218
749.759	10041.03399
750.184	10081.12694
750.609	10176.37335
751.033	10013.98961
751.458	10310.06479
751.883	10156.29242
752.307	10215.55044
752.732	10081.00015
753.156	10094.08966
753.58	10024.97338
754.005	10133.14271
754.429	9842.45986
754.853	9936.60916
755.277	9862.46216
755.7	9865.41788
756.124	9856.37455
756.548	9778.21916
756.971	9781.20752
757.394	9699.96205
757.818	9764.1207
758.241	9678.91203
758.664	9682.92018
759.087	9536.62082
759.51	9604.73179
759.933	9575.66836
760.356	9388.24844
760.778	9382.2183
761.201	9096.58778
761.623	9019.43351
762.046	8957.28972
762.468	8920.25092
762.89	8887.24206
763.312	8860.16404
763.734	8859.16292
764.156	8644.87927
764.578	8394.32436
765	8505.6417
765.421	8327.65573
765.843	8199.61409
766.264	8029.03544
766.686	7999.25651
767.107	7830.9887
767.528	7824.20527
767.949	7700.08087
768.37	7577.80469
768.791	7510.6858
769.212	7382.99322
769.632	7288.43988
770.053	7187.18477
770.473	7079.62834
770.894	6982.68463
771.314	6781.37883
771.734	6540.2878
772.154	6680.98797
772.575	6536.26772
772.994	6472.21161
773.414	6428.37362
773.834	6365.89118
774.254	6179.68379
774.673	5940.7199
775.093	5910.97632
775.512	5885.95316
775.931	5706.29731
776.351	5564.03935
776.77	5508.04744
777.189	5374.78399
777.607	5317.50445
778.026	5202.37998
778.445	5109.54251
778.864	5017.61267
779.282	4796.17965
779.701	4814.63795
780.119	4635.70275
780.537	4552.67496
780.955	4515.82484
781.373	4400.68167
781.791	4358.06088
782.209	4275.25335
782.627	4133.43978
783.045	4021.34285
783.462	3875.15434
783.88	3858.38839
784.297	3789.1257
784.715	3637.48178
785.132	3570.89391
785.549	3533.26609
785.966	3371.20721
786.383	3383.12892
786.8	3296.70346
787.217	3115.8517
787.633	3014.256
788.05	3025.70233
788.466	3042.77506
788.883	2866.45657
789.299	2812.92854
789.715	2746.09837
790.131	2714.15169
790.547	2492.05265
790.963	2520.14602
791.379	2457.25725
791.795	2362.6212
792.21	2335.73305
792.626	2316.81819
793.041	2189.95511
793.457	2203.97456
793.872	2174.74811
794.287	2103.91808
794.702	1972.83326
795.117	1846.79099
795.532	1903.97399
795.947	1846.61811
796.362	1764.53092
796.776	1712.32863
797.191	1718.63314
797.605	1664.53752
798.02	1623.59125
798.434	1443.04096
798.848	1471.43144
799.262	1485.56636
799.676	1389.29501
800.09	1349.30069
800.504	1353.27071
800.918	1344.10307
801.331	1242.37773
801.745	1192.91962
802.158	1208.19742
802.572	1180.05358
802.985	1103.92783
803.398	1106.93461
803.811	1042.03324
804.224	1014.91374
804.637	978.72621
805.05	959.67019
805.462	934.76508
805.875	938.97566
806.288	872.67423
806.7	848.69767
807.112	812.4706
807.525	846.66479
807.937	743.49648
808.349	769.55104
808.761	706.3909
809.173	636.25455
809.584	664.34237
809.996	667.35676
810.408	642.40562
810.819	626.2157
811.231	679.51698
811.642	662.36461
812.053	670.33472
812.464	599.19777
812.875	580.26492
813.286	540.18701
813.697	543.02239
814.108	482.99579
814.519	492.90621
814.929	490.06339
815.34	471.97764
815.75	462.02039
816.16	400.85491
816.571	449.02236
816.981	368.74323
817.391	388.81382
817.801	445.97801
818.211	422.8738
818.62	394.82422
819.03	344.73428
819.44	323.75423
819.849	336.75848
820.259	342.78461
820.668	377.82894
821.077	302.67506
821.486	274.58056
821.895	278.60139
822.304	272.6584
822.713	332.68684
823.122	309.69541
823.531	259.55322
823.939	282.61708
824.348	287.62603
824.756	234.52912
825.164	215.48824
825.573	247.56249
825.981	268.59858
826.389	190.42998
826.797	207.47483
827.205	182.37788
827.612	187.41759
828.02	237.50623
828.428	178.41526
828.835	162.39806
829.243	194.41699
829.65	158.36382
830.057	197.44101
830.464	208.46726
830.871	150.327
831.278	133.29283
831.685	150.29808
832.092	201.45089
832.499	171.33339
832.905	200.46604
833.312	179.36459
833.718	165.37531
834.124	174.36078
834.531	107.24939
834.937	72.17174
835.343	151.33455
835.749	149.31302
836.155	128.31184
836.561	45.10178
836.966	106.23911
837.372	107.25262
837.777	83.19177
838.183	38.07604
838.588	116.26924
838.993	129.28521
839.399	73.16578
839.804	151.34332
840.209	136.32513
840.613	129.26443
841.018	115.26729
841.423	70.16665
841.828	71.16821
842.232	92.20744
842.637	72.15463
843.041	97.23742
843.445	41.09582
843.849	55.12784
844.253	60.13119
844.657	79.18847
845.061	102.21272
845.465	129.29473
845.869	81.17272
846.272	60.13673
846.676	94.21161
847.079	60.14509
847.483	78.18097
847.886	24.05374
848.289	93.23847
848.692	35.08344
849.095	70.15422
849.498	36.08392
849.901	27.05702
850.304	63.13871
850.707	66.15742
851.109	44.10237
851.512	59.13708
851.914	38.09265
852.316	13.03132
852.718	50.12395
853.121	62.14225
853.523	31.06745
853.925	46.11403
854.326	60.143
854.728	19.04642
855.13	18.04459
855.531	123.27615
855.933	22.04934
856.334	67.15769
856.736	15.03103
857.137	60.12958
857.538	7.01672
857.939	54.12633
858.34	71.15973
858.741	64.15755
859.142	87.19444
859.542	84.214
859.943	73.17135
860.343	36.08472
860.744	67.15326
861.144	65.14791
861.544	76.17326
861.945	18.04313
862.345	4.00905
862.745	66.15355
863.145	6.01316
863.544	55.13252
863.944	2.00442
864.344	28.06442
864.743	57.13238
865.143	18.04387
865.542	-15.03261
865.941	70.16376
866.34	81.18014
866.74	16.04099
867.139	77.1728
867.537	68.16126
867.936	44.09958
868.335	55.13292
868.734	74.17981
869.132	50.109
869.531	51.11474
869.929	45.09654
870.327	42.09416
870.726	57.13238
871.124	43.09245
871.522	-25.06014
871.92	51.11746
872.318	53.12158
872.715	54.1243
873.113	31.0712
873.511	31.07296
873.908	34.08336
874.306	13.03073
874.703	39.09154
875.1	15.03605
875.497	27.06022
875.894	19.04484
876.291	42.09756
876.688	-1.00245
877.085	19.0425
877.482	-13.03062
877.878	39.08828
878.275	6.0144
878.671	31.06173
879.068	15.03393
879.464	52.11778
879.86	33.07418
880.256	31.07074
880.652	26.06242
881.048	15.03453
881.444	8.01758
881.84	-15.03609
882.236	40.0949
882.631	75.17191
883.027	-26.05855
883.422	27.06518
883.817	42.10091
884.213	36.08754
884.608	13.03049
885.003	15.03417
885.398	16.03787
885.793	-12.02846
886.188	17.04053
886.582	5.0119
886.977	-8.01783
887.371	40.09508
887.766	27.06404
888.16	22.05187
888.554	21.04819
888.949	-9.02108
889.343	-1.00227
889.737	-2.0052
890.131	57.13494
890.525	16.03862
890.918	45.10764
891.312	-11.02428
891.706	58.14515
892.099	24.05742
892.492	70.138
892.886	-16.03681
893.279	-6.01456
893.672	-16.03901
894.065	8.01885
894.458	17.04029
894.851	12.02717
895.244	2.00487
895.637	44.09933
896.029	30.06886
896.422	-8.01837
896.814	5.01179
897.206	26.05887
897.599	-27.06179
897.991	49.11119
898.383	3.00662
898.775	21.04388
899.167	28.06184
899.559	6.01429
899.951	-18.03986
900.342	-29.06895
900.734	26.06244
901.125	-19.04716
901.517	-7.01637
901.908	35.07742
902.299	-12.02795
902.69	48.10562
903.082	22.04993
903.473	8.01827
903.863	71.17204
904.254	32.06878
904.645	-24.05577
905.036	87.19917
905.426	-3.0062
905.817	-3.00695
906.207	-28.06365
906.597	30.06584
906.987	5.01212
907.378	-5.01192
907.768	29.07321
908.158	-3.00693
908.547	11.02713
908.937	-14.03403
909.327	6.01364
909.717	24.05683
910.106	14.03161
910.495	64.15037
910.885	-28.0663
911.274	33.07809
911.663	62.14907
912.052	17.03906
912.441	63.15202
912.83	-3.00641
913.219	-25.06174
913.608	1.00231
913.997	-1.00238
914.385	-13.02886
914.774	16.03642
915.162	-14.0313
915.55	17.03862
915.939	15.03603
916.327	5.01178
916.715	12.02931
917.103	76.17207
917.491	10.02293
917.878	8.01817
918.266	0
918.654	73.17722
919.041	-11.02748
919.429	25.05548
919.816	50.11826
920.203	-12.02756
920.591	15.03474
920.978	28.06406
921.365	-2.00498
921.752	61.13588
922.139	87.17333
922.525	22.04953
922.912	35.07952
923.299	34.07995
923.685	28.06931
924.072	13.02754
924.458	57.13222
924.844	49.1134
925.231	-10.02168
925.617	55.13407
926.003	37.08912
926.389	28.06737
926.774	52.12446
927.16	38.08799
927.546	16.03891
927.931	43.10058
928.317	0
928.702	30.06548
929.088	-15.03365
929.473	41.09845
929.858	50.1155
930.243	41.09269
930.628	1.00228
931.013	90.21047
931.398	60.12569
931.783	31.07728
932.167	-10.02295
932.552	-15.0351
932.937	-10.02305
933.321	-8.01895
933.705	23.05544
934.09	-12.02827
934.474	60.1318
934.858	-5.01242
935.242	24.05283
935.626	-2.00484
936.009	-12.03052
936.393	74.17813
936.777	7.01718
937.16	-60.14809
937.544	-11.02422
937.927	29.06977
938.311	66.14827
938.694	21.0527
939.077	-11.02461
939.46	70.16048
939.843	25.04679
940.226	-16.03885
940.609	-15.03211
940.991	-1.00242
941.374	-15.03446
941.757	15.03471
942.139	-11.02285
942.522	7.01524
942.904	99.22026
943.286	-1.00238
943.668	-8.01972
944.05	32.07389
944.432	4.00937
944.814	2.00459
945.196	33.07661
945.578	-21.0479
945.959	28.06135
946.341	23.05174
946.722	59.12887
947.104	-23.0514
947.485	35.07544
947.866	16.0385
948.247	-2.00479
948.628	35.07916
949.009	25.06081
949.39	-35.08106
949.771	46.09815
950.152	35.08106
950.532	60.14289
950.913	-24.05401
951.293	29.07543
951.674	15.03373
952.054	-6.01414
952.434	-20.04664
952.814	-52.11509
953.194	91.22365
953.574	0
953.954	15.03337
954.334	43.10117
954.714	15.03453
955.093	-13.02975
955.473	-19.04474
955.853	49.12016
956.232	30.07842
956.611	-25.05537
956.99	71.16763
957.37	-1.00242
957.749	20.0441
958.128	25.06014
958.506	8.01993
958.885	-24.05731
959.264	14.03238
959.643	58.12198
960.021	1.00235
960.4	90.18987
960.778	8.01815
961.156	-6.01425
961.535	-5.01062
961.913	-5.0107
962.291	53.12992
962.669	-11.02658
963.047	-34.08166
963.424	19.04609
963.802	3.00687
964.18	53.12455
964.557	32.06706
964.935	5.01104
965.312	26.06464
965.69	33.07707
966.067	15.03398
966.444	17.03933
966.821	-5.01217
967.198	-15.03372
967.575	-13.02982
967.952	62.13522
968.329	-8.01827
968.705	23.04446
969.082	47.11444
969.458	42.09552
969.835	40.09071
970.211	1.00244
970.587	57.13259
970.963	24.05799
971.339	12.03008
971.715	-28.06522
972.091	-6.0139
972.467	8.01845
972.843	27.06305
973.219	-12.02664
973.594	9.02243
973.97	25.05463
974.345	59.13094
974.721	37.08297
975.096	-38.08621
975.471	80.17573
975.846	114.25379
976.221	24.05766
976.596	-1.00226
976.971	87.19925
977.346	15.03201
977.72	-14.03382
978.095	18.04421
978.469	22.0492
978.844	44.10334
979.218	39.08821
979.593	58.12923
979.967	58.13249
980.341	32.06778
980.715	10.02364
981.089	-13.03047
981.463	51.10974
981.837	35.08087
982.21	50.10641
982.584	12.02702
982.957	62.14613
983.331	6.01328
983.704	26.06047
984.078	-11.02546
984.451	13.02967
984.824	30.06916
985.197	18.04082
985.57	-10.02349
985.943	-3.00682
986.316	66.15046
986.688	-8.01805
987.061	-7.01519
987.434	48.11825
987.806	15.03387
988.179	9.01972
988.551	26.06156
988.923	-19.04411
989.295	47.10946
989.667	40.0913
990.039	32.07466
990.411	59.12668
990.783	30.06365
991.155	8.01839
991.527	-20.04541
991.898	-6.01404
992.27	16.03736
992.641	1.00235
993.012	115.24937
993.384	-13.02921
993.755	15.03594
994.126	14.03165
994.497	12.02768
994.868	49.10444
995.239	36.08207
995.61	-7.01663
995.98	39.08961
996.351	8.01886
996.722	3.00657
997.092	50.11145
997.462	-16.03566
997.833	33.07238
998.203	31.06969
998.573	25.05909
998.943	-5.01085
999.313	18.04067
999.683	12.02669
1000.053	33.07083
1000.423	23.05236
1000.792	20.0492
1001.162	34.07898
1001.531	66.15258
1001.901	8.01869
1002.27	58.11988
1002.639	22.05334
1003.009	80.17854
1003.378	3.00729
1003.747	30.06568
1004.116	-6.01361
1004.485	40.08971
1004.853	57.13536
1005.222	45.10777
1005.591	30.06571
1005.959	6.0128
1006.328	35.07249
1006.696	37.08409
1007.064	0
1007.433	51.11999
1007.801	15.03426
1008.169	-19.04517
1008.537	73.14835
1008.905	-7.01538
1009.273	8.01858
1009.64	22.04946
1010.008	-28.06277
1010.375	68.15264
1010.743	33.06872
1011.11	29.06425
1011.478	6.01395
1011.845	2.00432
1012.212	-17.03557
1012.579	46.10588
1012.946	-21.04622
1013.313	69.15109
1013.68	30.06173
1014.047	30.06792
1014.414	39.0867
1014.78	46.10825
1015.147	16.03562
1015.513	68.15471
1015.88	-20.04785
1016.246	53.12241
1016.612	22.04617
1016.978	12.02751
1017.344	80.18605
1017.71	24.05345
1018.076	43.09372
1018.442	1.00243
1018.808	24.05654
1019.174	-15.03544
1019.539	15.031
1019.905	39.08623
1020.27	5.01177
1020.636	40.08901
1021.001	-16.03578
1021.366	77.17486
1021.731	13.03181
1022.096	17.04094
1022.461	-5.01095
1022.826	41.09084
1023.191	17.0424
1023.556	3.00647
1023.92	1.00228
1024.285	17.0387
1024.649	43.09848
1025.014	-7.01634
1025.378	64.15224
1025.742	9.02103
1026.107	12.02484
1026.471	17.03603
1026.835	-38.08845
1027.199	4.00912
1027.562	30.06526
1027.926	13.0297
1028.29	30.07175
1028.654	-12.02552
1029.017	14.03247
1029.381	43.09622
1029.744	29.0703
1030.107	-29.06329
1030.471	-11.02466
1030.834	-26.0543
1031.197	22.04863
1031.56	71.15665
1031.923	41.09976
1032.286	38.0821
1032.648	41.09042
1033.011	11.02361
1033.374	-11.02383
1033.736	19.04738
1034.099	32.07345
1034.461	33.0793
1034.823	-15.03518
1035.185	16.03731
1035.548	38.0861
1035.91	61.13673
1036.272	60.1258
1036.634	3.0068
1036.995	41.0905
1037.357	-17.0392
1037.719	20.04548
1038.08	-19.04155
1038.442	97.2167
1038.803	9.02007
1039.165	-1.00239
1039.526	30.06781
1039.887	19.04287
1040.248	37.08749
1040.609	20.04627
1040.97	5.01147
1041.331	-63.14984
1041.692	10.02205
1042.053	4.00837
1042.413	-26.05613
1042.774	7.01588
1043.134	12.02633
1043.495	27.06325
1043.855	35.07935
1044.215	2.00466
1044.576	35.07877
1044.936	35.0747
1045.296	27.06283
1045.656	21.04827
1046.016	6.01337
1046.375	34.07782
1046.735	52.11033
1047.095	46.09998
1047.454	32.06178
1047.814	-13.02916
1048.173	1.00219
1048.533	23.04928
1048.892	-22.05036
1049.251	62.14522
1049.61	29.06602
1049.969	80.17529
1050.328	9.01771
1050.687	5.0114
1051.046	47.10769
1051.405	-38.08848
1051.763	28.06016
1052.122	11.02618
1052.48	13.02971
1052.839	22.04837
1053.197	42.09195
1053.555	-8.01631
1053.914	40.09082
1054.272	22.04948
1054.63	-21.04821
1054.988	-4.00889
1055.345	-29.05721
1055.703	8.01783
1056.061	-37.09103
1056.419	-16.03969
1056.776	-2.00453
1057.134	32.06846
1057.491	13.03055
1057.848	-7.01633
1058.206	33.07196
1058.563	69.14067
1058.92	23.04855
1059.277	-20.0457
1059.634	-18.03879
1059.991	81.17991
1060.348	45.09487
1060.704	15.03355
1061.061	4.00843
1061.418	31.07083
1061.774	91.21151
1062.131	71.18104
1062.487	-15.03261
1062.843	14.03279
1063.199	58.13558
1063.555	16.03487
1063.911	0
1064.267	45.0826
1064.623	42.09644
1064.979	-11.02371
1065.335	37.08061
1065.691	40.09019
1066.046	16.03209
1066.402	-8.01694
1066.757	33.0784
1067.112	-35.08032
1067.468	-1.00226
1067.823	58.12982
1068.178	62.14014
1068.533	-35.07952
1068.888	22.04841
1069.243	8.01869
1069.598	-20.04504
1069.952	8.01711
1070.307	35.08276
1070.662	-11.02466
1071.016	62.12907
1071.371	-14.0296
1071.725	-22.04806
1072.079	19.04261
1072.434	13.02957
1072.788	71.15757
1073.142	97.2226
1073.496	-3.00668
1073.85	20.04299
1074.203	4.00906
1074.557	6.01532
1074.911	8.01761
1075.265	35.07431
1075.618	70.15919
1075.971	18.03971
1076.325	2.00482
1076.678	21.04462
1077.031	14.02931
1077.385	108.21692
1077.738	16.03362
1078.091	1.00216
1078.444	37.07825
1078.796	32.0741
1079.149	21.04831
1079.502	15.03321
1079.855	45.09783
1080.207	38.08715
1080.56	-51.12613
1080.912	-41.09292
1081.264	34.07626
1081.617	-4.00921
1081.969	72.17318
1082.321	22.05038
1082.673	65.1386
1083.025	17.03726
1083.377	-296.61511
1083.728	3.00638
1084.08	37.08722
1084.432	-63.14086
1084.783	77.16782
1085.135	52.12394
1085.486	-23.04987
1085.838	6.01391
1086.189	27.06124
1086.54	43.09535
1086.891	26.06292
1087.242	2.00454
1087.593	-5.01133
1087.944	52.10777
1088.295	17.03532
1088.646	28.06357
1088.996	-9.02036
1089.347	0
1089.698	-16.03599
1090.048	-23.05642
1090.398	66.1418
1090.749	55.12247
1091.099	38.09085
1091.449	5.01164
1091.799	38.0889
1092.149	49.11448
1092.499	0
1092.849	6.01445
1093.199	3.00704
1093.548	43.09694
1093.898	16.03781
1094.248	16.03882
1094.597	7.01722
1094.947	-14.03563
1095.296	-12.02783
1095.645	-1.00246
1095.994	17.03843
1096.343	53.12644
1096.692	35.08811
1097.041	-15.03931
1097.39	-4.00944
1097.739	16.03959
1098.088	-18.04553
1098.437	24.06017
1098.785	-39.10046
1099.134	-30.07513
1099.482	-13.034
1099.83	-11.02741
1100.179	39.09776
1100.527	7.01756
1100.875	-18.0455
1101.223	1.00256
1101.571	-12.03207
1101.919	-58.14745
1102.267	13.03563
1102.615	7.02249
1102.962	2.00642
1103.31	13.0417
1103.658	-1.00321
