Data from N3 R7 sample 2_Subt2__0__16-59-56-892.txt Node

Date: Fri Sep 19 16:59:56 PDT 2025
User: uwsun
Spectrometer: HDX01956
Trigger mode: 0
Integration Time (sec): 5.000000E-1
Scans to average: 1
Nonlinearity correction enabled: true
Boxcar width: 0
Storing dark spectrum: false
XAxis mode: Wavelengths
Number of Pixels in Spectrum: 2068
>>>>>Begin Spectral Data<<<<<
194.03	66.18982
194.578	59.19061
195.127	64.20387
195.676	57.18155
196.225	95.24708
196.773	121.33169
197.321	153.41713
197.87	142.35906
198.418	211.53228
198.966	196.50475
199.513	217.538
200.061	140.34933
200.609	177.45606
201.156	154.32417
201.704	167.40981
202.251	180.46645
202.798	223.56416
203.345	172.41558
203.892	160.3943
204.438	171.39854
204.985	174.40482
205.532	241.62762
206.078	184.44055
206.624	183.44224
207.17	169.3816
207.716	189.44223
208.262	220.41332
208.808	181.44005
209.354	174.41327
209.899	202.49211
210.445	225.54701
210.99	158.3744
211.535	235.52997
212.08	153.34632
212.625	207.50156
213.17	152.37569
213.715	186.40702
214.259	196.44482
214.804	156.37394
215.348	210.46226
215.892	202.47125
216.436	229.51222
216.98	204.4296
217.524	133.30815
218.068	210.51102
218.612	161.39143
219.155	174.39698
219.698	213.4833
220.242	146.35396
220.785	142.3245
221.328	214.5151
221.871	186.45567
222.414	142.33986
222.956	189.44327
223.499	192.41518
224.041	161.35715
224.583	173.35638
225.126	198.4265
225.668	177.41756
226.21	158.38636
226.751	103.21753
227.293	131.28806
227.835	131.31072
228.376	186.40805
228.918	174.42469
229.459	152.37349
230	139.32167
230.541	167.36876
231.082	167.39259
231.622	187.41448
232.163	185.43761
232.704	120.29017
233.244	148.35692
233.784	165.38743
234.324	153.33049
234.864	152.33164
235.404	116.26615
235.944	160.36283
236.484	161.38453
237.023	174.39874
237.563	175.38934
238.102	198.44863
238.641	161.3983
239.18	131.30075
239.719	206.50185
240.258	197.42079
240.797	245.56154
241.335	173.40289
241.874	162.3015
242.412	153.35477
242.95	205.47552
243.488	190.41665
244.026	193.42903
244.564	207.40396
245.102	238.50803
245.64	156.36265
246.177	109.23646
246.715	157.36
247.252	146.32057
247.789	88.15166
248.326	159.36605
248.863	167.35006
249.4	236.51599
249.936	210.40855
250.473	203.45538
251.009	215.47594
251.546	192.40736
252.082	274.5699
252.618	218.46736
253.154	116.27222
253.69	226.48242
254.226	161.37021
254.761	168.35768
255.297	174.36788
255.832	137.31313
256.367	181.40786
256.903	156.3278
257.438	150.33683
257.972	146.31125
258.507	233.51557
259.042	105.21698
259.576	196.40549
260.111	192.42317
260.645	164.34294
261.179	172.38417
261.713	182.38547
262.247	217.48337
262.781	192.38795
263.315	219.51442
263.849	166.40215
264.382	152.33529
264.915	213.48134
265.449	161.38261
265.982	206.44126
266.515	223.52075
267.048	181.3695
267.58	174.35772
268.113	195.40658
268.646	186.4472
269.178	179.38483
269.71	167.34836
270.243	211.45929
270.775	202.4956
271.307	165.37743
271.838	182.41204
272.37	207.49135
272.902	222.48456
273.433	188.39051
273.965	231.5443
274.496	161.38305
275.027	158.37787
275.558	180.42043
276.089	210.50758
276.62	174.4258
277.15	196.46354
277.681	127.26186
278.211	195.45537
278.741	205.43693
279.272	203.4445
279.802	170.41215
280.332	217.49058
280.861	196.4533
281.391	165.35932
281.921	125.28893
282.45	259.62423
282.98	228.573
283.509	229.48914
284.038	130.28256
284.567	150.33199
285.096	194.45223
285.625	240.52607
286.153	191.42899
286.682	167.36552
287.21	198.45756
287.739	173.39127
288.267	217.50654
288.795	195.49386
289.323	223.5062
289.851	195.43617
290.378	233.49833
290.906	224.5238
291.433	205.4926
291.961	147.32025
292.488	237.56472
293.015	245.555
293.542	204.49587
294.069	221.52074
294.596	200.47574
295.122	235.53625
295.649	216.45948
296.175	197.45244
296.702	205.47175
297.228	208.47646
297.754	264.55864
298.28	216.46707
298.806	225.5217
299.332	180.3834
299.857	221.4741
300.383	213.51299
300.908	258.60306
301.433	262.60953
301.958	224.48416
302.483	242.5869
303.008	214.50356
303.533	197.4861
304.058	248.55345
304.582	237.53623
305.107	254.63971
305.631	244.52333
306.155	316.69906
306.679	285.6322
307.203	283.6228
307.727	289.6528
308.251	259.60789
308.775	232.52588
309.298	278.63832
309.822	274.65725
310.345	316.70402
310.868	268.60821
311.391	253.59242
311.914	312.74097
312.437	291.61833
312.96	279.6261
313.482	303.68079
314.005	241.57997
314.527	323.80571
315.049	276.65902
315.571	327.69876
316.093	298.70446
316.615	319.73141
317.137	273.55554
317.659	316.71305
318.18	341.77306
318.702	339.73976
319.223	310.5939
319.744	324.685
320.265	285.65949
320.786	353.82135
321.307	284.67604
321.828	355.75595
322.348	361.79843
322.869	274.60413
323.389	325.56391
323.909	351.75328
324.43	350.78234
324.95	350.75324
325.47	344.79994
325.989	409.91136
326.509	361.74398
327.029	386.80713
327.548	401.83867
328.067	342.77454
328.587	408.94759
329.106	367.77369
329.625	358.86814
330.144	357.76087
330.662	361.78242
331.181	401.87207
331.7	440.94446
332.218	483.95692
332.736	435.92749
333.255	379.82073
333.773	441.96311
334.291	381.87704
334.808	393.80301
335.326	486.99775
335.844	461.99485
336.361	460.07083
336.879	463.98632
337.396	431.94764
337.913	441.92477
338.43	523.0702
338.947	478.03995
339.464	495.95593
339.981	509.10071
340.497	479.08333
341.014	485.06749
341.53	560.14113
342.046	477.07529
342.562	524.1831
343.078	548.15258
343.594	539.16818
344.11	544.15922
344.626	574.30879
345.141	592.20809
345.657	557.11004
346.172	550.1842
346.687	556.14684
347.202	605.19861
347.717	613.30054
348.232	612.36857
348.747	639.2891
349.261	634.24064
349.776	603.24701
350.29	614.3595
350.805	583.27657
351.319	623.2844
351.833	646.29579
352.347	604.23485
352.861	678.37948
353.374	644.28463
353.888	637.34623
354.401	675.34688
354.915	641.26887
355.428	768.65418
355.941	680.3867
356.454	773.4664
356.967	688.42209
357.48	705.39185
357.993	723.5422
358.505	721.55254
359.018	739.54093
359.53	732.51585
360.042	704.31743
360.554	747.54729
361.066	680.4413
361.578	758.41379
362.09	748.53245
362.602	782.45359
363.113	709.39191
363.625	795.5258
364.136	798.46796
364.647	789.56158
365.158	832.63491
365.669	875.78526
366.18	791.53708
366.691	821.51149
367.201	813.6294
367.712	810.52066
368.222	893.71584
368.733	895.6077
369.243	852.53537
369.753	858.63466
370.263	890.74083
370.773	871.8092
371.282	929.80652
371.792	906.69456
372.301	991.95371
372.811	957.06455
373.32	966.62986
373.829	1028.96479
374.338	1025.80424
374.847	1048.8895
375.356	1148.14365
375.865	1145.84304
376.373	1198.06211
376.882	1252.43592
377.39	1247.29656
377.898	1298.44838
378.407	1369.19122
378.915	1366.08255
379.423	1491.50114
379.93	1464.31484
380.438	1637.76857
380.946	1677.63325
381.453	1752.78291
381.96	1839.80557
382.468	2024.93971
382.975	2052.09621
383.482	2124.73569
383.989	2190.38766
384.495	2267.89994
385.002	2303.49594
385.509	2389.96654
386.015	2697.34499
386.521	2787.77357
387.028	2861.85198
387.534	2938.56807
388.04	3121.03127
388.546	3127.64988
389.051	3337.52349
389.557	3588.76389
390.063	3807.67175
390.568	3977.71847
391.073	4110.30278
391.578	4188.655
392.084	4263.0542
392.589	4513.8415
393.093	4781.07544
393.598	5215.59468
394.103	5717.61976
394.607	6403.33936
395.112	6757.49007
395.616	7247.44277
396.12	7759.5662
396.624	8459.40087
397.128	9155.69992
397.632	10428.6224
398.136	11323.65222
398.639	11859.40001
399.143	13149.53628
399.646	14927.13809
400.15	16508.9778
400.653	18393.45137
401.156	20642.09012
401.659	24133.53776
402.162	29472.2805
402.664	38874.51726
403.167	54997.66244
403.67	59686.94869
404.172	55487.84425
404.674	37291.05854
405.176	4428.40989
405.678	533.47942
406.18	0
406.682	0
407.184	6962.89417
407.686	50953.82939
408.187	59237.6763
408.688	61091.12691
409.19	61923.45898
409.691	55845.0829
410.192	47492.73943
410.693	41084.99887
411.194	37046.53594
411.694	35129.12711
412.195	32556.59748
412.696	29544.08633
413.196	27323.0729
413.696	26711.92886
414.196	26821.82394
414.696	26745.86829
415.196	25207.62665
415.696	22893.45178
416.196	18453.44251
416.695	14422.22984
417.195	12267.88132
417.694	11742.12226
418.194	11037.92133
418.693	10279.12244
419.192	10102.34492
419.691	9830.47314
420.19	9571.72054
420.688	9238.88299
421.187	8866.13098
421.685	8271.13943
422.184	7602.51774
422.682	6534.94006
423.18	5489.51482
423.678	4913.777
424.176	4562.00333
424.674	4197.95463
425.172	4044.46114
425.669	3853.9335
426.167	3548.62254
426.664	3345.61989
427.161	3046.70353
427.659	2795.16335
428.156	2661.4169
428.652	2420.26968
429.149	2375.04507
429.646	2210.52188
430.143	2183.93545
430.639	2004.78541
431.135	1951.93584
431.632	1858.55722
432.128	1712.68651
432.624	1590.7655
433.12	1549.36509
433.616	1574.22249
434.111	1515.48282
434.607	1337.2947
435.103	1367.91853
435.598	1373.90758
436.093	1279.13537
436.588	1216.99044
437.083	1144.91052
437.578	1112.89842
438.073	980.91711
438.568	970.86805
439.062	956.57021
439.557	909.6822
440.051	949.68316
440.546	891.62424
441.04	860.63292
441.534	858.78732
442.028	833.62497
442.522	825.62303
443.015	748.33451
443.509	796.61401
444.002	798.6166
444.496	719.2658
444.989	806.6358
445.482	724.50728
445.975	748.41234
446.468	698.24062
446.961	722.25155
447.454	680.2624
447.947	703.42295
448.439	703.4567
448.931	712.33637
449.424	598.27832
449.916	675.36496
450.408	672.30023
450.9	632.30736
451.392	652.41674
451.884	594.14467
452.375	584.24351
452.867	622.18322
453.358	534.03426
453.849	544.98595
454.341	688.29441
454.832	558.02881
455.323	533.13697
455.814	567.10957
456.304	557.0982
456.795	479.94722
457.285	525.99493
457.776	475.92479
458.266	527.09934
458.756	432.9101
459.247	457.95705
459.737	508.0716
460.226	495.9706
460.716	523.09339
461.206	475.99034
461.695	443.99526
462.185	468.97943
462.674	421.84695
463.163	426.82326
463.653	454.83495
464.142	415.88677
464.63	415.90404
465.119	446.92225
465.608	411.83712
466.096	435.83562
466.585	357.72846
467.073	363.77299
467.561	444.96412
468.05	365.7529
468.538	439.97293
469.026	443.94782
469.513	332.62837
470.001	383.77406
470.489	354.75563
470.976	387.79792
471.463	355.81067
471.951	324.73945
472.438	323.6923
472.925	293.6196
473.412	346.76126
473.899	338.70489
474.385	313.7021
474.872	271.5781
475.359	284.63771
475.845	252.47718
476.331	304.5903
476.817	205.46081
477.303	289.61328
477.789	274.60591
478.275	260.59914
478.761	255.56425
479.247	252.51456
479.732	267.62079
480.218	253.6123
480.703	284.65992
481.188	195.3856
481.673	216.46148
482.158	235.46601
482.643	232.54931
483.128	187.39632
483.612	212.45842
484.097	219.49813
484.581	172.36795
485.066	196.4432
485.55	165.33592
486.034	225.45578
486.518	226.49476
487.002	178.41069
487.486	166.3827
487.969	217.50256
488.453	197.46888
488.936	120.25516
489.42	247.50424
489.903	179.42506
490.386	189.379
490.869	128.25792
491.352	158.36179
491.835	127.2436
492.318	180.3834
492.8	125.24092
493.283	189.45657
493.765	137.32207
494.247	137.29923
494.73	137.28553
495.212	163.36911
495.694	144.31844
496.175	94.21403
496.657	221.49514
497.139	29.04608
497.62	106.24213
498.102	146.34583
498.583	65.15471
499.064	160.34095
499.545	169.36146
500.026	84.1797
500.507	71.15619
500.988	97.22821
501.469	86.20536
501.949	64.15055
502.43	126.28376
502.91	94.18383
503.39	123.29254
503.87	106.23881
504.35	62.13871
504.83	90.18836
505.31	95.22159
505.79	107.24447
506.269	94.20805
506.749	66.14443
507.228	112.25058
507.707	129.27005
508.187	114.25652
508.666	87.20373
509.145	86.19233
509.623	70.15751
510.102	84.1942
510.581	54.12425
511.059	116.28092
511.538	84.20808
512.016	144.3284
512.494	51.11835
512.972	84.19335
513.45	75.16935
513.928	100.23266
514.406	91.21543
514.884	121.30187
515.361	132.30395
515.839	85.18463
516.316	55.12672
516.793	36.08807
517.27	139.32167
517.747	75.18609
518.224	41.0911
518.701	103.21944
519.178	89.21647
519.654	-18.04092
520.131	53.12537
520.607	70.16709
521.083	74.16344
521.56	18.04112
522.036	80.16884
522.512	73.17302
522.987	112.25749
523.463	65.14965
523.939	64.15119
524.414	56.12348
524.89	50.11366
525.365	79.17357
525.84	92.2159
526.315	12.02795
526.79	60.12908
527.265	59.12777
527.74	51.11994
528.215	55.12566
528.689	82.17671
529.164	9.01857
529.638	65.16193
530.112	64.14761
530.587	32.06709
531.061	66.15452
531.534	78.18033
532.008	59.13778
532.482	20.04356
532.956	98.24427
533.429	41.09352
533.903	73.15316
534.376	35.07453
534.849	99.22053
535.322	79.17919
535.795	69.16246
536.268	79.18413
536.741	63.14568
537.213	120.26504
537.686	26.06116
538.158	36.07838
538.631	59.13724
539.103	-4.00876
539.575	88.17422
540.047	78.16376
540.519	55.12566
540.991	68.15871
541.463	113.26285
541.934	65.14371
542.406	105.24038
542.877	86.18541
543.348	15.03434
543.82	78.18341
544.291	32.07109
544.762	66.15058
545.233	114.27711
545.703	64.13703
546.174	106.23696
546.645	123.28668
547.115	141.32422
547.585	110.24509
548.056	163.38065
548.526	120.27058
548.996	126.28875
549.466	115.26634
549.935	171.39006
550.405	141.29674
550.875	145.32487
551.344	148.34079
551.814	131.28128
552.283	154.31303
552.752	180.39406
553.221	150.30824
553.69	249.51479
554.159	221.51892
554.628	188.39434
555.096	178.42732
555.565	172.35982
556.033	218.47704
556.502	195.44282
556.97	185.38213
557.438	190.4235
557.906	170.38033
558.374	155.33567
558.842	181.40886
559.31	203.42063
559.777	224.51001
560.245	224.48354
560.712	156.33459
561.18	234.47716
561.647	160.33517
562.114	181.38813
562.581	231.53476
563.048	214.45284
563.514	207.48035
563.981	210.44613
564.448	234.48909
564.914	268.57306
565.381	267.55002
565.847	252.54328
566.313	222.47923
566.779	302.63009
567.245	269.58229
567.711	280.62512
568.176	348.72929
568.642	279.65559
569.108	309.70081
569.573	275.58816
570.038	360.68437
570.504	357.73508
570.969	364.82938
571.434	376.75033
571.899	397.85786
572.363	298.62064
572.828	342.7034
573.293	357.74368
573.757	377.78813
574.222	439.88439
574.686	350.71823
575.15	396.85479
575.614	408.83649
576.078	406.85496
576.542	383.79074
577.006	406.82825
577.469	412.91063
577.933	319.64649
578.396	436.94031
578.86	354.75235
579.323	397.85456
579.786	404.77288
580.249	349.7254
580.712	356.78622
581.175	359.80923
581.637	393.82304
582.1	327.64572
582.563	312.58733
583.025	341.75672
583.487	350.62812
583.95	328.64207
584.412	363.67511
584.874	314.69783
585.336	277.60908
585.797	307.60139
586.259	290.61554
586.721	272.59118
587.182	279.58896
587.643	281.58459
588.105	340.73613
588.566	299.57158
589.027	290.65305
589.488	263.54958
589.949	290.63914
590.41	297.53121
590.87	251.51659
591.331	275.53182
591.791	244.51384
592.252	242.51344
592.712	262.58107
593.172	226.47195
593.632	249.48523
594.092	295.59867
594.552	284.55146
595.011	285.60611
595.471	286.58372
595.931	288.58406
596.39	265.58857
596.849	305.6461
597.308	310.60482
597.768	276.6512
598.227	345.75572
598.685	265.54786
599.144	306.65176
599.603	356.76121
600.062	280.52994
600.52	362.72742
600.978	371.79997
601.437	394.80012
601.895	378.71089
602.353	374.72969
602.811	375.74086
603.269	420.89027
603.727	434.92476
604.184	419.83788
604.642	471.01362
605.099	469.95004
605.557	465.98757
606.014	492.91258
606.471	579.26993
606.928	601.13904
607.385	612.30603
607.842	678.31749
608.299	641.25643
608.755	565.173
609.212	728.33895
609.668	674.25435
610.125	733.45601
610.581	689.32841
611.037	710.32541
611.493	725.40128
611.949	771.53018
612.405	823.30577
612.861	793.48029
613.316	840.63748
613.772	861.57656
614.227	792.52478
614.683	906.5002
615.138	867.65143
615.593	814.50794
616.048	846.5121
616.503	882.73654
616.958	826.69472
617.412	809.55122
617.867	883.56096
618.321	839.30993
618.776	868.50294
619.23	892.68147
619.684	859.51055
620.138	856.53395
620.592	806.58375
621.046	804.51086
621.5	827.62011
621.954	865.51637
622.407	794.40582
622.861	741.45756
623.314	834.51207
623.768	787.49083
624.221	820.26123
624.674	712.32783
625.127	798.50839
625.58	713.288
626.033	747.30013
626.485	743.45533
626.938	707.37818
627.39	712.3633
627.843	650.23779
628.295	762.43109
628.747	716.40336
629.199	765.4237
629.651	638.21372
630.103	721.36293
630.555	628.08075
631.006	687.33025
631.458	687.31567
631.909	654.23033
632.361	610.17894
632.812	705.34564
633.263	674.16691
633.714	688.1685
634.165	686.34763
634.616	666.30705
635.067	663.18102
635.518	730.39782
635.968	795.22227
636.419	730.25005
636.869	791.49988
637.319	741.38988
637.769	755.36959
638.219	795.49795
638.669	821.58411
639.119	828.61558
639.569	906.75046
640.019	919.6391
640.468	870.48332
640.918	903.70515
641.367	923.60225
641.816	962.64858
642.265	1046.82169
642.714	1050.84789
643.163	1044.76859
643.612	1064.98091
644.061	1076.63661
644.51	1143.92289
644.958	1152.8288
645.406	1190.11017
645.855	1213.17827
646.303	1255.078
646.751	1302.10265
647.199	1270.98858
647.647	1353.20332
648.095	1315.09469
648.543	1432.8364
648.99	1417.36595
649.438	1396.27194
649.885	1461.54455
650.333	1420.68297
650.78	1535.56991
651.227	1475.49816
651.674	1465.25133
652.121	1371.31105
652.568	1416.40855
653.015	1429.48203
653.461	1492.40919
653.908	1551.3765
654.354	1427.30279
654.801	1524.40371
655.247	1476.10588
655.693	1510.77795
656.139	1499.43207
656.585	1550.50223
657.031	1444.3389
657.477	1502.13146
657.922	1516.35153
658.368	1428.44981
658.813	1445.19959
659.259	1451.41916
659.704	1498.37715
660.149	1425.27641
660.594	1555.47052
661.039	1459.26164
661.484	1493.42629
661.929	1478.32654
662.373	1448.63312
662.818	1420.51992
663.262	1428.37862
663.707	1444.5719
664.151	1494.55694
664.595	1429.41071
665.039	1475.53694
665.483	1469.67615
665.927	1493.35237
666.371	1495.36496
666.814	1546.4679
667.258	1542.49476
667.701	1507.04224
668.145	1518.58177
668.588	1557.60841
669.031	1602.51787
669.474	1550.50781
669.917	1584.22003
670.36	1508.56056
670.803	1620.56679
671.245	1702.12818
671.688	1640.62233
672.13	1606.29246
672.573	1682.87334
673.015	1646.57153
673.457	1695.29693
673.899	1749.68047
674.341	1670.62139
674.783	1673.63588
675.225	1691.71759
675.666	1686.65583
676.108	1792.33022
676.549	1834.64762
676.991	1757.32423
677.432	1795.96404
677.873	1783.52328
678.314	1781.65892
678.755	1780.78017
679.196	1787.53848
679.637	1803.73707
680.078	1826.59566
680.518	1858.53123
680.959	1855.72677
681.399	1791.80316
681.839	1907.83146
682.28	1922.94858
682.72	1908.55094
683.16	1920.97445
683.6	1963.57091
684.039	1917.18099
684.479	1978.93784
684.919	2051.739
685.358	2002.07079
685.798	1921.17487
686.237	1988.83403
686.676	2053.67959
687.115	2107.78122
687.554	2119.83415
687.993	2009.40008
688.432	2143.71955
688.871	2074.61056
689.309	2314.08788
689.748	2124.27058
690.186	2274.86552
690.625	2306.94279
691.063	2326.03257
691.501	2288.13098
691.939	2353.20347
692.377	2390.1028
692.815	2382.04933
693.253	2422.94071
693.69	2426.54617
694.128	2530.16123
694.565	2460.99525
695.003	2455.3598
695.44	2527.88955
695.877	2621.96231
696.314	2635.43058
696.751	2665.7104
697.188	2703.8442
697.625	2695.72168
698.061	2712.06408
698.498	2785.08953
698.934	2756.01552
699.371	2842.99006
699.807	2927.98517
700.243	2932.15963
700.679	2958.69824
701.115	2997.86865
701.551	3032.97184
701.987	2986.58097
702.422	3059.96387
702.858	3132.9315
703.294	3141.61574
703.729	3173.20305
704.164	3339.07435
704.599	3366.45752
705.035	3396.55896
705.47	3458.16296
705.904	3454.73198
706.339	3397.6538
706.774	3515.72968
707.209	3495.65942
707.643	3611.91704
708.078	3781.92409
708.512	3713.34186
708.946	3823.75683
709.38	3828.67344
709.814	3847.41381
710.248	3870.81323
710.682	4091.70883
711.116	4024.78842
711.549	4034.24956
711.983	4095.36468
712.416	4199.42588
712.85	4222.99096
713.283	4331.46467
713.716	4316.87386
714.149	4305.42533
714.582	4459.03694
715.015	4423.77996
715.448	4478.74755
715.881	4542.64308
716.313	4568.31438
716.746	4619.31975
717.178	4708.34091
717.61	4776.77329
718.043	4757.53987
718.475	4801.33422
718.907	4808.57003
719.339	4843.87356
719.77	4900.27223
720.202	4980.59461
720.634	5023.3567
721.065	5006.06096
721.497	5168.27827
721.928	5103.36743
722.359	5110.30187
722.79	5263.0245
723.221	5160.37383
723.652	5296.49798
724.083	5242.57006
724.514	5328.53447
724.945	5364.83607
725.375	5472.7214
725.806	5372.11506
726.236	5402.44893
726.666	5321.82228
727.096	5553.97893
727.526	5493.39421
727.956	5634.45764
728.386	5537.93322
728.816	5551.33112
729.246	5644.99985
729.675	5693.0882
730.105	5650.9574
730.534	5737.59798
730.964	5811.03651
731.393	5870.80716
731.822	5819.26972
732.251	5964.17018
732.68	5936.37763
733.109	6080.86066
733.537	6087.67316
733.966	6129.83825
734.395	6174.30199
734.823	6276.12666
735.251	6190.64403
735.68	6148.87528
736.108	6253.92583
736.536	6299.44718
736.964	6361.31035
737.392	6237.82274
737.82	6261.53555
738.247	6376.46874
738.675	6423.40768
739.102	6455.91968
739.53	6386.06489
739.957	6369.02573
740.384	6495.611
740.811	6574.94254
741.238	6539.5849
741.665	6631.40584
742.092	6501.41399
742.519	6494.83753
742.945	6506.51624
743.372	6626.75709
743.798	6510.01172
744.225	6575.43963
744.651	6490.79938
745.077	6476.79181
745.503	6613.55968
745.929	6567.48045
746.355	6471.61992
746.781	6369.75297
747.207	6389.50314
747.632	6267.74779
748.058	6376.74093
748.483	6496.19637
748.908	6437.77398
749.334	6437.68412
749.759	6356.40672
750.184	6319.50474
750.609	6283.67567
751.033	6227.32859
751.458	6352.17939
751.883	6194.7531
752.307	6143.58268
752.732	6248.9876
753.156	6134.80419
753.58	6107.49344
754.005	6192.07049
754.429	5919.42141
754.853	5864.97892
755.277	5972.60979
755.7	5851.92844
756.124	5862.06799
756.548	5739.7179
756.971	5775.81702
757.394	5702.33477
757.818	5678.41829
758.241	5615.1986
758.664	5589.32342
759.087	5401.56216
759.51	5421.18177
759.933	5325.04543
760.356	5269.50994
760.778	5244.33896
761.201	5064.04273
761.623	5008.05419
762.046	4884.89442
762.468	4946.11453
762.89	4853.42091
763.312	4883.25595
763.734	4654.38866
764.156	4585.62452
764.578	4530.98544
765	4574.49402
765.421	4572.02237
765.843	4346.28427
766.264	4288.49044
766.686	4278.96911
767.107	4156.77862
767.528	4136.15193
767.949	4007.12538
768.37	3925.83897
768.791	3820.75539
769.212	3839.24733
769.632	3719.58129
770.053	3632.58928
770.473	3658.93525
770.894	3481.0749
771.314	3428.75043
771.734	3352.6676
772.154	3282.43156
772.575	3236.67739
772.994	3210.61832
773.414	3109.80447
773.834	3136.29244
774.254	2922.06765
774.673	2962.02562
775.093	2864.23667
775.512	2796.20483
775.931	2777.41318
776.351	2684.14362
776.77	2680.12752
777.189	2573.85793
777.607	2489.34817
778.026	2386.18117
778.445	2355.24489
778.864	2388.27019
779.282	2196.82014
779.701	2232.14311
780.119	2155.08173
780.537	2025.96344
780.955	2073.07096
781.373	1998.90121
781.791	1958.48389
782.209	1969.58068
782.627	1880.1814
783.045	1781.45
783.462	1741.8425
783.88	1747.9734
784.297	1665.74125
784.715	1651.89243
785.132	1576.49499
785.549	1560.67062
785.966	1509.56705
786.383	1459.47618
786.8	1437.22466
787.217	1355.20047
787.633	1319.35735
788.05	1298.0598
788.466	1351.15123
788.883	1261.38475
789.299	1186.03812
789.715	1212.15266
790.131	1148.09842
790.547	1043.93071
790.963	1117.07075
791.379	1120.13746
791.795	990.67591
792.21	997.7393
792.626	983.76255
793.041	925.7638
793.457	927.77274
793.872	901.63919
794.287	947.79797
794.702	848.64293
795.117	798.58199
795.532	792.63439
795.947	783.48107
796.362	750.41543
796.776	710.28093
797.191	684.36707
797.605	685.34662
798.02	750.49364
798.434	652.15209
798.848	616.25772
799.262	691.44456
799.676	633.26353
800.09	562.16027
800.504	569.15819
800.918	528.02116
801.331	542.21185
801.745	558.05868
802.158	456.98849
802.572	534.08708
802.985	433.89075
803.398	462.94549
803.811	461.02263
804.224	463.99232
804.637	399.8112
805.05	437.86659
805.462	368.79232
805.875	448.04367
806.288	389.83446
806.7	362.80682
807.112	342.69421
807.525	348.76566
807.937	301.66852
808.349	344.76226
808.761	296.64005
809.173	302.64324
809.584	324.70688
809.996	285.63089
810.408	288.67845
810.819	310.64822
811.231	289.69836
811.642	308.6862
812.053	295.63966
812.464	304.65032
812.875	291.67444
813.286	223.52361
813.697	234.47477
814.108	235.5124
814.519	239.46818
814.929	212.48815
815.34	199.43814
815.75	176.4127
816.16	115.26095
816.571	186.44686
816.981	171.36098
817.391	190.41595
817.801	198.45774
818.211	261.55991
818.62	154.33928
819.03	152.33796
819.44	173.41587
819.849	187.43497
820.259	172.40804
820.668	185.42318
821.077	112.26016
821.486	160.34746
821.895	132.29447
822.304	132.32794
822.713	127.2748
823.122	185.42692
823.531	134.29398
823.939	161.36131
824.348	165.36922
824.756	131.30243
825.164	111.25738
825.573	95.22299
825.981	152.34763
826.389	80.1851
826.797	73.17195
827.205	97.20522
827.612	105.23845
828.02	99.21779
828.428	79.18789
828.835	112.27774
829.243	85.18699
829.65	71.16633
830.057	109.24844
830.464	101.23187
830.871	95.20952
831.278	58.12971
831.685	57.11573
832.092	71.16352
832.499	62.12401
832.905	98.23294
833.312	78.16253
833.718	82.18965
834.124	83.1756
834.531	105.24482
834.937	88.20926
835.343	66.14882
835.749	78.16643
836.155	32.07936
836.561	0
836.966	64.14561
837.372	59.14059
837.777	45.10476
838.183	10.02014
838.588	75.17549
838.993	57.12792
839.399	44.10051
839.804	70.16177
840.209	65.1575
840.613	88.18206
841.018	31.07325
841.423	-16.03872
841.828	41.0977
842.232	37.08437
842.637	-23.05041
843.041	88.21575
843.445	36.08422
843.849	-9.02118
844.253	66.14412
844.657	49.11757
845.061	92.19229
845.465	83.19139
845.869	17.03675
846.272	22.05052
846.676	58.13153
847.079	55.13312
847.483	41.09582
847.886	53.11797
848.289	32.08293
848.692	-36.08699
849.095	32.07106
849.498	9.02109
849.901	36.07588
850.304	14.03114
850.707	7.01689
851.109	14.03277
851.512	50.11638
851.914	48.11681
852.316	35.08398
852.718	44.1092
853.121	21.04858
853.523	16.03492
853.925	-13.03257
854.326	67.15947
854.728	2.0049
855.13	-30.07497
855.531	106.23881
855.933	34.07607
856.334	16.03803
856.736	10.02071
857.137	18.03922
857.538	3.00717
857.939	13.03066
858.34	42.09505
858.741	27.06692
859.142	37.08355
859.542	94.23905
859.943	35.08276
860.343	64.14978
860.744	34.07829
861.144	29.06647
861.544	60.13722
861.945	11.02639
862.345	10.02259
862.745	11.02587
863.145	-1.0022
863.544	70.16818
863.944	40.08772
864.344	9.02079
864.743	56.13008
865.143	28.06811
865.542	47.10083
865.941	38.08946
866.34	65.14503
866.74	21.05375
867.139	39.08821
867.537	13.03116
867.936	42.09509
868.335	78.18769
868.734	62.15099
869.132	67.14553
869.531	52.11696
869.929	29.06243
870.327	-9.02039
870.726	32.07469
871.124	38.08179
871.522	-8.01918
871.92	72.16513
872.318	64.14649
872.715	52.11974
873.113	46.10533
873.511	44.1033
873.908	32.07849
874.306	15.03544
874.703	81.18856
875.1	15.03605
875.497	7.01568
875.894	46.10799
876.291	87.20029
876.688	3.00735
877.085	29.06473
877.482	21.04914
877.878	29.06578
878.275	8.01919
878.671	2.00401
879.068	33.07436
879.464	36.0818
879.86	84.18685
880.256	4.00918
880.652	18.04328
881.048	4.00923
881.444	-42.09327
881.84	38.0905
882.236	60.1418
882.631	-19.04437
883.027	-2.00448
883.422	10.02422
883.817	26.06266
884.213	23.05607
884.608	26.06083
885.003	31.0704
885.398	24.05672
885.793	-19.04512
886.188	53.12547
886.582	8.01903
886.977	14.03106
887.371	51.12097
887.766	0
888.16	27.0636
888.554	20.04591
888.949	27.06278
889.343	16.03617
889.737	17.04408
890.131	43.10207
890.525	30.07221
890.918	40.09577
891.312	-30.06648
891.706	40.10043
892.099	32.07644
892.492	64.12635
892.886	13.02974
893.279	17.04107
893.672	1.00243
894.065	4.00943
894.458	33.07797
894.851	11.02491
895.244	-10.02438
895.637	40.09038
896.029	40.09163
896.422	61.13813
896.814	12.02826
897.206	52.11711
897.599	-13.02967
897.991	33.07512
898.383	18.03962
898.775	41.0853
899.167	46.10122
899.559	14.03329
899.951	20.04393
900.342	10.0236
900.734	36.0863
901.125	25.06156
901.517	37.0858
901.908	-1.00223
902.299	22.0509
902.69	52.11432
903.082	42.09493
903.473	47.10652
903.863	72.17443
904.254	-3.0065
904.645	4.00924
905.036	25.05795
905.426	4.00825
905.817	14.03234
906.207	35.07855
906.597	23.05056
906.987	-44.10768
907.378	-35.08395
907.768	5.01268
908.158	41.0939
908.547	-22.0546
908.937	4.00969
909.327	-40.09178
909.717	38.08973
910.106	42.09428
910.495	94.21956
910.885	19.04458
911.274	36.08514
911.663	57.13718
912.052	12.0276
912.441	36.08731
912.83	-17.03641
913.219	-35.08659
913.608	6.01384
913.997	-11.02619
914.385	2.00443
914.774	23.05227
915.162	4.00891
915.55	13.02956
915.939	44.10511
916.327	39.09129
916.715	42.10202
917.103	-23.05312
917.491	29.06623
917.878	-8.01823
918.266	41.10017
918.654	69.16763
919.041	-10.02498
919.429	33.07311
919.816	33.07831
920.203	41.09315
920.591	5.0116
920.978	70.15881
921.365	24.05945
921.752	20.04493
922.139	61.12227
922.525	29.06519
922.912	6.01371
923.299	37.08695
923.685	18.04464
924.072	39.08215
924.458	8.01874
924.844	0
925.231	-16.03473
925.617	19.04663
926.003	6.01454
926.389	35.08411
926.774	1.00242
927.16	-4.00934
927.546	40.09683
927.931	64.14908
928.317	1.00211
928.702	56.12156
929.088	26.05783
929.473	4.00967
929.858	-16.03745
930.243	5.01139
930.628	1.00228
931.013	61.14346
931.398	15.03173
931.783	12.03002
932.167	-1.00229
932.552	4.00932
932.937	9.02067
933.321	6.01417
933.705	68.16251
934.09	30.0701
934.474	68.14912
934.858	28.06916
935.242	64.1397
935.626	-3.00726
936.009	-11.02797
936.393	59.14243
936.777	22.05386
937.16	-11.0269
937.544	36.07848
937.927	14.03378
938.311	53.11938
938.694	9.02263
939.077	-23.05157
939.46	87.19877
939.843	60.11133
940.226	3.00726
940.609	4.00853
940.991	-14.03392
941.374	7.01601
941.757	66.15119
942.139	-4.0083
942.522	60.12913
942.904	45.10124
943.286	-8.01909
943.668	8.01966
944.05	21.0486
944.432	46.10681
944.814	22.05034
945.196	4.00934
945.578	14.03171
945.959	12.02638
946.341	3.00678
946.722	70.15254
947.104	-9.02006
947.485	-19.04143
947.866	45.10768
948.247	27.06431
948.628	10.02273
949.009	37.08979
949.39	-17.03923
949.771	4.00861
950.152	51.11774
950.532	68.1617
950.913	-19.04271
951.293	-23.06035
951.674	-7.01581
952.054	2.00471
952.434	-10.02328
952.814	11.02403
953.194	44.10908
953.574	-12.02747
953.954	-12.02685
954.334	59.13838
954.714	-22.05102
955.093	44.09954
955.473	-13.03057
955.853	19.04685
956.232	-17.04479
956.611	-18.03981
956.99	17.04056
957.37	11.02653
957.749	-17.03778
958.128	50.11972
958.506	-2.00499
958.885	3.00713
959.264	-18.0419
959.643	68.1427
960.021	44.10237
960.4	71.15041
960.778	9.02041
961.156	-24.0572
961.535	-42.08997
961.913	-40.08624
962.291	35.08608
962.669	3.00723
963.047	2.00477
963.424	13.03157
963.802	-41.09477
964.18	40.09424
964.557	15.03155
964.935	14.03086
965.312	8.01996
965.69	12.02814
966.067	-38.08701
966.444	30.06922
966.821	20.04843
967.198	0
967.575	18.04103
967.952	28.06151
968.329	-22.05038
968.705	51.09792
969.082	29.07085
969.458	-7.01608
969.835	55.12434
970.211	0
970.587	12.02816
970.963	49.11784
971.339	16.04008
971.715	-9.02089
972.091	-16.03714
972.467	-38.08845
972.843	13.03044
973.219	43.09436
973.594	-7.0175
973.97	-25.05521
974.345	4.00898
974.721	36.08074
975.096	-5.01127
975.471	21.0467
975.846	28.06344
976.221	-18.04359
976.596	12.02701
976.971	45.10393
977.346	6.01283
977.72	17.04082
978.095	16.03932
978.469	38.0847
978.844	60.14048
979.218	8.01821
979.593	28.06277
979.967	54.12345
980.341	5.01065
980.715	-16.03802
981.089	-2.00468
981.463	58.12462
981.837	4.0093
982.21	62.1316
982.584	-34.07729
982.957	34.08057
983.331	58.12698
983.704	55.12718
984.078	-13.0301
984.451	-29.06674
984.824	1.00232
985.197	18.04082
985.57	-8.01878
985.943	-13.02962
986.316	81.1841
986.688	22.04934
987.061	-4.00868
987.434	13.03223
987.806	32.07201
988.179	24.05241
988.551	27.06392
988.923	29.06669
989.295	8.01877
989.667	37.0845
990.039	15.03511
990.411	61.13092
990.783	1.00214
991.155	16.03673
991.527	19.0428
991.898	-1.00234
992.27	17.03968
992.641	22.05157
993.012	67.14677
993.384	16.03574
993.755	-5.01202
994.126	37.08324
994.497	-13.03013
994.868	53.11287
995.239	32.07301
995.61	-21.05002
995.98	27.06219
996.351	29.0681
996.722	19.0415
997.092	46.10262
997.462	29.06404
997.833	16.03522
998.203	4.00904
998.573	35.08257
998.943	-23.05009
999.313	44.09889
999.683	-93.21137
1000.053	64.13644
1000.423	48.10872
1000.792	12.02956
1001.162	37.0859
1001.531	42.09756
1001.901	-19.04463
1002.27	66.13618
1002.639	17.04125
1003.009	83.18512
1003.378	-2.00487
1003.747	11.02418
1004.116	-8.01816
1004.485	53.11855
1004.853	33.07873
1005.222	54.1291
1005.591	7.01541
1005.959	63.13276
1006.328	36.07454
1006.696	36.08184
1007.064	9.02141
1007.433	38.08963
1007.801	27.06151
1008.169	19.04484
1008.537	40.0819
1008.905	39.08486
1009.273	16.03709
1009.64	-1.00226
1010.008	-19.04252
1010.375	108.24043
1010.743	24.05007
1011.11	14.03112
1011.478	-10.02333
1011.845	-3.00649
1012.212	-3.00626
1012.579	32.07386
1012.946	-4.00877
1013.313	15.03322
1013.68	-1.00207
1014.047	50.11274
1014.414	26.05795
1014.78	24.05672
1015.147	32.071
1015.513	72.16367
1015.88	53.12503
1016.246	41.09492
1016.612	36.07531
1016.978	-11.02533
1017.344	26.06111
1017.71	1.00224
1018.076	61.13244
1018.442	20.04836
1018.808	-8.01896
1019.174	-19.04493
1019.539	46.0944
1019.905	-18.04027
1020.27	27.06328
1020.636	37.08239
1021.001	-8.01786
1021.366	72.16367
1021.731	28.06832
1022.096	1.00242
1022.461	8.01748
1022.826	13.02897
1023.191	27.06721
1023.556	-12.02596
1023.92	5.01141
1024.285	-10.02289
1024.649	47.10756
1025.014	10.02327
1025.378	104.24549
1025.742	9.02103
1026.107	-9.01872
1026.471	-20.04273
1026.835	1.00231
1027.199	45.1017
1027.562	66.14248
1027.926	-2.00458
1028.29	35.08363
1028.654	13.02749
1029.017	46.10601
1029.381	36.08068
1029.744	25.06065
1030.107	3.0065
1030.471	15.03344
1030.834	-32.06691
1031.197	36.07935
1031.56	54.11957
1031.923	-34.08388
1032.286	40.08639
1032.648	17.03768
1033.011	26.05562
1033.374	5.0108
1033.736	-12.0301
1034.099	5.01154
1034.461	29.06974
1034.823	5.01168
1035.185	-1.00234
1035.548	49.11078
1035.91	56.12565
1036.272	56.11752
1036.634	53.11885
1036.995	101.22013
1037.357	2.00459
1037.719	7.01596
1038.08	-39.08565
1038.442	105.23419
1038.803	34.07544
1039.165	26.06192
1039.526	48.1081
1039.887	50.1121
1040.248	43.10156
1040.609	51.11727
1040.97	28.06396
1041.331	-9.02118
1041.692	8.01765
1042.053	41.08511
1042.413	-12.02583
1042.774	-13.02962
1043.134	0
1043.495	9.02116
1043.855	41.09284
1044.215	50.11546
1044.576	30.06759
1044.936	31.06622
1045.296	38.08824
1045.656	16.03681
1046.016	20.04445
1046.375	45.10277
1046.735	47.09983
1047.095	8.01753
1047.454	39.07517
1047.814	-26.05848
1048.173	55.11911
1048.533	73.15471
1048.892	5.01138
1049.251	54.12668
1049.61	-20.04598
1049.969	29.06423
1050.328	23.0451
1050.687	-4.00914
1051.046	28.0644
1051.405	-27.06273
1051.763	32.06869
1052.122	40.09468
1052.48	16.03655
1052.839	35.07674
1053.197	14.03083
1053.555	-23.04704
1053.914	78.17573
1054.272	45.10074
1054.63	-1.00229
1054.988	2.00444
1055.345	-23.04531
1055.703	43.09515
1056.061	19.04626
1056.419	36.08846
1056.776	25.05634
1057.134	25.05356
1057.491	4.00942
1057.848	-2.00466
1058.206	-2.00439
1058.563	47.0963
1058.92	-1.00212
1059.277	-17.03883
1059.634	-20.04312
1059.991	34.07626
1060.348	55.1157
1060.704	-2.00449
1061.061	15.03155
1061.418	26.05946
1061.774	36.08458
1062.131	80.20366
1062.487	7.01515
1062.843	38.08859
1063.199	30.07051
1063.555	25.05437
1063.911	5.01187
1064.267	22.04062
1064.623	29.06677
1064.979	-21.04536
1065.335	1.0022
1065.691	55.12363
1066.046	22.04407
1066.402	36.07551
1066.757	18.04288
1067.112	-19.04346
1067.468	31.06957
1067.823	49.10988
1068.178	51.11554
1068.533	13.02925
1068.888	10.02206
1069.243	32.07442
1069.598	-12.02698
1069.952	31.06599
1070.307	17.04034
1070.662	109.23828
1071.016	45.09404
1071.371	16.03361
1071.725	-39.08551
1072.079	30.06712
1072.434	-49.11286
1072.788	100.22059
1073.142	98.22485
1073.496	9.02
1073.85	36.07711
1074.203	34.07657
1074.557	42.10658
1074.911	3.00661
1075.265	-23.04945
1075.618	82.18603
1075.971	42.09218
1076.325	10.02404
1076.678	31.06573
1077.031	-23.04855
1077.385	73.14781
1077.738	52.1084
1078.091	73.15512
1078.444	-1.00213
1078.796	42.09706
1079.149	-4.00925
1079.502	-7.01557
1079.855	20.04371
1080.207	50.1144
1080.56	-11.027
1080.912	-28.06329
1081.264	10.02254
1081.617	-4.00921
1081.969	34.08237
1082.321	10.02295
1082.673	0
1083.025	-18.03974
1083.377	-3.00583
1083.728	-19.0406
1084.08	42.09891
1084.432	-7.01547
1084.783	46.10092
1085.135	62.14749
1085.486	38.08133
1085.838	48.11035
1086.189	-27.06191
1086.54	61.13476
1086.891	31.07495
1087.242	26.05867
1087.593	-6.0136
1087.944	21.04383
1088.295	8.01665
1088.646	46.10406
1088.996	-23.05219
1089.347	72.16261
1089.698	-5.01122
1090.048	11.02681
1090.398	51.10993
1090.749	32.07159
1091.099	1.00241
1091.449	-25.05854
1091.799	1.00236
1092.149	43.10058
1092.499	-3.00692
1092.849	1.00241
1093.199	6.01408
1093.548	7.0159
1093.898	10.02366
1094.248	11.02671
1094.597	6.01476
1094.947	11.02787
1095.296	-7.01622
1095.645	-2.00491
1095.994	66.14772
1096.343	8.01925
1096.692	21.053
1097.041	2.00523
1097.39	19.04465
1097.739	42.10343
1098.088	-8.0202
1098.437	-54.13728
1098.785	-30.07716
1099.134	-13.03246
1099.482	-28.07341
1099.83	27.06682
1100.179	19.0478
1100.527	0
1100.875	-23.05819
1101.223	46.11661
1101.571	-16.04279
1101.919	-26.06572
1102.267	24.06566
1102.615	17.05455
1102.962	9.02886
1103.31	6.01926
1103.658	-7.02246
