Data from N3 R7 sample 5_Subt2__0__16-52-51-413.txt Node

Date: Fri Sep 19 16:52:51 PDT 2025
User: uwsun
Spectrometer: HDX01956
Trigger mode: 0
Integration Time (sec): 5.000000E-1
Scans to average: 1
Nonlinearity correction enabled: true
Boxcar width: 0
Storing dark spectrum: false
XAxis mode: Wavelengths
Number of Pixels in Spectrum: 2068
>>>>>Begin Spectral Data<<<<<
194.03	-4.01162
194.578	7.02275
195.127	3.00963
195.676	-2.00642
196.225	33.08674
196.773	22.06126
197.321	32.08893
197.87	81.20705
198.418	127.32519
198.966	101.2644
199.513	110.27805
200.061	56.14186
200.609	61.16034
201.156	19.04118
201.704	66.16499
202.251	55.14559
202.798	46.12003
203.345	134.32609
203.892	68.17042
204.438	123.28938
204.985	83.19657
205.532	93.24832
206.078	96.23371
206.624	119.29105
207.17	99.22674
207.716	36.08676
208.262	61.1191
208.808	89.2201
209.354	63.15283
209.899	55.13766
210.445	115.28534
210.99	71.17107
211.535	98.22719
212.08	61.14066
212.625	86.21311
213.17	101.25198
213.715	125.27706
214.259	158.36135
214.804	59.14404
215.348	53.12051
215.892	94.22395
216.436	104.23862
216.98	96.20697
217.524	84.19651
218.068	85.21167
218.612	59.14618
219.155	70.16305
219.698	60.14037
220.242	90.22049
220.785	64.14855
221.328	101.24831
221.871	98.244
222.414	56.13623
222.956	103.24563
223.499	61.1356
224.041	90.2026
224.583	92.19298
225.126	139.30321
225.668	80.19228
226.21	84.20823
226.751	26.05584
227.293	65.14491
227.835	41.09894
228.376	70.15732
228.918	93.23042
229.459	76.18937
230	63.14799
230.541	61.13768
231.082	90.21475
231.622	84.19018
232.163	99.23808
232.704	75.18289
233.244	54.13254
233.784	50.12004
234.324	64.14088
234.864	9.02023
235.404	42.09779
235.944	80.18436
236.484	40.09774
237.023	77.17989
237.563	78.17703
238.102	105.24241
238.641	86.21568
239.18	53.12358
239.719	82.20439
240.258	66.14498
240.797	120.28194
241.335	31.07421
241.874	75.1426
242.412	55.13
242.95	63.15024
243.488	80.1795
244.026	77.17529
244.564	115.22933
245.102	89.19612
245.64	100.23504
246.177	84.1832
246.715	69.16101
247.252	41.09201
247.789	51.08876
248.326	36.08491
248.863	39.08406
249.4	144.32097
249.936	60.1209
250.473	68.15677
251.009	104.23555
251.546	103.22278
252.082	110.23715
252.618	124.27124
253.154	67.15874
253.69	74.16317
254.226	58.13611
254.761	65.14149
255.297	63.13644
255.832	43.10014
256.367	89.20433
256.903	53.1139
257.438	69.15752
257.972	34.07425
258.507	64.14661
259.042	86.17848
259.576	85.18022
260.111	41.09322
260.645	123.25954
261.179	68.15514
261.713	48.10464
262.247	106.24155
262.781	102.21036
263.315	53.12852
263.849	68.16777
264.382	95.21206
264.915	111.25606
265.449	50.12136
265.982	61.13476
266.515	117.27891
267.048	90.18753
267.58	74.15556
268.113	102.21707
268.646	94.22995
269.178	61.13448
269.71	114.2406
270.243	80.17898
270.775	86.21553
271.307	49.1147
271.838	65.15066
272.37	90.21845
272.902	123.27411
273.433	27.0581
273.965	103.24873
274.496	51.1239
275.027	70.17022
275.558	100.23724
276.089	88.21759
276.62	96.23833
277.15	104.25034
277.681	39.082
278.211	53.12722
278.741	156.33604
279.272	87.19517
279.802	124.30322
280.332	97.22465
280.861	126.29546
281.391	119.26168
281.921	76.17738
282.45	126.31132
282.98	110.28231
283.509	63.13941
284.038	46.10177
284.567	81.18186
285.096	138.32524
285.625	115.25872
286.153	73.16793
286.682	62.13871
287.21	73.17289
287.739	79.18209
288.267	116.27615
288.795	118.30294
289.323	146.33659
289.851	109.24813
290.378	90.19845
290.906	98.23482
291.433	148.35949
291.961	108.23724
292.488	95.23253
293.015	124.28781
293.542	118.29145
294.069	104.25063
294.596	131.31575
295.122	159.36839
295.649	159.34242
296.175	122.2844
296.702	123.28769
297.228	125.29111
297.754	99.21706
298.28	103.22811
298.806	140.33008
299.332	105.2273
299.857	122.26731
300.383	117.28691
300.908	159.37888
301.433	148.35206
301.958	125.27591
302.483	146.36047
303.008	117.28051
303.533	82.20661
304.058	124.28382
304.582	145.33422
305.107	97.25116
305.631	149.32613
306.155	146.33444
306.679	140.31993
307.203	140.31735
307.727	141.32811
308.251	155.37119
308.775	147.33896
309.298	148.34867
309.822	123.30352
310.345	157.3613
310.868	156.36208
311.391	107.25771
311.914	129.31715
312.437	145.31791
312.96	193.44077
313.482	160.37004
314.005	131.32183
314.527	135.34822
315.049	157.38342
315.571	265.57388
316.093	203.48872
316.615	158.37397
317.137	150.3138
317.659	123.28848
318.18	159.37378
318.702	183.41254
319.223	146.29081
319.744	198.43017
320.265	177.41837
320.786	180.43311
321.307	228.54859
321.828	224.49059
322.348	202.4616
322.869	137.31074
323.389	171.30884
323.909	200.4432
324.43	172.39858
324.95	215.47614
325.47	237.56277
325.989	265.60811
326.509	178.38194
327.029	196.42709
327.548	188.41175
328.067	202.47051
328.587	251.60106
329.106	215.46839
329.625	209.52101
330.144	170.37704
330.662	239.53149
331.181	291.64766
331.7	228.51177
332.218	248.51835
332.736	219.48884
333.255	242.53939
333.773	221.50512
334.291	209.49763
334.808	254.53536
335.326	246.5324
335.844	303.67604
336.361	289.69678
336.879	204.45903
337.396	276.62662
337.913	251.54844
338.43	353.75137
338.947	299.67649
339.464	250.51118
339.981	280.63621
340.497	312.73098
341.014	297.68071
341.53	311.67061
342.046	313.73059
342.562	313.73834
343.078	270.60354
343.594	315.71645
344.11	293.6594
344.626	359.85535
345.141	363.78038
345.657	307.64835
346.172	377.8432
346.687	323.70216
347.202	363.76089
347.717	321.72537
348.232	395.92411
348.747	358.76979
349.261	412.84966
349.776	352.76991
350.29	388.9008
350.805	380.86897
351.319	373.81325
351.833	344.73906
352.347	273.60079
352.861	379.82458
353.374	419.88058
353.888	402.89447
354.401	405.85979
354.915	412.86034
355.428	431.99645
355.941	444.95509
356.454	448.91808
356.967	470.01818
357.48	414.8741
357.993	399.91186
358.505	456.03687
359.018	486.06947
359.53	439.96969
360.042	388.78362
360.554	507.10572
361.066	427.95618
361.578	515.01762
362.09	484.0499
362.602	517.02349
363.113	401.84536
363.625	550.11716
364.136	492.97543
364.647	481.01965
365.158	510.07724
365.669	554.21171
366.18	498.03437
366.691	485.96897
367.201	520.11183
367.712	496.00224
368.222	578.1939
368.733	561.09314
369.243	542.05329
369.753	557.13784
370.263	545.15205
370.773	552.22714
371.282	566.19468
371.792	588.18525
372.301	593.27719
372.811	612.41793
373.32	610.12771
373.829	659.37089
374.338	647.25028
374.847	666.3169
375.356	693.43915
375.865	765.36244
376.373	757.45555
376.882	791.70703
377.39	774.59364
377.898	836.75455
378.407	834.53662
378.915	899.55882
379.423	971.85791
379.93	967.74533
380.438	1006.98933
380.946	1056.95241
381.453	1105.07479
381.96	1137.08919
382.468	1265.25931
382.975	1388.50081
383.482	1345.18169
383.989	1384.63509
384.495	1437.34759
385.002	1467.09483
385.509	1519.44562
386.015	1765.16851
386.521	1735.45575
387.028	1852.58774
387.534	1894.41362
388.04	1985.81139
388.546	2044.56637
389.051	2133.54822
389.557	2285.83807
390.063	2559.89644
390.568	2550.99064
391.073	2629.72628
391.578	2706.04124
392.084	2781.59004
392.589	2981.50387
393.093	3108.81188
393.598	3480.49221
394.103	3773.63272
394.607	4112.39134
395.112	4371.46566
395.616	4634.13933
396.12	5234.48692
396.624	5629.33878
397.128	6094.28563
397.632	6913.05937
398.136	7459.27723
398.639	7844.64132
399.143	8737.88588
399.646	9972.05669
400.15	10962.18527
400.653	12230.54991
401.156	13688.73634
401.659	15835.72797
402.162	19373.41876
402.664	25726.12707
403.167	35889.85582
403.67	57692.2801
404.172	55487.84425
404.674	37291.05854
405.176	4428.40989
405.678	533.47942
406.18	0
406.682	0
407.184	6962.89417
407.686	50953.82939
408.187	59237.6763
408.688	61091.12691
409.19	47376.14514
409.691	37590.04818
410.192	31646.0023
410.693	27393.74345
411.194	24719.62725
411.694	23147.61176
412.195	21665.78193
412.696	19293.35358
413.196	18007.19573
413.696	17364.86385
414.196	17526.56566
414.696	17231.67899
415.196	16522.77936
415.696	15050.32923
416.196	12389.68839
416.695	9423.39968
417.195	8081.88473
417.694	7538.99597
418.194	7083.73947
418.693	6619.94006
419.192	6437.15861
419.691	6431.16362
420.19	6270.22475
420.688	6136.46993
421.187	5796.58661
421.685	5393.45791
422.184	4913.80147
422.682	4352.78463
423.18	3681.4666
423.678	3184.60072
424.176	2936.67117
424.674	2765.48001
425.172	2650.82633
425.669	2570.11844
426.167	2406.7508
426.664	2203.64447
427.161	1976.5636
427.659	1814.78223
428.156	1772.22235
428.652	1669.79149
429.149	1547.52871
429.646	1518.1679
430.143	1454.41169
430.639	1378.28982
431.135	1204.20995
431.632	1204.00019
432.128	1068.98445
432.624	1036.06151
433.12	1056.84495
433.616	977.63733
434.111	977.83884
434.607	893.71338
435.103	917.46881
435.598	862.39177
436.093	847.5805
436.588	797.45548
437.083	787.44152
437.578	670.27842
438.073	653.37527
438.568	683.40512
439.062	646.15156
439.557	608.20877
440.051	605.16786
440.546	587.15149
441.04	494.02057
441.534	600.32074
442.028	560.16235
442.522	499.05603
443.015	493.93838
443.509	524.12765
444.002	521.12142
444.496	395.75512
444.989	514.11178
445.482	471.03489
445.975	486.97749
446.468	416.7943
446.961	421.78885
447.454	399.79345
447.947	446.95692
448.439	462.00805
448.931	436.87491
449.424	358.80615
449.916	372.8054
450.408	456.92898
450.9	379.82948
451.392	377.86818
451.884	345.70558
452.375	345.77387
452.867	376.75904
453.358	307.62786
453.849	352.66916
454.341	366.74394
454.832	299.58793
455.323	362.80214
455.814	317.65801
456.304	317.66124
456.795	342.69801
457.285	283.56802
457.776	298.60462
458.266	346.75199
458.756	256.56019
459.247	320.69046
459.737	312.68762
460.226	307.62872
460.716	312.68387
461.206	263.57417
461.695	344.78857
462.185	295.64103
462.674	317.65302
463.163	229.46346
463.653	293.56065
464.142	243.53859
464.63	267.59991
465.119	251.54171
465.608	206.43916
466.096	236.47511
466.585	183.38818
467.073	201.4431
467.561	284.63771
468.05	226.48075
468.538	305.69483
469.026	276.61186
469.513	232.44984
470.001	225.47122
470.489	227.49789
470.976	247.5253
471.463	264.61394
471.951	252.58349
472.438	194.4274
472.925	183.39631
473.412	197.447
473.899	213.45655
474.385	203.46566
474.872	151.3305
475.359	190.43488
475.845	227.43247
476.331	174.34835
476.817	158.35859
477.303	173.37642
477.789	164.37099
478.275	167.39198
478.761	175.3937
479.247	168.34959
479.732	187.44166
480.218	154.37966
480.703	188.44514
481.188	124.24929
481.673	125.27233
482.158	153.30922
482.643	127.3068
483.128	98.21174
483.612	140.3074
484.097	176.40381
484.581	71.15521
485.066	112.25759
485.55	142.29061
486.034	118.24489
486.518	169.37443
487.002	109.25495
487.486	79.18529
487.969	130.30627
488.453	172.41135
488.936	92.19681
489.42	101.21303
489.903	116.2788
490.386	165.33271
490.869	86.17497
491.352	102.23619
491.835	68.13229
492.318	123.26524
492.8	65.12709
493.283	90.22147
493.765	115.27151
494.247	53.11782
494.73	101.21218
495.212	90.20683
495.694	91.20347
496.175	37.08522
496.657	152.34539
497.139	26.04135
497.62	46.10635
498.102	44.10628
498.583	41.09804
499.064	103.2222
499.545	39.08576
500.026	88.18809
500.507	48.1061
500.988	57.13515
501.469	47.11307
501.949	53.12494
502.43	34.07801
502.91	46.09098
503.39	85.20364
503.87	60.13645
504.35	24.05412
504.83	55.116
505.31	64.15019
505.79	44.1018
506.269	55.12272
506.749	29.06396
507.228	21.04786
507.707	51.10861
508.187	10.02298
508.666	-16.03822
509.145	51.11488
509.623	33.07482
510.102	21.04916
510.581	36.08313
511.059	67.16375
511.538	57.1419
512.016	84.19389
512.494	8.01872
512.972	37.08597
513.45	-8.01837
513.928	6.01422
514.406	54.12875
514.884	56.14135
515.361	55.12859
515.839	68.14824
516.316	23.05333
516.793	5.0123
517.27	96.22406
517.747	28.07007
518.224	53.11748
518.701	47.10135
519.178	76.1853
519.654	-41.09364
520.131	-26.06244
520.607	43.10317
521.083	13.02908
521.56	-51.11812
522.036	82.17299
522.512	75.17769
522.987	66.15313
523.463	47.10859
523.939	8.0191
524.414	8.01782
524.89	-22.05074
525.365	39.08641
525.84	61.14402
526.315	-3.00701
526.79	34.07355
527.265	-7.01537
527.74	6.01423
528.215	50.11435
528.689	115.24607
529.164	9.01857
529.638	30.07521
530.112	29.06735
530.587	21.04414
531.061	-6.01425
531.534	-5.01175
532.008	-4.00946
532.482	16.03488
532.956	1.00254
533.429	-55.12789
533.903	53.11169
534.376	19.0406
534.849	19.04303
535.322	36.08237
535.795	-7.01673
536.268	71.16574
536.741	19.04432
537.213	43.0965
537.686	-5.01183
538.158	37.08054
538.631	25.05854
539.103	-22.04835
539.575	92.18197
540.047	43.09097
540.519	21.04831
540.991	0
541.463	12.02847
541.934	17.03796
542.406	36.08356
542.877	48.10433
543.348	-28.06466
543.82	48.11352
544.291	-12.0269
544.762	4.00924
545.233	103.25089
545.703	47.101
546.174	79.17758
546.645	67.15788
547.115	121.27935
547.585	74.16611
548.056	141.3307
548.526	116.26177
548.996	39.09093
549.466	111.25728
549.935	114.26303
550.405	130.27425
550.875	66.15028
551.344	119.2756
551.814	75.16298
552.283	134.27362
552.752	128.2833
553.221	119.24625
553.69	137.29035
554.159	175.4146
554.628	124.26378
555.096	133.32202
555.565	119.25187
556.033	174.3843
556.502	148.3393
556.97	160.33235
557.438	209.46401
557.906	202.44894
558.374	182.39187
558.842	218.48872
559.31	135.28399
559.777	237.53819
560.245	194.42148
560.712	185.39431
561.18	272.54985
561.647	295.59949
562.114	275.57771
562.581	306.69781
563.048	272.56826
563.514	289.65972
563.981	319.66157
564.448	361.73328
564.914	352.73897
565.381	388.77751
565.847	457.94182
566.313	407.84368
566.779	450.90801
567.245	457.94943
567.711	433.93604
568.176	524.0536
568.642	512.14609
569.108	485.05856
569.573	473.96822
570.038	567.02218
570.504	583.13771
570.969	525.1552
571.434	568.08136
571.899	627.28629
572.363	588.14395
572.828	638.22314
573.293	589.16196
573.757	651.27667
574.222	672.27976
574.686	645.23391
575.15	689.39203
575.614	609.19023
576.078	654.30038
576.542	662.27963
577.006	729.37674
577.469	596.2647
577.933	622.17174
578.396	669.36887
578.86	609.22061
579.323	629.28459
579.786	595.08429
580.249	580.14176
580.712	552.16712
581.175	593.27063
581.637	623.23663
582.1	550.02773
582.563	467.8457
583.025	512.09375
583.487	461.8038
583.95	501.94063
584.412	517.92483
584.874	447.96589
585.336	507.05895
585.797	427.81274
586.259	395.81917
586.721	426.89549
587.182	418.85545
587.643	396.80272
588.105	407.86855
588.566	399.74429
589.027	389.85819
589.488	333.68505
589.949	322.7049
590.41	358.63026
590.87	269.5514
591.331	316.60511
591.791	254.53372
592.252	315.65765
592.712	336.73368
593.172	351.71264
593.632	257.49987
594.092	305.61755
594.552	248.48569
595.011	314.66357
595.471	313.63491
595.931	274.55745
596.39	304.66971
596.849	280.59639
597.308	331.64257
597.768	313.73318
598.227	308.67994
598.685	284.58464
599.144	250.53897
599.603	326.7016
600.062	276.52288
600.52	329.66614
600.978	316.68943
601.437	302.62618
601.895	359.67831
602.353	312.61769
602.811	331.66068
603.269	376.80467
603.727	325.70891
604.184	412.82522
604.642	343.75989
605.099	426.87142
605.557	363.7881
606.014	399.75722
606.471	456.02556
606.928	492.95857
607.385	430.95517
607.842	444.91194
608.299	485.98694
608.755	414.88981
609.212	481.94048
609.668	505.98039
610.125	500.04638
610.581	472.95852
611.037	533.03799
611.493	511.03757
611.949	451.96285
612.405	542.9299
612.861	513.02315
613.316	578.19603
613.772	503.00316
614.227	543.10719
614.683	538.98202
615.138	594.20559
615.593	522.03655
616.048	477.93442
616.503	538.14393
616.958	583.261
617.412	600.20781
617.867	503.97791
618.321	489.84184
618.776	631.1605
619.23	576.169
619.684	581.09516
620.138	577.10732
620.592	507.0655
621.046	528.05873
621.5	538.12506
621.954	539.0248
622.407	527.99872
622.861	432.9125
623.314	497.97913
623.768	487.99101
624.221	501.84364
624.674	445.88575
625.127	479.97695
625.58	384.75276
626.033	431.81357
626.485	442.9283
626.938	390.81838
627.39	483.97705
627.843	409.82547
628.295	385.79095
628.747	441.92151
629.199	437.88036
629.651	401.80783
630.103	454.91523
630.555	397.72624
631.006	402.83239
631.458	321.66988
631.909	414.82577
632.361	356.73088
632.812	388.79837
633.263	374.6999
633.714	398.72973
634.165	288.61956
634.616	277.59423
635.067	316.61419
635.518	281.59708
635.968	370.64082
636.419	327.62117
636.869	336.7085
637.319	351.7224
637.769	334.67147
638.219	290.61473
638.669	301.65378
639.119	286.63033
639.569	345.75667
640.019	323.66537
640.468	276.54642
640.918	309.66887
641.367	303.61294
641.816	293.59271
642.265	324.67239
642.714	350.72926
643.163	278.5692
643.612	295.65438
644.061	245.46562
644.51	305.63084
644.958	299.59154
645.406	319.69435
645.855	236.53059
646.303	315.65795
646.751	305.63225
647.199	275.55579
647.647	308.64946
648.095	293.60412
648.543	308.54932
648.99	264.58087
649.438	322.68286
649.885	280.64008
650.333	286.48189
650.78	327.72897
651.227	310.69123
651.674	334.68571
652.121	249.54844
652.568	289.64161
653.015	236.53972
653.461	314.67664
653.908	296.62306
654.354	246.53035
654.801	274.58893
655.247	287.56407
655.693	281.67622
656.139	305.66191
656.585	284.62329
657.031	273.58893
657.477	325.63424
657.922	345.71964
658.368	295.6601
658.813	281.57703
659.259	287.63213
659.704	304.64863
660.149	328.6889
660.594	304.65707
661.039	320.66261
661.484	271.59239
661.929	285.60426
662.373	321.75073
662.818	342.77706
663.262	290.63485
663.707	277.64251
664.151	325.73111
664.595	286.63297
665.039	333.74787
665.483	340.79656
665.927	312.66021
666.371	288.61476
666.814	289.62772
667.258	305.66642
667.701	358.66996
668.145	299.67621
668.588	274.62056
669.031	326.7025
669.474	324.70628
669.917	358.6998
670.36	279.6315
670.803	328.71348
671.245	289.54309
671.688	282.6262
672.13	266.54118
672.573	351.81412
673.015	276.60395
673.457	346.67859
673.899	296.64963
674.341	314.68739
674.783	325.71222
675.225	254.57527
675.666	270.60005
676.108	325.63575
676.549	300.64148
676.991	304.60016
677.432	296.51727
677.873	295.6159
678.314	307.66398
678.755	271.6099
679.196	314.65513
679.637	259.57525
680.078	310.6531
680.518	246.51372
680.959	279.60961
681.399	274.61854
681.839	282.62672
682.28	261.59773
682.72	277.57319
683.16	271.62337
683.6	293.60276
684.039	246.46057
684.479	237.53928
684.919	296.62827
685.358	266.6181
685.798	234.56729
686.237	230.51074
686.676	225.47789
687.115	242.52173
687.554	255.55435
687.993	244.48216
688.432	287.60159
688.871	275.5665
689.309	333.73958
689.748	268.50301
690.186	247.53422
690.625	265.57927
691.063	255.56848
691.501	266.60563
691.939	249.57414
692.377	236.53342
692.815	251.5598
693.253	238.51927
693.69	210.42277
694.128	253.57196
694.565	234.51573
695.003	279.65406
695.44	202.43755
695.877	213.46581
696.314	251.48633
696.751	218.45242
697.188	263.55519
697.625	227.4712
698.061	184.41199
698.498	234.52048
698.934	223.49056
699.371	213.46719
699.807	234.51076
700.243	218.49234
700.679	217.45084
701.115	156.33936
701.551	197.433
701.987	172.35313
702.422	182.40096
702.858	158.34853
703.294	174.36159
703.729	222.50607
704.164	169.38332
704.599	211.42723
705.035	172.35855
705.47	195.44803
705.904	150.32478
706.339	154.32773
706.774	151.32785
707.209	155.33194
707.643	199.4431
708.078	174.39361
708.512	178.42553
708.946	155.34413
709.38	169.36943
709.814	123.26079
710.248	133.30007
710.682	121.27356
711.116	148.33507
711.549	107.26024
711.983	118.25342
712.416	150.32575
712.85	150.3538
713.283	143.31617
713.716	124.29122
714.149	133.29234
714.582	156.32534
715.015	161.37346
715.448	91.21393
715.881	103.20492
716.313	171.37475
716.746	131.29097
717.178	82.18588
717.61	137.32721
718.043	90.21014
718.475	100.22732
718.907	87.20485
719.339	101.21508
719.77	87.19813
720.202	76.18218
720.634	111.25698
721.065	113.25047
721.497	127.2932
721.928	123.28622
722.359	102.23637
722.79	89.20129
723.221	58.13739
723.652	90.21738
724.083	53.11247
724.514	50.10632
724.945	32.0718
725.375	77.1696
725.806	31.07242
726.236	74.17948
726.666	66.14626
727.096	81.18626
727.526	55.13377
727.956	20.04327
728.386	33.07603
728.816	57.13801
729.246	71.16509
729.675	59.13962
730.105	34.0792
730.534	94.20622
730.964	76.17933
731.393	50.11523
731.822	103.24948
732.251	56.13623
732.68	19.04136
733.109	93.21667
733.537	43.09844
733.966	41.09642
734.395	15.03264
734.823	27.05695
735.251	19.04373
735.68	75.17632
736.108	51.1219
736.536	34.07591
736.964	41.08944
737.392	30.0709
737.82	48.10828
738.247	30.06745
738.675	25.05576
739.102	46.11081
739.53	57.13947
739.957	-15.03697
740.384	45.1036
740.811	46.11157
741.238	1.00232
741.665	89.19653
742.092	-12.02705
742.519	26.06221
742.945	17.03876
743.372	35.08286
743.798	31.07599
744.225	26.05848
744.651	15.03576
745.077	1.00239
745.503	38.08708
745.929	-18.04113
746.355	27.06243
746.781	35.08222
747.207	38.08582
747.632	6.01411
748.058	-10.02366
748.483	0
748.908	15.03557
749.334	69.15968
749.759	6.01341
750.184	-30.06856
750.609	23.05335
751.033	5.01098
751.458	111.23268
751.883	-1.00235
752.307	64.14425
752.732	34.08222
753.156	15.03529
753.58	38.08474
754.005	53.12881
754.429	-59.13137
754.853	6.01428
755.277	21.04754
755.7	-2.00473
756.124	7.01686
756.548	-12.02741
756.971	33.07597
757.394	-9.02228
757.818	10.02489
758.241	-28.06801
758.664	15.03666
759.087	25.054
759.51	22.05213
759.933	-31.07237
760.356	14.03429
760.778	86.20293
761.201	-23.05253
761.623	13.02939
762.046	-52.11519
762.468	25.05659
762.89	33.07725
763.312	11.02534
763.734	2.00462
764.156	23.05432
764.578	-9.01942
765	26.06025
765.421	36.08911
765.843	31.07815
766.264	1.00228
766.686	64.15359
767.107	53.12324
767.528	47.11483
767.949	7.01704
768.37	6.01399
768.791	-15.03446
769.212	36.08781
769.632	-18.04004
770.053	17.04312
770.473	31.0718
770.894	-16.03786
771.314	-1.00224
771.734	10.02195
772.154	21.05163
772.575	48.10411
772.994	-16.03478
773.414	-34.07632
773.834	13.03129
774.254	17.03936
774.673	32.07336
775.093	11.02622
775.512	8.01899
775.931	79.19157
776.351	-10.02362
776.77	20.04684
777.189	12.02685
777.607	2.00492
778.026	49.11672
778.445	10.02434
778.864	-19.04659
779.282	-4.00908
779.701	13.03133
780.119	-17.04102
780.537	-6.01431
780.955	41.09856
781.373	12.02824
781.791	58.12295
782.209	59.12799
782.627	14.03564
783.045	-10.02186
783.462	7.01699
783.88	2.005
784.297	1.00241
784.715	44.10955
785.132	32.0733
785.549	36.08685
785.966	12.02868
786.383	38.08935
786.8	26.05707
787.217	15.03361
787.633	36.08567
788.05	-28.06151
788.466	23.05066
788.883	40.09822
789.299	-22.05009
789.715	32.0743
790.131	-14.03312
790.547	6.01399
790.963	37.08712
791.379	-8.01945
791.795	-14.0302
792.21	28.0614
792.626	46.10245
793.041	-11.02575
793.457	20.04666
793.872	18.04012
794.287	29.0674
794.702	25.05799
795.117	19.04455
795.532	58.13946
795.947	34.07616
796.362	10.02232
796.776	-24.0515
797.191	-16.0372
797.605	49.11087
798.02	37.08597
798.434	24.04943
798.848	-4.00932
799.262	12.02887
799.676	22.05019
800.09	-23.05378
800.504	35.08
800.918	11.02394
801.331	8.01988
801.745	20.04299
802.158	-34.08138
802.572	27.06139
802.985	20.04497
803.398	27.06069
803.811	47.11341
804.224	18.04228
804.637	-40.08946
805.05	8.01745
805.462	-9.02094
805.875	48.12081
806.288	34.07851
806.7	9.02152
807.112	13.02837
807.525	25.05873
807.937	-25.05928
808.349	24.05672
808.761	-39.09036
809.173	-29.0662
809.584	15.03486
809.996	-10.0235
810.408	13.03226
810.819	-11.02464
811.231	4.01018
811.642	93.21641
812.053	11.02529
812.464	37.08372
812.875	19.0464
813.286	8.01957
813.697	5.01068
814.108	-8.01834
814.519	20.04121
814.929	23.05495
815.34	34.07745
815.75	1.00242
816.16	-21.04896
816.571	21.05203
816.981	7.01531
817.391	33.07464
817.801	25.05978
818.211	49.10992
818.62	3.00682
819.03	-11.02528
819.44	14.03467
819.849	46.10997
820.259	20.04884
820.668	28.06607
821.077	-30.07164
821.486	-12.02701
821.895	-32.0738
822.304	13.033
822.713	24.05307
823.122	54.12786
823.531	51.11384
823.939	10.02314
824.348	86.19558
824.756	24.05659
825.164	9.02129
825.573	12.02862
825.981	39.09122
826.389	-34.08044
826.797	23.0547
827.205	12.02586
827.612	35.08061
828.02	26.05807
828.428	-5.01208
828.835	11.02778
829.243	30.06676
829.65	20.04732
830.057	51.1176
830.464	39.09065
830.871	23.05149
831.278	-40.09126
831.685	-5.0103
832.092	37.0858
832.499	34.06845
832.905	30.07224
833.312	45.09445
833.718	-8.01883
834.124	32.06846
834.531	21.04977
834.937	-11.02665
835.343	27.06137
835.749	34.07324
836.155	-7.01748
836.561	-31.0712
836.966	41.09371
837.372	-13.03141
837.777	27.06308
838.183	-28.05689
838.588	47.11058
838.993	25.05647
839.399	5.01151
839.804	40.09299
840.209	25.06103
840.613	59.12285
841.018	-6.01428
841.423	-34.08256
841.828	31.07401
842.232	-23.05308
842.637	-27.05922
843.041	47.11611
843.445	-23.05443
843.849	-19.04481
844.253	-10.02219
844.657	26.06266
845.061	45.09504
845.465	71.16411
845.869	-12.0261
846.272	-34.07895
846.676	51.11582
847.079	66.15941
847.483	37.08654
847.886	-6.01352
848.289	36.09323
848.692	15.0359
849.095	-25.05617
849.498	-24.05661
849.901	23.04862
850.304	49.1082
850.707	14.03373
851.109	-13.03059
851.512	53.12329
851.914	35.08538
852.316	13.03132
852.718	15.03742
853.121	19.04397
853.523	21.04579
853.925	-6.01502
854.326	26.06237
854.728	22.05372
855.13	15.03718
855.531	57.12971
855.933	17.03817
856.334	10.0238
856.736	-36.07531
857.137	39.08461
857.538	10.02387
857.939	13.03066
858.34	15.03413
858.741	17.04221
859.142	9.02044
859.542	66.16867
859.943	70.1644
860.343	34.08004
860.744	40.092
861.144	12.0276
861.544	33.07588
861.945	-41.09935
862.345	-43.09817
862.745	12.02822
863.145	1.0022
863.544	47.11341
863.944	-6.01329
864.344	13.03
864.743	32.07469
865.143	50.12113
865.542	21.0453
865.941	40.09413
866.34	57.12739
866.74	-20.05156
867.139	7.01594
867.537	6.0144
867.936	-25.05737
868.335	38.09213
868.734	40.09782
869.132	53.11547
869.531	47.10583
869.929	36.07738
870.327	16.03606
870.726	0
871.124	12.02597
871.522	-27.06498
871.92	5.01162
872.318	34.07829
872.715	11.02554
873.113	24.0552
873.511	5.01183
873.908	32.07849
874.306	1.00237
874.703	28.06586
875.1	-30.07271
875.497	-14.03149
875.894	61.14279
876.291	15.03503
876.688	2.0049
877.085	8.01794
877.482	-10.02354
877.878	7.01595
878.275	-28.06763
878.671	-12.02414
879.068	25.05643
879.464	20.04559
879.86	44.09868
880.256	36.08207
880.652	-6.01449
881.048	-32.07436
881.444	11.02416
881.84	-17.04091
882.236	57.13478
882.631	28.06478
883.027	-33.07442
883.422	-2.00485
883.817	26.06266
884.213	43.10443
884.608	-15.03537
885.003	48.10863
885.398	-45.10777
885.793	-38.09057
886.188	-14.03357
886.582	12.02852
886.977	35.07732
887.371	7.01674
887.766	-3.00716
888.16	48.1126
888.554	-13.03004
888.949	-6.01404
889.343	0
889.737	28.07246
890.131	-18.04323
890.525	-7.01697
890.918	-21.05087
891.312	-12.02649
891.706	52.13027
892.099	13.03117
892.492	54.10686
892.886	16.03658
893.279	19.04588
893.672	-9.02191
894.065	2.00472
894.458	-2.00476
894.851	-9.02046
895.244	5.01216
895.637	41.09262
896.029	8.01844
896.422	-4.00918
896.814	16.03765
897.206	39.08806
897.599	-19.04341
897.991	34.07738
898.383	23.05058
898.775	14.0293
899.167	63.13813
899.559	11.02617
899.951	29.06358
900.342	-37.0881
900.734	25.06005
901.125	12.02962
901.517	37.0858
901.908	33.07302
902.299	3.00697
902.69	20.04427
903.082	18.04089
903.473	25.05691
903.863	69.16726
904.254	14.03021
904.645	6.01386
905.036	59.13583
905.426	-56.1171
905.817	40.09192
906.207	-16.03628
906.597	38.08326
906.987	-26.06342
907.378	-18.04303
907.768	19.04805
908.158	-3.00693
908.547	-7.01732
908.937	-7.01699
909.327	29.06562
909.717	18.04267
910.106	45.10095
910.495	62.14573
910.885	-39.09254
911.274	6.01427
911.663	83.19877
912.052	8.01841
912.441	15.03652
912.83	24.05094
913.219	7.01718
913.608	1.00231
913.997	-37.08854
914.385	43.09436
914.774	33.07485
915.162	2.00446
915.55	42.09493
915.939	13.03124
916.327	16.03762
916.715	25.06092
917.103	-1.0023
917.491	24.05487
917.878	-33.07558
918.266	9.02212
918.654	44.1074
919.041	-19.04754
919.429	29.06431
919.816	-4.00956
920.203	-10.02295
920.591	-29.06775
920.978	36.08224
921.365	-21.05245
921.752	4.00902
922.139	63.12622
922.525	-19.04313
922.912	27.06144
923.299	9.02127
923.685	8.01988
924.072	-7.01489
924.458	9.02108
924.844	-16.0375
925.231	7.01512
925.617	11.02703
926.003	10.02421
926.389	12.02896
926.774	13.03135
927.16	-3.007
927.546	-8.01954
927.931	30.07035
928.317	-15.03171
928.702	5.01097
929.088	11.02454
929.473	-14.03397
929.858	22.0511
930.243	3.00683
930.628	-2.00457
931.013	13.03086
931.398	42.08833
931.783	39.09709
932.167	-47.10868
932.552	-13.03041
932.937	-45.10447
933.321	-51.12181
933.705	35.08417
934.09	19.04449
934.474	73.15992
934.858	5.0124
935.242	59.12892
935.626	-12.02909
936.009	-26.06628
936.393	59.14243
936.777	23.0563
937.16	-22.05392
937.544	38.08281
937.927	-2.00484
938.311	31.07014
938.694	27.06768
939.077	-21.04707
939.46	27.06243
939.843	42.07828
940.226	-20.0486
940.609	-6.01282
940.991	-32.07779
941.374	-14.03216
941.757	37.08525
942.139	28.05767
942.522	36.07788
942.904	8.01813
943.286	-1.00238
943.668	35.08557
944.05	17.03937
944.432	37.08607
944.814	7.01606
945.196	31.072
945.578	23.052
945.959	30.06571
946.341	6.01355
946.722	28.06156
947.104	-1.00222
947.485	13.02815
947.866	13.0313
948.247	8.01913
948.628	9.02046
949.009	18.04384
949.39	-7.01612
949.771	44.09392
950.152	32.07416
950.532	60.14289
950.913	22.04904
951.293	11.0287
951.674	-42.09555
952.054	9.02115
952.434	-18.04196
952.814	-3.00657
953.194	25.06219
953.574	-26.05968
953.954	-15.03358
954.334	36.08481
954.714	-26.06035
955.093	-2.00457
955.473	-23.0542
955.853	49.12016
956.232	7.01837
956.611	-22.04869
956.99	-15.036
957.37	14.03375
957.749	-21.0467
958.128	6.01449
958.506	24.0596
958.885	14.03319
959.264	16.03699
959.643	62.13028
960.021	4.00938
960.4	31.06625
960.778	-2.00455
961.156	3.00711
961.535	-12.02554
961.913	-36.07755
962.291	34.08364
962.669	2.00482
963.047	-31.07441
963.424	13.03157
963.802	-45.1041
964.18	53.12455
964.557	5.01054
964.935	10.02206
965.312	35.08688
965.69	-7.01648
966.067	25.05652
966.444	41.09439
966.821	19.04602
967.198	-20.045
967.575	-6.01374
967.952	34.07459
968.329	-14.03201
968.705	31.05981
969.082	33.08056
969.458	-32.07386
969.835	8.01826
970.211	6.01463
970.587	24.05619
970.963	59.14162
971.339	-17.04284
971.715	-13.03019
972.091	-11.02551
972.467	-18.04173
972.843	-4.0094
973.219	17.03751
973.594	-9.0225
973.97	74.16002
974.345	-7.01575
974.721	-11.02491
975.096	-22.04975
975.471	75.16492
975.846	60.13507
976.221	12.0289
976.596	-19.04304
976.971	27.06258
977.346	31.06593
977.72	-3.00723
978.095	38.09299
978.469	16.03583
978.844	7.01656
979.218	1.00228
979.593	-9.02033
979.967	41.09398
980.341	50.10548
980.715	4.00947
981.089	-45.10612
981.463	69.1479
981.837	15.0348
982.21	44.09376
982.584	-11.02489
982.957	16.03805
983.331	6.01328
983.704	11.02566
984.078	-33.0767
984.451	-33.076
984.824	35.08061
985.197	8.01818
985.57	11.02573
985.943	-18.04105
986.316	46.10529
986.688	-6.01353
987.061	23.0496
987.434	29.07169
987.806	20.04511
988.179	-21.04629
988.551	11.02612
988.923	-3.00694
989.295	28.06545
989.667	61.13864
990.039	11.02577
990.411	41.08838
990.783	18.03829
991.155	25.05728
991.527	-14.03175
991.898	-29.06815
992.27	3.00702
992.641	9.02115
993.012	127.27469
993.384	-11.02471
993.755	1.0024
994.126	30.06759
994.497	-16.03711
994.868	48.10233
995.239	31.07074
995.61	-9.02139
995.98	13.03002
996.351	-6.01419
996.722	-11.02418
997.092	-7.01579
997.462	29.06404
997.833	6.01324
998.203	13.02933
998.573	30.07084
998.943	-44.09625
999.313	42.09443
999.683	-61.13774
1000.053	50.10692
1000.423	16.03648
1000.792	2.00494
1001.162	38.0882
1001.531	41.09526
1001.901	-7.01641
1002.27	50.10353
1002.639	14.03399
1003.009	68.15214
1003.378	11.02669
1003.747	17.03732
1004.116	28.06308
1004.485	41.09194
1004.853	6.01439
1005.222	58.13856
1005.591	3.00661
1005.959	40.08472
1006.328	-20.04193
1006.696	28.06375
1007.064	37.08756
1007.433	56.13162
1007.801	2.00458
1008.169	2.00474
1008.537	28.05749
1008.905	1.00219
1009.273	25.05785
1009.64	2.00452
1010.008	13.0289
1010.375	55.12379
1010.743	18.03761
1011.11	2.00446
1011.478	23.05331
1011.845	-1.00216
1012.212	-22.04609
1012.579	21.04858
1012.946	-15.03297
1013.313	27.05965
1013.68	20.04125
1014.047	44.09933
1014.414	58.12842
1014.78	0
1015.147	22.04892
1015.513	89.20162
1015.88	-3.00715
1016.246	57.13154
1016.612	20.04199
1016.978	23.05261
1017.344	9.02122
1017.71	-42.09482
1018.076	46.1002
1018.442	12.02906
1018.808	-14.03323
1019.174	-18.04256
1019.539	7.01449
1019.905	-7.01563
1020.27	45.10509
1020.636	29.06468
1021.001	5.01113
1021.366	42.09606
1021.731	28.06832
1022.096	17.04094
1022.461	-55.12176
1022.826	-20.04488
1023.191	23.0573
1023.556	4.00862
1023.92	-1.00229
1024.285	31.07037
1024.649	-9.02083
1025.014	-6.014
1025.378	20.04798
1025.742	19.0443
1026.107	36.07411
1026.471	-31.06639
1026.835	-45.10488
1027.199	-19.0435
1027.562	54.11687
1027.926	52.11787
1028.29	-12.02893
1028.654	-20.0426
1029.017	3.00697
1029.381	4.00902
1029.744	37.08955
1030.107	-44.09633
1030.471	-12.0269
1030.834	8.01658
1031.197	16.03541
1031.56	22.04904
1031.923	-15.03688
1032.286	42.09067
1032.648	17.03768
1033.011	-6.01292
1033.374	27.05802
1033.736	-57.14411
1034.099	-15.03475
1034.461	-14.03394
1034.823	-35.08241
1035.185	-6.01405
1035.548	30.06809
1035.91	64.14336
1036.272	-14.02983
1036.634	13.02939
1036.995	33.07296
1037.357	-18.04151
1037.719	5.01141
1038.08	7.01522
1038.442	95.21232
1038.803	-15.03362
1039.165	3.00718
1039.526	3.00682
1039.887	-1.00227
1040.248	21.04981
1040.609	56.12864
1040.97	4.00918
1041.331	-17.04007
1041.692	-28.06223
1042.053	5.01046
1042.413	-25.05396
1042.774	0
1043.134	23.05034
1043.495	21.04925
1043.855	26.05906
1044.215	25.05802
1044.576	21.0474
1044.936	60.12736
1045.296	-10.02344
1045.656	54.1233
1046.016	-18.04032
1046.375	12.02759
1046.735	21.04486
1047.095	-10.02199
1047.454	72.13767
1047.814	13.02901
1048.173	2.00438
1048.533	21.04501
1048.892	-18.04117
1049.251	27.06367
1049.61	-47.10864
1049.969	56.12332
1050.328	-10.01976
1050.687	-1.00228
1051.046	34.0781
1051.405	-10.02316
1051.763	6.01295
1052.122	39.09233
1052.48	20.04565
1052.839	26.05711
1053.197	29.06366
1053.555	5.01016
1053.914	-10.02294
1054.272	6.01354
1054.63	-30.069
1054.988	4.00888
1055.345	-24.04729
1055.703	-21.04709
1056.061	-1.00244
1056.419	14.03454
1056.776	35.07871
1057.134	3.00646
1057.491	4.00942
1057.848	32.0741
1058.206	6.01316
1058.563	1.00207
1058.92	-6.01275
1059.277	-13.02967
1059.634	-33.07134
1059.991	90.19953
1060.348	34.07185
1060.704	4.00897
1061.061	26.05456
1061.418	34.07764
1061.774	71.16568
1062.131	52.13304
1062.487	-12.02607
1062.843	16.03746
1063.199	68.15864
1063.555	38.08242
1063.911	20.04734
1064.267	-21.03919
1064.623	31.07134
1064.979	-36.07801
1065.335	20.04373
1065.691	43.0969
1066.046	6.01206
1066.402	-12.02544
1066.757	6.01433
1067.112	-3.00684
1067.468	20.04499
1067.823	24.05409
1068.178	15.03423
1068.533	1.00226
1068.888	-18.03994
1069.243	27.06286
1069.598	-29.06543
1069.952	38.08076
1070.307	44.10386
1070.662	-10.02241
1071.016	77.15976
1071.371	-20.04234
1071.725	-34.07447
1072.079	24.05376
1072.434	-1.00228
1072.788	13.0292
1073.142	83.19101
1073.496	18.03992
1073.85	2.00432
1074.203	51.11446
1074.557	49.12419
1074.911	17.03735
1075.265	-17.0365
1075.618	28.06422
1075.971	-9.01997
1076.325	20.048
1076.678	-16.03427
1077.031	-9.01894
1077.385	75.15179
1077.738	-8.0169
1078.091	-1.00216
1078.444	30.06354
1078.796	21.04873
1079.149	-30.06972
1079.502	-15.03341
1079.855	42.09137
1080.207	19.04374
1080.56	-4.00981
1080.912	-33.07467
1081.264	30.06734
1081.617	-14.0323
1081.969	22.05342
1082.321	21.0481
1082.673	37.07938
1083.025	30.06557
1083.377	-15.02922
1083.728	-15.03203
1084.08	18.04259
1084.432	-45.10024
1084.783	93.20201
1085.135	39.09318
1085.486	-11.02379
1085.838	-5.01162
1086.189	44.09946
1086.54	14.03123
1086.891	11.02669
1087.242	-49.11227
1087.593	61.13633
1087.944	24.05005
1088.295	12.02496
1088.646	11.02506
1088.996	-17.03853
1089.347	6.01373
1089.698	32.07127
1090.048	-23.05642
1090.398	58.12483
1090.749	46.10262
1091.099	42.10033
1091.449	-33.0774
1091.799	3.00707
1092.149	28.06568
1092.499	47.10734
1092.849	31.07432
1093.199	35.08167
1093.548	31.07006
1093.898	12.02838
1094.248	31.075
1094.597	-12.02962
1094.947	42.10583
1095.296	-13.03016
1095.645	3.00736
1095.994	53.11894
1096.343	64.15236
1096.692	6.01518
1097.041	-26.06826
1097.39	30.07035
1097.739	25.06176
1098.088	-19.04807
1098.437	13.03266
1098.785	35.08899
1099.134	1.00249
1099.482	-40.10509
1099.83	19.04709
1100.179	35.08779
1100.527	-14.03525
1100.875	17.0427
1101.223	-8.02047
1101.571	26.06905
1101.919	-22.05557
1102.267	5.01372
1102.615	7.02249
1102.962	5.01604
1103.31	12.0385
1103.658	12.03841
