Data from N3 R7 sample 11_Subt2__1__16-58-30-906.txt Node

Date: Fri Sep 19 16:58:30 PDT 2025
User: uwsun
Spectrometer: HDX01956
Trigger mode: 0
Integration Time (sec): 5.000000E-1
Scans to average: 1
Nonlinearity correction enabled: true
Boxcar width: 0
Storing dark spectrum: false
XAxis mode: Wavelengths
Number of Pixels in Spectrum: 2068
>>>>>Begin Spectral Data<<<<<
194.03	62.17842
194.578	82.2642
195.127	81.25749
195.676	50.15939
196.225	76.19831
196.773	119.32631
197.321	143.3905
197.87	191.47873
198.418	254.63581
198.966	212.54443
199.513	237.58543
200.061	167.41466
200.609	207.53057
201.156	155.3262
201.704	151.37165
202.251	206.53142
202.798	229.57871
203.345	204.48992
203.892	201.49159
204.438	210.48567
204.985	231.53137
205.532	259.6724
206.078	226.53676
206.624	227.54401
207.17	253.56146
207.716	142.33532
208.262	185.35056
208.808	171.41652
209.354	211.49756
209.899	184.44977
210.445	207.50495
210.99	207.48586
211.535	221.49982
212.08	166.37475
212.625	217.52479
213.17	166.40924
213.715	183.40071
214.259	257.57602
214.804	198.47081
215.348	231.50624
215.892	264.60836
216.436	240.5356
216.98	213.44767
217.524	212.48347
218.068	186.45466
218.612	199.48036
219.155	242.54453
219.698	183.41776
220.242	224.53508
220.785	212.47762
221.328	231.55422
221.871	195.47692
222.414	164.39087
222.956	152.35907
223.499	220.47287
224.041	175.38708
224.583	212.43289
225.126	252.53652
225.668	168.39702
226.21	174.42422
226.751	94.19891
227.293	206.44583
227.835	177.4161
228.376	165.36359
228.918	210.50911
229.459	217.52677
230	193.44183
230.541	169.37302
231.082	177.41529
231.622	189.41874
232.163	189.44673
232.704	204.48545
233.244	201.47987
233.784	176.41237
234.324	208.444
234.864	180.3904
235.404	183.41422
235.944	180.40652
236.484	129.30999
237.023	216.49081
237.563	200.44265
238.102	190.43121
238.641	213.5219
239.18	187.42448
239.719	168.41219
240.258	200.42692
240.797	224.51558
241.335	209.48326
241.874	258.46872
242.412	207.47483
242.95	193.44875
243.488	221.48146
244.026	228.50314
244.564	230.44639
245.102	220.47145
245.64	236.53994
246.177	179.38251
246.715	162.37109
247.252	194.42166
247.789	123.21
248.326	131.30328
248.863	204.42412
249.4	264.57379
249.936	203.39559
250.473	216.48324
251.009	228.50335
251.546	209.44178
252.082	245.51288
252.618	241.5141
253.154	201.46384
253.69	199.42728
254.226	227.51507
254.761	203.42891
255.297	218.45646
255.832	177.4013
256.367	198.44462
256.903	199.41419
257.438	215.47634
257.972	201.42338
258.507	249.54913
259.042	119.24514
259.576	231.47415
260.111	226.49455
260.645	236.48561
261.179	176.39278
261.713	199.4199
262.247	240.53206
262.781	218.43786
263.315	195.46019
263.849	207.49759
264.382	223.48458
264.915	234.52653
265.449	227.53259
265.982	191.41045
266.515	243.56522
267.048	145.29843
267.58	199.4068
268.113	234.48367
268.646	251.59601
269.178	196.41984
269.71	237.48668
270.243	213.46344
270.775	215.52622
271.307	173.3951
271.838	243.5433
272.37	253.5952
272.902	212.46372
273.433	184.38254
273.965	282.65786
274.496	218.51297
275.027	240.56495
275.558	221.51202
276.089	226.5446
276.62	177.4329
277.15	232.54485
277.681	209.42298
278.211	212.49341
278.741	202.43082
279.272	196.42981
279.802	280.66473
280.332	209.47326
280.861	248.56762
281.391	230.49394
281.921	176.40268
282.45	255.61505
282.98	283.70416
283.509	236.50333
284.038	210.44866
284.567	211.46104
285.096	256.58946
285.625	257.56131
286.153	200.44837
286.682	177.38659
287.21	223.51276
287.739	220.4928
288.267	269.62149
288.795	225.56678
289.323	269.6049
289.851	219.48743
290.378	244.52062
290.906	259.60148
291.433	227.54318
291.961	190.41015
292.488	246.58515
293.015	277.6234
293.542	215.52152
294.069	282.65657
294.596	252.59343
295.122	265.60104
295.649	278.58337
296.175	234.53343
296.702	212.48718
297.228	239.54405
297.754	252.53465
298.28	258.55287
298.806	279.63997
299.332	260.54416
299.857	252.53698
300.383	234.56131
300.908	282.65605
301.433	301.69485
301.958	213.46147
302.483	345.82043
303.008	286.66351
303.533	220.54055
304.058	287.63531
304.582	296.66165
305.107	278.69713
305.631	310.6554
306.155	310.68665
306.679	303.66961
307.203	358.77542
307.727	293.66129
308.251	288.67212
308.775	282.6327
309.298	302.69008
309.822	306.72952
310.345	325.72272
310.868	266.60392
311.391	298.69162
311.914	298.70964
312.437	287.61036
312.96	337.74722
313.482	326.729
314.005	289.68913
314.527	333.82914
315.049	306.72645
315.571	367.77743
316.093	372.86674
316.615	344.78477
317.137	351.70158
317.659	353.79051
318.18	357.8067
318.702	313.68679
319.223	350.66406
319.744	444.914
320.265	379.86059
320.786	370.85801
321.307	394.91798
321.828	387.81836
322.348	393.86338
322.869	300.65785
323.389	296.51754
323.909	399.84742
324.43	403.89093
324.95	447.9419
325.47	395.90925
325.989	479.04985
326.509	396.80969
327.029	406.84518
327.548	402.84058
328.067	426.94825
328.587	463.06151
329.106	422.87888
329.625	430.02637
330.144	414.87142
330.662	421.90076
331.181	469.00325
331.7	485.02904
332.218	466.9269
332.736	436.92942
333.255	466.99034
333.773	457.99467
334.291	463.04623
334.808	481.9632
335.326	532.07906
335.844	532.1287
336.361	534.2253
336.879	526.10332
337.396	511.10269
337.913	504.04033
338.43	594.19626
338.947	537.15394
339.464	545.03824
339.981	560.19801
340.497	548.22227
341.014	538.17121
341.53	630.26364
342.046	622.36121
342.562	572.27902
343.078	603.25313
343.594	595.27437
344.11	651.35543
344.626	665.48873
345.141	697.38891
345.657	631.23621
346.172	658.3843
346.687	645.30421
347.202	639.25605
347.717	683.42719
348.232	701.53912
348.747	738.4554
349.261	688.32933
349.776	659.34595
350.29	697.51686
350.805	680.45885
351.319	725.46085
351.833	732.43949
352.347	687.37847
352.861	807.59428
353.374	704.385
353.888	743.5342
354.401	785.52685
354.915	787.50534
355.428	794.70071
355.941	792.57447
356.454	903.65944
356.967	773.56768
357.48	884.67287
357.993	813.70062
358.505	820.7285
359.018	811.66428
359.53	823.66996
360.042	818.48826
360.554	900.80106
361.066	777.61236
361.578	874.58394
362.09	897.77645
362.602	835.53193
363.113	823.5728
363.625	958.76734
364.136	907.62347
364.647	900.73553
365.158	963.8346
365.669	1034.0328
366.18	877.6697
366.691	972.72272
367.201	915.79106
367.712	983.76797
368.222	1025.90768
368.733	1001.74996
369.243	975.70259
369.753	1013.85832
370.263	1034.9544
370.773	1071.12489
371.282	1039.96817
371.792	1065.91485
372.301	1122.14335
372.811	1145.37182
373.32	1144.83883
373.829	1164.15122
374.338	1201.01756
374.847	1249.13724
375.356	1393.44706
375.865	1376.07327
376.373	1328.20863
376.882	1527.78085
377.39	1464.55313
377.898	1470.65856
378.407	1538.34743
378.915	1586.26632
379.423	1702.69654
379.93	1743.54422
380.438	1800.91479
380.946	1928.81807
381.453	1937.92129
381.96	2047.94056
382.468	2240.04979
382.975	2300.22955
383.482	2420.82833
383.989	2430.51242
384.495	2603.98166
385.002	2660.52452
385.509	2802.0286
386.015	3067.27921
386.521	3112.73666
387.028	3256.79305
387.534	3332.47358
388.04	3533.93508
388.546	3582.50948
389.051	3665.40112
389.557	4027.57619
390.063	4311.42491
390.568	4510.44345
391.073	4654.00324
391.578	4767.3391
392.084	4904.69295
392.589	5146.49035
393.093	5457.70967
393.598	5921.28766
394.103	6518.39568
394.607	7240.41795
395.112	7614.73035
395.616	8143.08155
396.12	8913.18856
396.624	9870.61201
397.128	10592.09716
397.632	11713.69518
398.136	12807.7055
398.639	13557.15047
399.143	15092.46279
399.646	16980.98955
400.15	18884.44252
400.653	20982.84295
401.156	23584.66025
401.659	27196.25843
402.162	33676.48105
402.664	44183.79624
403.167	60118.59777
403.67	60580.96975
404.172	55487.84425
404.674	37291.05854
405.176	4428.40989
405.678	533.47942
406.18	0
406.682	0
407.184	6962.89417
407.686	50953.82939
408.187	59237.6763
408.688	61091.12691
409.19	61923.45898
409.691	62441.93235
410.192	53889.65164
410.693	46471.78974
411.194	42046.71928
411.694	39957.71369
412.195	37059.32985
412.696	33242.8872
413.196	31072.1222
413.696	30557.41563
414.196	30818.8633
414.696	30035.74132
415.196	28316.70229
415.696	26141.27112
416.196	20998.26779
416.695	16397.99779
417.195	14027.12268
417.694	13228.6849
418.194	12368.79825
418.693	11565.00934
419.192	11247.05224
419.691	11069.20202
420.19	10738.71027
420.688	10443.40215
421.187	10079.75605
421.685	9600.81707
422.184	8595.63554
422.682	7402.20537
423.18	6302.24252
423.678	5589.43296
424.176	5155.67187
424.674	4863.58016
425.172	4546.19184
425.669	4427.65561
426.167	4083.38439
426.664	3733.47558
427.161	3404.61388
427.659	3199.14412
428.156	3012.36767
428.652	2816.35971
429.149	2617.10301
429.646	2511.57272
430.143	2493.03818
430.639	2325.92335
431.135	2138.04658
431.632	2021.64366
432.128	1942.85431
432.624	1802.96491
433.12	1831.57311
433.616	1716.31914
434.111	1683.63373
434.607	1613.57079
435.103	1482.00593
435.598	1589.06061
436.093	1397.25907
436.588	1390.16688
437.083	1345.12463
437.578	1208.00907
438.073	1139.14403
438.568	1112.06808
439.062	1065.69727
439.557	1101.94145
440.051	1078.84903
440.546	1003.77735
441.04	951.7662
441.534	982.98975
442.028	965.82421
442.522	942.80277
443.015	964.62559
443.509	934.83475
444.002	906.79054
444.496	845.43941
444.989	847.70309
445.482	845.71231
445.975	855.57263
446.468	820.4121
446.961	827.39429
447.454	733.3431
447.947	828.62856
448.439	768.56851
448.931	767.42036
449.424	723.5042
449.916	766.51706
450.408	744.41507
450.9	702.42968
451.392	734.56737
451.884	715.33838
452.375	616.30265
452.867	701.30825
453.358	662.24358
453.849	669.17267
454.341	650.23419
454.832	646.16523
455.323	630.31601
455.814	615.19004
456.304	668.28323
456.795	606.16112
457.285	570.06676
457.776	549.04841
458.266	624.27407
458.756	569.16082
459.247	558.14066
459.737	604.24768
460.226	604.15226
460.716	564.16858
461.206	489.01451
461.695	534.17528
462.185	523.07938
462.674	500.98759
463.163	511.96745
463.653	507.92004
464.142	440.9351
464.63	482.03311
465.119	510.03766
465.608	501.99954
466.096	499.9438
466.585	407.82105
467.073	469.97567
467.561	490.05165
468.05	431.87586
468.538	481.05469
469.026	462.98441
469.513	418.77452
470.001	406.81621
470.489	390.82596
470.976	436.88905
471.463	410.92586
471.951	352.79881
472.438	347.73988
472.925	351.73281
473.412	373.81601
473.899	356.73945
474.385	321.71886
474.872	300.63593
475.359	337.74847
475.845	333.61808
476.331	357.68445
476.817	233.52073
477.303	327.68816
477.789	275.60799
478.275	320.72856
478.761	299.65552
479.247	269.54715
479.732	324.74481
480.218	254.61461
480.703	333.76626
481.188	241.47143
481.673	235.5
482.158	244.48284
482.643	220.52211
483.128	209.44081
483.612	249.53417
484.097	282.63322
484.581	237.49986
485.066	244.54633
485.55	168.3418
486.034	254.51111
486.518	206.45288
487.002	187.43068
487.486	265.59884
487.969	219.50699
488.453	233.55072
488.936	162.34131
489.42	215.4421
489.903	223.52504
490.386	260.51281
490.869	152.30459
491.352	159.364
491.835	194.36609
492.318	213.45043
492.8	117.22594
493.283	192.46355
493.765	168.39255
494.247	158.34356
494.73	148.3077
495.212	169.38223
495.694	147.32487
496.175	113.2563
496.657	191.43057
497.139	92.14355
497.62	137.31099
498.102	182.4281
498.583	90.21319
499.064	185.39208
499.545	143.30757
500.026	93.19857
500.507	136.29509
500.988	114.26732
501.469	94.22412
501.949	80.18759
502.43	110.24854
502.91	97.18956
503.39	113.26927
503.87	159.35433
504.35	119.2631
504.83	120.24948
505.31	135.31241
505.79	130.29564
506.269	81.17976
506.749	83.18098
507.228	92.20668
507.707	125.26191
508.187	102.23008
508.666	76.17835
509.145	94.20987
509.623	89.19949
510.102	124.28439
510.581	119.27024
511.059	129.31163
511.538	95.23486
512.016	169.38347
512.494	86.19819
512.972	96.22044
513.45	90.2026
513.928	80.18686
514.406	109.25714
514.884	117.2921
515.361	107.24762
515.839	126.2713
516.316	74.16986
516.793	112.27011
517.27	134.31041
517.747	89.22027
518.224	55.12186
518.701	128.27122
519.178	134.32316
519.654	21.04736
520.131	38.09015
520.607	84.19997
521.083	80.17647
521.56	45.10223
522.036	87.18334
522.512	115.27035
522.987	74.17142
523.463	102.23309
523.939	94.22077
524.414	108.23554
524.89	71.16071
525.365	79.17357
525.84	107.25037
526.315	56.12931
526.79	59.12696
527.265	71.15337
527.74	84.19628
528.215	93.21085
528.689	141.3
529.164	22.04527
529.638	89.22075
530.112	100.22898
530.587	113.23268
531.061	73.17068
531.534	72.16665
532.008	102.23619
532.482	19.04139
532.956	117.29062
533.429	16.03668
533.903	101.21059
534.376	38.08087
534.849	65.14581
535.322	111.25013
535.795	103.24091
536.268	74.17264
536.741	78.17983
537.213	171.37365
537.686	52.1217
538.158	82.17679
538.631	46.10728
539.103	55.11891
539.575	80.15868
540.047	58.1223
540.519	98.22196
540.991	29.0682
541.463	100.23321
541.934	74.1633
542.406	82.18859
542.877	104.22335
543.348	36.08207
543.82	60.14158
544.291	40.08872
544.762	109.24653
545.233	118.28662
545.703	87.18535
546.174	147.32582
546.645	145.33648
547.115	115.26581
547.585	134.29707
548.056	152.35573
548.526	166.37077
548.996	135.30881
549.466	137.31591
549.935	207.46874
550.405	148.31099
550.875	113.25484
551.344	174.39858
551.814	101.21826
552.283	176.35595
552.752	170.37295
553.221	156.32013
553.69	195.40803
554.159	205.48285
554.628	151.31932
555.096	201.48042
555.565	175.36586
556.033	202.44353
556.502	160.36592
556.97	202.41565
557.438	151.33929
557.906	145.32608
558.374	145.31469
558.842	168.38051
559.31	202.41865
559.777	198.45319
560.245	168.36701
560.712	163.34908
561.18	161.33375
561.647	103.21848
562.114	148.31963
562.581	211.49041
563.048	174.37142
563.514	209.4848
563.981	174.37255
564.448	200.42118
564.914	178.38804
565.381	158.33347
565.847	224.48582
566.313	181.39416
566.779	223.47344
567.245	186.40977
567.711	180.41017
568.176	198.4287
568.642	174.41724
569.108	209.48365
569.573	201.43678
570.038	208.41006
570.504	221.46899
570.969	197.46401
571.434	205.42534
571.899	205.46118
572.363	248.52226
572.828	181.38578
573.293	234.5008
573.757	224.48416
574.222	267.55918
574.686	250.52462
575.15	217.48638
575.614	232.49458
576.078	184.40639
576.542	241.51343
577.006	231.48999
577.469	228.52331
577.933	202.42034
578.396	244.5479
578.86	210.46032
579.323	189.42502
579.786	209.41872
580.249	186.40066
580.712	210.47795
581.175	180.42059
581.637	266.57272
582.1	261.52338
582.563	126.24805
583.025	153.3528
583.487	173.32462
583.95	162.32959
584.412	204.39441
584.874	220.49848
585.336	171.38438
585.797	172.3477
586.259	127.27915
586.721	125.28018
587.182	159.34448
587.643	178.37881
588.105	180.40304
588.566	194.3803
589.027	174.40114
589.488	180.38307
589.949	141.32046
590.41	216.39441
590.87	156.32794
591.331	135.26984
591.791	192.40896
592.252	115.25075
592.712	192.43203
593.172	180.37973
593.632	154.30688
594.092	180.37489
594.552	179.35629
595.011	183.39783
595.471	208.43205
595.931	204.42166
596.39	221.49534
596.849	164.35812
597.308	153.30965
597.768	219.52244
598.227	195.44067
598.685	222.46339
599.144	179.39179
599.603	257.56131
600.062	223.42794
600.52	251.51729
600.978	231.51307
601.437	216.45647
601.895	272.52488
602.353	232.46792
602.811	295.59375
603.269	302.65665
603.727	318.69467
604.184	258.53519
604.642	277.62212
605.099	255.54184
605.557	286.63112
606.014	295.57405
606.471	335.77363
606.928	388.77463
607.385	381.85495
607.842	390.81079
608.299	404.83728
608.755	395.85245
609.212	474.92833
609.668	387.77246
610.125	419.89416
610.581	437.89453
611.037	431.86108
611.493	422.87575
611.949	376.8158
612.405	443.78016
612.861	425.86642
613.316	502.05614
613.772	508.01198
614.227	485.00171
614.683	518.95029
615.138	504.04359
615.593	459.92638
616.048	416.82668
616.503	524.1175
616.958	490.08054
617.412	455.94781
617.867	497.96762
618.321	423.74102
618.776	543.02038
619.23	521.07043
619.684	463.89928
620.138	471.92834
620.592	467.99182
621.046	496.00178
621.5	495.04481
621.954	501.96288
622.407	466.89626
622.861	445.93728
623.314	505.99302
623.768	451.92527
624.221	495.83489
624.674	433.86427
625.127	538.08081
625.58	454.87528
626.033	510.94409
626.485	453.94909
626.938	516.05084
627.39	462.93907
627.843	461.91931
628.295	469.94526
628.747	499.02746
629.199	486.96804
629.651	419.8406
630.103	517.0254
630.555	463.8329
631.006	516.0394
631.458	412.8424
631.909	474.93228
632.361	431.86987
632.812	477.96182
633.263	480.87479
633.714	450.81428
634.165	440.91555
634.616	421.87504
635.067	469.87837
635.518	447.91541
635.968	587.95847
636.419	503.91463
636.869	486.991
637.319	537.05721
637.769	583.10324
638.219	535.07156
638.669	601.2201
639.119	546.13576
639.569	561.17246
640.019	608.17058
640.468	532.99024
640.918	605.22488
641.367	566.07441
641.816	677.24777
642.265	634.22307
642.714	639.24424
643.163	589.11952
643.612	691.40437
644.061	604.04655
644.51	660.25504
644.958	727.29328
645.406	700.39845
645.855	729.47094
646.303	740.39857
646.751	785.45159
647.199	699.27424
647.647	765.44979
648.095	782.43415
648.543	748.18266
648.99	785.53627
649.438	911.68255
649.885	850.71736
650.333	876.24215
650.78	904.77242
651.227	911.7765
651.674	858.55252
652.121	847.62967
652.568	872.69914
653.015	888.76147
653.461	928.73493
653.908	1012.79474
654.354	980.7792
654.801	953.74802
655.247	960.58905
655.693	992.05862
656.139	975.81266
656.585	1007.87227
657.031	1033.86475
657.477	1070.72225
657.922	1069.87214
658.368	1028.95061
658.813	1011.73513
659.259	1059.95359
659.704	1099.94093
660.149	1055.86106
660.594	1114.99044
661.039	1160.95319
661.484	1174.07525
661.929	1257.10186
662.373	1196.31139
662.818	1201.25007
663.262	1199.12017
663.707	1201.27098
664.151	1354.40228
664.595	1318.2889
665.039	1307.34655
665.483	1358.54202
665.927	1350.21244
666.371	1482.35288
666.814	1468.39397
667.258	1486.44098
667.701	1514.04721
668.145	1579.64269
668.588	1580.63082
669.031	1588.50562
669.474	1564.52081
669.917	1667.27732
670.36	1726.76435
670.803	1767.6864
671.245	1780.16829
671.688	1810.75991
672.13	1755.39358
672.573	1834.00903
673.015	1827.71082
673.457	1952.43579
673.899	1874.77089
674.341	1954.82751
674.783	1950.83878
675.225	1951.91514
675.666	2012.8866
676.108	2113.46977
676.549	2142.81492
676.991	2159.50021
677.432	2135.0524
677.873	2151.71346
678.314	2258.91799
678.755	2279.07598
679.196	2316.78295
679.637	2354.02816
680.078	2368.83625
680.518	2358.73061
680.959	2430.99191
681.399	2500.16858
681.839	2505.09786
682.28	2562.24643
682.72	2546.75162
683.16	2614.2934
683.6	2700.75002
684.039	2696.27374
684.479	2710.21199
684.919	2767.91024
685.358	2899.3852
685.798	2912.61249
686.237	2978.07458
686.676	3037.81374
687.115	3039.91593
687.554	3131.9659
687.993	3192.4243
688.432	3205.78518
688.871	3186.67987
689.309	3375.14638
689.748	3464.10163
690.186	3490.83895
690.625	3482.92995
691.063	3531.02588
691.501	3662.13752
691.939	3661.20083
692.377	3819.98883
692.815	3896.88766
693.253	3835.75171
693.69	3917.19108
694.128	4028.92456
694.565	4084.69824
695.003	4126.17989
695.44	4219.47089
695.877	4321.49538
696.314	4364.79095
696.751	4499.06903
697.188	4498.23831
697.625	4656.99329
698.061	4653.43243
698.498	4701.43139
698.934	4824.26933
699.371	4986.14324
699.807	5039.11063
700.243	5011.34006
700.679	5155.70703
701.115	5222.87727
701.551	5345.93807
701.987	5349.47665
702.422	5451.87803
702.858	5538.81009
703.294	5642.41536
703.729	5761.01935
704.164	5852.86965
704.599	5728.28146
705.035	6021.29374
705.47	6157.87771
705.904	6222.42758
706.339	6279.32256
706.774	6487.39673
707.209	6451.33063
707.643	6553.59042
708.078	6744.6372
708.512	6801.98433
708.946	7027.52963
709.38	7013.46397
709.814	7214.33528
710.248	7242.63597
710.682	7455.71119
711.116	7545.78483
711.549	7457.0759
711.983	7630.59695
712.416	7852.82493
712.85	7932.20312
713.283	7957.96931
713.716	8037.24493
714.149	8216.20467
714.582	8290.18604
715.015	8392.57872
715.448	8437.6307
715.881	8489.39748
716.313	8775.99662
716.746	8938.28697
717.178	8875.18709
717.61	9121.72109
718.043	9208.84815
718.475	9334.09897
718.907	9390.23476
719.339	9623.85274
719.77	9572.6614
720.202	9665.87877
720.634	9909.54127
721.065	9998.87287
721.497	10200.41597
721.928	10133.19141
722.359	10394.05994
722.79	10357.00756
723.221	10569.63955
723.652	10754.23542
724.083	10695.56133
724.514	10824.0966
724.945	10999.60478
725.375	11164.39548
725.806	10991.36884
726.236	11374.81828
726.666	11375.37657
727.096	11426.37151
727.526	11848.14298
727.956	12124.73006
728.386	12073.8496
728.816	12065.34394
729.246	12189.37311
729.675	12380.36922
730.105	12379.5622
730.534	12637.69074
730.964	12633.94439
731.393	12817.46077
731.822	13066.47122
732.251	13280.02995
732.68	13383.33581
733.109	13522.30186
733.537	13635.55956
733.966	13847.87786
734.395	13894.48918
734.823	14104.72897
735.251	14204.26502
735.68	14312.68516
736.108	14338.7157
736.536	14260.18834
736.964	14347.3139
737.392	14438.85137
737.82	14901.87943
738.247	14950.47389
738.675	15113.23563
739.102	15076.34783
739.53	15114.37572
739.957	15153.87151
740.384	15380.22862
740.811	15685.28758
741.238	15757.19891
741.665	15821.48995
742.092	15567.80973
742.519	15638.16557
742.945	15815.06529
743.372	16044.65694
743.798	16093.42719
744.225	15913.36996
744.651	15974.83638
745.077	16173.02207
745.503	16200.06077
745.929	16485.5932
746.355	16184.74173
746.781	16115.59963
747.207	16247.91331
747.632	16180.41476
748.058	16225.84664
748.483	16557.60235
748.908	16451.20571
749.334	16622.47444
749.759	16294.81839
750.184	16423.94478
750.609	16395.03764
751.033	16587.57175
751.458	16537.50152
751.883	16396.87923
752.307	16398.53774
752.732	16231.22267
753.156	16175.30641
753.58	16239.09235
754.005	16176.42758
754.429	15837.122
754.853	15978.94768
755.277	15920.33374
755.7	15740.57921
756.124	15676.49863
756.548	15822.22629
756.971	15546.98305
757.394	15571.90649
757.818	15562.62783
758.241	15416.80764
758.664	15250.87455
759.087	15191.61475
759.51	15150.46866
759.933	15057.04001
760.356	14972.1556
760.778	14769.69191
761.201	14455.75468
761.623	14283.2602
762.046	14250.51543
762.468	14177.27409
762.89	13937.70502
763.312	13753.50112
763.734	13701.07457
764.156	13535.40227
764.578	13237.40434
765	13283.75067
765.421	13067.36724
765.843	12844.68293
766.264	12680.78339
766.686	12451.65884
767.107	12309.11571
767.528	12105.50783
767.949	12028.16969
768.37	11901.83142
768.791	11661.68989
769.212	11405.97033
769.632	11413.65562
770.053	11154.67954
770.473	11154.12137
770.894	10860.81274
771.314	10684.33025
771.734	10315.00252
772.154	10267.54482
772.575	10337.0942
772.994	10105.32471
773.414	9952.76694
773.834	9765.13214
774.254	9573.66283
774.673	9595.72172
775.093	9206.8494
775.512	9037.52062
775.931	8924.39014
776.351	8778.06524
776.77	8547.72208
777.189	8496.54392
777.607	8388.67207
778.026	8109.30532
778.445	8047.31087
778.864	7806.15183
779.282	7659.7297
779.701	7645.00674
780.119	7375.87374
780.537	7247.78539
780.955	7221.87582
781.373	6993.68564
781.791	6835.17592
782.209	6777.28144
782.627	6618.24991
783.045	6513.24673
783.462	6305.95918
783.88	6124.24653
784.297	6043.98749
784.715	5881.37385
785.132	5784.7775
785.549	5739.17891
785.966	5508.18588
786.383	5410.15275
786.8	5318.7059
787.217	5140.92158
787.633	4984.47605
788.05	4875.87748
788.466	4842.98451
788.883	4703.8896
789.299	4588.29181
789.715	4591.50766
790.131	4388.69096
790.547	4250.68287
790.963	4124.86253
791.379	4150.02605
791.795	4024.25047
792.21	3870.48546
792.626	3791.64373
793.041	3695.93796
793.457	3603.98921
793.872	3528.71485
794.287	3462.01977
794.702	3359.02853
795.117	3148.12888
795.532	3149.34152
795.947	3117.87315
796.362	2914.84859
796.776	2868.60212
797.191	2806.05384
797.605	2750.97257
798.02	2739.10683
798.434	2615.46861
798.848	2560.05632
799.262	2482.22917
799.676	2505.95911
800.09	2349.99876
800.504	2311.93067
800.918	2205.64697
801.331	2128.23746
801.745	2040.54196
802.158	2028.95633
802.572	2025.7773
802.985	1962.68978
803.398	1840.62239
803.811	1872.95743
804.224	1714.69582
804.637	1653.42127
805.05	1701.40385
805.462	1613.55486
805.875	1594.8795
806.288	1513.46587
806.7	1478.53475
807.112	1474.23164
807.525	1413.4156
807.937	1350.34475
808.349	1321.33083
808.761	1216.11208
809.173	1216.07663
809.584	1195.12507
809.996	1230.18476
810.408	1128.21697
810.819	1183.99801
811.231	1090.22824
811.642	1138.09676
812.053	1056.91751
812.464	1105.95459
812.875	999.98697
813.286	965.9335
813.697	898.54599
814.108	916.7074
814.519	870.45072
814.929	868.73375
815.34	815.56049
815.75	776.60277
816.16	786.53787
816.571	747.59963
816.981	729.34918
817.391	678.32939
817.801	737.51839
818.211	675.31695
818.62	608.2099
819.03	622.24585
819.44	613.34742
819.849	596.27184
820.259	636.3708
820.668	590.23725
821.077	518.1042
821.486	495.99812
821.895	528.07923
822.304	557.2733
822.713	444.89549
823.122	434.95163
823.531	473.9634
823.939	456.96108
824.348	482.00597
824.756	426.92544
825.164	400.87414
825.573	448.9786
825.981	437.94186
826.389	358.78237
826.797	386.85353
827.205	384.76131
827.612	377.80873
828.02	314.65949
828.428	309.70224
828.835	330.78552
829.243	303.63597
829.65	315.70252
830.057	403.86375
830.464	313.68795
830.871	326.68409
831.278	264.56524
831.685	241.46874
832.092	329.71855
832.499	253.48364
832.905	245.56582
833.312	248.4972
833.718	266.59264
834.124	244.498
834.531	244.5533
834.937	217.50315
835.343	263.56906
835.749	234.48237
836.155	232.55419
836.561	154.34056
836.966	213.46994
837.372	166.38742
837.777	136.31091
838.183	139.27164
838.588	214.48705
838.993	163.35782
839.399	123.27649
839.804	164.3719
840.209	188.44497
840.613	155.31585
841.018	121.2809
841.423	143.33565
841.828	159.37028
842.232	112.25151
842.637	138.29215
843.041	178.42911
843.445	89.20604
843.849	142.32437
844.253	144.30925
844.657	158.37122
845.061	159.32739
845.465	175.39612
845.869	114.24134
846.272	109.24592
846.676	142.31651
847.079	95.2282
847.483	144.32973
847.886	90.19878
848.289	120.30624
848.692	91.2146
849.095	85.18668
849.498	76.17577
849.901	70.14644
850.304	69.15173
850.707	106.25089
851.109	55.12768
851.512	115.26423
851.914	112.26929
852.316	52.12436
852.718	44.1092
853.121	40.09218
853.523	96.20599
853.925	44.10912
854.326	73.17355
854.728	61.14786
855.13	32.07907
855.531	115.25861
855.933	63.14011
856.334	69.16234
856.736	0
857.137	74.15933
857.538	35.08315
857.939	77.17932
858.34	110.24549
858.741	41.10136
859.142	69.15479
859.542	77.19641
859.943	103.24035
860.343	50.11734
860.744	98.22278
861.144	70.15913
861.544	81.18447
861.945	24.05744
862.345	45.10091
862.745	66.15355
863.145	53.11507
863.544	61.14681
863.944	54.11807
864.344	29.06671
864.743	61.14156
865.143	43.10431
865.542	7.01515
865.941	53.1244
866.34	88.19542
866.74	26.06649
867.139	46.10389
867.537	22.05264
867.936	69.15536
868.335	76.18294
868.734	102.24655
869.132	86.18605
869.531	76.1701
869.929	62.13252
870.327	42.09416
870.726	62.14385
871.124	26.0561
871.522	45.10682
871.92	73.16739
872.318	68.15552
872.715	54.1243
873.113	25.05749
873.511	42.09864
873.908	18.04426
874.306	60.14053
874.703	30.07054
875.1	23.05519
875.497	10.02238
875.894	71.16587
876.291	102.23412
876.688	21.05127
877.085	51.11333
877.482	34.07935
877.878	27.06127
878.275	31.07404
878.671	16.03197
879.068	73.16315
879.464	22.05013
879.86	60.13413
880.256	25.05712
880.652	20.04807
881.048	15.03453
881.444	35.07648
881.84	14.0335
882.236	41.09725
882.631	44.10148
883.027	-5.01121
883.422	6.01454
883.817	22.05306
884.213	35.08513
884.608	50.11642
885.003	38.08617
885.398	-8.01902
885.793	22.05183
886.188	42.09964
886.582	21.04983
886.977	15.03328
887.371	46.10922
887.766	22.05223
888.16	26.06125
888.554	13.02988
888.949	-20.04694
889.343	-15.03412
889.737	14.03632
890.131	9.0215
890.525	19.04583
890.918	14.03369
891.312	10.02198
891.706	36.09045
892.099	-13.03132
892.492	48.09512
892.886	10.02289
893.279	23.0555
893.672	-1.00243
894.065	-4.00945
894.458	55.1294
894.851	-15.03415
895.244	-2.00487
895.637	43.0971
896.029	15.03453
896.422	6.01374
896.814	10.02356
897.206	77.17252
897.599	20.04534
897.991	1.00229
898.383	19.04182
898.775	21.04388
899.167	29.06404
899.559	-19.04547
899.951	46.10049
900.342	-24.057
900.734	56.13373
901.125	-1.00247
901.517	40.0927
901.908	45.09933
902.299	50.11504
902.69	22.04867
903.082	26.05896
903.473	14.03194
903.863	75.1816
904.254	32.06878
904.645	11.02539
905.036	-6.01399
905.426	-16.03316
905.817	11.02543
906.207	-2.00452
906.597	3.00662
906.987	-2.00486
907.378	14.03327
907.768	28.0707
908.158	64.1459
908.547	19.0468
908.937	1.00242
909.327	44.09925
909.717	39.09208
910.106	11.02485
910.495	66.15501
910.885	-25.05916
911.274	23.05453
911.663	74.17752
912.052	-18.04165
912.441	11.0268
912.83	23.04883
913.219	18.0441
913.608	22.05058
913.997	-32.0765
914.385	33.07257
914.774	-2.00457
915.162	11.02446
915.55	57.12845
915.939	-22.05322
916.327	17.03997
916.715	41.09961
917.103	21.04808
917.491	12.0275
917.878	-14.03194
918.266	29.07101
918.654	44.1074
919.041	-30.07521
919.429	-31.0696
919.816	-12.02872
920.203	5.01144
920.591	26.06009
920.978	47.10712
921.365	-11.02742
921.752	28.0628
922.139	120.23724
922.525	6.01355
922.912	62.14008
923.299	38.08928
923.685	-32.08008
924.072	-17.03625
924.458	22.05139
924.844	2.00467
925.231	-29.06313
925.617	-5.01232
926.003	33.07954
926.389	45.10793
926.774	32.07688
927.16	8.01863
927.546	20.0486
927.931	-3.00708
928.317	-12.02535
928.702	-1.0022
929.088	10.02232
929.473	44.10559
929.858	44.10176
930.243	32.07248
930.628	9.02053
931.013	56.13183
931.398	29.06117
931.783	41.10203
932.167	2.00458
932.552	-33.07749
932.937	-31.07177
933.321	-24.05703
933.705	43.10325
934.09	-13.03063
934.474	42.09261
934.858	28.06916
935.242	49.1073
935.626	8.01932
936.009	-20.05093
936.393	85.20418
936.777	22.05386
937.16	-24.05884
937.544	31.06765
937.927	33.07933
938.311	48.10823
938.694	50.12481
939.077	-18.04032
939.46	67.1537
939.843	-28.0531
940.226	-16.03885
940.609	-10.02138
940.991	41.0983
941.374	16.03653
941.757	23.05314
942.139	15.03098
942.522	-19.04159
942.904	29.06546
943.286	-2.00477
943.668	4.00984
944.05	33.07619
944.432	13.03038
944.814	-22.05078
945.196	27.06276
945.578	-1.00227
945.959	5.01101
946.341	20.04502
946.722	54.11807
947.104	19.0421
947.485	20.04325
947.866	36.0863
948.247	10.0239
948.628	15.03406
949.009	32.07773
949.39	-20.04618
949.771	34.07274
950.152	20.04646
950.532	67.15935
950.913	-44.09942
951.293	39.10126
951.674	-17.03848
952.054	-23.05439
952.434	-12.02794
952.814	-4.00876
953.194	42.10416
953.574	-17.03895
953.954	-9.02012
954.334	40.09416
954.714	15.03453
955.093	16.0364
955.473	-25.05893
955.853	59.14441
956.232	15.03931
956.611	-4.00882
956.99	-2.00479
957.37	-9.02179
957.749	1.00221
958.128	29.06971
958.506	18.04475
958.885	2.00475
959.264	3.00695
959.643	77.16126
960.021	6.01406
960.4	76.16082
960.778	1.00227
961.156	5.01185
961.535	23.04857
961.913	-30.06454
962.291	35.08608
962.669	31.07432
963.047	-45.1083
963.424	-2.00487
963.802	-16.0368
964.18	22.05201
964.557	19.03993
964.935	57.1245
965.312	42.10412
965.69	41.0956
966.067	1.00227
966.444	12.02779
966.821	35.08452
967.198	18.04019
967.575	-19.04364
967.952	51.11149
968.329	-11.02513
968.705	-9.01753
969.082	42.10236
969.458	-4.00918
969.835	-6.01373
970.211	25.06076
970.587	45.10492
970.963	4.0097
971.339	11.02758
971.715	-43.10046
972.091	-16.03714
972.467	11.02536
972.843	-23.05424
973.219	54.11822
973.594	27.06707
973.97	29.06331
974.345	19.04252
974.721	18.04052
975.096	-22.04975
975.471	42.093
975.846	61.13729
976.221	19.04569
976.596	-2.00452
976.971	23.05335
977.346	-4.00857
977.72	22.05278
978.095	33.08083
978.469	15.03359
978.844	29.06831
979.218	28.06347
979.593	29.065
979.967	66.15052
980.341	-4.00854
980.715	4.00947
981.089	-9.02108
981.463	54.11612
981.837	20.04635
982.21	-5.01077
982.584	22.04944
982.957	10.02381
983.331	47.10313
983.704	28.06509
984.078	-4.00924
984.451	-9.02063
984.824	-16.03723
985.197	9.02045
985.57	-2.00469
985.943	7.01588
986.316	44.10075
986.688	32.07162
987.061	37.07955
987.434	18.04459
987.806	7.01583
988.179	-18.03966
988.551	-12.02862
988.923	30.06897
989.295	59.13708
989.667	35.07997
990.039	47.10933
990.411	63.13515
990.783	9.01918
991.155	44.10043
991.527	31.06966
991.898	3.00701
992.27	22.05131
992.641	37.08647
993.012	62.13596
993.384	8.0179
993.755	21.05025
994.126	39.0877
994.497	21.04835
994.868	63.13387
995.239	35.07981
995.61	32.07545
995.98	37.08505
996.351	33.07743
996.722	44.09559
997.092	20.04486
997.462	26.05745
997.833	50.10928
998.203	16.03608
998.573	31.07319
998.943	3.0065
999.313	50.11223
999.683	7.01559
1000.053	33.07083
1000.423	56.12663
1000.792	14.03448
1001.162	45.1043
1001.531	41.09526
1001.901	9.02103
1002.27	80.16454
1002.639	54.13013
1003.009	50.11228
1003.378	21.05087
1003.747	31.06785
1004.116	28.06308
1004.485	28.06295
1004.853	47.11183
1005.222	24.05771
1005.591	8.0176
1005.959	47.09939
1006.328	-10.02092
1006.696	56.12679
1007.064	22.05221
1007.433	56.13162
1007.801	39.08864
1008.169	20.04719
1008.537	73.14835
1008.905	29.06323
1009.273	36.08313
1009.64	17.03826
1010.008	60.13208
1010.375	83.18573
1010.743	71.14659
1011.11	19.04218
1011.478	-18.04206
1011.845	-16.0347
1012.212	10.0208
1012.579	43.09904
1012.946	-25.05507
1013.313	47.10339
1013.68	-19.03953
1014.047	69.15498
1014.414	64.14153
1014.78	54.12687
1015.147	45.09958
1015.513	70.15919
1015.88	0
1016.246	46.10639
1016.612	32.067
1016.978	-18.04151
1017.344	57.13317
1017.71	16.03569
1018.076	47.10235
1018.442	1.00243
1018.808	37.08695
1019.174	15.03524
1019.539	39.08016
1019.905	23.05102
1020.27	-9.02124
1020.636	78.1722
1021.001	6.01336
1021.366	49.11191
1021.731	37.09013
1022.096	22.05294
1022.461	-14.03073
1022.826	53.11713
1023.191	-31.07798
1023.556	5.01078
1023.92	-12.02749
1024.285	30.06811
1024.649	1.00231
1025.014	35.08103
1025.378	30.07183
1025.742	51.11816
1026.107	12.02484
1026.471	-2.00426
1026.835	-41.09548
1027.199	28.0635
1027.562	50.10831
1027.926	33.07509
1028.29	31.07413
1028.654	3.00636
1029.017	52.11969
1029.381	26.05839
1029.744	18.04372
1030.107	7.01516
1030.471	23.05119
1030.834	-24.0501
1031.197	-11.02448
1031.56	43.09543
1031.923	-19.04675
1032.286	26.05632
1032.648	24.05312
1033.011	9.01932
1033.374	15.03232
1033.736	-39.09829
1034.099	32.07345
1034.461	5.01208
1034.823	-33.07767
1035.185	-39.09194
1035.548	15.03415
1035.91	49.1101
1036.272	29.06122
1036.634	-20.04552
1036.995	55.12104
1037.357	3.00689
1037.719	-13.02976
1038.08	-16.03497
1038.442	40.09041
1038.803	23.05115
1039.165	28.06666
1039.526	18.04079
1039.887	53.11875
1040.248	87.20373
1040.609	43.09904
1040.97	-19.04381
1041.331	-52.12341
1041.692	32.07023
1042.053	0
1042.413	-5.01075
1042.774	1.00227
1043.134	56.12172
1043.495	3.00706
1043.855	66.1487
1044.215	24.05571
1044.576	61.13656
1044.936	62.13154
1045.296	73.16833
1045.656	61.13909
1046.016	-28.06285
1046.375	41.09371
1046.735	18.03847
1047.095	27.05892
1047.454	92.17506
1047.814	-57.12902
1048.173	-20.04401
1048.533	26.05567
1048.892	-34.07801
1049.251	43.10109
1049.61	-24.05522
1049.969	56.12332
1050.328	-2.00394
1050.687	19.0432
1051.046	58.1326
1051.405	-16.03709
1051.763	13.02802
1052.122	17.04042
1052.48	-4.00917
1052.839	41.08978
1053.197	27.0593
1053.555	-17.03472
1053.914	-6.01375
1054.272	36.08074
1054.63	5.01142
1054.988	-2.00445
1055.345	25.04869
1055.703	-6.01341
1056.061	29.07048
1056.419	-1.00247
1056.776	52.11653
1057.134	10.02149
1057.491	16.03758
1057.848	10.02326
1058.206	25.0546
1058.563	35.07191
1058.92	31.06533
1059.277	-29.06639
1059.634	12.02569
1059.991	69.15364
1060.348	90.18786
1060.704	15.03355
1061.061	19.03993
1061.418	6.01378
1061.774	51.11948
1062.131	43.11018
1062.487	-19.04134
1062.843	41.09552
1063.199	35.08219
1063.555	36.07811
1063.911	-18.04292
1064.267	26.04795
1064.623	12.02772
1064.979	40.08527
1065.335	38.08277
1065.691	73.16349
1066.046	-24.04858
1066.402	27.05675
1066.757	32.07603
1067.112	-33.0757
1067.468	42.09404
1067.823	53.11875
1068.178	74.16686
1068.533	3.00676
1068.888	28.06153
1069.243	12.02802
1069.598	16.03577
1069.952	10.02138
1070.307	48.11322
1070.662	25.05562
1071.016	42.08783
1071.371	-11.02324
1071.725	-27.05905
1072.079	-39.0885
1072.434	-9.02056
1072.788	56.12467
1073.142	75.17287
1073.496	-8.01784
1073.85	26.05581
1074.203	34.07657
1074.557	28.07123
1074.911	25.05484
1075.265	-25.05377
1075.618	23.0528
1075.971	18.03971
1076.325	-45.10933
1076.678	19.04039
1077.031	1.0021
1077.385	65.13185
1077.738	83.17183
1078.091	53.11311
1078.444	-4.00853
1078.796	38.08789
1079.149	-4.00925
1079.502	24.05303
1079.855	41.08921
1080.207	1.00231
1080.56	-36.08879
1080.912	-43.09749
1081.264	51.11398
1081.617	21.04812
1081.969	66.15893
1082.321	11.02524
1082.673	9.01942
1083.025	-20.04417
1083.377	15.02901
1083.728	-18.03846
1084.08	-8.01902
1084.432	-76.17038
1084.783	61.1334
1085.135	52.12394
1085.486	36.07708
1085.838	-12.02792
1086.189	-1.00228
1086.54	45.09974
1086.891	22.05328
1087.242	-2.00454
1087.593	32.07195
1087.944	23.04798
1088.295	3.00625
1088.646	3.00685
1088.996	-20.04535
1089.347	18.0411
1089.698	0
1090.048	17.04139
1090.398	31.06711
1090.749	31.06937
1091.099	17.04081
1091.449	-25.05854
1091.799	58.13516
1092.149	53.12372
1092.499	20.04593
1092.849	14.03367
1093.199	24.05612
1093.548	8.01816
1093.898	21.04958
1094.248	21.0509
1094.597	-10.02467
1094.947	-4.01016
1095.296	-11.02551
1095.645	30.07328
1095.994	42.09447
1096.343	47.11226
1096.692	16.04042
1097.041	1.00261
1097.39	-19.04498
1097.739	-15.03733
1098.088	11.02768
1098.437	-2.00504
1098.785	-2.00512
1099.134	3.00747
1099.482	-33.08659
1099.83	27.06682
1100.179	22.05531
1100.527	-23.058
1100.875	-36.09129
1101.223	42.10655
1101.571	-2.00534
1101.919	4.01006
1102.267	-7.01924
1102.615	14.04494
1102.962	7.02245
1103.31	13.0417
1103.658	9.02882
