Data from N3 R7 sample 1_Subt2__3__16-59-42-410.txt Node

Date: Fri Sep 19 16:59:42 PDT 2025
User: uwsun
Spectrometer: HDX01956
Trigger mode: 0
Integration Time (sec): 5.000000E-1
Scans to average: 1
Nonlinearity correction enabled: true
Boxcar width: 0
Storing dark spectrum: false
XAxis mode: Wavelengths
Number of Pixels in Spectrum: 2068
>>>>>Begin Spectral Data<<<<<
194.03	32.09249
194.578	49.15848
195.127	50.15954
195.676	37.11813
196.225	16.04218
196.773	74.20437
197.321	99.27225
197.87	131.3319
198.418	171.43447
198.966	153.39697
199.513	201.4998
200.061	133.33229
200.609	130.3377
201.156	119.25242
201.704	98.24356
202.251	132.3449
202.798	172.43909
203.345	172.41558
203.892	130.32214
204.438	94.2224
204.985	137.32106
205.532	187.49151
206.078	112.27184
206.624	205.49335
207.17	162.36632
207.716	106.25206
208.262	128.24593
208.808	167.40708
209.354	143.34167
209.899	133.32819
210.445	148.365
210.99	184.43382
211.535	175.3995
212.08	161.36384
212.625	168.41005
213.17	148.36608
213.715	157.34567
214.259	195.44264
214.804	161.38556
215.348	139.31053
215.892	184.43078
216.436	211.47371
216.98	152.32376
217.524	144.33291
218.068	141.34755
218.612	149.36307
219.155	130.29923
219.698	119.27517
220.242	136.33034
220.785	173.39287
221.328	174.422
221.871	154.37952
222.414	133.31887
222.956	123.2922
223.499	105.23128
224.041	103.23125
224.583	131.27241
225.126	202.43475
225.668	114.27223
226.21	109.26897
226.751	115.24223
227.293	162.35391
227.835	125.29683
228.376	93.20802
228.918	175.42705
229.459	163.3997
230	134.31041
230.541	114.25452
231.082	144.34004
231.622	164.36525
232.163	134.3201
232.704	145.34896
233.244	123.29804
233.784	118.27962
234.324	154.33258
234.864	121.26574
235.404	112.25718
235.944	124.28325
236.484	110.26528
237.023	159.36546
237.563	115.25904
238.102	182.41372
238.641	168.41508
239.18	169.38503
239.719	170.41694
240.258	149.32158
240.797	166.38651
241.335	116.27318
241.874	193.35643
242.412	194.44617
242.95	141.33121
243.488	154.34027
244.026	146.32772
244.564	185.36291
245.102	184.39737
245.64	181.41869
246.177	157.3371
246.715	169.38658
247.252	154.33757
247.789	119.20339
248.326	112.26027
248.863	97.20648
249.4	156.34685
249.936	146.28837
250.473	162.36647
251.009	191.42493
251.546	179.38085
252.082	155.33094
252.618	165.35779
253.154	121.28368
253.69	146.31706
254.226	134.30979
254.761	126.27071
255.297	148.31469
255.832	147.33531
256.367	160.36209
256.903	193.40223
257.438	140.31503
257.972	128.27394
258.507	193.43063
259.042	123.25315
259.576	144.30138
260.111	138.3076
260.645	135.28411
261.179	153.34308
261.713	142.30338
262.247	201.44922
262.781	150.30601
263.315	152.36171
263.849	117.28605
264.382	150.33102
264.915	168.38314
265.449	121.28977
265.982	148.32099
266.515	188.44204
267.048	193.39293
267.58	122.25375
268.113	140.29548
268.646	174.41931
269.178	132.28666
269.71	153.32015
270.243	154.33928
270.775	170.41956
271.307	153.35083
271.838	167.37924
272.37	129.31081
272.902	183.40274
273.433	113.23865
273.965	217.5127
274.496	156.37152
275.027	120.28907
275.558	169.39559
276.089	196.475
276.62	118.29177
277.15	173.41097
277.681	143.29379
278.211	168.3944
278.741	180.38573
279.272	179.39394
279.802	153.37212
280.332	147.33707
280.861	182.42209
281.391	134.29373
281.921	131.30243
282.45	221.53648
282.98	170.4317
283.509	200.42989
284.038	126.2741
284.567	118.26291
285.096	186.43427
285.625	193.42724
286.153	153.34632
286.682	168.36763
287.21	180.41745
287.739	108.2475
288.267	176.41415
288.795	171.43493
289.323	155.3567
289.851	153.34519
290.378	203.43699
290.906	184.43365
291.433	185.44623
291.961	176.38107
292.488	189.4545
293.015	207.47255
293.542	184.44893
294.069	152.36296
294.596	195.4643
295.122	192.44193
295.649	245.51787
296.175	164.37914
296.702	158.36701
297.228	138.32056
297.754	206.44145
298.28	131.28843
298.806	165.38713
299.332	165.3526
299.857	204.43924
300.383	167.40571
300.908	201.47509
301.433	260.60511
301.958	199.43243
302.483	201.49123
303.008	140.33418
303.533	173.42877
304.058	192.43344
304.582	167.38324
305.107	210.53307
305.631	205.44338
306.155	244.5479
306.679	221.49677
307.203	254.56239
307.727	264.59938
308.251	178.42439
308.775	166.38132
309.298	171.40105
309.822	218.5285
310.345	215.48903
310.868	191.44024
311.391	197.46636
311.914	224.54101
312.437	229.49317
312.96	202.46048
313.482	255.57859
314.005	199.48272
314.527	237.60042
315.049	220.53095
315.571	290.62466
316.093	270.64174
316.615	278.64266
317.137	216.44526
317.659	243.55651
318.18	292.66858
318.702	279.61657
319.223	231.45101
319.744	338.7124
320.265	230.53804
320.786	261.61832
321.307	313.74091
321.828	313.67261
322.348	308.68876
322.869	210.46924
323.389	303.52881
323.909	302.65498
324.43	291.65839
324.95	294.64035
325.47	318.74328
325.989	346.78105
326.509	304.63455
327.029	316.67101
327.548	290.62144
328.067	341.77244
328.587	360.84406
329.106	333.70726
329.625	294.72154
330.144	293.63316
330.662	308.67511
331.181	378.82607
331.7	348.76181
332.218	392.79316
332.736	394.84756
333.255	386.83463
333.773	394.86904
334.291	364.84076
334.808	325.67431
335.326	366.77175
335.844	415.90442
336.361	425.99816
336.879	434.93038
337.396	385.8547
337.913	451.94365
338.43	446.93009
338.947	415.91669
339.464	417.82036
339.981	445.97719
340.497	399.91883
341.014	417.93264
341.53	441.92436
342.046	470.06099
342.562	470.07264
343.078	450.96842
343.594	508.10814
344.11	471.01926
344.626	525.20871
345.141	556.14376
345.657	485.98424
346.172	512.11122
346.687	544.12506
347.202	479.97828
347.717	473.03363
348.232	517.17842
348.747	543.11923
349.261	600.18342
349.776	500.05746
350.29	512.15738
350.805	532.17723
351.319	562.17429
351.833	551.12913
352.347	500.04592
352.861	575.19698
353.374	607.22109
353.888	539.16321
354.401	574.17183
354.915	605.20755
355.428	625.38705
355.941	617.276
356.454	682.32213
356.967	609.2808
357.48	593.2011
357.993	633.37628
358.505	656.43208
359.018	641.36534
359.53	614.30464
360.042	607.16276
360.554	674.41862
361.066	622.33486
361.578	679.29092
362.09	682.41786
362.602	701.32894
363.113	621.24413
363.625	719.40493
364.136	673.27639
364.647	683.38494
365.158	737.4803
365.669	744.56268
366.18	664.32888
366.691	754.41118
367.201	762.545
367.712	735.40504
368.222	813.5919
368.733	756.40587
369.243	763.40591
369.753	784.5202
370.263	836.65588
370.773	842.76017
371.282	776.56339
371.792	833.5858
372.301	838.71086
372.811	864.90235
373.32	865.49892
373.829	875.73363
374.338	986.75303
374.847	962.77208
375.356	1014.95665
375.865	1040.72292
376.373	1044.87078
376.882	1136.27027
377.39	1143.15892
377.898	1137.2279
378.407	1192.00182
378.915	1270.99087
379.423	1313.30708
379.93	1304.1543
380.438	1418.53701
380.946	1511.48304
381.453	1523.5731
381.96	1576.58573
382.468	1756.75322
382.975	1880.97694
383.482	1877.61101
383.989	1956.22375
384.495	1994.77642
385.002	2106.44616
385.509	2142.87598
386.015	2412.348
386.521	2439.74892
387.028	2595.84546
387.534	2675.59024
388.04	2697.04265
388.546	2790.69552
389.051	2930.61707
389.557	3138.88656
390.063	3377.82665
390.568	3566.88469
391.073	3641.52202
391.578	3801.83406
392.084	3857.26474
392.589	4069.08701
393.093	4323.33207
393.598	4673.89342
394.103	5198.87345
394.607	5737.53194
395.112	6081.60435
395.616	6390.36978
396.12	7032.15499
396.624	7644.49205
397.128	8238.1303
397.632	9281.01038
398.136	10156.63509
398.639	10721.7401
399.143	11905.37278
399.646	13520.37906
400.15	14947.86759
400.653	16608.72974
401.156	18709.76476
401.659	21590.93877
402.162	26387.12185
402.664	34646.79743
403.167	49497.21453
403.67	59120.22031
404.172	55487.84425
404.674	37291.05854
405.176	4428.40989
405.678	533.47942
406.18	0
406.682	0
407.184	6962.89417
407.686	50953.82939
408.187	59237.6763
408.688	61091.12691
409.19	61923.45898
409.691	49872.14219
410.192	42376.71085
410.693	36744.33669
411.194	33105.77213
411.694	31168.39394
412.195	29045.20443
412.696	26227.12482
413.196	24787.52625
413.696	23798.64933
414.196	24191.02903
414.696	23772.72299
415.196	22377.70229
415.696	20269.41715
416.196	16299.23379
416.695	12797.81851
417.195	10883.44742
417.694	10343.95738
418.194	9750.58171
418.693	9208.84935
419.192	8794.96798
419.691	8630.68134
420.19	8386.31837
420.688	8224.19281
421.187	7870.41191
421.685	7430.35807
422.184	6656.20339
422.682	5816.05747
423.18	4846.85271
423.678	4331.1056
424.176	4070.27231
424.674	3761.17888
425.172	3650.63825
425.669	3430.07817
426.167	3205.72648
426.664	2883.71358
427.161	2636.73089
427.659	2486.11424
428.156	2308.39983
428.652	2206.17668
429.149	2099.93068
429.646	2015.45729
430.143	1931.80126
430.639	1798.65679
431.135	1662.7101
431.632	1606.38365
432.128	1497.49096
432.624	1432.59217
433.12	1350.17949
433.616	1329.01791
434.111	1299.25397
434.607	1257.20252
435.103	1191.7629
435.598	1166.72512
436.093	1117.94728
436.588	1100.85779
437.083	1010.74772
437.578	960.70492
438.073	887.77297
438.568	925.80043
439.062	914.51849
439.557	814.54169
440.051	823.50684
440.546	783.46592
441.04	723.4181
441.534	786.6633
442.028	814.59498
442.522	704.42401
443.015	745.33017
443.509	758.55017
444.002	694.43899
444.496	596.08254
444.989	689.43529
445.482	642.36066
445.975	671.29055
446.468	665.19193
446.961	598.07021
447.454	544.04362
447.947	664.35587
448.439	652.36624
448.931	598.1535
449.424	558.20299
449.916	523.09388
450.408	616.20763
450.9	513.08903
451.392	544.20883
451.884	526.02992
452.375	507.09731
452.867	519.01163
453.358	482.94667
453.849	489.89865
454.341	497.98005
454.832	504.94323
455.323	477.02963
455.814	476.95297
456.304	423.86156
456.795	415.83296
457.285	449.86668
457.776	409.80879
458.266	444.94483
458.756	380.80971
459.247	434.91351
459.737	468.99762
460.226	403.80738
460.716	431.92096
461.206	413.87295
461.695	435.9789
462.185	438.92274
462.674	352.7194
463.163	380.74246
463.653	443.81696
464.142	324.70598
464.63	405.88413
465.119	413.86033
465.608	359.73986
466.096	389.75554
466.585	317.65272
467.073	293.63343
467.561	376.8283
468.05	343.71102
468.538	382.85667
469.026	325.71312
469.513	294.56161
470.001	307.63128
470.489	321.69009
470.976	337.70265
471.463	312.71867
471.951	305.69876
472.438	318.68232
472.925	266.56583
473.412	259.58027
473.899	303.63681
474.385	295.66418
474.872	253.54181
475.359	236.53516
475.845	279.52482
476.331	263.51568
476.817	247.55042
477.303	242.51881
477.789	238.53026
478.275	219.5088
478.761	198.44334
479.247	241.49333
479.732	252.58765
480.218	212.51705
480.703	264.61587
481.188	190.37616
481.673	219.46758
482.158	238.47163
482.643	202.48106
483.128	122.26223
483.612	163.35617
484.097	236.53494
484.581	130.28063
485.066	169.38425
485.55	154.31431
486.034	217.44038
486.518	183.40426
487.002	154.35702
487.486	182.41824
487.969	153.35884
488.453	194.46201
488.936	162.34131
489.42	168.34912
489.903	179.42506
490.386	204.40766
490.869	100.2028
491.352	113.26109
491.835	118.22683
492.318	136.29245
492.8	137.26329
493.283	154.37448
493.765	141.33121
494.247	149.32461
494.73	159.32975
495.212	131.29858
495.694	111.24716
496.175	93.2118
496.657	161.36517
497.139	65.10222
497.62	118.26889
498.102	113.26937
498.583	69.16411
499.064	116.24955
499.545	141.3034
500.026	109.23192
500.507	80.17566
500.988	108.25355
501.469	67.16058
501.949	65.15287
502.43	86.19526
502.91	86.1685
503.39	66.15869
503.87	108.24322
504.35	44.09881
504.83	74.15543
505.31	114.26491
505.79	57.13154
506.269	82.18194
506.749	41.0902
507.228	65.14683
507.707	58.12333
508.187	71.16117
508.666	42.09922
509.145	41.09254
509.623	76.17081
510.102	62.14396
510.581	62.14243
511.059	141.33985
511.538	58.14436
512.016	112.25708
512.494	68.15727
512.972	26.06054
513.45	80.18046
513.928	60.1407
514.406	87.20612
514.884	90.22579
515.361	90.20898
515.839	67.14609
516.316	27.06256
516.793	39.09535
517.27	68.15958
517.747	70.17385
518.224	34.07566
518.701	89.19019
519.178	98.23795
519.654	-13.02952
520.131	6.01432
520.607	67.16002
521.083	49.10879
521.56	21.04794
522.036	74.15639
522.512	43.10251
522.987	86.19874
523.463	45.10401
523.939	49.11609
524.414	49.1082
524.89	2.00459
525.365	51.11271
525.84	78.18355
526.315	-20.04688
526.79	36.07785
527.265	0
527.74	6.01423
528.215	48.10982
528.689	88.1894
529.164	-23.04781
529.638	32.0802
530.112	81.18618
530.587	70.14553
531.061	16.03783
531.534	50.11624
532.008	64.14931
532.482	10.02183
532.956	42.10575
533.429	-19.04387
533.903	17.03611
534.376	28.05972
534.849	54.12141
535.322	61.13886
535.795	61.14385
536.268	77.17954
536.741	70.16164
537.213	40.08982
537.686	5.01181
538.158	54.11712
538.631	42.09803
539.103	49.10607
539.575	74.14698
540.047	66.13893
540.519	24.05518
540.991	62.14487
541.463	65.15263
541.934	59.13061
542.406	52.12031
542.877	44.09572
543.348	31.07074
543.82	77.18109
544.291	-2.00447
544.762	47.10764
545.233	79.19329
545.703	73.156
546.174	61.13763
546.645	52.12289
547.115	79.18391
547.585	79.17715
548.056	109.25724
548.526	83.18856
548.996	55.12784
549.466	72.16818
549.935	136.31241
550.405	89.18945
550.875	51.11648
551.344	135.31167
551.814	74.16084
552.283	29.06063
552.752	105.23351
553.221	63.132
553.69	100.21365
554.159	161.38247
554.628	125.26585
555.096	105.25557
555.565	108.22914
556.033	142.31573
556.502	113.26088
556.97	89.1878
557.438	92.20922
557.906	131.29544
558.374	121.26395
558.842	83.19124
559.31	111.23473
559.777	108.25167
560.245	137.30126
560.712	58.12703
561.18	138.28755
561.647	103.21848
562.114	98.21391
562.581	155.36424
563.048	103.22325
563.514	92.21835
563.981	120.25993
564.448	151.32142
564.914	136.29912
565.381	135.28636
565.847	160.35176
566.313	165.36054
566.779	200.42674
567.245	153.33941
567.711	138.31713
568.176	175.38077
568.642	128.30963
569.108	120.2826
569.573	148.32524
570.038	220.43249
570.504	214.45482
570.969	110.26348
571.434	215.44509
571.899	173.39175
572.363	185.39499
572.828	214.45284
573.293	193.41672
573.757	200.43451
574.222	200.42507
574.686	168.35893
575.15	163.36941
575.614	194.41699
576.078	196.4318
576.542	184.39686
577.006	199.42507
577.469	220.50576
577.933	199.41437
578.396	177.40293
578.86	129.2876
579.323	167.37724
579.786	201.40344
580.249	177.38201
580.712	147.33883
581.175	174.40705
581.637	216.47007
582.1	117.24243
582.563	121.23849
583.025	135.31241
583.487	168.31562
583.95	147.3001
584.412	173.33696
584.874	175.40015
585.336	159.35829
585.797	169.34187
586.259	120.26415
586.721	122.27362
587.182	150.32561
587.643	179.38085
588.105	141.31825
588.566	190.37281
589.027	154.35645
589.488	151.32338
589.949	139.31604
590.41	183.33694
590.87	130.27485
591.331	121.24264
591.791	118.25538
592.252	135.29311
592.712	134.30511
593.172	188.39591
593.632	164.32605
594.092	191.39683
594.552	177.35247
595.011	180.39156
595.471	204.42412
595.931	190.39396
596.39	195.43941
596.849	207.4479
597.308	218.43462
597.768	209.49954
598.227	234.52459
598.685	238.49502
599.144	252.54305
599.603	242.53023
600.062	217.41703
600.52	258.53088
600.978	291.63825
601.437	304.63004
601.895	299.57324
602.353	309.61218
602.811	318.63665
603.269	367.78694
603.727	337.73321
604.184	363.73532
604.642	379.83333
605.099	417.85475
605.557	399.8596
606.014	431.81157
606.471	464.04189
606.928	510.98939
607.385	516.12372
607.842	560.11836
608.299	562.12184
608.755	562.16754
609.212	578.10257
609.668	594.12712
610.125	613.2513
610.581	558.1092
611.037	658.24394
611.493	612.21448
611.949	637.3033
612.405	705.15588
612.861	667.28346
613.316	669.35651
613.772	773.44645
614.227	666.32059
614.683	749.29331
615.138	718.41656
615.593	746.40512
616.048	743.36283
616.503	752.52539
616.958	724.5193
617.412	739.44066
617.867	781.41686
618.321	745.1945
618.776	716.28915
619.23	740.44637
619.684	756.3648
620.138	741.36666
620.592	700.40944
621.046	683.32123
621.5	725.45416
621.954	696.27357
622.407	682.24224
622.861	610.23643
623.314	731.35963
623.768	624.22853
624.221	675.08194
624.674	662.24968
625.127	679.32038
625.58	630.16185
626.033	619.11329
626.485	608.22844
626.938	615.2247
627.39	682.3152
627.843	599.1546
628.295	592.15776
628.747	603.21303
629.199	624.20144
629.651	574.10871
630.103	625.20885
630.555	506.90025
631.006	573.13934
631.458	530.05295
631.909	584.11727
632.361	554.08485
632.812	594.16388
633.263	574.01977
633.714	547.96541
634.165	599.20054
634.616	602.19905
635.067	588.06744
635.518	536.07381
635.968	631.01639
636.419	582.03563
636.869	649.27274
637.319	700.32607
637.769	665.23358
638.219	671.30232
638.669	677.35087
639.119	700.40685
639.569	754.50927
640.019	757.40599
640.468	712.2649
640.918	804.55459
641.367	842.49256
641.816	876.5353
642.265	828.52402
642.714	948.71227
643.163	887.56561
643.612	937.79879
644.061	909.45017
644.51	972.71025
644.958	953.59785
645.406	983.8366
645.855	951.82221
646.303	1035.81715
646.751	1073.84385
647.199	1082.78491
647.647	1103.92077
648.095	1047.79424
648.543	1169.63099
648.99	1107.00245
649.438	1246.11111
649.885	1238.2805
650.333	1177.51551
650.78	1208.19963
651.227	1216.20091
651.674	1254.04394
652.121	1199.1136
652.568	1171.12078
653.015	1194.20028
653.461	1224.12269
653.908	1250.08158
654.354	1222.08358
654.801	1267.14285
655.247	1242.89971
655.693	1232.42178
656.139	1235.14917
656.585	1236.16839
657.031	1267.15206
657.477	1252.91398
657.922	1251.08723
658.368	1248.24193
658.813	1196.9532
659.259	1256.20363
659.704	1207.07162
660.149	1248.09183
660.594	1227.12847
661.039	1245.0478
661.484	1279.20047
661.929	1272.11843
662.373	1280.42488
662.818	1246.30896
663.262	1200.12139
663.707	1289.38596
664.151	1303.34172
664.595	1289.25533
665.039	1309.34896
665.483	1365.5508
665.927	1327.18832
666.371	1288.15575
666.814	1403.32845
667.258	1393.34583
667.701	1441.99426
668.145	1441.50037
668.588	1414.45906
669.031	1435.36115
669.474	1454.41433
669.917	1528.17831
670.36	1452.50176
670.803	1479.43541
671.245	1488.99526
671.688	1543.53325
672.13	1506.21476
672.573	1551.74019
673.015	1613.54329
673.457	1609.23927
673.899	1567.52639
674.341	1682.6314
674.783	1652.618
675.225	1638.67062
675.666	1682.65247
676.108	1756.30989
676.549	1676.53363
676.991	1738.31299
677.432	1703.92657
677.873	1772.51603
678.314	1789.66469
678.755	1829.81775
679.196	1814.55596
679.637	1794.7304
680.078	1777.56321
680.518	1775.48054
680.959	1839.71588
681.399	1847.84586
681.839	1900.82677
682.28	1924.94998
682.72	1829.50611
683.16	1946.99286
683.6	1953.56594
684.039	1978.2021
684.479	1925.90291
684.919	2049.73804
685.358	2039.09515
685.798	2014.24687
686.237	2117.903
686.676	2114.70606
687.115	2148.79898
687.554	2101.82579
687.993	2112.43559
688.432	2252.75818
688.871	2206.65849
689.309	2344.09908
689.748	2339.30707
690.186	2299.87374
690.625	2412.97489
691.063	2370.04751
691.501	2391.17064
691.939	2437.23391
692.377	2442.11889
692.815	2416.05966
693.253	2426.9417
693.69	2488.55256
694.128	2602.17679
694.565	2584.01967
695.003	2568.39612
695.44	2563.89487
695.877	2650.96548
696.314	2578.43164
696.751	2753.71021
697.188	2758.8453
697.625	2745.7214
698.061	2726.06527
698.498	2830.09125
698.934	2744.01488
699.371	2815.99004
699.807	2864.98747
700.243	2968.15871
700.679	2888.70629
701.115	2952.87328
701.551	2971.97756
701.987	2965.58443
702.422	3110.9569
702.858	3048.94358
703.294	3089.62699
703.729	3171.20331
704.164	3156.10791
704.599	3090.53496
705.035	3152.62756
705.47	3284.20112
705.904	3296.77806
706.339	3315.67835
706.774	3325.78791
707.209	3347.70657
707.643	3413.97833
708.078	3430.0416
708.512	3491.40358
708.946	3582.85019
709.38	3494.80136
709.814	3650.50023
710.248	3754.86119
710.682	3758.85689
711.116	3736.91165
711.549	3665.38466
711.983	3813.50082
712.416	3931.55924
712.85	3918.12857
713.283	4024.62169
713.716	4027.01359
714.149	4050.55671
714.582	4020.27381
715.015	4139.92403
715.448	4121.92974
715.881	4134.87184
716.313	4249.48863
716.746	4281.50539
717.178	4301.56536
717.61	4362.99732
718.043	4402.73571
718.475	4440.53629
718.907	4464.76095
719.339	4530.05154
719.77	4549.4705
720.202	4544.83882
720.634	4668.55773
721.065	4760.2001
721.497	4810.48047
721.928	4732.57753
722.359	4847.45067
722.79	5001.16911
723.221	5029.44758
723.652	5119.5971
724.083	5010.69358
724.514	5071.66844
724.945	5134.95845
725.375	5259.82986
725.806	5227.19329
726.236	5224.54709
726.666	5334.81555
727.096	5477.01755
727.526	5502.38945
727.956	5575.48345
728.386	5634.88643
728.816	5553.33008
729.246	5782.93612
729.675	5657.1055
730.105	5825.87834
730.534	5912.52938
730.964	5891.00161
731.393	5954.77392
731.822	6046.1708
732.251	6092.11841
732.68	6258.29086
733.109	6235.80997
733.537	6397.59102
733.966	6422.75649
734.395	6514.24891
734.823	6609.10264
735.251	6535.57076
735.68	6762.74967
736.108	6745.82733
736.536	6728.40175
736.964	6834.29483
737.392	6857.72547
737.82	6947.48616
738.247	6987.45549
738.675	6991.41024
739.102	6954.86541
739.53	7147.99063
739.957	7103.94826
740.384	7255.65191
740.811	7378.9704
741.238	7387.68105
741.665	7447.57473
742.092	7203.47551
742.519	7370.87009
742.945	7462.65708
743.372	7479.86207
743.798	7633.10718
744.225	7590.67412
744.651	7560.91261
745.077	7585.91666
745.503	7575.7552
745.929	7656.74255
746.355	7743.8847
746.781	7600.87892
747.207	7693.76475
747.632	7593.85316
748.058	7724.94105
748.483	7747.61876
748.908	7768.99983
749.334	7856.00014
749.759	7780.7619
750.184	7716.77217
750.609	7705.87053
751.033	7835.74574
751.458	7844.6837
751.883	7784.9554
752.307	7839.88185
752.732	7775.11311
753.156	7763.962
753.58	7672.70127
754.005	7659.09532
754.429	7723.65879
754.853	7655.94471
755.277	7460.62723
755.7	7616.88717
756.124	7547.95184
756.548	7444.63053
756.971	7503.73502
757.394	7429.04565
757.818	7503.12102
758.241	7298.87762
758.664	7368.97847
759.087	7192.31634
759.51	7292.79062
759.933	7096.60774
760.356	7117.9426
760.778	7061.79277
761.201	6932.47361
761.623	6805.44835
762.046	6783.26916
762.468	6847.4705
762.89	6793.67141
763.312	6623.5588
763.734	6564.56716
764.156	6482.74944
764.578	6499.18063
765	6363.65382
765.421	6322.14236
765.843	6289.28975
766.264	6052.59551
766.686	5994.06627
767.107	6057.80093
767.528	5939.20112
767.949	5852.15562
768.37	5644.92649
768.791	5712.76511
769.212	5437.41807
769.632	5485.65004
770.053	5380.7477
770.473	5410.03209
770.894	5167.25256
771.314	5094.91886
771.734	5010.84884
772.154	5028.68806
772.575	4944.86078
772.994	4847.84122
773.414	4690.11873
773.834	4690.69583
774.254	4618.44922
774.673	4547.44005
775.093	4454.74875
775.512	4261.81486
775.931	4329.04716
776.351	4143.81059
776.77	4122.80093
777.189	4029.51766
777.607	3979.21197
778.026	3862.08071
778.445	3751.22581
778.864	3731.24943
779.282	3564.79075
779.701	3545.22503
780.119	3457.2162
780.537	3427.15759
780.955	3365.28695
781.373	3362.10523
781.791	3266.5522
782.209	3136.71504
782.627	3120.68291
783.045	3018.69877
783.462	2988.34659
783.88	2921.53822
784.297	2789.28497
784.715	2695.52241
785.132	2626.01058
785.549	2675.31677
785.966	2487.19255
786.383	2554.14742
786.8	2438.75685
787.217	2304.81274
787.633	2248.10771
788.05	2108.61686
788.466	2223.71657
788.883	2174.23424
789.299	2094.77353
789.715	2003.862
790.131	1975.8889
790.547	1912.80101
790.963	1920.8757
791.379	1824.90675
791.795	1804.41051
792.21	1732.4583
792.626	1667.48055
793.041	1589.5536
793.457	1609.58169
793.872	1558.3755
794.287	1552.52226
794.702	1521.48313
795.117	1434.42765
795.532	1402.50187
795.947	1357.21355
796.362	1324.15398
796.776	1242.94334
797.191	1261.18773
797.605	1319.21212
798.02	1189.12849
798.434	1199.82434
798.848	1127.03669
799.262	1106.10052
799.676	1092.95102
800.09	1062.94987
800.504	955.7754
800.918	922.61782
801.331	973.98359
801.745	928.60458
802.158	871.71928
802.572	878.64937
802.985	837.56412
803.398	843.57535
803.811	829.69973
804.224	765.53096
804.637	690.30837
805.05	739.36092
805.462	671.3488
805.875	680.51266
806.288	666.3415
806.7	617.3005
807.112	659.23945
807.525	647.33216
807.937	613.27111
808.349	557.17745
808.761	574.16547
809.173	513.04069
809.584	487.02385
809.996	486.0287
810.408	484.09443
810.819	445.90266
811.231	499.15561
811.642	492.05232
812.053	482.00152
812.464	498.01872
812.875	466.04039
813.286	401.90868
813.697	427.82816
814.108	378.79915
814.519	378.71614
814.929	336.75446
815.34	349.74415
815.75	348.78845
816.16	366.78801
816.571	360.83614
816.981	323.65909
817.391	319.6793
817.801	339.76166
818.211	343.72278
818.62	289.61863
819.03	305.65655
819.44	274.64598
819.849	283.64576
820.259	274.63719
820.668	267.60065
821.077	240.54334
821.486	205.44092
821.895	213.46719
822.304	213.52132
822.713	217.4605
823.122	261.59317
823.531	189.40983
823.939	199.4431
824.348	254.55793
824.756	177.40488
825.164	205.46647
825.573	178.41102
825.981	246.55194
826.389	146.33337
826.797	167.38615
827.205	129.27101
827.612	127.28712
828.02	127.27774
828.428	136.3199
828.835	142.3502
829.243	157.34015
829.65	112.26027
830.057	201.44959
830.464	167.37832
830.871	108.23754
831.278	103.22821
831.685	95.19121
832.092	142.3224
832.499	122.24063
832.905	118.2794
833.312	104.21545
833.718	106.24399
834.124	174.36078
834.531	115.26761
834.937	69.16467
835.343	137.30442
835.749	116.24547
836.155	114.27846
836.561	40.09056
836.966	106.23911
837.372	82.19454
837.777	56.13008
838.183	46.09188
838.588	61.14313
838.993	75.16769
839.399	68.15458
839.804	87.20037
840.209	98.23599
840.613	134.27436
841.018	40.09435
841.423	55.13131
841.828	65.15418
842.232	61.13842
842.637	41.08864
843.041	42.10385
843.445	70.16267
843.849	105.24164
844.253	51.11172
844.657	69.16493
845.061	71.14909
845.465	145.33022
845.869	23.04966
846.272	12.02761
846.676	114.25558
847.079	54.13072
847.483	117.26936
847.886	18.04035
848.289	100.2561
848.692	20.04781
849.095	40.08868
849.498	29.0677
849.901	43.0905
850.304	78.17119
850.707	44.10539
851.109	54.12539
851.512	105.24173
851.914	67.16247
852.316	46.11014
852.718	9.02248
853.121	65.14905
853.523	39.08471
853.925	19.04733
854.326	116.2735
854.728	44.107
855.13	45.11092
855.531	97.21894
855.933	20.04488
856.334	62.14607
856.736	-17.03541
857.137	28.06088
857.538	17.04053
857.939	34.07985
858.34	34.07707
858.741	27.06692
859.142	39.08803
859.542	69.17625
859.943	82.19213
860.343	20.04721
860.744	2.00463
861.144	10.02301
861.544	30.06903
861.945	8.01921
862.345	6.01356
862.745	-13.03072
863.145	-3.00659
863.544	53.12775
863.944	54.11807
864.344	-12.02783
864.743	73.169
865.143	40.09709
865.542	22.04745
865.941	97.22572
866.34	48.10748
866.74	50.12733
867.139	-7.01598
867.537	42.1001
867.936	33.07485
868.335	21.05108
868.734	36.0881
869.132	59.12837
869.531	82.18331
869.929	64.13674
870.327	19.0428
870.726	37.08627
871.124	30.06468
871.522	-9.02159
871.92	66.15155
872.318	56.12838
872.715	58.1334
873.113	43.09852
873.511	12.02835
873.908	-19.04704
874.306	0
874.703	46.10783
875.1	17.04084
875.497	18.04022
875.894	43.10101
876.291	39.09065
876.688	-2.0049
877.085	33.0736
877.482	-15.03535
877.878	37.08379
878.275	0
878.671	-5.01004
879.068	38.08554
879.464	57.12897
879.86	13.02934
880.256	49.11141
880.652	-21.05087
881.048	21.04829
881.444	19.04166
881.84	-2.0048
882.236	25.05948
882.631	58.1334
883.027	-28.06308
883.422	-9.02187
883.817	51.12232
884.213	7.01711
884.608	-3.00706
885.003	35.07942
885.398	36.08488
885.793	-11.02608
886.188	54.12781
886.582	-19.04543
886.977	27.05975
887.371	19.04535
887.766	10.0238
888.16	22.05187
888.554	23.05276
888.949	-5.0117
889.343	-7.0159
889.737	35.09047
890.131	38.09029
890.525	11.02657
890.918	49.11712
891.312	13.02855
891.706	67.1674
892.099	41.09778
892.492	45.08924
892.886	11.02517
893.279	2.00485
893.672	-13.03168
894.065	11.0259
894.458	-1.00238
894.851	30.06767
895.244	58.13961
895.637	46.10381
896.029	47.10751
896.422	16.03656
896.814	5.01179
897.206	24.05436
897.599	47.10596
897.991	0
898.383	-2.00442
898.775	19.03972
899.167	37.08157
899.559	1.00238
899.951	33.07229
900.342	-9.02131
900.734	15.0361
901.125	16.03946
901.517	37.0858
901.908	4.0089
902.299	15.03475
902.69	26.05747
903.082	59.1329
903.473	66.149
903.863	79.19114
904.254	22.04739
904.645	12.02769
905.036	28.06486
905.426	5.01031
905.817	27.06221
906.207	9.02031
906.597	21.04618
906.987	33.0796
907.378	5.0119
907.768	18.04553
908.158	5.01153
908.547	10.02467
908.937	32.07712
909.327	25.05661
909.717	4.00951
910.106	38.08537
910.495	51.12013
910.885	-24.05678
911.274	20.04745
911.663	86.20584
912.052	-2.00461
912.441	42.10175
912.83	20.04249
913.219	-2.00492
913.608	40.09163
913.997	-1.00238
914.385	-19.04224
914.774	29.06583
915.162	-35.07858
915.55	47.10613
915.939	9.02164
916.327	65.15138
916.715	36.08754
917.103	51.11605
917.491	-13.02994
917.878	7.0159
918.266	-51.12673
918.654	86.20827
919.041	22.05464
919.429	30.06651
919.816	9.02145
920.203	40.09089
920.591	-11.02561
920.978	20.04583
921.365	12.02979
921.752	10.02251
922.139	60.12029
922.525	-37.0843
922.912	3.00686
923.299	46.10791
923.685	-6.01494
924.072	3.00637
924.458	42.09772
924.844	-12.02811
925.231	-40.08727
925.617	31.07591
926.003	61.14625
926.389	24.05779
926.774	61.14575
927.16	-5.01168
927.546	32.07758
927.931	55.12834
928.317	4.00842
928.702	31.06765
929.088	27.06005
929.473	10.02415
929.858	31.07188
930.243	-5.01141
930.628	-16.03668
931.013	39.09211
931.398	60.12569
931.783	22.05494
932.167	17.03881
932.552	-38.08932
932.937	-31.07177
933.321	-25.05941
933.705	31.07461
934.09	5.01174
934.474	28.06192
934.858	9.02231
935.242	76.16547
935.626	-14.03396
936.009	-23.05861
936.393	49.11851
936.777	30.07333
937.16	-50.12318
937.544	31.06765
937.927	5.01208
938.311	46.10376
938.694	43.10747
939.077	-14.03134
939.46	76.17403
939.843	70.12956
940.226	-7.01697
940.609	2.00427
940.991	-20.04851
941.374	-21.04831
941.757	47.10808
942.139	-26.0542
942.522	-2.00436
942.904	74.16549
943.286	-22.05264
943.668	-5.01232
944.05	10.02319
944.432	25.05829
944.814	4.00919
945.196	-16.0375
945.578	10.02267
945.959	10.02199
946.341	-11.02492
946.722	35.07683
947.104	17.03768
947.485	-6.01305
947.866	18.0433
948.247	-4.00958
948.628	5.01138
949.009	-18.04413
949.39	4.00919
949.771	32.06849
950.152	51.11774
950.532	51.12167
950.913	-7.0157
951.293	50.12958
951.674	32.07171
952.054	9.02115
952.434	-5.01163
952.814	-29.06388
953.194	57.14097
953.574	-3.00685
953.954	9.02005
954.334	37.08715
954.714	3.00692
955.093	33.07482
955.473	-33.07791
955.853	4.00989
956.232	5.01312
956.611	-44.09783
956.99	10.02389
957.37	17.04096
957.749	-3.00665
958.128	66.15755
958.506	31.07689
958.885	-30.07172
959.264	23.0531
959.643	43.09073
960.021	-13.03059
960.4	78.16498
960.778	-12.02733
961.156	1.00237
961.535	-53.1138
961.913	-55.11896
962.291	34.08364
962.669	18.04326
963.047	-49.11802
963.424	37.08945
963.802	-15.03449
964.18	6.01423
964.557	34.07122
964.935	3.00663
965.312	26.06464
965.69	4.00939
966.067	21.04752
966.444	24.05544
966.821	14.03394
967.198	-2.00448
967.575	-7.01604
967.952	58.1266
968.329	17.03862
968.705	-14.0273
969.082	16.03918
969.458	7.01603
969.835	36.0817
970.211	41.09935
970.587	37.08641
970.963	11.02664
971.339	31.07745
971.715	-22.05119
972.091	-7.01622
972.467	-46.10723
972.843	-5.01175
973.219	-3.00665
973.594	11.0274
973.97	31.06765
974.345	52.11557
974.721	56.12508
975.096	-28.06339
975.471	43.09519
975.846	36.08144
976.221	43.10294
976.596	52.1161
976.971	33.0764
977.346	-14.03007
977.72	7.01684
978.095	20.04911
978.469	14.03136
978.844	26.06128
979.218	21.04767
979.593	58.12923
979.967	41.09398
980.341	-24.05145
980.715	-6.01423
981.089	7.01634
981.463	25.0541
981.837	18.04173
982.21	22.04711
982.584	-5.0113
982.957	-7.01672
983.331	30.06607
983.704	22.05121
984.078	-28.06502
984.451	8.01827
984.824	52.11936
985.197	48.10819
985.57	29.06759
985.943	-22.05021
986.316	73.16618
986.688	51.1137
987.061	-4.00868
987.434	2.00497
987.806	2.00453
988.179	-42.093
988.551	4.00951
988.923	28.0644
989.295	28.06545
989.667	14.03212
990.039	0
990.411	41.08838
990.783	-2.00427
991.155	56.12751
991.527	38.08526
991.898	-4.00935
992.27	-18.04231
992.641	3.00706
993.012	103.22392
993.384	75.16548
993.755	-15.03614
994.126	33.0743
994.497	-2.00463
994.868	36.07695
995.239	62.1406
995.61	9.02131
995.98	54.1237
996.351	28.06576
996.722	3.00657
997.092	35.07826
997.462	12.02659
997.833	32.0702
998.203	2.00452
998.573	52.12227
998.943	-4.00868
999.313	-21.04783
999.683	-6.0134
1000.053	46.09845
1000.423	24.05462
1000.792	13.03202
1001.162	22.05123
1001.531	25.05827
1001.901	9.02103
1002.27	50.10353
1002.639	14.03399
1003.009	56.1256
1003.378	-4.00973
1003.747	34.07437
1004.116	9.02036
1004.485	18.04055
1004.853	48.11418
1005.222	53.12673
1005.591	0
1005.959	39.08262
1006.328	-3.00627
1006.696	13.02969
1007.064	35.08286
1007.433	41.09665
1007.801	9.02058
1008.169	27.06362
1008.537	84.17028
1008.905	6.01315
1009.273	38.08771
1009.64	24.05394
1010.008	38.08403
1010.375	83.18573
1010.743	1.0021
1011.11	8.0178
1011.478	31.07174
1011.845	-46.10041
1012.212	-47.099
1012.579	43.09904
1012.946	11.02405
1013.313	57.12513
1013.68	15.03097
1014.047	59.13279
1014.414	40.0889
1014.78	44.10358
1015.147	-32.07195
1015.513	63.14348
1015.88	-9.02149
1016.246	53.12241
1016.612	23.04826
1016.978	20.04578
1017.344	46.1077
1017.71	25.05567
1018.076	-1.0022
1018.442	16.03872
1018.808	25.05889
1019.174	3.00706
1019.539	53.10859
1019.905	9.02002
1020.27	41.09582
1020.636	41.09122
1021.001	-9.0201
1021.366	53.12095
1021.731	35.08529
1022.096	10.02412
1022.461	-10.02193
1022.826	24.05336
1023.191	10.02497
1023.556	7.01508
1023.92	-8.01831
1024.285	-9.0206
1024.649	16.03684
1025.014	40.09251
1025.378	50.11926
1025.742	0
1026.107	-30.06268
1026.471	-11.02346
1026.835	-39.09079
1027.199	4.00912
1027.562	26.05661
1027.926	34.07735
1028.29	1.0024
1028.654	-43.09205
1029.017	21.04864
1029.381	1.00226
1029.744	55.13267
1030.107	23.04964
1030.471	24.05341
1030.834	-30.0627
1031.197	39.0859
1031.56	65.14359
1031.923	8.01959
1032.286	77.16497
1032.648	8.01777
1033.011	23.04924
1033.374	27.05802
1033.736	-30.07548
1034.099	33.07573
1034.461	7.0169
1034.823	-36.08478
1035.185	-26.06114
1035.548	40.0906
1035.91	29.06543
1036.272	43.0905
1036.634	11.02488
1036.995	65.14275
1037.357	-9.02072
1037.719	0
1038.08	-18.03936
1038.442	43.09714
1038.803	-6.01342
1039.165	9.0215
1039.526	-2.00455
1039.887	74.16508
1040.248	65.15287
1040.609	67.15357
1040.97	14.03207
1041.331	-34.08041
1041.692	-10.02214
1042.053	16.0334
1042.413	2.00429
1042.774	-2.00455
1043.134	10.02195
1043.495	40.09347
1043.855	17.03868
1044.215	32.07416
1044.576	9.02036
1044.936	83.17529
1045.296	20.04661
1045.656	33.07567
1046.016	-8.01788
1046.375	26.05961
1046.735	20.04273
1047.095	48.10429
1047.454	69.13203
1047.814	9.0201
1048.173	-15.03297
1048.533	7.01505
1048.892	-20.04576
1049.251	23.05428
1049.61	-72.16725
1049.969	57.1255
1050.328	-29.05756
1050.687	13.02959
1051.046	81.18432
1051.405	-16.03709
1051.763	-3.00649
1052.122	31.0735
1052.48	-21.04833
1052.839	27.0593
1053.197	9.01984
1053.555	-61.12583
1053.914	15.03423
1054.272	25.0562
1054.63	-13.0298
1054.988	-20.04462
1055.345	13.02539
1055.703	26.05774
1056.061	1.00244
1056.419	7.01729
1056.776	-11.02497
1057.134	67.14225
1057.491	34.07957
1057.848	10.02326
1058.206	-13.02862
1058.563	84.17067
1058.92	49.10285
1059.277	-38.08715
1059.634	18.03849
1059.991	58.12944
1060.348	62.13022
1060.704	37.08239
1061.061	21.04412
1061.418	4.00919
1061.774	13.03068
1062.131	92.23371
1062.487	-2.00434
1062.843	-7.01646
1063.199	77.17932
1063.555	15.03269
1063.911	34.08026
1064.267	43.07897
1064.623	28.06448
1064.979	-4.00861
1065.335	-19.04189
1065.691	49.11028
1066.046	4.00805
1066.402	14.02951
1066.757	40.0949
1067.112	-16.03658
1067.468	42.09404
1067.823	43.09654
1068.178	63.14237
1068.533	20.04493
1068.888	17.03745
1069.243	42.09749
1069.598	-28.06316
1069.952	12.02565
1070.307	47.11088
1070.662	21.04676
1071.016	56.11674
1071.371	-6.01266
1071.725	-8.01743
1072.079	43.09595
1072.434	-36.0827
1072.788	62.13785
1073.142	68.15696
1073.496	23.05096
1073.85	50.10678
1074.203	18.04067
1074.557	33.08388
1074.911	32.07009
1075.265	21.04472
1075.618	71.16143
1075.971	-10.02219
1076.325	27.06471
1076.678	28.05941
1077.031	18.03766
1077.385	94.18941
1077.738	72.14942
1078.091	71.15094
1078.444	4.00852
1078.796	68.15633
1079.149	-1.00231
1079.502	24.05303
1079.855	59.12788
1080.207	20.04604
1080.56	2.0049
1080.912	-62.14111
1081.264	4.00903
1081.617	25.05723
1081.969	46.11119
1082.321	16.03668
1082.673	2.00432
1083.025	-44.09767
1083.377	-232.47523
1083.728	-18.03846
1084.08	48.11291
1084.432	-58.12955
1084.783	116.25073
1085.135	58.13808
1085.486	54.11517
1085.838	10.02316
1086.189	-12.02743
1086.54	29.06449
1086.891	30.07254
1087.242	-29.06618
1087.593	-15.03405
1087.944	7.01465
1088.295	-34.07144
1088.646	-2.00457
1088.996	-7.01583
1089.347	12.02743
1089.698	21.04688
1090.048	9.02195
1090.398	68.14604
1090.749	40.08934
1091.099	15.03602
1091.449	-29.06796
1091.799	-3.00707
1092.149	-12.02837
1092.499	28.06419
1092.849	-15.03628
1093.199	25.05845
1093.548	53.11924
1093.898	30.07071
1094.248	9.02187
1094.597	12.02949
1094.947	15.03798
1095.296	-18.0418
1095.645	13.03186
1095.994	33.07436
1096.343	75.17817
1096.692	2.00506
1097.041	-28.07354
1097.39	12.02824
1097.739	46.1132
1098.088	16.04023
1098.437	-12.03028
1098.785	12.03064
1099.134	-4.00997
1099.482	-23.06025
1099.83	10.02483
1100.179	38.09527
1100.527	14.03507
1100.875	-5.01261
1101.223	40.10151
1101.571	-8.02137
1101.919	-10.02521
1102.267	3.00823
1102.615	3.00964
1102.962	4.01283
1103.31	1.00321
1103.658	-4.01283
