Data from N3 R7 sample 2_Subt2__5__17-00-01-903.txt Node

Date: Fri Sep 19 17:00:01 PDT 2025
User: uwsun
Spectrometer: HDX01956
Trigger mode: 0
Integration Time (sec): 5.000000E-1
Scans to average: 1
Nonlinearity correction enabled: true
Boxcar width: 0
Storing dark spectrum: false
XAxis mode: Wavelengths
Number of Pixels in Spectrum: 2068
>>>>>Begin Spectral Data<<<<<
194.03	59.16986
194.578	72.23225
195.127	63.20071
195.676	48.15305
196.225	77.20089
196.773	123.33707
197.321	129.35306
197.87	166.41795
198.418	193.48845
198.966	217.55678
199.513	192.4782
200.061	126.3152
200.609	158.40846
201.156	155.3262
201.704	151.37165
202.251	137.35766
202.798	153.3919
203.345	182.43891
203.892	151.37274
204.438	205.47458
204.985	149.34836
205.532	236.61512
206.078	181.43361
206.624	198.47713
207.17	166.37506
207.716	148.34908
208.262	186.35237
208.808	207.5008
209.354	190.44987
209.899	149.36659
210.445	170.41756
210.99	193.45424
211.535	195.44336
212.08	177.39869
212.625	174.42422
213.17	188.46159
213.715	175.38384
214.259	222.50117
214.804	169.40409
215.348	215.47276
215.892	167.39228
216.436	238.53136
216.98	159.33815
217.524	174.39986
218.068	186.45466
218.612	147.35833
219.155	194.44082
219.698	192.43751
220.242	213.50988
220.785	204.46035
221.328	196.47339
221.871	150.36993
222.414	171.407
222.956	172.40474
223.499	183.39648
224.041	108.24222
224.583	188.38597
225.126	191.41204
225.668	162.38328
226.21	161.39348
226.751	137.28718
227.293	180.39173
227.835	140.33149
228.376	182.39962
228.918	188.45766
229.459	178.43526
230	167.38431
230.541	166.36663
231.082	198.46265
231.622	173.38457
232.163	171.40559
232.704	152.36532
233.244	174.41756
233.784	181.42367
234.324	162.34926
234.864	145.31684
235.404	142.3241
235.944	162.36722
236.484	125.3006
237.023	212.48211
237.563	152.33978
238.102	157.3587
238.641	209.51248
239.18	190.43103
239.719	216.52523
240.258	152.32784
240.797	190.44029
241.335	133.31218
241.874	211.38791
242.412	152.35252
242.95	160.37445
243.488	155.34241
244.026	151.33859
244.564	205.40024
245.102	183.39529
245.64	214.49177
246.177	135.29124
246.715	172.39321
247.252	133.29283
247.789	83.14324
248.326	139.32128
248.863	175.36618
249.4	216.47426
249.936	185.36205
250.473	170.38394
251.009	200.44412
251.546	141.30249
252.082	202.42689
252.618	209.44894
253.154	130.30424
253.69	193.41493
254.226	184.42115
254.761	146.31233
255.297	191.40232
255.832	151.34416
256.367	183.4122
256.903	186.38825
257.438	172.38449
257.972	158.33595
258.507	161.36161
259.042	157.32066
259.576	191.39559
260.111	158.35072
260.645	224.46217
261.179	166.37123
261.713	101.2177
262.247	216.48125
262.781	223.44739
263.315	194.45792
263.849	189.45588
264.382	163.35873
264.915	225.50721
265.449	140.33405
265.982	165.35657
266.515	226.52744
267.048	250.50236
267.58	193.39508
268.113	182.38058
268.646	160.38659
269.178	151.32659
269.71	166.34635
270.243	189.41332
270.775	195.47904
271.307	166.37964
271.838	229.51348
272.37	210.49819
272.902	219.47832
273.433	170.35454
273.965	239.56227
274.496	192.45408
275.027	168.40101
275.558	157.36836
276.089	179.43519
276.62	168.41158
277.15	168.39948
277.681	153.31362
278.211	180.42158
278.741	204.43489
279.272	213.46541
279.802	199.47982
280.332	174.39682
280.861	230.52833
281.391	183.39699
281.921	162.37169
282.45	259.62423
282.98	187.47343
283.509	202.434
284.038	173.37257
284.567	175.3853
285.096	216.50133
285.625	239.52399
286.153	160.36165
286.682	205.44509
287.21	229.52593
287.739	205.46062
288.267	194.4549
288.795	222.55953
289.323	210.47795
289.851	220.48955
290.378	235.50239
290.906	253.58824
291.433	235.56146
291.961	224.48002
292.488	244.58062
293.015	235.53343
293.542	198.48182
294.069	201.47546
294.596	230.54394
295.122	246.5601
295.649	254.53583
296.175	230.52473
296.702	192.44299
297.228	178.4102
297.754	219.46799
298.28	181.39432
298.806	209.48614
299.332	198.42009
299.857	215.46183
300.383	220.52914
300.908	212.50002
301.433	266.61834
301.958	206.44698
302.483	267.64448
303.008	229.53728
303.533	192.4742
304.058	265.58931
304.582	238.53838
305.107	266.66848
305.631	273.58186
306.155	278.61988
306.679	295.65302
307.203	278.61244
307.727	287.64855
308.251	248.58333
308.775	247.55817
309.298	243.56187
309.822	253.60931
310.345	310.69151
310.868	274.62107
311.391	281.65437
311.914	280.66908
312.437	232.49931
312.96	287.64299
313.482	275.62143
314.005	292.69588
314.527	283.71107
315.049	260.62272
315.571	351.74614
316.093	329.77306
316.615	287.66228
317.137	244.49981
317.659	276.62789
318.18	319.72643
318.702	317.69498
319.223	350.66406
319.744	324.685
320.265	301.6943
320.786	325.76038
321.307	354.8313
321.828	383.81061
322.348	322.71798
322.869	257.56867
323.389	267.4704
323.909	345.74137
324.43	373.82978
324.95	295.64239
325.47	346.80427
325.989	423.93982
326.509	319.66364
327.029	364.76484
327.548	391.81957
328.067	402.89928
328.587	400.93049
329.106	329.69937
329.625	350.85002
330.144	359.7648
330.662	390.84004
331.181	434.9372
331.7	348.76181
332.218	428.85885
332.736	402.86328
333.255	428.91712
333.773	434.94923
334.291	426.97178
334.808	403.82157
335.326	466.96101
335.844	459.99096
336.361	453.05596
336.879	478.01305
337.396	440.9656
337.913	448.938
338.43	510.04661
338.947	451.98869
339.464	464.90272
339.981	485.05409
340.497	489.10374
341.014	510.11674
341.53	540.1053
342.046	508.13806
342.562	569.27309
343.078	523.10595
343.594	537.16433
344.11	545.1611
344.626	567.29463
345.141	609.23806
345.657	551.09959
346.172	529.14403
346.687	595.2167
347.202	578.15224
347.717	563.2073
348.232	627.39783
348.747	669.34045
349.261	670.30007
349.776	610.25953
350.29	625.38073
350.805	609.32628
351.319	653.33729
351.833	599.21438
352.347	583.19751
352.861	644.32032
353.374	625.25216
353.888	624.32247
354.401	650.30442
354.915	705.37493
355.428	681.49391
355.941	706.43132
356.454	670.30254
356.967	721.4794
357.48	690.36697
357.993	740.57269
358.505	774.64787
359.018	710.48989
359.53	707.47218
360.042	757.39832
360.554	707.47739
361.066	731.53232
361.578	744.39243
362.09	788.59995
362.602	709.34152
363.113	726.41963
363.625	781.50393
364.136	792.45909
364.647	791.56481
365.158	828.62856
365.669	874.78362
366.18	748.46824
366.691	847.54932
367.201	834.66346
367.712	796.49947
368.222	922.75934
368.733	880.58675
369.243	896.59674
369.753	879.66623
370.263	897.75165
370.773	919.88866
371.282	893.75123
371.792	918.71198
372.301	938.872
372.811	990.12083
373.32	968.63236
373.829	1015.94597
374.338	1052.83891
374.847	1077.9276
375.356	1159.15841
375.865	1171.87131
376.373	1228.09722
376.882	1258.44416
377.39	1241.28888
377.898	1309.4626
378.407	1281.1004
378.915	1344.06199
379.423	1541.5508
379.93	1587.42375
380.438	1663.79337
380.946	1678.63408
381.453	1679.72073
381.96	1813.78632
382.468	1961.9009
382.975	2121.13793
383.482	2114.7315
383.989	2128.34839
384.495	2205.87657
385.002	2362.50596
385.509	2453.98322
386.015	2694.34525
386.521	2756.77421
387.028	2885.85063
387.534	2893.57438
388.04	3055.03936
388.546	3118.6518
389.051	3319.52911
389.557	3469.80423
390.063	3876.64139
390.568	3853.77396
391.073	4019.34922
391.578	4179.65955
392.084	4348.0072
392.589	4472.86473
393.093	4816.05558
393.598	5193.60615
394.103	5820.57738
394.607	6331.35108
395.112	6736.49013
395.616	7138.40769
396.12	7756.56362
396.624	8607.63504
397.128	9216.83671
397.632	10290.09877
398.136	11272.39361
398.639	11876.49855
399.143	13193.86647
399.646	14995.82519
400.15	16552.49216
400.653	18511.0333
401.156	20899.81953
401.659	24259.304
402.162	29552.12664
402.664	38530.17037
403.167	54694.28652
403.67	59664.54257
404.172	55487.84425
404.674	37291.05854
405.176	4428.40989
405.678	533.47942
406.18	0
406.682	0
407.184	6962.89417
407.686	50953.82939
408.187	59237.6763
408.688	61091.12691
409.19	61923.45898
409.691	55706.17976
410.192	47366.74925
410.693	40896.01412
411.194	37071.74149
411.694	34954.73695
412.195	32586.86253
412.696	29308.57716
413.196	27458.6945
413.696	26776.7474
414.196	27130.62759
414.696	26763.08611
415.196	25401.23551
415.696	23249.56694
416.196	18769.73258
416.695	14518.12996
417.195	12381.60912
417.694	11571.10236
418.194	11052.99693
418.693	10235.96279
419.192	9954.86156
419.691	9705.10297
420.19	9507.55
420.688	9406.26841
421.187	8898.20415
421.685	8290.16458
422.184	7608.52186
422.682	6460.94003
423.18	5613.45889
423.678	4840.81792
424.176	4615.97271
424.674	4333.87931
425.172	4075.44562
425.669	3939.89685
426.167	3611.59874
426.664	3310.63025
427.161	3027.7067
427.659	2850.166
428.156	2655.4172
428.652	2481.29029
429.149	2433.06248
429.646	2258.53385
430.143	2174.93146
430.639	2059.81432
431.135	1890.89374
431.632	1820.5342
432.128	1747.71476
432.624	1569.74369
433.12	1558.37271
433.616	1560.21211
434.111	1461.42933
434.607	1393.35593
435.103	1392.93859
435.598	1330.87257
436.093	1279.13537
436.588	1174.94376
437.083	1187.95945
437.578	1102.88631
438.073	1043.00884
438.568	1029.95393
439.062	1016.64143
439.557	909.6822
440.051	941.67239
440.546	899.63555
441.04	838.59958
441.534	837.75164
442.028	877.69314
442.522	798.57979
443.015	804.41397
443.509	816.64708
444.002	780.58657
444.496	696.23258
444.989	795.61748
445.482	700.46501
445.975	745.4077
446.468	674.20531
446.961	697.2161
447.454	679.26086
447.947	700.41784
448.439	690.43387
448.931	699.31611
449.424	637.35035
449.916	633.29219
450.408	669.29534
450.9	637.31625
451.392	610.33717
451.884	601.15624
452.375	536.15302
452.867	628.19292
453.358	519.00875
453.849	536.97342
454.341	565.09469
454.832	614.11644
455.323	536.14264
455.814	525.03742
456.304	559.10164
456.795	478.94546
457.285	493.94157
457.776	476.92651
458.266	533.1104
458.756	430.90629
459.247	494.02422
459.737	532.11642
460.226	518.00848
460.716	440.93835
461.206	470.98101
461.695	470.04804
462.185	501.03899
462.674	414.83422
463.163	472.90212
463.653	481.87861
464.142	400.8575
464.63	434.94161
465.119	465.95744
465.608	419.85186
466.096	457.87323
466.585	358.73034
467.073	332.71174
467.561	439.95428
468.05	390.79995
468.538	402.8978
469.026	376.81614
469.513	343.64744
470.001	336.68639
470.489	342.73191
470.976	345.71805
471.463	369.84026
471.951	333.75861
472.438	368.78108
472.925	229.49105
473.412	297.66019
473.899	351.72988
474.385	315.70629
474.872	339.71247
475.359	297.66512
475.845	310.57869
476.331	272.53219
476.817	244.54408
477.303	271.57734
477.789	277.61216
478.275	256.5904
478.761	279.61426
479.247	254.51841
479.732	270.62739
480.218	228.5544
480.703	271.63133
481.188	203.40067
481.673	240.51008
482.158	232.46038
482.643	240.56737
483.128	168.35753
483.612	174.37932
484.097	198.45228
484.581	172.36795
485.066	217.48858
485.55	179.36326
486.034	214.43459
486.518	178.39363
487.002	199.45722
487.486	203.46454
487.969	215.49812
488.453	179.42751
488.936	168.35348
489.42	188.38894
489.903	213.50247
490.386	187.37516
490.869	130.26183
491.352	151.34624
491.835	110.21186
492.318	155.33194
492.8	143.27442
493.283	214.51452
493.765	147.3449
494.247	102.22443
494.73	163.33775
495.212	179.40402
495.694	101.22536
496.175	141.31799
496.657	202.45434
497.139	76.11914
497.62	101.23095
498.102	138.32739
498.583	100.23642
499.064	154.32859
499.545	138.29714
500.026	119.25264
500.507	101.22079
500.988	104.24435
501.469	73.17475
501.949	80.18759
502.43	76.17291
502.91	86.1685
503.39	112.26694
503.87	93.21008
504.35	126.27817
504.83	86.18015
505.31	98.22845
505.79	70.16112
506.269	100.22105
506.749	91.19809
507.228	67.15129
507.707	84.1776
508.187	74.16788
508.666	67.15751
509.145	88.19672
509.623	94.21048
510.102	89.20555
510.581	60.13789
511.059	106.25718
511.538	73.1812
512.016	119.27276
512.494	88.20272
512.972	106.24291
513.45	76.17158
513.928	91.21209
514.406	141.33057
514.884	118.29455
515.361	112.25893
515.839	83.18036
516.316	66.15174
516.793	59.14371
517.27	120.27875
517.747	28.07007
518.224	49.1087
518.701	68.14597
519.178	142.34194
519.654	37.08317
520.131	53.12537
520.607	94.22335
521.083	48.10659
521.56	31.07063
522.036	119.249
522.512	53.1261
522.987	108.24849
523.463	127.28876
523.939	106.24837
524.414	62.13654
524.89	58.13163
525.365	74.16276
525.84	104.24349
526.315	66.1521
526.79	47.10139
527.265	30.06537
527.74	30.07084
528.215	63.14371
528.689	79.17036
529.164	15.03091
529.638	93.2305
530.112	77.17713
530.587	111.22866
531.061	83.19368
531.534	20.04677
532.008	66.15392
532.482	62.13384
532.956	99.24672
533.429	-4.00921
533.903	26.05512
534.376	39.08298
534.849	127.28126
535.322	51.11634
535.795	68.16014
536.268	59.13805
536.741	66.15252
537.213	63.1408
537.686	52.1217
538.158	52.11283
538.631	5.01175
539.103	15.03271
539.575	111.21857
540.047	54.11397
540.519	51.11662
540.991	33.07755
541.463	61.14335
541.934	37.08228
542.406	67.15456
542.877	35.07628
543.348	0
543.82	61.14391
544.291	60.13252
544.762	43.09856
545.233	78.19088
545.703	53.11375
546.174	53.11977
546.645	93.21804
547.115	81.18849
547.585	130.28845
548.056	136.31928
548.526	121.27278
548.996	146.33323
549.466	73.17048
549.935	154.35248
550.405	134.28244
550.875	93.2106
551.344	154.35418
551.814	98.21192
552.283	143.2914
552.752	134.29621
553.221	113.23414
553.69	183.38394
554.159	185.43744
554.628	185.38831
555.096	144.34793
555.565	179.37389
556.033	178.39281
556.502	140.32147
556.97	136.28401
557.438	157.35234
557.906	201.44681
558.374	187.4022
558.842	161.36517
559.31	158.33068
559.777	178.40905
560.245	162.35436
560.712	166.35527
561.18	140.29158
561.647	179.37339
562.114	129.27973
562.581	179.41866
563.048	170.3632
563.514	193.44911
563.981	201.42785
564.448	202.4252
564.914	227.4897
565.381	214.4461
565.847	223.48376
566.313	189.41088
566.779	252.53162
567.245	239.52067
567.711	238.53597
568.176	281.59761
568.642	280.65781
569.108	216.49915
569.573	246.52944
570.038	325.62309
570.504	321.66631
570.969	274.63568
571.434	260.53283
571.899	317.69674
572.363	302.62841
572.828	324.66909
573.293	287.60718
573.757	342.72051
574.222	348.71574
574.686	309.63997
575.15	382.82705
575.614	321.67107
576.078	311.6686
576.542	370.76613
577.006	367.75533
577.469	329.7398
577.933	312.63331
578.396	372.81331
578.86	302.64911
579.323	321.70226
579.786	314.61379
580.249	286.60281
580.712	285.63877
581.175	244.56295
581.637	337.71451
582.1	288.57392
582.563	256.48855
583.025	258.58243
583.487	217.40276
583.95	275.54508
584.412	278.52796
584.874	270.60553
585.336	239.52973
585.797	264.52242
586.259	163.35556
586.721	274.59527
587.182	259.54914
587.643	228.47993
588.105	264.58087
588.566	254.49085
589.027	248.56328
589.488	203.42985
589.949	217.48558
590.41	254.45934
590.87	166.3482
591.331	195.38434
591.791	137.2953
592.252	152.32883
592.712	204.4579
593.172	190.39995
593.632	200.39429
594.092	190.39484
594.552	227.44678
595.011	248.53168
595.471	219.45378
595.931	261.53258
596.39	238.53158
596.849	205.44376
597.308	223.44408
597.768	212.50642
598.227	254.56708
598.685	190.39942
599.144	245.52876
599.603	259.56544
600.062	252.48021
600.52	282.57713
600.978	303.66289
601.437	322.66466
601.895	286.55004
602.353	284.56594
602.811	290.58436
603.269	340.7333
603.727	355.76942
604.184	350.7111
604.642	344.76195
605.099	370.76647
605.557	360.78208
606.014	388.73832
606.471	407.92639
606.928	494.96201
607.385	429.95314
607.842	490.99598
608.299	513.03548
608.755	477.00939
609.212	512.99375
609.668	532.02448
610.125	517.07796
610.581	540.07785
611.037	546.06007
611.493	600.19395
611.949	520.09167
612.405	576.97928
612.861	561.10662
613.316	618.26751
613.772	621.20512
614.227	598.20433
614.683	670.18089
615.138	638.28207
615.593	571.12111
616.048	620.17197
616.503	628.30951
616.958	612.31563
617.412	598.20433
617.867	651.21957
618.321	597.99831
618.776	650.18983
619.23	589.19189
619.684	599.12418
620.138	555.07066
620.592	586.21045
621.046	636.24397
621.5	582.2054
621.954	599.12252
622.407	652.1965
622.861	506.04961
623.314	563.09028
623.768	554.10841
624.221	591.97095
624.674	565.09155
625.127	516.04178
625.58	511.9717
626.033	498.92463
626.485	507.04771
626.938	539.09204
627.39	556.10419
627.843	473.94061
628.295	511.0182
628.747	520.06573
629.199	504.99969
629.651	505.99302
630.103	489.97786
630.555	438.79297
631.006	421.86802
631.458	396.81263
631.909	430.8545
632.361	357.73276
632.812	434.88376
633.263	418.77375
633.714	417.76091
634.165	440.91555
634.616	430.89195
635.067	448.84338
635.518	436.89511
635.968	484.813
636.419	440.81285
636.869	469.96003
637.319	479.95742
637.769	448.87699
638.219	458.93518
638.669	483.0065
639.119	442.94221
639.569	552.15591
640.019	536.04954
640.468	487.91659
640.918	572.16669
641.367	594.11999
641.816	566.07179
642.265	632.21979
642.714	570.12783
643.163	576.09822
643.612	638.31213
644.061	599.03924
644.51	685.29476
644.958	650.17905
645.406	628.27529
645.855	646.32801
646.303	749.41251
646.751	715.34498
647.199	668.22715
647.647	715.37136
648.095	733.36065
648.543	778.21966
648.99	726.44041
649.438	858.60541
649.885	794.6246
650.333	751.10626
650.78	843.67638
651.227	834.65576
651.674	834.5182
652.121	758.4893
652.568	832.63644
653.015	838.68149
653.461	826.58273
653.908	834.5466
654.354	784.49345
654.801	824.5599
655.247	854.4544
655.693	827.78019
656.139	784.52599
656.585	821.59622
657.031	766.47606
657.477	813.40263
657.922	819.5274
658.368	773.55698
658.813	762.39389
659.259	789.55284
659.704	789.50481
660.149	751.42875
660.594	822.57808
661.039	790.46267
661.484	821.58411
661.929	746.42094
662.373	802.6957
662.818	772.59877
663.262	799.55928
663.707	764.59839
664.151	799.62047
664.595	772.53323
665.039	802.62545
665.483	829.75321
665.927	798.50766
666.371	798.51354
666.814	803.55155
667.258	821.59622
667.701	820.35961
668.145	873.74094
668.588	852.70019
669.031	899.69758
669.474	852.64755
669.917	860.48118
670.36	865.72177
670.803	881.68951
671.245	807.32363
671.688	847.65778
672.13	908.57738
672.573	921.89192
673.015	919.73626
673.457	994.65278
673.899	944.78748
674.341	832.62033
674.783	886.71013
675.225	916.7926
675.666	907.74696
676.108	1022.6716
676.549	954.7503
676.991	934.57228
677.432	997.42588
677.873	917.64983
678.314	1003.84546
678.755	1044.97526
679.196	1017.79105
679.637	941.79176
680.078	1026.82151
680.518	981.7149
680.959	1022.88097
681.399	1000.92039
681.839	1010.90339
682.28	1053.02331
682.72	1038.78304
683.16	1063.05331
683.6	1122.87976
684.039	1089.62074
684.479	1060.00612
684.919	1126.95839
685.358	1155.20708
685.798	1081.19542
686.237	1116.0193
686.676	1146.94728
687.115	1150.99712
687.554	1173.05152
687.993	1164.81009
688.432	1275.09281
688.871	1186.94648
689.309	1321.33083
689.748	1305.83761
690.186	1293.17297
690.625	1370.29755
691.063	1330.305
691.501	1300.33809
691.939	1362.44012
692.377	1414.42823
692.815	1403.3844
693.253	1383.28879
693.69	1430.08523
694.128	1469.49858
694.565	1533.46559
695.003	1544.72005
695.44	1510.36651
695.877	1590.47603
696.314	1560.10353
696.751	1594.31181
697.188	1582.38848
697.625	1583.3104
698.061	1668.60329
698.498	1703.64559
698.934	1702.59618
699.371	1692.57018
699.807	1683.56159
700.243	1747.72568
700.679	1809.46076
701.115	1787.56525
701.551	1817.65717
701.987	1859.41051
702.422	1851.67667
702.858	1931.71136
703.294	1966.50956
703.729	1969.92684
704.164	2039.90023
704.599	2002.45889
705.035	2005.53747
705.47	2034.97777
705.904	2132.72617
706.339	2147.66236
706.774	2185.75969
707.209	2180.70196
707.643	2284.95668
708.078	2220.98189
708.512	2327.30794
708.946	2336.91687
709.38	2408.87627
709.814	2363.67842
710.248	2350.97704
710.682	2508.01625
711.116	2498.04983
711.549	2468.38564
711.983	2459.75027
712.416	2620.85857
712.85	2634.3043
713.283	2651.94593
713.716	2770.27148
714.149	2722.90895
714.582	2794.66424
715.015	2782.24279
715.448	2713.23269
715.881	2804.37812
716.313	2857.93694
716.746	2841.96482
717.178	2836.02225
717.61	2985.40262
718.043	2895.2046
718.475	2965.05629
718.907	3031.25039
719.339	3016.68505
719.77	3025.04711
720.202	3042.35053
720.634	3098.16933
721.065	3066.91479
721.497	3061.17512
721.928	3047.22016
722.359	3206.15059
722.79	3087.00162
723.221	3211.23578
723.652	3268.39969
724.083	3139.58522
724.514	3154.58884
724.945	3305.84082
725.375	3179.81524
725.806	3205.11302
726.236	3207.41471
726.666	3317.8051
727.096	3364.04277
727.526	3392.38183
727.956	3372.58914
728.386	3419.97929
728.816	3353.36011
729.246	3444.08235
729.675	3456.182
730.105	3355.0681
730.534	3474.73315
730.964	3490.17579
731.393	3415.00397
731.822	3427.40947
732.251	3559.3459
732.68	3551.56237
733.109	3559.09195
733.537	3577.90212
733.966	3532.09471
734.395	3630.52388
734.823	3614.36132
735.251	3579.90409
735.68	3577.12403
736.108	3564.21152
736.536	3633.70783
736.964	3642.56833
737.392	3640.07954
737.82	3630.79337
738.247	3713.71622
738.675	3675.67306
739.102	3696.21961
739.53	3668.35875
739.957	3678.31125
740.384	3750.87905
740.811	3761.24744
741.238	3713.87174
741.665	3688.68904
742.092	3745.66318
742.519	3738.12773
742.945	3713.79105
743.372	3715.07267
743.798	3728.3174
744.225	3668.73133
744.651	3630.12353
745.077	3636.11071
745.503	3617.8883
745.929	3652.78251
746.355	3681.91073
746.781	3597.05857
747.207	3572.80893
747.632	3577.03282
748.058	3532.06808
748.483	3610.47015
748.908	3536.11488
749.334	3580.00781
749.759	3492.72717
750.184	3501.81983
750.609	3378.02129
751.033	3536.60126
751.458	3595.44039
751.883	3511.03719
752.307	3427.87628
752.732	3455.29917
753.156	3419.09406
753.58	3363.79509
754.005	3431.3659
754.429	3262.69277
754.853	3199.20458
755.277	3266.8903
755.7	3213.15202
756.124	3234.27833
756.548	3103.93606
756.971	3087.04058
757.394	3085.45844
757.818	3111.51796
758.241	2954.31021
758.664	2891.39903
759.087	3023.67221
759.51	2953.21415
759.933	2912.06089
760.356	2884.41047
760.778	2882.26328
761.201	2752.9435
761.623	2639.92084
762.046	2613.74246
762.468	2654.94184
762.89	2643.13342
763.312	2526.00301
763.734	2576.01408
764.156	2510.14569
764.578	2448.64315
765	2450.0319
765.421	2425.39472
765.843	2419.49292
766.264	2289.87245
766.686	2297.20033
767.107	2295.02716
767.528	2218.23896
767.949	2170.15777
768.37	2042.87869
768.791	2007.77653
769.212	2039.11497
769.632	1962.61294
770.053	1954.22741
770.473	1932.80699
770.894	1813.77664
771.314	1839.58295
771.734	1753.46159
772.154	1761.92609
772.575	1652.37807
772.994	1690.36498
773.414	1577.37874
773.834	1593.6778
774.254	1555.50268
774.673	1571.49335
775.093	1483.53061
775.512	1498.52991
775.931	1474.62693
776.351	1337.32753
776.77	1360.34489
777.189	1330.16862
777.607	1317.44156
778.026	1309.35613
778.445	1260.33845
778.864	1220.29303
779.282	1194.04975
779.701	1147.16229
780.119	1095.07807
780.537	1106.06805
780.955	1022.99279
781.373	1074.99956
781.791	1020.70919
782.209	1018.75695
782.627	998.08668
783.045	982.69643
783.462	865.75527
783.88	902.88153
784.297	863.7345
784.715	844.78923
785.132	914.71964
785.549	887.79015
785.966	760.55216
786.383	800.59778
786.8	785.4458
787.217	719.37507
787.633	674.40369
788.05	647.21743
788.466	678.2862
788.883	669.44724
789.299	656.28618
789.715	678.37009
790.131	598.24411
790.547	550.14206
790.963	602.25856
791.379	553.19959
791.795	519.99124
792.21	534.04413
792.626	526.05277
793.041	461.97865
793.457	497.04812
793.872	437.88927
794.287	506.0627
794.702	410.87818
795.117	360.78741
795.532	437.97454
795.947	479.97428
796.362	388.79801
796.776	385.75312
797.191	374.80212
797.605	402.84393
798.02	424.90934
798.434	350.66795
798.848	332.72249
799.262	397.88499
799.676	336.71783
800.09	291.63825
800.504	315.67924
800.918	287.58802
801.331	279.65866
801.745	265.53951
802.158	288.64669
802.572	292.62816
802.985	235.505
803.398	259.55442
803.811	277.6392
804.224	265.59224
804.637	159.34095
805.05	206.43057
805.462	224.49721
805.875	242.58778
806.288	216.48065
806.7	177.4096
807.112	187.39302
807.525	175.39902
807.937	143.32803
808.349	137.31666
808.761	129.28891
809.173	162.35555
809.584	180.4047
809.996	149.33919
810.408	155.37458
810.819	175.37688
811.231	190.46771
811.642	207.47083
812.053	177.39346
812.464	181.3975
812.875	142.33883
813.286	113.27102
813.697	163.33608
814.108	130.28977
814.519	139.27873
814.929	107.25154
815.34	102.22914
815.75	108.25661
816.16	75.17156
816.571	141.34165
816.981	53.11478
817.391	129.28605
817.801	133.31145
818.211	151.33162
818.62	47.10587
819.03	71.16052
819.44	82.20052
819.849	118.27821
820.259	148.35274
820.668	149.3433
821.077	59.13849
821.486	93.20485
821.895	79.17817
822.304	81.20311
822.713	66.14467
823.122	149.34631
823.531	81.17969
823.939	129.2914
824.348	88.20005
824.756	77.17968
825.164	39.09172
825.573	51.12074
825.981	132.3031
826.389	32.07474
826.797	77.18123
827.205	80.16988
827.612	38.08747
828.02	41.09129
828.428	30.07202
828.835	7.01769
829.243	57.12613
829.65	36.08491
830.057	112.25512
830.464	71.16398
830.871	85.18785
831.278	31.06971
831.685	44.0896
832.092	54.12479
832.499	18.03637
832.905	69.16493
833.312	73.15228
833.718	83.19192
834.124	105.22107
834.531	36.08508
834.937	33.0793
835.343	64.14437
835.749	53.1137
836.155	24.0596
836.561	-59.13627
836.966	64.14561
837.372	60.14295
837.777	-8.01882
838.183	3.00605
838.588	68.15933
838.993	-23.05246
839.399	11.02529
839.804	51.11831
840.209	47.11427
840.613	39.08157
841.018	23.05443
841.423	-5.01207
841.828	34.08113
842.232	-7.0161
842.637	8.01742
843.041	71.17462
843.445	-14.03307
843.849	24.05612
844.253	-2.00443
844.657	68.16257
845.061	66.13875
845.465	81.18685
845.869	35.07538
846.272	23.0528
846.676	64.14496
847.079	33.0802
847.483	38.08886
847.886	56.12456
848.289	27.07003
848.692	22.05258
849.095	3.0067
849.498	19.04444
849.901	40.08424
850.304	39.0863
850.707	29.06966
851.109	-28.06607
851.512	80.1851
851.914	53.12886
852.316	20.04812
852.718	-8.02004
853.121	15.03474
853.523	-15.03296
853.925	8.01997
854.326	83.19695
854.728	19.04642
855.13	-6.01493
855.531	54.12295
855.933	26.05827
856.334	29.06876
856.736	-31.06478
857.137	29.06305
857.538	13.03101
857.939	36.08452
858.34	43.09729
858.741	26.06445
859.142	41.0925
859.542	57.1459
859.943	33.07806
860.343	8.01893
860.744	57.13065
861.144	-7.01616
861.544	13.03001
861.945	-7.01685
862.345	11.02484
862.745	3.00707
863.145	-1.0022
863.544	50.12059
863.944	6.01325
864.344	-22.05112
864.743	63.14614
865.143	19.0463
865.542	0
865.941	35.08244
866.34	34.07635
866.74	53.1349
867.139	14.03183
867.537	2.0048
867.936	56.12642
868.335	29.07043
868.734	16.0393
869.132	47.10253
869.531	51.11474
869.929	66.14095
870.327	12.02707
870.726	35.08164
871.124	24.05181
871.522	-9.02159
871.92	48.11062
872.318	10.02314
872.715	24.05557
873.113	61.13926
873.511	11.02599
873.908	79.19207
874.306	18.04251
874.703	33.07755
875.1	43.10278
875.497	23.05134
875.894	24.05659
876.291	48.11137
876.688	-18.04426
877.085	17.03804
877.482	3.00704
877.878	9.0205
878.275	-10.02407
878.671	10.02001
879.068	36.08107
879.464	11.02512
879.86	30.06748
880.256	9.02063
880.652	2.00482
881.048	-4.00924
881.444	5.01099
881.84	-5.01201
882.236	28.06658
882.631	9.0209
883.027	27.06015
883.422	4.0097
883.817	32.07703
884.213	39.09479
884.608	4.0094
885.003	30.06814
885.398	3.00712
885.793	13.03068
886.188	3.00717
886.582	-6.01431
886.977	5.01111
887.371	-6.01439
887.766	-23.05508
888.16	42.09864
888.554	-8.01847
888.949	-9.02108
889.343	-12.02728
889.737	44.11355
890.131	35.08321
890.525	14.0338
890.918	57.13604
891.312	17.0373
891.706	33.08296
892.099	28.06694
892.492	90.17659
892.886	-9.02068
893.279	3.00727
893.672	68.16319
894.065	-38.09033
894.458	15.03557
894.851	3.0068
895.244	8.01944
895.637	64.1439
896.029	14.03224
896.422	6.01374
896.814	11.02591
897.206	55.12379
897.599	-45.10335
897.991	6.01373
898.383	1.00221
898.775	-8.01683
899.167	-9.02003
899.559	8.01905
899.951	24.05268
900.342	0
900.734	32.07677
901.125	-10.02478
901.517	21.04885
901.908	40.08838
902.299	23.05321
902.69	34.07503
903.082	46.10389
903.473	32.07274
903.863	78.18875
904.254	10.0216
904.645	-37.0862
905.036	34.07867
905.426	-49.1023
905.817	48.11013
906.207	16.03605
906.597	34.07456
906.987	5.01212
907.378	-1.00238
907.768	15.03796
908.158	12.02764
908.547	22.05416
908.937	-19.04623
909.327	16.0363
909.717	19.04503
910.106	28.06303
910.495	29.0686
910.885	3.00706
911.274	41.09688
911.663	28.06776
912.052	31.07103
912.441	46.11136
912.83	24.05094
913.219	-10.02463
913.608	41.0939
913.997	-34.08132
914.385	23.05068
914.774	17.03868
915.162	-10.02234
915.55	-1.00228
915.939	-11.02655
916.327	28.06568
916.715	31.07546
917.103	17.03895
917.491	5.01147
917.878	-59.13583
918.266	19.04661
918.654	31.07585
919.041	-31.07773
919.429	2.00446
919.816	-17.04073
920.203	38.08638
920.591	-1.00232
920.978	29.06634
921.365	5.01243
921.752	11.02476
922.139	81.1616
922.525	-33.07512
922.912	37.08403
923.299	45.10558
923.685	-40.10025
924.072	19.0402
924.458	14.03275
924.844	13.0303
925.231	-7.01517
925.617	56.13648
926.003	41.09867
926.389	55.13166
926.774	43.1031
927.16	37.08569
927.546	1.00244
927.931	42.09826
928.317	3.00632
928.702	8.01754
929.088	36.07991
929.473	28.0674
929.858	36.08339
930.243	24.05445
930.628	17.03872
931.013	64.15043
931.398	20.04227
931.783	14.03501
932.167	-12.02756
932.552	-45.10591
932.937	-8.01844
933.321	-31.07376
933.705	47.11277
934.09	20.04683
934.474	21.04651
934.858	54.13274
935.242	39.08558
935.626	8.01932
936.009	-36.09194
936.393	48.11611
936.777	19.04654
937.16	-38.09341
937.544	31.06765
937.927	-21.051
938.311	33.07464
938.694	59.14703
939.077	26.05771
939.46	25.05783
939.843	22.04121
940.226	-8.0194
940.609	-13.02782
940.991	-8.01936
941.374	-27.06219
941.757	8.01854
942.139	10.02068
942.522	12.02609
942.904	33.07442
943.286	-21.05023
943.668	34.08314
944.05	0
944.432	-1.00234
944.814	-1.0023
945.196	8.01866
945.578	5.01135
945.959	30.06571
946.341	7.0158
946.722	-2.00442
947.104	16.03547
947.485	-11.02394
947.866	28.06722
948.247	-3.00719
948.628	10.02273
949.009	-33.08113
949.39	-58.13494
949.771	23.04932
950.152	36.08336
950.532	28.06709
950.913	-1.00224
951.293	27.07025
951.674	-9.02034
952.054	6.01411
952.434	-18.04196
952.814	-15.03294
953.194	74.18244
953.574	-12.02747
953.954	72.15829
954.334	48.11282
954.714	1.00231
955.093	30.06806
955.473	-46.10888
955.853	24.05913
956.232	-4.01052
956.611	34.07437
956.99	12.02866
957.37	38.09119
957.749	19.0419
958.128	30.07211
958.506	30.07442
958.885	-25.05971
959.264	11.02546
959.643	79.16538
960.021	-50.11848
960.4	75.15874
960.778	-10.02277
961.156	-25.0596
961.535	-32.0684
961.913	-32.06887
962.291	1.00247
962.669	11.02647
963.047	-8.01912
963.424	26.06299
963.802	-9.02067
964.18	39.0919
964.557	-23.04879
964.935	-16.03549
965.312	17.04234
965.69	20.04683
966.067	-18.04105
966.444	23.05314
966.821	-7.01704
967.198	-87.19845
967.575	-1.00229
967.952	19.04182
968.329	-10.02284
968.705	34.06555
969.082	65.15774
969.458	9.0206
969.835	53.11987
970.211	47.11376
970.587	10.02348
970.963	42.10114
971.339	1.00251
971.715	8.0185
972.091	-2.00463
972.467	-21.04871
972.843	-27.06372
973.219	28.06164
973.594	19.04726
973.97	28.06114
974.345	15.03359
974.721	30.06737
975.096	-28.06339
975.471	71.15626
975.846	80.17935
976.221	12.0289
976.596	-13.02941
976.971	25.05797
977.346	-12.02576
977.72	-14.03382
978.095	55.13417
978.469	4.00898
978.844	66.15434
979.218	18.04089
979.593	47.10496
979.967	43.09852
980.341	-5.01068
980.715	1.00237
981.089	-19.04458
981.463	32.06914
981.837	37.08546
982.21	40.08531
982.584	-15.03397
982.957	26.06171
983.331	32.07044
983.704	-2.00468
984.078	0
984.451	8.01827
984.824	50.11481
985.197	14.03177
985.57	-12.02819
985.943	-9.02049
986.316	98.22196
986.688	-1.00225
987.061	-19.04134
987.434	-7.01742
987.806	5.01131
988.179	-32.07071
988.551	15.03559
988.923	17.03919
989.295	36.08402
989.667	45.10261
990.039	33.07697
990.411	82.17519
990.783	32.06786
991.155	35.08003
991.527	-25.05682
991.898	-19.04456
992.27	-2.00469
992.641	17.03989
993.012	60.13163
993.384	5.01119
993.755	-37.08952
994.126	32.07207
994.497	-14.03246
994.868	42.08966
995.239	27.06166
995.61	-10.02377
995.98	14.03233
996.351	2.00472
996.722	41.08913
997.092	32.07159
997.462	33.07281
997.833	15.03303
998.203	-17.03859
998.573	31.07319
998.943	-27.05885
999.313	13.0294
999.683	-29.06506
1000.053	45.09633
1000.423	-10.02292
1000.792	14.03448
1001.162	4.00935
1001.531	54.12514
1001.901	8.01869
1002.27	31.06446
1002.639	50.12059
1003.009	57.12782
1003.378	29.07014
1003.747	17.03732
1004.116	-16.03637
1004.485	53.11855
1004.853	30.07161
1005.222	41.09826
1005.591	21.04608
1005.959	67.14107
1006.328	53.10933
1006.696	43.09761
1007.064	35.08286
1007.433	23.05441
1007.801	67.15141
1008.169	4.00947
1008.537	51.10416
1008.905	26.05673
1009.273	27.06246
1009.64	48.10735
1010.008	20.0444
1010.375	69.15485
1010.743	16.03344
1011.11	64.14076
1011.478	27.06253
1011.845	-5.01082
1012.212	49.10103
1012.579	17.03936
1012.946	-7.01536
1013.313	32.07062
1013.68	21.0433
1014.047	2.00455
1014.414	44.09771
1014.78	71.16626
1015.147	6.01339
1015.513	63.14348
1015.88	-11.02627
1016.246	61.14066
1016.612	5.01053
1016.978	36.08214
1017.344	59.13778
1017.71	24.05345
1018.076	25.0547
1018.442	39.09397
1018.808	26.06123
1019.174	40.0935
1019.539	35.072
1019.905	35.07745
1020.27	32.07492
1020.636	36.08018
1021.001	14.03112
1021.366	27.06194
1021.731	29.07075
1022.096	3.00724
1022.461	-5.01095
1022.826	23.05115
1023.191	15.03742
1023.556	-1.00216
1023.92	30.06814
1024.285	26.05908
1024.649	34.07801
1025.014	56.12911
1025.378	70.16633
1025.742	45.10439
1026.107	51.10464
1026.471	12.02546
1026.835	11.02536
1027.199	23.05221
1027.562	14.03056
1027.926	14.03198
1028.29	69.16379
1028.654	16.03381
1029.017	28.06476
1029.381	39.08734
1029.744	11.02675
1030.107	43.09241
1030.471	-16.0359
1030.834	10.02072
1031.197	-27.06029
1031.56	70.15448
1031.923	29.07072
1032.286	17.0369
1032.648	-13.02899
1033.011	22.04711
1033.374	37.07934
1033.736	-6.01503
1034.099	50.11435
1034.461	35.08407
1034.823	-16.03753
1035.185	-7.0164
1035.548	37.08385
1035.91	54.12121
1036.272	60.1258
1036.634	8.0181
1036.995	54.11887
1037.357	-13.02995
1037.719	39.08835
1038.08	23.04985
1038.442	52.11725
1038.803	-3.00671
1039.165	46.10913
1039.526	54.12146
1039.887	7.01583
1040.248	52.1226
1040.609	10.02318
1040.97	40.09115
1041.331	-48.11383
1041.692	21.0462
1042.053	39.08099
1042.413	-28.06047
1042.774	31.07
1043.134	58.12601
1043.495	-43.10211
1043.855	12.02733
1044.215	7.0163
1044.576	26.05863
1044.936	68.14409
1045.296	20.04661
1045.656	14.03223
1046.016	8.01782
1046.375	40.09145
1046.735	60.12708
1047.095	33.07193
1047.454	53.10181
1047.814	-17.03817
1048.173	-9.01976
1048.533	31.0663
1048.892	4.00911
1049.251	49.11506
1049.61	17.03879
1049.969	32.07083
1050.328	-11.02174
1050.687	15.03413
1051.046	46.10542
1051.405	19.04374
1051.763	57.1217
1052.122	20.04752
1052.48	6.01373
1052.839	34.07456
1053.197	20.04399
1053.555	-28.05733
1053.914	2.00458
1054.272	55.12287
1054.63	1.00229
1054.988	16.03543
1055.345	-5.00981
1055.703	-8.01789
1056.061	8.01952
1056.419	4.00989
1056.776	34.07648
1057.134	5.01076
1057.491	-2.00471
1057.848	41.09477
1058.206	32.06979
1058.563	56.1145
1058.92	25.05275
1059.277	-8.01824
1059.634	25.05338
1059.991	55.12282
1060.348	67.14057
1060.704	-24.05412
1061.061	10.02106
1061.418	53.12056
1061.774	36.08458
1062.131	62.15834
1062.487	-31.06762
1062.843	35.08164
1063.199	57.13327
1063.555	13.02835
1063.911	-3.00713
1064.267	43.07897
1064.623	39.08961
1064.979	-2.0043
1065.335	-7.01539
1065.691	83.1855
1066.046	-12.02422
1066.402	-11.02331
1066.757	35.08312
1067.112	40.09041
1067.468	45.1007
1067.823	50.1121
1068.178	47.10656
1068.533	10.02251
1068.888	27.05935
1069.243	38.08827
1069.598	-40.09045
1069.952	78.16433
1070.307	49.11555
1070.662	27.06005
1071.016	71.14751
1071.371	3.00632
1071.725	-42.09214
1072.079	9.02022
1072.434	-14.03202
1072.788	49.10924
1073.142	111.25402
1073.496	-5.01114
1073.85	-14.03031
1074.203	20.04517
1074.557	8.02042
1074.911	3.00661
1075.265	-8.01714
1075.618	66.15022
1075.971	6.01327
1076.325	3.00722
1076.678	-2.00427
1077.031	14.02931
1077.385	63.12785
1077.738	34.07116
1078.091	31.06648
1078.444	-24.05143
1078.796	54.12449
1079.149	2.00462
1079.502	2.00444
1079.855	26.05675
1080.207	21.04833
1080.56	6.01468
1080.912	-6.0135
1081.264	15.03377
1081.617	38.08677
1081.969	27.0655
1082.321	12.02753
1082.673	10.02158
1083.025	33.07208
1083.377	35.06736
1083.728	-41.08803
1084.08	26.06142
1084.432	-38.08453
1084.783	44.09657
1085.135	41.09793
1085.486	14.03012
1085.838	-14.03259
1086.189	-22.0504
1086.54	43.09535
1086.891	33.07975
1087.242	8.01812
1087.593	9.02033
1087.944	25.05213
1088.295	22.04566
1088.646	80.17972
1088.996	-31.07046
1089.347	-7.01606
1089.698	1.00224
1090.048	-32.07863
1090.398	58.12483
1090.749	73.16194
1091.099	19.04559
1091.449	2.00466
1091.799	6.01412
1092.149	15.03528
1092.499	26.05963
1092.849	13.03128
1093.199	32.07472
1093.548	5.01136
1093.898	47.11041
1094.248	34.08222
1094.597	23.0564
1094.947	-2.00508
1095.296	-23.05346
1095.645	21.05138
1095.994	17.03843
1096.343	58.13824
1096.692	40.10061
1097.041	7.01828
1097.39	33.07734
1097.739	31.0765
1098.088	11.02768
1098.437	-40.10144
1098.785	21.05353
1099.134	14.03478
1099.482	-3.00783
1099.83	19.04709
1100.179	28.07032
1100.527	-1.00251
1100.875	-13.03283
1101.223	55.1392
1101.571	-4.01068
1101.919	-14.03531
1102.267	26.0711
1102.615	15.04814
1102.962	11.03526
1103.31	15.04811
1103.658	2.00641
