Data from N3 R7 sample 6_Subt2__4__16-54-29-911.txt Node

Date: Fri Sep 19 16:54:29 PDT 2025
User: uwsun
Spectrometer: HDX01956
Trigger mode: 0
Integration Time (sec): 5.000000E-1
Scans to average: 1
Nonlinearity correction enabled: true
Boxcar width: 0
Storing dark spectrum: false
XAxis mode: Wavelengths
Number of Pixels in Spectrum: 2068
>>>>>Begin Spectral Data<<<<<
194.03	71.20405
194.578	66.21305
195.127	70.22282
195.676	62.19736
196.225	65.16993
196.773	90.24793
197.321	116.31814
197.87	148.37383
198.418	193.48845
198.966	186.47983
199.513	199.495
200.061	184.45545
200.609	193.4959
201.156	151.31806
201.704	163.40029
202.251	151.39326
202.798	166.42423
203.345	211.50605
203.892	146.36073
204.438	208.48124
204.985	167.38907
205.532	220.575
206.078	168.40347
206.624	181.43757
207.17	205.45948
207.716	132.31231
208.262	205.38656
208.808	173.42123
209.354	141.33702
209.899	173.42375
210.445	220.53535
210.99	141.33521
211.535	183.41709
212.08	191.42899
212.625	178.43365
213.17	191.4687
213.715	197.43009
214.259	206.46657
214.804	196.46623
215.348	231.50624
215.892	170.3991
216.436	238.53136
216.98	175.37088
217.524	175.40208
218.068	172.42153
218.612	177.42903
219.155	206.46695
219.698	147.33802
220.242	176.42428
220.785	223.50126
221.328	229.54964
221.871	186.45567
222.414	139.33287
222.956	158.37281
223.499	181.39231
224.041	151.33567
224.583	203.41536
225.126	246.52443
225.668	156.36952
226.21	167.40768
226.751	157.32764
227.293	165.36023
227.835	141.3338
228.376	168.36996
228.918	173.42233
229.459	207.50344
230	161.37095
230.541	174.38366
231.082	202.47162
231.622	190.42087
232.163	205.48304
232.704	163.39094
233.244	172.41292
233.784	199.46416
234.324	205.43788
234.864	130.28496
235.404	157.35726
235.944	146.33202
236.484	148.35436
237.023	198.45155
237.563	153.34195
238.102	156.35649
238.641	185.45566
239.18	179.40698
239.719	203.49482
240.258	195.4167
240.797	218.50237
241.335	148.34637
241.874	215.39487
242.412	144.33449
242.95	161.37671
243.488	168.37012
244.026	193.42903
244.564	206.4021
245.102	148.32209
245.64	187.43205
246.177	164.3516
246.715	174.39762
247.252	194.42166
247.789	87.14998
248.326	110.25572
248.863	140.29522
249.4	252.54911
249.936	177.34705
250.473	170.38394
251.009	197.43774
251.546	198.41954
252.082	173.36793
252.618	210.45099
253.154	195.45054
253.69	196.42111
254.226	154.35461
254.761	139.29781
255.297	210.44049
255.832	126.28863
256.367	184.41437
256.903	228.47148
257.438	138.31065
257.972	160.34006
258.507	180.4027
259.042	168.34226
259.576	174.36175
260.111	127.28372
260.645	181.37706
261.179	180.40138
261.713	176.37325
262.247	227.5046
262.781	190.38409
263.315	183.43288
263.849	160.38805
264.382	181.39683
264.915	222.50076
265.449	177.41934
265.982	131.28515
266.515	187.43977
267.048	246.49478
267.58	172.35376
268.113	219.45419
268.646	212.50719
269.178	194.41573
269.71	193.40027
270.243	193.42172
270.775	181.44581
271.307	133.30619
271.838	187.42293
272.37	255.59967
272.902	214.4679
273.433	171.35654
273.965	188.44669
274.496	168.39917
275.027	146.34997
275.558	178.41592
276.089	237.56991
276.62	156.38303
277.15	174.41327
277.681	186.37842
278.211	186.43512
278.741	226.47949
279.272	215.46958
279.802	200.48214
280.332	223.50353
280.861	237.54364
281.391	183.39699
281.921	185.4225
282.45	255.61505
282.98	248.62102
283.509	184.39686
284.038	191.40975
284.567	189.4149
285.096	218.50577
285.625	192.42512
286.153	164.37039
286.682	162.35495
287.21	235.53906
287.739	200.44984
288.267	209.48863
288.795	211.53285
289.323	221.50186
289.851	195.43617
290.378	211.45343
290.906	202.4744
291.433	228.54547
291.961	222.47594
292.488	213.50988
293.015	253.57219
293.542	212.51454
294.069	210.49588
294.596	217.51449
295.122	266.60318
295.649	308.64204
296.175	184.42369
296.702	171.39619
297.228	205.46987
297.754	211.45167
298.28	238.51222
298.806	236.54601
299.332	230.48457
299.857	207.44541
300.383	238.57047
300.908	211.49776
301.433	285.66002
301.958	198.43035
302.483	291.69921
303.008	264.61515
303.533	238.58283
304.058	224.50238
304.582	268.60253
305.107	236.5963
305.631	244.52333
306.155	251.56281
306.679	254.56708
307.203	269.59373
307.727	289.6528
308.251	286.66771
308.775	195.44534
309.298	268.61659
309.822	253.60931
310.345	284.63693
310.868	238.54342
311.391	261.61019
311.914	198.48056
312.437	231.49726
312.96	297.66402
313.482	291.65544
314.005	267.63936
314.527	296.74199
315.049	288.68609
315.571	335.71461
316.093	337.79061
316.615	297.68398
317.137	346.69238
317.659	281.63861
318.18	310.70722
318.702	316.69293
319.223	327.6239
319.744	326.68892
320.265	318.73102
320.786	295.69426
321.307	367.85963
321.828	354.75399
322.348	343.76147
322.869	258.57077
323.389	316.54961
323.909	386.82214
324.43	327.7344
324.95	345.74328
325.47	359.83234
325.989	399.89092
326.509	342.70784
327.029	379.79372
327.548	384.80615
328.067	374.84149
328.587	393.91547
329.106	407.85047
329.625	378.91319
330.144	376.79806
330.662	408.8754
331.181	454.97618
331.7	419.90346
332.218	485.96043
332.736	442.94098
333.255	425.91128
333.773	415.91132
334.291	432.98427
334.808	405.82528
335.326	481.9886
335.844	483.03548
336.361	439.02607
336.879	472.00162
337.396	475.03275
337.913	488.01085
338.43	537.09543
338.947	502.08671
339.464	486.94058
339.981	490.06385
340.497	509.14428
341.014	473.04364
341.53	564.14826
342.046	561.24331
342.562	570.27507
343.078	559.17292
343.594	598.27998
344.11	567.20229
344.626	600.36098
345.141	618.25381
345.657	546.09086
346.172	592.2633
346.687	586.2007
347.202	619.22239
347.717	652.37166
348.232	639.42109
348.747	706.40263
349.261	662.28696
349.776	629.2933
350.29	615.36144
350.805	679.45701
351.319	658.34603
351.833	689.36849
352.347	642.30139
352.861	682.38637
353.374	695.37016
353.888	683.42908
354.401	721.42349
354.915	711.38468
355.428	706.54068
355.941	712.44152
356.454	779.47565
356.967	718.47423
357.48	740.4491
357.993	700.50051
358.505	736.57978
359.018	749.55835
359.53	724.50194
360.042	687.29094
360.554	727.51253
361.066	749.56387
361.578	825.51355
362.09	819.65126
362.602	797.47602
363.113	711.39518
363.625	828.57664
364.136	875.57892
364.647	795.57127
365.158	890.72524
365.669	865.76883
366.18	851.63032
366.691	889.60914
367.201	879.73509
367.712	852.58318
368.222	972.83255
368.733	938.66661
369.243	874.56628
369.753	912.71504
370.263	953.83658
370.773	961.95645
371.282	985.89018
371.792	981.80129
372.301	986.94611
372.811	1048.21732
373.32	1027.70458
373.829	1065.0161
374.338	1119.92216
374.847	1092.94702
375.356	1201.21377
375.865	1239.94253
376.373	1275.15066
376.882	1309.51291
377.39	1315.38138
377.898	1371.54075
378.407	1391.21291
378.915	1456.16249
379.423	1530.54005
379.93	1580.41788
380.438	1630.7618
380.946	1755.69604
381.453	1802.823
381.96	1895.84521
382.468	2120.99308
382.975	2168.16428
383.482	2224.77367
383.989	2275.43673
384.495	2334.92221
385.002	2434.51527
385.509	2477.98878
386.015	2821.33019
386.521	2866.76957
387.028	3035.8354
387.534	3125.53161
388.04	3206.01771
388.546	3331.59686
389.051	3357.51711
389.557	3663.73591
390.063	3974.59614
390.568	4101.65916
391.073	4366.16523
391.578	4412.53721
392.084	4533.90254
392.589	4624.77848
393.093	4963.97207
393.598	5573.42183
394.103	5974.52046
394.607	6637.31954
395.112	7080.52241
395.616	7539.57961
396.12	8141.96033
396.624	8929.22228
397.128	9606.8107
397.632	10593.27726
398.136	11696.64211
398.639	12343.34496
399.143	13819.8137
399.646	15567.76519
400.15	17374.54654
400.653	19333.32482
401.156	21536.06041
401.659	24960.02131
402.162	30359.43345
402.664	40486.40881
403.167	56732.41067
403.67	59863.21305
404.172	55487.84425
404.674	37291.05854
405.176	4428.40989
405.678	533.47942
406.18	0
406.682	0
407.184	6962.89417
407.686	50953.82939
408.187	59237.6763
408.688	61091.12691
409.19	61923.45898
409.691	58324.53715
410.192	49478.0352
410.693	43183.11085
411.194	38694.44929
411.694	36681.49317
412.195	34405.11771
412.696	31003.7908
413.196	28637.23433
413.696	27974.35785
414.196	28199.27643
414.696	27904.07429
415.196	26491.52297
415.696	24299.41943
416.196	19565.77487
416.695	15313.02996
417.195	12977.71591
417.694	12110.4561
418.194	11578.82842
418.693	10782.16225
419.192	10451.59947
419.691	10206.70074
420.19	10028.07684
420.688	9675.95765
421.187	9268.1341
421.685	8699.79398
422.184	8044.90312
422.682	6828.97261
423.18	5854.36311
423.678	5122.66252
424.176	4739.90229
424.674	4404.83942
425.172	4261.34887
425.669	4036.85306
426.167	3858.49366
426.664	3468.57974
427.161	3169.67896
427.659	2928.1668
428.156	2770.40816
428.652	2509.2989
429.149	2417.0579
429.646	2322.54748
430.143	2254.96489
430.639	2166.86422
431.135	1961.94247
431.632	1860.5584
432.128	1793.75039
432.624	1660.83549
433.12	1614.41866
433.616	1551.20535
434.111	1501.46919
434.607	1447.41244
435.103	1373.92339
435.598	1382.91472
436.093	1318.17757
436.588	1303.08132
437.083	1229.00462
437.578	1140.93185
438.073	1105.0971
438.568	1103.05585
439.062	1048.67813
439.557	1008.81998
440.051	944.67644
440.546	910.651
441.04	856.62689
441.534	872.81088
442.028	801.57428
442.522	838.64362
443.015	809.42093
443.509	853.7073
444.002	829.66762
444.496	714.25862
444.989	801.62749
445.482	728.51427
445.975	780.46137
446.468	737.29689
446.961	752.29334
447.454	700.29315
447.947	762.52179
448.439	732.50707
448.931	689.30043
449.424	646.36677
449.916	681.37522
450.408	683.31808
450.9	645.33042
451.392	648.40923
451.884	566.09794
452.375	630.32822
452.867	575.10613
453.358	599.14243
453.849	571.02626
454.341	622.18897
454.832	611.11182
455.323	590.24324
455.814	556.09083
456.304	528.048
456.795	519.01499
457.285	533.00647
457.776	544.0401
458.266	554.14885
458.756	489.01541
459.247	475.99078
459.737	530.1127
460.226	557.07453
460.716	516.0804
461.206	471.98288
461.695	482.07219
462.185	498.03345
462.674	448.89567
463.163	408.79188
463.653	438.80875
464.142	419.89454
464.63	428.92978
465.119	447.92411
465.608	397.81118
466.096	336.66085
466.585	432.86648
467.073	367.78082
467.561	440.95625
468.05	374.76991
468.538	456.00502
469.026	416.89526
469.513	349.6578
470.001	362.73514
470.489	389.82402
470.976	383.79039
471.463	356.81279
471.951	381.85951
472.438	337.72012
472.925	286.60572
473.412	349.76738
473.899	327.68361
474.385	303.68107
474.872	331.69688
475.359	303.67772
475.845	292.54752
476.331	308.59749
476.817	218.48872
477.303	221.47594
477.789	275.60799
478.275	233.53982
478.761	234.52005
479.247	273.55478
479.732	243.56767
480.218	271.65364
480.703	288.66868
481.188	195.3856
481.673	302.63317
482.158	216.43024
482.643	202.48106
483.128	188.39835
483.612	169.36881
484.097	234.53062
484.581	197.41915
485.066	188.4258
485.55	174.35352
486.034	237.47877
486.518	195.42969
487.002	162.37497
487.486	183.42046
487.969	226.52246
488.453	203.4826
488.936	135.28611
489.42	217.44602
489.903	189.44794
490.386	215.42854
490.869	193.38308
491.352	173.39494
491.835	216.4054
492.318	158.33815
492.8	158.30211
493.283	196.47285
493.765	183.42634
494.247	127.27797
494.73	128.2673
495.212	148.33616
495.694	118.26236
496.175	117.26516
496.657	222.49728
497.139	56.0883
497.62	108.2466
498.102	161.38026
498.583	120.2826
499.064	218.45868
499.545	91.19792
500.026	139.29382
500.507	111.24213
500.988	114.26732
501.469	97.23114
501.949	95.22211
502.43	95.2153
502.91	84.16466
503.39	96.22951
503.87	114.25642
504.35	98.21763
504.83	103.21495
505.31	37.08729
505.79	125.28456
506.269	71.1579
506.749	105.22788
507.228	69.15574
507.707	101.21274
508.187	108.24332
508.666	46.10858
509.145	71.15927
509.623	78.17523
510.102	99.22819
510.581	113.25693
511.059	133.32105
511.538	90.2227
512.016	152.34609
512.494	107.24555
512.972	125.28536
513.45	92.20702
513.928	100.23266
514.406	146.34195
514.884	123.30675
515.361	191.43462
515.839	134.28803
516.316	150.33905
516.793	98.23697
517.27	157.36202
517.747	154.37658
518.224	113.24733
518.701	131.27739
519.178	136.32786
519.654	113.25005
520.131	75.17666
520.607	167.39121
521.083	126.27526
521.56	52.11797
522.036	166.34373
522.512	128.30015
522.987	139.31783
523.463	95.2174
523.939	107.25066
524.414	120.26104
524.89	80.18075
525.365	141.30575
525.84	141.32772
526.315	82.18837
526.79	104.22162
527.265	71.15337
527.74	67.15708
528.215	100.2264
528.689	102.21887
529.164	47.09617
529.638	77.1914
530.112	125.28479
530.587	132.27064
531.061	39.09179
531.534	85.19624
532.008	87.20205
532.482	46.09964
532.956	88.21974
533.429	14.03211
533.903	59.12417
534.376	63.13334
534.849	75.1679
535.322	74.16802
535.795	88.20643
536.268	85.19788
536.741	69.15936
537.213	98.21744
537.686	55.12864
538.158	47.10209
538.631	49.11421
539.103	64.1381
539.575	110.21665
540.047	76.15963
540.519	69.1572
540.991	70.16331
541.463	51.12008
541.934	80.17632
542.406	94.21567
542.877	62.13436
543.348	21.04802
543.82	105.24559
544.291	37.08211
544.762	93.21103
545.233	105.25567
545.703	34.07327
546.174	100.22382
546.645	123.28668
547.115	119.27484
547.585	141.31214
548.056	134.31471
548.526	114.25736
548.996	93.21454
549.466	110.25501
549.935	99.2291
550.405	177.36955
550.875	103.23277
551.344	141.32513
551.814	107.23093
552.283	134.27362
552.752	163.35812
553.221	141.29033
553.69	223.46372
554.159	238.55697
554.628	158.33361
555.096	220.52392
555.565	184.3839
556.033	193.42457
556.502	187.42534
556.97	164.34035
557.438	188.41921
557.906	223.49344
558.374	172.37114
558.842	205.46081
559.31	173.36087
559.777	230.52304
560.245	207.44848
560.712	229.48342
561.18	243.4945
561.647	232.47824
562.114	248.5241
562.581	289.66131
563.048	327.67483
563.514	285.65111
563.981	309.64226
564.448	346.70522
564.914	288.61316
565.381	305.62292
565.847	350.73866
566.313	377.78674
566.779	410.83489
567.245	435.90816
567.711	441.9517
568.176	536.07481
568.642	435.99091
569.108	459.0072
569.573	433.89436
570.038	563.01599
570.504	622.20275
570.969	542.18842
571.434	618.16248
571.899	636.30214
572.363	630.21359
572.828	627.2052
573.293	643.25264
573.757	640.25831
574.222	671.27816
574.686	642.22904
575.15	697.40564
575.614	687.3182
576.078	657.30544
576.542	714.36318
577.006	729.37674
577.469	716.48004
577.933	631.18611
578.396	757.51843
578.86	685.34915
579.323	674.36262
579.786	629.13653
580.249	706.34919
580.712	665.37173
581.175	670.41204
581.637	669.31388
582.1	636.16356
582.563	554.98109
583.025	533.13353
583.487	520.89261
583.95	529.98636
584.412	597.04454
584.874	534.13048
585.336	532.10512
585.797	503.93973
586.259	492.99822
586.721	483.0007
587.182	470.95054
587.643	429.86305
588.105	408.8705
588.566	470.86134
589.027	423.92654
589.488	355.72668
589.949	403.8671
590.41	389.67929
590.87	345.69502
591.331	318.60864
591.791	305.63367
592.252	313.65377
592.712	342.74583
593.172	274.56609
593.632	259.50352
594.092	326.6569
594.552	273.53149
595.011	318.67143
595.471	321.64995
595.931	270.54981
596.39	291.64282
596.849	292.62032
597.308	304.59396
597.768	244.57928
598.227	276.61339
598.685	237.49305
599.144	264.56744
599.603	287.62285
600.062	251.47842
600.52	309.62851
600.978	287.63001
601.437	274.57168
601.895	282.54287
602.353	283.56408
602.811	299.60124
603.269	249.54752
603.727	277.61036
604.184	278.5741
604.642	324.72064
605.099	305.64102
605.557	285.62904
606.014	279.54499
606.471	355.81655
606.928	398.79275
607.385	336.76096
607.842	386.80319
608.299	352.73799
608.755	385.83265
609.212	423.83843
609.668	365.73227
610.125	443.94045
610.581	375.7784
611.037	397.79941
611.493	412.85691
611.949	366.79579
612.405	432.76297
612.861	386.79389
613.316	440.93998
613.772	415.84604
614.227	418.8779
614.683	462.85949
615.138	411.87024
615.593	402.82196
616.048	364.73212
616.503	413.9035
616.958	388.87548
617.412	405.85304
617.867	420.83268
618.321	375.66521
618.776	377.73852
619.23	440.92207
619.684	359.71457
620.138	382.76867
620.592	411.88355
621.046	385.79879
621.5	379.82178
621.954	370.73355
622.407	377.74061
622.861	363.77836
623.314	434.86768
623.768	404.83765
624.221	352.61677
624.674	240.50052
625.127	349.73284
625.58	282.56614
626.033	306.59532
626.485	293.6356
626.938	327.69573
627.39	318.6676
627.843	290.6013
628.295	318.66318
628.747	310.66659
629.199	338.69643
629.651	203.42759
630.103	265.55744
630.555	230.4385
631.006	229.49253
631.458	230.48968
631.909	253.52353
632.361	208.4413
632.812	268.56636
633.263	200.39039
633.714	188.36296
634.165	168.37074
634.616	170.37311
635.067	211.42037
635.518	161.35105
635.968	198.35861
636.419	192.37673
636.869	167.36521
637.319	204.43376
637.769	165.34465
638.219	137.30012
638.669	179.3989
639.119	112.25584
639.569	208.46937
640.019	184.3909
640.468	72.14936
640.918	148.33139
641.367	124.26113
641.816	134.28095
642.265	118.25615
642.714	128.27987
643.163	87.18584
643.612	100.23082
644.061	127.24831
644.51	153.32724
644.958	152.31108
645.406	108.24561
645.855	116.26722
646.303	171.36858
646.751	127.27374
647.199	62.13143
647.647	89.19669
648.095	133.28409
648.543	91.17142
648.99	122.27643
649.438	188.41036
649.885	196.45564
650.333	143.25034
650.78	147.33991
651.227	137.31641
651.674	105.22671
652.121	98.22269
652.568	102.23525
653.015	58.13739
653.461	123.27592
653.908	129.28152
654.354	101.22452
654.801	116.25781
655.247	111.22722
655.693	85.21214
656.139	81.18417
656.585	132.29897
657.031	41.09284
657.477	137.2793
657.922	141.30744
658.368	112.26006
658.813	88.18858
659.259	143.32448
659.704	130.28784
660.149	101.22275
660.594	100.22557
661.039	117.25327
661.484	118.26628
661.929	70.15538
662.373	97.2368
662.818	80.1914
663.262	66.15131
663.707	67.16186
664.151	140.32687
664.595	95.21862
665.039	88.20756
665.483	92.22598
665.927	66.14717
666.371	109.2417
666.814	87.19709
667.258	70.16055
667.701	135.26658
668.145	79.18666
668.588	107.25056
669.031	90.20376
669.474	57.13128
669.917	94.19525
670.36	46.10905
670.803	98.22359
671.245	70.13865
671.688	43.10022
672.13	42.08981
672.573	100.24345
673.015	63.14406
673.457	85.17699
673.899	102.233
674.341	48.11097
674.783	35.08138
675.225	80.18759
675.666	36.08389
676.108	94.19395
676.549	59.13274
676.991	41.08594
677.432	24.04496
677.873	96.20928
678.314	70.15906
678.755	78.18248
679.196	38.08414
679.637	22.05127
680.078	49.10915
680.518	5.011
680.959	12.0277
681.399	30.07109
681.839	37.08641
682.28	27.06473
682.72	-3.0066
683.16	41.09864
683.6	87.18729
684.039	46.09039
684.479	59.13908
684.919	46.10296
685.358	76.18322
685.798	29.07301
686.237	76.17417
686.676	58.12767
687.115	81.18066
687.554	53.12017
687.993	52.10739
688.432	36.07965
688.871	48.10393
689.309	109.25335
689.748	82.16097
690.186	41.09258
690.625	95.21513
691.063	60.13915
691.501	77.18201
691.939	53.12697
692.377	75.17508
692.815	89.20514
693.253	70.15816
693.69	63.13113
694.128	82.19183
694.565	69.15733
695.003	54.13215
695.44	38.08519
695.877	56.12653
696.314	33.06728
696.751	46.09913
697.188	81.17782
697.625	63.13556
698.061	59.13551
698.498	101.23085
698.934	30.06867
699.371	48.10894
699.807	51.11563
700.243	89.20629
700.679	59.1269
701.115	61.13538
701.551	90.20227
701.987	66.13875
702.422	55.1244
702.858	39.08817
703.294	30.06435
703.729	94.21982
704.164	91.20967
704.599	42.08833
705.035	48.10282
705.47	56.13224
705.904	27.06
706.339	71.15383
706.774	57.12624
707.209	1.00221
707.643	76.17354
708.078	51.11826
708.512	98.23786
708.946	32.07286
709.38	5.01131
709.814	59.12685
710.248	26.05994
710.682	66.15089
711.116	16.0372
711.549	-3.00745
711.983	5.011
712.416	35.07787
712.85	91.2171
713.283	38.08586
713.716	42.10022
714.149	70.1559
714.582	80.16966
715.015	33.07849
715.448	72.16989
715.881	35.07074
716.313	48.10792
716.746	48.10845
717.178	38.08691
717.61	28.06827
718.043	5.01187
718.475	24.0554
718.907	43.10211
719.339	53.11404
719.77	55.12607
720.202	58.13951
720.634	75.17487
721.065	15.03393
721.497	124.28644
721.928	40.0946
722.359	39.09151
722.79	50.11399
723.221	8.01913
723.652	8.01962
724.083	-11.02367
724.514	-5.01076
724.945	57.12724
725.375	42.09319
725.806	-3.00706
726.236	78.18904
726.666	45.10016
727.096	35.08122
727.526	39.09514
727.956	37.07975
728.386	13.03007
728.816	20.04876
729.246	48.11212
729.675	36.08557
730.105	25.05834
730.534	19.04234
730.964	19.04533
731.393	-8.01865
731.822	53.12958
732.251	35.08548
732.68	23.05002
733.109	61.14301
733.537	19.04371
733.966	-5.01186
734.395	25.05428
734.823	34.0716
735.251	3.00693
735.68	44.10406
736.108	59.14081
736.536	80.17691
736.964	-1.0022
737.392	-18.04293
737.82	38.08589
738.247	17.03832
738.675	30.06684
739.102	57.13703
739.53	70.17086
739.957	5.01228
740.384	29.06698
740.811	82.19753
741.238	19.04383
741.665	59.1311
742.092	42.09362
742.519	31.0741
742.945	-2.00458
743.372	7.01666
743.798	2.00493
744.225	-7.01585
744.651	-12.02875
745.077	27.06412
745.503	15.03453
745.929	12.02726
746.355	47.10825
746.781	69.16101
747.207	44.09925
747.632	27.06323
748.058	19.0447
748.483	-20.0434
748.908	30.07093
749.334	41.09541
749.759	3.00671
750.184	58.13019
750.609	19.04411
751.033	3.00659
751.458	95.19984
751.883	25.05843
752.307	58.13089
752.732	22.05332
753.156	29.06804
753.58	-3.00675
754.005	29.0708
754.429	-10.02204
754.853	30.07109
755.277	33.07452
755.7	2.00473
756.124	5.01205
756.548	34.07695
756.971	36.08283
757.394	11.02713
757.818	34.08425
758.241	25.06012
758.664	12.02934
759.087	76.16237
759.51	27.06392
759.933	37.08522
760.356	-5.01229
760.778	81.19131
761.201	0
761.623	22.04965
762.046	-3.00658
762.468	55.12374
762.89	47.10972
763.312	35.08026
763.734	2.00462
764.156	30.07076
764.578	-11.02375
765	34.07867
765.421	42.10385
765.843	60.15048
766.264	30.06792
766.686	64.15359
767.107	48.11172
767.528	19.04666
767.949	13.03162
768.37	1.00233
768.791	44.0999
769.212	72.17443
769.632	-7.01554
770.053	36.091
770.473	65.14953
770.894	-29.06879
771.314	16.03569
771.734	-15.0331
772.154	-16.03961
772.575	6.01313
772.994	-6.01301
773.414	6.01336
773.834	0
774.254	-2.00465
774.673	0
775.093	38.09012
775.512	-20.04774
775.931	50.12191
776.351	-33.07831
776.77	13.03049
777.189	-16.036
777.607	1.00246
778.026	20.04791
778.445	10.02434
778.864	-27.06631
779.282	16.03618
779.701	42.10068
780.119	-32.07744
780.537	24.05692
780.955	21.05067
781.373	27.06335
781.791	39.08302
782.209	35.07632
782.627	4.0102
783.045	0
783.462	-20.04878
783.88	7.0175
784.297	-8.01931
784.715	46.11449
785.132	32.0733
785.549	53.12746
785.966	8.01913
786.383	5.01183
786.8	32.07015
787.217	36.08031
787.633	-12.02882
788.05	-5.01093
788.466	-1.00221
788.883	31.07624
789.299	-5.01135
789.715	29.06738
790.131	9.0212
790.547	-79.18724
790.963	13.03075
791.379	20.04836
791.795	6.01289
792.21	42.09183
792.626	-2.0045
793.041	18.0419
793.457	-24.05648
793.872	50.11071
794.287	63.14545
794.702	14.03255
795.117	-29.06863
795.532	8.01942
795.947	-5.01129
796.362	45.0997
796.776	-17.03642
797.191	-37.08637
797.605	32.07266
798.02	42.09749
798.434	21.04328
798.848	4.00931
799.262	4.00964
799.676	10.02287
800.09	-11.02566
800.504	20.04585
800.918	18.03912
801.331	-11.02742
801.745	36.07711
802.158	-6.01428
802.572	6.0137
802.985	30.06731
803.398	44.09856
803.811	38.09185
804.224	39.09122
804.637	-56.12565
805.05	-10.0219
805.462	29.06698
805.875	51.1283
806.288	-1.00233
806.7	53.12567
807.112	70.15092
807.525	74.17217
807.937	-18.04262
808.349	22.05201
808.761	9.02065
809.173	-53.12158
809.584	16.03718
809.996	15.03507
810.408	-24.05995
810.819	38.08425
811.231	33.08358
811.642	48.11269
812.053	48.10956
812.464	97.21679
812.875	79.19078
813.286	24.05854
813.697	-18.03862
814.108	-34.07835
814.519	-2.00414
814.929	-23.05544
815.34	34.07745
815.75	5.01212
816.16	-59.13859
816.571	-1.00249
816.981	-18.03957
817.391	45.10153
817.801	49.11663
818.211	67.14974
818.62	-32.07325
819.03	0
819.44	-10.02487
819.849	55.13126
820.259	50.12141
820.668	22.05197
821.077	5.01186
821.486	-47.10656
821.895	-10.02296
822.304	47.11857
822.713	-14.03121
823.122	46.10909
823.531	25.05611
823.939	65.14875
824.348	71.16196
824.756	27.06362
825.164	-3.00711
825.573	-27.06488
825.981	49.11439
826.389	-44.10431
826.797	44.10423
827.205	-9.01948
827.612	20.0462
828.02	-20.0451
828.428	10.0241
828.835	-7.01774
829.243	-7.0157
829.65	14.03316
830.057	82.18792
830.464	41.09526
830.871	9.02021
831.278	-36.08207
831.685	9.01847
832.092	-1.00234
832.499	8.0162
832.905	11.02658
833.312	19.04011
833.718	52.12098
834.124	49.10444
834.531	26.06156
834.937	-20.04854
835.343	56.12653
835.749	32.06896
836.155	13.03235
836.561	-71.16437
836.966	55.12536
837.372	14.03365
837.777	-41.09706
838.183	-40.08149
838.588	37.08722
838.993	-15.03416
839.399	-32.07422
839.804	7.01638
840.209	33.08044
840.613	59.12285
841.018	-30.07172
841.423	-42.10213
841.828	29.06926
842.232	-22.05076
842.637	-41.0902
843.041	38.09403
843.445	15.03524
843.849	-6.01411
844.253	3.00664
844.657	36.08659
845.061	17.03612
845.465	83.19139
845.869	6.013
846.272	2.00461
846.676	52.11807
847.079	33.0802
847.483	61.14201
847.886	45.10033
848.289	40.10352
848.692	24.05733
849.095	-32.07201
849.498	12.02811
849.901	8.01697
850.304	25.05548
850.707	8.01929
851.109	-23.05422
851.512	25.05847
851.914	35.08538
852.316	-1.00242
852.718	-22.05525
853.121	-27.06305
853.523	-2.00438
853.925	-18.04514
854.326	50.1194
854.728	-31.07644
855.13	32.07907
855.531	64.14543
855.933	49.10929
856.334	9.02142
856.736	-10.0208
857.137	26.05656
857.538	-21.05043
857.939	62.14482
858.34	3.00684
858.741	-6.01496
859.142	14.03176
859.542	81.20646
859.943	43.10152
860.343	-10.02374
860.744	22.05078
861.144	38.08694
861.544	16.03692
861.945	-11.0265
862.345	-36.08207
862.745	-17.0402
863.145	19.04155
863.544	30.07262
863.944	23.05062
864.344	19.0438
864.743	69.15987
865.143	-15.03678
865.542	-15.03261
865.941	85.19827
866.34	26.05848
866.74	10.02565
867.139	16.03636
867.537	-12.0289
867.936	80.17972
868.335	57.1377
868.734	18.0442
869.132	15.03294
869.531	47.10583
869.929	45.09654
870.327	-14.03175
870.726	39.0909
871.124	11.02381
871.522	-7.01678
871.92	57.13112
872.318	23.05308
872.715	33.07628
873.113	20.04604
873.511	53.12421
873.908	30.07361
874.306	39.09172
874.703	3.00709
875.1	8.01925
875.497	36.08014
875.894	23.05424
876.291	30.06985
876.688	2.0049
877.085	15.03358
877.482	-24.05665
877.878	18.04092
878.275	-38.09196
878.671	-9.01809
879.068	8.01812
879.464	49.11105
879.86	6.01356
880.256	-34.0786
880.652	6.01446
881.048	-14.03242
881.444	-53.11797
881.84	-10.02404
882.236	55.13011
882.631	16.03711
883.027	11.02458
883.422	-1.00243
883.817	41.09852
884.213	8.01956
884.608	31.07245
885.003	27.06137
885.398	-27.06444
885.793	-52.12427
886.188	72.16983
886.582	-19.04543
886.977	15.03328
887.371	28.06671
887.766	47.11105
888.16	23.05422
888.554	15.03446
888.949	-59.13951
889.343	4.00906
889.737	22.05699
890.131	10.02389
890.525	0
890.918	-2.00483
891.312	-31.06871
891.706	28.07045
892.099	-5.01203
892.492	65.12829
892.886	42.09552
893.279	-7.01699
893.672	-7.01704
894.065	-16.03787
894.458	48.11309
894.851	-31.0708
895.244	10.02429
895.637	19.04311
896.029	34.07798
896.422	13.02973
896.814	6.01415
897.206	52.11711
897.599	-19.04341
897.991	10.02287
898.383	23.05058
898.775	36.07498
899.167	0
899.559	8.01905
899.951	25.05486
900.342	-25.05939
900.734	30.072
901.125	1.00247
901.517	49.11335
901.908	22.04879
902.299	3.00697
902.69	0
903.082	-3.00684
903.473	26.05918
903.863	16.03917
904.254	-61.13374
904.645	23.05295
905.036	22.05102
905.426	-5.01034
905.817	-6.01392
906.207	-1.00226
906.597	16.03522
906.987	-20.04873
907.378	13.0309
907.768	36.09077
908.158	94.21299
908.547	-11.02724
908.937	-41.10017
909.327	30.06787
909.717	11.02611
910.106	0
910.495	52.12246
910.885	1.00235
911.274	27.06397
911.663	38.09178
912.052	29.06647
912.441	46.11136
912.83	10.02129
913.219	-12.02956
913.608	29.06658
913.997	-21.0501
914.385	8.01768
914.774	-14.03206
915.162	-11.02457
915.55	15.03409
915.939	-11.02655
916.327	18.04231
916.715	24.05849
917.103	36.08217
917.491	-2.0046
917.878	-25.05717
918.266	27.06614
918.654	50.12191
919.041	14.03482
919.429	37.08191
919.816	20.04758
920.203	2.00458
920.591	-6.01395
920.978	22.0504
921.365	-2.00498
921.752	22.0494
922.139	70.14001
922.525	-10.02266
922.912	-14.03212
923.299	7.01655
923.685	-8.01993
924.072	-10.02129
924.458	-28.06604
924.844	-6.01404
925.231	-40.08727
925.617	55.13407
926.003	7.01696
926.389	27.06498
926.774	59.14102
927.16	2.00466
927.546	8.01948
927.931	-2.00472
928.317	-23.0487
928.702	13.02848
929.088	-6.01343
929.473	44.10559
929.858	1.00233
930.243	12.02729
930.628	-4.00915
931.013	53.12484
931.398	75.15659
931.783	4.01002
932.167	0
932.552	-15.0351
932.937	-1.0023
933.321	-12.02845
933.705	22.05304
934.09	21.04916
934.474	10.0222
934.858	-9.02238
935.242	-15.03329
935.626	-10.02424
936.009	6.01521
936.393	58.14004
936.777	4.00983
937.16	-26.06377
937.544	52.11298
937.927	-2.00484
938.311	18.04084
938.694	31.07765
939.077	-10.02236
939.46	86.19653
939.843	26.04865
940.226	-26.06325
940.609	-13.02782
940.991	9.02171
941.374	12.02742
941.757	19.04393
942.139	-13.02702
942.522	43.09289
942.904	32.07218
943.286	-17.04063
943.668	56.13638
944.05	27.06241
944.432	43.09991
944.814	-5.0115
945.196	4.00934
945.578	12.02719
945.959	33.07223
946.341	18.04054
946.722	33.07247
947.104	-33.07391
947.485	-9.01958
947.866	27.06483
948.247	-11.02639
948.628	-7.01597
949.009	9.02196
949.39	-18.04155
949.771	8.01721
950.152	45.10401
950.532	34.08138
950.913	-49.11083
951.293	22.05729
951.674	-32.07266
952.054	-3.00707
952.434	-21.04898
952.814	7.0153
953.194	32.0795
953.574	-12.02747
953.954	11.02449
954.334	-2.00475
954.714	-31.07202
955.093	-45.10364
955.473	-55.13041
955.853	35.08605
956.232	26.06801
956.611	-34.07544
956.99	-6.01438
957.37	19.04576
957.749	19.0419
958.128	18.04336
958.506	23.05713
958.885	-21.05012
959.264	-6.01393
959.643	34.07189
960.021	-2.0047
960.4	58.12322
960.778	1.00227
961.156	10.02368
961.535	-48.10295
961.913	-15.03217
962.291	32.07875
962.669	-9.02174
963.047	-49.11802
963.424	4.00973
963.802	6.01374
964.18	24.05672
964.557	-10.02115
964.935	31.06808
965.312	19.0473
965.69	11.0258
966.067	-11.02505
966.444	18.04163
966.821	11.02668
967.198	-15.03372
967.575	-24.05518
967.952	55.12013
968.329	21.04767
968.705	-29.05675
969.082	31.07571
969.458	-13.02989
969.835	23.05234
970.211	46.11136
970.587	33.07713
970.963	12.02906
971.339	56.13928
971.715	-70.1644
972.091	13.03
972.467	-5.01156
972.843	-5.01175
973.219	-1.00221
973.594	-4.00999
973.97	-22.04855
974.345	-7.01575
974.721	46.10296
975.096	-45.10223
975.471	52.1149
975.846	44.09937
976.221	39.09343
976.596	29.06506
976.971	37.08559
977.346	-13.02791
977.72	-9.02172
978.095	0
978.469	39.08691
978.844	34.08001
979.218	37.08372
979.593	40.08946
979.967	38.08715
980.341	-12.02566
980.715	24.05659
981.089	-11.02577
981.463	61.13098
981.837	44.10148
982.21	26.05562
982.584	-58.13249
982.957	18.04279
983.331	35.077
983.704	36.08356
984.078	-57.13311
984.451	-11.02522
984.824	-2.00464
985.197	41.09254
985.57	8.01872
985.943	34.07673
986.316	31.07117
986.688	36.08051
987.061	25.05389
987.434	29.07169
987.806	20.04511
988.179	-26.05738
988.551	2.00476
988.923	7.01617
989.295	28.06545
989.667	11.02525
990.039	11.02577
990.411	3.00652
990.783	25.0531
991.155	-4.00922
991.527	-22.04997
991.898	-28.06579
992.27	-19.04467
992.641	22.05157
993.012	63.13813
993.384	-1.00224
993.755	-16.03856
994.126	49.10997
994.497	-18.04176
994.868	66.14015
995.239	49.11141
995.61	-4.0095
995.98	20.04613
996.351	63.14695
996.722	17.03715
997.092	-7.01579
997.462	-6.01335
997.833	81.17587
998.203	22.04955
998.573	37.08725
998.943	34.07314
999.313	21.04742
999.683	-5.01116
1000.053	49.1048
1000.423	16.03648
1000.792	-5.01236
1001.162	32.07436
1001.531	73.16853
1001.901	11.02569
1002.27	72.14836
1002.639	17.04125
1003.009	55.12338
1003.378	9.02185
1003.747	-2.00441
1004.116	20.04513
1004.485	37.08304
1004.853	51.12125
1005.222	45.10777
1005.591	-14.03095
1005.959	7.01493
1006.328	65.13372
1006.696	34.07732
1007.064	26.06166
1007.433	19.04498
1007.801	1.00229
1008.169	1.00237
1008.537	39.07987
1008.905	17.03716
1009.273	34.07854
1009.64	3.00677
1010.008	10.02224
1010.375	78.17472
1010.743	14.02928
1011.11	56.12337
1011.478	2.00466
1011.845	3.00648
1012.212	-10.02089
1012.579	8.01855
1012.946	-7.01536
1013.313	67.14677
1013.68	28.05764
1014.047	45.10157
1014.414	15.03351
1014.78	41.09657
1015.147	22.04892
1015.513	66.15022
1015.88	-31.07432
1016.246	79.18151
1016.612	4.00843
1016.978	-24.05542
1017.344	30.07046
1017.71	-42.09482
1018.076	15.03289
1018.442	11.02664
1018.808	0
1019.174	-25.05918
1019.539	13.02688
1019.905	2.00446
1020.27	14.03289
1020.636	50.11103
1021.001	-11.02457
1021.366	19.04366
1021.731	19.04644
1022.096	31.07447
1022.461	-13.02853
1022.826	30.06662
1023.191	27.06721
1023.556	-51.11125
1023.92	10.02281
1024.285	-15.03437
1024.649	-19.04406
1025.014	42.0971
1025.378	13.03123
1025.742	21.04895
1026.107	-27.05637
1026.471	-32.06855
1026.835	11.02536
1027.199	-29.06653
1027.562	24.05228
1027.926	3.00687
1028.29	11.0264
1028.654	-21.04474
1029.017	43.09915
1029.381	1.00226
1029.744	-7.01708
1030.107	38.08175
1030.471	27.06005
1030.834	-37.07746
1031.197	22.04863
1031.56	23.05126
1031.923	6.01469
1032.286	51.10988
1032.648	13.02884
1033.011	33.07049
1033.374	35.07509
1033.736	-12.0301
1034.099	16.03684
1034.461	14.03376
1034.823	-43.1014
1035.185	-19.04462
1035.548	18.04095
1035.91	52.11677
1036.272	38.08006
1036.634	21.0474
1036.995	52.11451
1037.357	27.06171
1037.719	9.02051
1038.08	-21.04595
1038.442	55.12394
1038.803	19.04229
1039.165	42.09972
1039.526	21.04755
1039.887	55.12318
1040.248	45.10624
1040.609	12.02781
1040.97	5.01147
1041.331	-26.0614
1041.692	10.02205
1042.053	6.01255
1042.413	27.05762
1042.774	50.11246
1043.134	-6.01321
1043.495	-12.02833
1043.855	46.10406
1044.215	12.02792
1044.576	-27.06154
1044.936	26.0556
1045.296	15.03499
1045.656	-12.02776
1046.016	7.0156
1046.375	49.11182
1046.735	20.04273
1047.095	53.11503
1047.454	38.07326
1047.814	-16.03591
1048.173	-16.03518
1048.533	34.07267
1048.892	23.05217
1049.251	45.10575
1049.61	-2.00458
1049.969	50.11025
1050.328	28.05484
1050.687	3.00684
1051.046	32.07354
1051.405	14.03226
1051.763	6.01295
1052.122	28.06643
1052.48	7.01602
1052.839	45.09845
1053.197	-21.04659
1053.555	-40.08212
1053.914	67.15129
1054.272	66.14711
1054.63	-31.07131
1054.988	15.03322
1055.345	-17.03344
1055.703	17.03782
1056.061	-4.00978
1056.419	34.08358
1056.776	7.01583
1057.134	6.01291
1057.491	38.08886
1057.848	19.04411
1058.206	2.00439
1058.563	53.10844
1058.92	32.06742
1059.277	-14.03195
1059.634	-42.09098
1059.991	62.13825
1060.348	11.02336
1060.704	-7.01573
1061.061	23.0483
1061.418	20.0458
1061.774	50.11716
1062.131	8.02062
1062.487	-15.03261
1062.843	0
1063.199	51.11938
1063.555	63.13591
1063.911	-4.00951
1064.267	-2.00371
1064.623	31.07134
1064.979	-21.04536
1065.335	15.03283
1065.691	50.11251
1066.046	13.02609
1066.402	-35.07457
1066.757	53.12542
1067.112	-20.04576
1067.468	61.13605
1067.823	23.05185
1068.178	41.09307
1068.533	-18.04075
1068.888	-23.05109
1069.243	-4.00937
1069.598	-41.09273
1069.952	35.07444
1070.307	4.00952
1070.662	-37.08338
1071.016	15.03155
1071.371	-20.04234
1071.725	-14.03053
1072.079	33.07379
1072.434	-3.00685
1072.788	81.17939
1073.142	49.11353
1073.496	2.00445
1073.85	19.04085
1074.203	-3.00681
1074.557	26.06617
1074.911	35.07661
1075.265	25.05319
1075.618	46.10512
1075.971	-10.02219
1076.325	7.01684
1076.678	-5.01068
1077.031	-14.0295
1077.385	103.20712
1077.738	31.06492
1078.091	-9.01947
1078.444	26.05512
1078.796	2.00466
1079.149	-17.0394
1079.502	-1.00222
1079.855	26.05675
1080.207	-6.01388
1080.56	-12.02946
1080.912	1.00225
1081.264	26.05841
1081.617	16.0367
1081.969	54.13033
1082.321	24.05493
1082.673	3.00648
1083.025	-38.08425
1083.377	-266.54907
1083.728	-42.0902
1084.08	42.09891
1084.432	-72.16128
1084.783	84.18281
1085.135	25.05989
1085.486	-32.06952
1085.838	21.04854
1086.189	15.03411
1086.54	41.09095
1086.891	4.00972
1087.242	-4.00908
1087.593	19.04283
1087.944	4.00838
1088.295	27.05597
1088.646	-12.02747
1088.996	-26.05903
1089.347	-25.05758
1089.698	15.03352
1090.048	-40.09843
1090.398	29.0628
1090.749	32.07159
1091.099	-19.04592
1091.449	-17.03975
1091.799	12.02822
1092.149	48.11216
1092.499	13.02989
1092.849	0
1093.199	28.06543
1093.548	26.05882
1093.898	-7.01662
1094.248	11.02671
1094.597	10.02458
1094.947	-31.07913
1095.296	-27.06281
1095.645	14.0343
1095.994	37.08331
1096.343	67.15941
1096.692	24.06054
1097.041	0
1097.39	7.01649
1097.739	-22.05482
1098.088	-28.07095
1098.437	-33.08358
1098.785	-1.00256
1099.134	18.04469
1099.482	-25.06551
1099.83	44.10856
1100.179	40.10025
1100.527	-38.09609
1100.875	-2.00504
1101.223	27.06868
1101.571	10.02663
1101.919	-4.01007
1102.267	13.03563
1102.615	3.00964
1102.962	-7.02249
1103.31	4.01285
1103.658	-8.02567
