Data from N3 R7 sample 6_Subt2__2__16-54-27-911.txt Node

Date: Fri Sep 19 16:54:27 PDT 2025
User: uwsun
Spectrometer: HDX01956
Trigger mode: 0
Integration Time (sec): 5.000000E-1
Scans to average: 1
Nonlinearity correction enabled: true
Boxcar width: 0
Storing dark spectrum: false
XAxis mode: Wavelengths
Number of Pixels in Spectrum: 2068
>>>>>Begin Spectral Data<<<<<
194.03	73.20973
194.578	66.21305
195.127	55.17539
195.676	52.16572
196.225	78.20346
196.773	89.24522
197.321	125.34233
197.87	181.45449
198.418	252.63103
198.966	199.51221
199.513	222.5499
200.061	168.41706
200.609	185.47601
201.156	116.24622
201.704	132.32602
202.251	161.41858
202.798	224.56659
203.345	207.49684
203.892	158.38952
204.438	207.47902
204.985	212.48952
205.532	217.56745
206.078	172.41276
206.624	213.51182
207.17	200.44874
207.716	148.34908
208.262	155.29587
208.808	177.43065
209.354	150.35791
209.899	121.29924
210.445	180.4413
210.99	160.37899
211.535	185.42148
212.08	137.31112
212.625	149.36496
213.17	172.42356
213.715	185.40492
214.259	224.50547
214.804	206.48907
215.348	129.28879
215.892	178.41722
216.436	222.49728
216.98	174.36885
217.524	165.37986
218.068	139.34274
218.612	177.42903
219.155	165.37713
219.698	156.35807
220.242	170.41029
220.785	178.40381
221.328	191.46175
221.871	211.51451
222.414	166.39548
222.956	187.43875
223.499	139.30398
224.041	129.28807
224.583	180.37022
225.126	183.39546
225.668	196.46067
226.21	139.3411
226.751	147.30746
227.293	148.32428
227.835	143.3384
228.376	172.37845
228.918	158.38679
229.459	239.57777
230	135.31266
230.541	139.30873
231.082	190.44465
231.622	184.40809
232.163	166.39411
232.704	168.40255
233.244	164.39431
233.784	178.4169
234.324	194.41537
234.864	118.25931
235.404	162.36826
235.944	140.31877
236.484	132.31701
237.023	160.36769
237.563	148.33112
238.102	166.37857
238.641	222.54305
239.18	144.32973
239.719	186.45482
240.258	143.30903
240.797	189.43806
241.335	146.34182
241.874	214.39313
242.412	132.30735
242.95	200.46438
243.488	213.46482
244.026	230.50734
244.564	230.44639
245.102	178.38491
245.64	156.36265
246.177	87.18962
246.715	180.41083
247.252	151.3312
247.789	169.28497
248.326	133.30778
248.863	158.33186
249.4	222.48682
249.936	170.33388
250.473	201.45107
251.009	197.43774
251.546	132.28373
252.082	188.39852
252.618	185.39944
253.154	161.3745
253.69	173.37353
254.226	155.35684
254.761	162.34536
255.297	166.35158
255.832	126.28863
256.367	145.32915
256.903	172.36014
257.438	187.41672
257.972	141.30092
258.507	224.49659
259.042	144.29497
259.576	201.41537
260.111	181.39984
260.645	248.50893
261.179	179.39923
261.713	144.30752
262.247	221.49188
262.781	235.47015
263.315	179.42375
263.849	155.37628
264.382	204.44509
264.915	258.57767
265.449	177.41934
265.982	185.39807
266.515	196.46013
267.048	205.41622
267.58	147.30405
268.113	175.36651
268.646	241.57337
269.178	183.39309
269.71	177.3684
270.243	197.43009
270.775	192.47194
271.307	115.26571
271.838	170.38582
272.37	219.51863
272.902	224.48872
273.433	215.4439
273.965	234.55104
274.496	157.37383
275.027	193.45848
275.558	230.53192
276.089	216.52149
276.62	199.48471
277.15	192.45443
277.681	161.32942
278.211	200.46659
278.741	213.45319
279.272	238.51729
279.802	191.46123
280.332	188.42753
280.861	225.51736
281.391	150.32769
281.921	161.36947
282.45	292.69935
282.98	226.56818
283.509	211.45245
284.038	151.32673
284.567	193.42332
285.096	252.58071
285.625	216.47586
286.153	155.35071
286.682	198.43053
287.21	203.46864
287.739	153.34745
288.267	217.50654
288.795	203.51338
289.323	248.56008
289.851	219.48743
290.378	240.51253
290.906	178.42
291.433	184.4439
291.961	213.45753
292.488	206.49378
293.015	245.555
293.542	175.42769
294.069	193.45724
294.596	218.51676
295.122	262.59459
295.649	236.49983
296.175	237.53994
296.702	247.56363
297.228	210.48085
297.754	209.44759
298.28	239.51426
298.806	252.58117
299.332	219.46251
299.857	245.52286
300.383	219.52684
300.908	233.5473
301.433	263.61173
301.958	221.47799
302.483	272.65593
303.008	236.55294
303.533	174.43117
304.058	243.54286
304.582	242.54698
305.107	205.52084
305.631	271.57785
306.155	262.58614
306.679	240.53737
307.203	252.55819
307.727	271.61439
308.251	250.5878
308.775	237.53666
309.298	264.60788
309.822	256.61618
310.345	276.62
310.868	315.70804
311.391	304.70471
311.914	292.69615
312.437	321.67761
312.96	276.61975
313.482	292.65756
314.005	288.68688
314.527	293.73486
315.049	247.59306
315.571	312.66887
316.093	300.70891
316.615	303.69696
317.137	303.61238
317.659	273.62144
318.18	300.68579
318.702	299.65801
319.223	300.57613
319.744	340.7163
320.265	293.67693
320.786	294.69204
321.307	353.82911
321.828	345.73626
322.348	357.79024
322.869	320.69875
323.389	238.42249
323.909	357.76517
324.43	310.69866
324.95	375.8027
325.47	373.86239
325.989	432.95801
326.509	379.77792
327.029	329.69663
327.548	331.70301
328.067	375.84356
328.587	411.95399
329.106	364.76787
329.625	389.9378
330.144	398.84069
330.662	377.8143
331.181	431.93132
331.7	425.91521
332.218	411.82798
332.736	426.91008
333.255	462.9827
333.773	438.95717
334.291	377.86852
334.808	404.82343
335.326	427.8883
335.844	503.0738
336.361	473.09834
336.879	474.00544
337.396	462.0072
337.913	453.94742
338.43	547.11333
338.947	515.11181
339.464	504.97122
339.981	475.0345
340.497	530.18645
341.014	483.06353
341.53	522.07273
342.046	494.10982
342.562	548.23133
343.078	525.1097
343.594	550.18927
344.11	534.14034
344.626	618.39675
345.141	585.19568
345.657	563.12046
346.172	614.30408
346.687	607.23791
347.202	619.22239
347.717	606.28762
348.232	615.37444
348.747	612.24219
349.261	663.2886
349.776	589.22182
350.29	630.39033
350.805	649.40154
351.319	640.31448
351.833	652.30603
352.347	609.24368
352.861	667.36046
353.374	663.31677
353.888	718.4908
354.401	696.38209
354.915	682.33724
355.428	663.45988
355.941	744.49541
356.454	786.48639
356.967	712.46387
357.48	739.44748
357.993	715.52775
358.505	753.61041
359.018	753.56529
359.53	759.56237
360.042	717.33751
360.554	770.58681
361.066	781.61923
361.578	822.50917
362.09	799.61826
362.602	804.48642
363.113	767.48542
363.625	852.613
364.136	837.52483
364.647	827.6224
365.158	868.69134
365.669	938.88669
366.18	733.44383
366.691	873.58654
367.201	841.67472
367.712	804.5116
368.222	889.70979
368.733	883.59096
369.243	869.55929
369.753	901.69888
370.263	948.82911
370.773	980.98659
371.282	937.81864
371.792	1008.83848
372.301	1021.99883
372.811	1084.27566
373.32	969.63361
373.829	1057.0048
374.338	1078.87168
374.847	1120.98274
375.356	1144.13826
375.865	1148.84633
376.373	1254.12702
376.882	1274.46598
377.39	1344.41632
377.898	1358.52465
378.407	1364.18624
378.915	1464.16928
379.423	1538.54788
379.93	1531.37571
380.438	1635.76664
380.946	1819.74393
381.453	1770.79757
381.96	1867.8257
382.468	2041.94966
382.975	2093.12144
383.482	2136.74062
383.989	2197.3919
384.495	2296.90996
385.002	2412.51276
385.509	2575.00748
386.015	2801.3331
386.521	2910.76591
387.028	2993.84081
387.534	3068.54442
388.04	3124.03085
388.546	3151.64456
389.051	3313.53095
389.557	3656.7386
390.063	3994.58661
390.568	4136.64181
391.073	4197.25705
391.578	4331.5807
392.084	4473.9365
392.589	4739.7133
393.093	5026.93692
393.598	5464.47133
394.103	5939.53267
394.607	6580.32168
395.112	6954.50213
395.616	7356.48637
396.12	8056.86103
396.624	8798.97111
397.128	9548.65414
397.632	10631.43409
398.136	11625.24646
398.639	12319.1903
399.143	13746.20452
399.646	15484.88064
400.15	17030.26001
400.653	19076.76198
401.156	21323.97655
401.659	24749.11999
402.162	30304.88617
402.664	39778.73185
403.167	56297.64352
403.67	59842.82906
404.172	55487.84425
404.674	37291.05854
405.176	4428.40989
405.678	533.47942
406.18	0
406.682	0
407.184	6962.89417
407.686	50953.82939
408.187	59237.6763
408.688	61091.12691
409.19	61923.45898
409.691	57292.23662
410.192	48488.75709
410.693	42337.92579
411.194	38122.4939
411.694	36243.99224
412.195	33705.38264
412.696	30434.22222
413.196	28403.62967
413.696	27614.06693
414.196	27862.37621
414.696	27394.94296
415.196	26327.41888
415.696	23963.71331
416.196	19304.11031
416.695	14814.9896
417.195	12671.54541
417.694	12023.89075
418.194	11292.23823
418.693	10483.91283
419.192	10153.51903
419.691	10174.58902
420.19	9797.35936
420.688	9597.74897
421.187	9146.81145
421.685	8530.51317
422.184	7736.61675
422.682	6671.94857
423.18	5852.36383
423.678	4986.73649
424.176	4706.92102
424.674	4362.86306
425.172	4229.36592
425.669	3989.87458
426.167	3718.5554
426.664	3300.63312
427.161	3098.69399
427.659	2870.16654
428.156	2744.4108
428.652	2525.30358
429.149	2498.07931
429.646	2307.54452
430.143	2180.93413
430.639	2054.81178
431.135	1883.88872
431.632	1750.4889
432.128	1809.76239
432.624	1728.89955
433.12	1624.4266
433.616	1531.1901
434.111	1480.44843
434.607	1453.41857
435.103	1412.95427
435.598	1388.91945
436.093	1298.15609
436.588	1290.06799
437.083	1180.95159
437.578	1135.92593
438.073	1025.98403
438.568	989.89605
439.062	1060.69166
439.557	952.74312
440.051	943.67509
440.546	903.64118
441.04	863.63744
441.534	937.91791
442.028	888.70991
442.522	830.63097
443.015	842.4663
443.509	831.67165
444.002	847.69684
444.496	698.23548
444.989	850.70795
445.482	795.62922
445.975	734.3906
446.468	722.27541
446.961	730.26277
447.454	683.26704
447.947	731.47026
448.439	711.47067
448.931	646.23195
449.424	617.31359
449.916	602.23743
450.408	656.27407
450.9	626.29667
451.392	668.44662
451.884	596.14798
452.375	632.33186
452.867	611.16536
453.358	564.08467
453.849	594.0614
454.341	572.10643
454.832	605.10255
455.323	612.28345
455.814	525.03742
456.304	532.05497
456.795	533.03897
457.285	560.05059
457.776	543.03844
458.266	533.1104
458.756	487.0117
459.247	451.94574
459.737	516.0866
460.226	528.02555
460.716	489.02987
461.206	448.93966
461.695	465.03794
462.185	417.88256
462.674	469.93309
463.163	423.81805
463.653	466.85444
464.142	403.86337
464.63	442.95733
465.119	426.88484
465.608	356.73418
466.096	402.77837
466.585	373.75834
467.073	328.70378
467.561	394.86467
468.05	370.76236
468.538	399.89166
469.026	399.86182
469.513	363.68183
470.001	312.64084
470.489	324.69609
470.976	354.7353
471.463	411.92793
471.951	359.81353
472.438	315.67632
472.925	241.51544
473.412	291.64766
473.899	347.72221
474.385	328.73347
474.872	247.52965
475.359	262.59097
475.845	308.57524
476.331	272.53219
476.817	235.52498
477.303	291.61725
477.789	273.60382
478.275	246.56847
478.761	221.49249
479.247	291.58893
479.732	276.64057
480.218	210.51236
480.703	311.71879
481.188	226.44366
481.673	213.45536
482.158	242.47911
482.643	241.56962
483.128	170.36163
483.612	218.47079
484.097	232.5263
484.581	126.27223
485.066	208.46918
485.55	176.35742
486.034	204.41523
486.518	206.45288
487.002	171.39509
487.486	185.42488
487.969	203.47144
488.453	224.53037
488.936	180.37773
489.42	162.3371
489.903	154.36746
490.386	184.3694
490.869	143.28715
491.352	131.30159
491.835	115.22122
492.318	188.39974
492.8	132.25398
493.283	143.34845
493.765	144.33806
494.247	101.22228
494.73	146.30367
495.212	185.41705
495.694	155.34198
496.175	110.24965
496.657	194.43707
497.139	50.07897
497.62	134.30437
498.102	129.30657
498.583	82.19454
499.064	180.3819
499.545	134.28877
500.026	73.15654
500.507	84.18429
500.988	84.19813
501.469	103.24516
501.949	101.23586
502.43	67.15271
502.91	103.201
503.39	90.21541
503.87	111.24982
504.35	87.19364
504.83	117.24341
505.31	127.29437
505.79	101.23104
506.269	75.16665
506.749	83.18098
507.228	110.2462
507.707	111.23329
508.187	96.21682
508.666	75.17604
509.145	108.24043
509.623	77.17302
510.102	99.22819
510.581	88.2011
511.059	129.31163
511.538	92.22756
512.016	138.3151
512.494	88.20272
512.972	122.27868
513.45	94.21143
513.928	90.20981
514.406	130.30543
514.884	164.40595
515.361	141.32409
515.839	150.32131
516.316	103.23504
516.793	159.38004
517.27	184.42199
517.747	145.35517
518.224	134.29199
518.701	164.34476
519.178	186.44415
519.654	52.11653
520.131	83.1952
520.607	121.28601
521.083	139.30283
521.56	102.22905
522.036	157.32575
522.512	152.35475
522.987	175.39725
523.463	155.35042
523.939	118.27583
524.414	126.27375
524.89	78.17631
525.365	169.36427
525.84	119.27779
526.315	103.23561
526.79	109.23202
527.265	58.12564
527.74	77.18017
528.215	95.2153
528.689	113.24189
529.164	40.08197
529.638	137.33682
530.112	102.23347
530.587	83.17206
531.061	107.2485
531.534	91.20984
532.008	116.26786
532.482	10.02183
532.956	112.27845
533.429	34.07767
533.903	115.23904
534.376	106.22224
534.849	109.2423
535.322	86.19479
535.795	108.25236
536.268	98.22755
536.741	97.22278
537.213	105.23264
537.686	34.07985
538.158	75.16194
538.631	33.07716
539.103	72.15509
539.575	73.14503
540.047	80.16788
540.519	111.25074
540.991	55.12869
541.463	119.27648
541.934	27.06017
542.406	97.22242
542.877	86.18541
543.348	1.0023
543.82	87.20421
544.291	40.08872
544.762	107.2421
545.233	131.31742
545.703	93.19788
546.174	128.28484
546.645	101.23642
547.115	132.30407
547.585	171.37617
548.056	169.39419
548.526	155.34699
548.996	117.26861
549.466	177.40488
549.935	179.40764
550.405	148.31099
550.875	145.32487
551.344	201.45793
551.814	143.30625
552.283	136.27758
552.752	128.2833
553.221	153.31419
553.69	233.48344
554.159	264.61466
554.628	210.43835
555.096	206.4919
555.565	217.44944
556.033	210.46032
556.502	195.44282
556.97	260.528
557.438	262.57526
557.906	260.57087
558.374	239.50829
558.842	273.60508
559.31	244.50094
559.777	249.56406
560.245	293.62312
560.712	248.52134
561.18	293.58945
561.647	318.64284
562.114	287.60133
562.581	299.68282
563.048	263.55056
563.514	380.85148
563.981	329.68078
564.448	409.82168
564.914	389.80998
565.381	418.83182
565.847	422.87653
566.313	408.84557
566.779	540.06537
567.245	451.93822
567.711	521.10316
568.176	581.15313
568.642	520.16212
569.108	547.17848
569.573	543.09213
570.038	592.06054
570.504	625.2077
570.969	673.43544
571.434	662.23197
571.899	711.43129
572.363	666.272
572.828	669.27311
573.293	749.42287
573.757	778.48056
574.222	771.43346
574.686	755.40644
575.15	773.53201
575.614	774.45439
576.078	808.54967
576.542	763.43966
577.006	781.45641
577.469	734.51119
577.933	742.35723
578.396	795.58081
578.86	765.47872
579.323	776.53259
579.786	760.32804
580.249	722.37449
580.712	675.38927
581.175	701.46743
581.637	747.44042
582.1	685.23794
582.563	641.10817
583.025	669.38122
583.487	573.96971
583.95	578.0631
584.412	593.03861
584.874	588.23033
585.336	560.15614
585.797	520.96742
586.259	505.01976
586.721	508.04673
587.182	508.01668
587.643	505.99816
588.105	481.0081
588.566	453.83373
589.027	497.06968
589.488	410.82882
589.949	424.90816
590.41	431.74433
590.87	385.76846
591.331	339.64554
591.791	355.72932
592.252	381.78379
592.712	412.88513
593.172	363.73498
593.632	322.6166
594.092	332.66806
594.552	295.57132
595.011	353.7396
595.471	323.6537
595.931	330.66281
596.39	334.73116
596.849	316.66779
597.308	359.69228
597.768	297.69788
598.227	294.65094
598.685	298.61153
599.144	315.66962
599.603	345.73945
600.062	297.55978
600.52	311.63229
600.978	320.69756
601.437	332.68376
601.895	319.60863
602.353	248.49835
602.811	309.61992
603.269	278.60756
603.727	345.74934
604.184	332.6773
604.642	346.76606
605.099	342.71291
605.557	352.76601
606.014	323.62435
606.471	371.85061
606.928	447.88021
607.385	393.8797
607.842	419.86545
608.299	412.85233
608.755	430.92101
609.212	447.88103
609.668	445.87627
610.125	501.04825
610.581	445.90926
611.037	447.88973
611.493	399.83227
611.949	420.9027
612.405	498.86444
612.861	442.8976
613.316	435.93031
613.772	449.90828
614.227	468.97207
614.683	521.95507
615.138	471.98419
615.593	423.86078
616.048	396.7906
616.503	463.00021
616.958	472.04469
617.412	459.95529
617.867	457.89821
618.321	438.76428
618.776	441.85082
619.23	503.03757
619.684	403.79393
620.138	417.83234
620.592	423.907
621.046	385.79879
621.5	445.95128
621.954	444.86504
622.407	450.86881
622.861	345.74264
623.314	456.90701
623.768	429.88451
624.221	397.68742
624.674	368.74562
625.127	397.82479
625.58	347.68618
626.033	389.74184
626.485	339.72816
626.938	356.75264
627.39	345.71996
627.843	315.64948
628.295	293.61444
628.747	353.75202
629.199	365.74749
629.651	292.60301
630.103	298.6223
630.555	232.4421
631.006	302.63933
631.458	204.43678
631.909	273.56238
632.361	212.4494
632.812	252.53442
633.263	200.39039
633.714	197.37951
634.165	163.36008
634.616	191.41735
635.067	245.48425
635.518	163.35526
635.968	237.42498
636.419	198.38795
636.869	170.37154
637.319	218.46211
637.769	225.46371
638.219	178.38655
638.669	188.41817
639.119	197.44228
639.569	187.42379
640.019	223.46972
640.468	111.22825
640.918	173.38537
641.367	167.34836
641.816	169.35159
642.265	181.38762
642.714	170.36839
643.163	131.27715
643.612	159.36268
644.061	144.28041
644.51	152.32517
644.958	115.23733
645.406	184.41199
645.855	118.27172
646.303	158.34151
646.751	120.25905
647.199	89.18755
647.647	171.37143
648.095	73.15796
648.543	95.17878
648.99	127.28747
649.438	168.36826
649.885	151.35415
650.333	133.23345
650.78	156.36007
651.227	144.33211
651.674	147.31454
652.121	90.20484
652.568	123.28249
653.015	112.26253
653.461	115.2584
653.908	158.34268
654.354	91.20271
654.801	121.26864
655.247	134.27287
655.693	111.27572
656.139	114.25747
656.585	140.31657
657.031	126.28038
657.477	106.21762
657.922	138.30109
658.368	77.18003
658.813	64.13786
659.259	73.168
659.704	107.23806
660.149	86.19026
660.594	100.22557
661.039	131.28273
661.484	147.32976
661.929	62.13785
662.373	91.22241
662.818	113.26865
663.262	60.13772
663.707	68.16424
664.151	181.41919
664.595	98.22539
665.039	73.17269
665.483	72.17751
665.927	87.19316
666.371	65.14545
666.814	88.19932
667.258	93.21231
667.701	63.12651
668.145	118.2767
668.588	75.17673
669.031	103.23258
669.474	81.18566
669.917	70.14618
670.36	96.22538
670.803	113.25703
671.245	94.18514
671.688	84.1942
672.13	77.1634
672.573	117.28393
673.015	47.10782
673.457	113.23383
673.899	54.12454
674.341	74.1702
674.783	109.24974
675.225	100.23358
675.666	46.10698
676.108	134.27399
676.549	73.16376
676.991	92.19067
677.432	35.06538
677.873	78.17069
678.314	27.06189
678.755	83.19398
679.196	90.19712
679.637	67.15474
680.078	97.21393
680.518	57.12402
680.959	72.1642
681.399	3.00715
681.839	24.05619
682.28	91.21551
682.72	33.07202
683.16	81.19339
683.6	99.21257
684.039	38.07481
684.479	41.09699
684.919	77.17124
685.358	57.13791
685.798	31.07801
686.237	45.10377
686.676	106.23098
687.115	58.12998
687.554	70.15816
687.993	30.06226
688.432	110.2396
688.871	65.14023
689.309	137.31666
689.748	93.18209
690.186	43.09706
690.625	85.19287
691.063	97.22332
691.501	101.23762
691.939	67.16009
692.377	57.13353
692.815	73.1688
693.253	18.0411
693.69	23.0483
694.128	45.10604
694.565	82.18648
695.003	118.28533
695.44	55.12287
695.877	91.20414
696.314	88.17716
696.751	93.19839
697.188	99.21651
697.625	71.15251
698.061	74.16945
698.498	97.22189
698.934	26.05956
699.371	98.22016
699.807	80.18031
700.243	53.12372
700.679	65.13963
701.115	89.19637
701.551	100.22428
701.987	125.25936
702.422	43.09749
702.858	53.11948
703.294	15.03228
703.729	90.21063
704.164	92.21193
704.599	84.17503
705.035	19.04095
705.47	83.19497
705.904	32.07103
706.339	60.1303
706.774	52.11528
707.209	41.08997
707.643	55.12612
708.078	33.07679
708.512	90.21877
708.946	43.09769
709.38	45.10095
709.814	24.05199
710.248	46.10563
710.682	46.10559
711.116	63.1451
711.549	0
711.983	1.0022
712.416	67.14807
712.85	52.12498
713.283	56.12606
713.716	61.14502
714.149	50.11182
714.582	80.16966
715.015	33.07849
715.448	26.0619
715.881	48.09672
716.313	117.25933
716.746	81.18178
717.178	52.11859
717.61	64.15499
718.043	27.06382
718.475	23.0531
718.907	40.09504
719.339	29.06272
719.77	59.13513
720.202	67.16088
720.634	86.20009
721.065	24.05418
721.497	67.15653
721.928	39.09226
722.359	59.13789
722.79	37.08457
723.221	48.11392
723.652	39.0951
724.083	57.12086
724.514	-40.08672
724.945	13.02928
725.375	30.06673
725.806	5.01174
726.236	80.19381
726.666	25.05587
727.096	28.06507
727.526	30.07331
727.956	41.0883
728.386	25.05769
728.816	17.04147
729.246	68.15821
729.675	28.06666
730.105	61.14133
730.534	13.02901
730.964	36.0856
731.393	36.0832
731.822	80.19461
732.251	72.17463
732.68	-41.09039
733.109	47.11049
733.537	31.07114
733.966	5.01184
734.395	-23.05045
734.823	10.02117
735.251	41.09394
735.68	68.16008
736.108	37.08868
736.536	33.07369
736.964	18.03946
737.392	-7.01666
737.82	46.10381
738.247	2.00452
738.675	15.03352
739.102	73.17495
739.53	44.10792
739.957	18.0441
740.384	14.03243
740.811	45.10916
741.238	5.01157
741.665	38.08481
742.092	48.10686
742.519	14.03357
742.945	24.05465
743.372	51.12036
743.798	18.04423
744.225	46.10304
744.651	4.00956
745.077	19.04519
745.503	14.03224
745.929	29.06564
746.355	7.01625
746.781	38.08921
747.207	40.0903
747.632	2.00471
748.058	3.00708
748.483	2.00432
748.908	8.01899
749.334	5.01172
749.759	-17.03817
750.184	-12.02732
750.609	27.06258
751.033	-3.0066
751.458	68.1439
751.883	-13.03061
752.307	53.11973
752.732	32.07741
753.156	44.10294
753.58	55.12221
754.005	73.17675
754.429	0
754.853	29.06873
755.277	40.09019
755.7	44.10318
756.124	10.02407
756.548	-10.02283
756.971	16.03696
757.394	25.06151
757.818	60.14798
758.241	-33.08023
758.664	64.15499
759.087	17.03678
759.51	-6.01429
759.933	9.02084
760.356	3.00736
760.778	68.16101
761.201	15.034
761.623	11.02488
762.046	-19.0418
762.468	86.19225
762.89	7.01647
763.312	16.03683
763.734	-15.03475
764.156	28.06607
764.578	19.04076
765	84.19242
765.421	42.10385
765.843	12.03036
766.264	47.10604
766.686	29.07006
767.107	46.10711
767.528	17.04177
767.949	5.01218
768.37	-11.02573
768.791	21.0479
769.212	42.10232
769.632	-31.06914
770.053	21.05323
770.473	22.05104
770.894	20.04699
771.314	29.06452
771.734	-16.03531
772.154	27.06631
772.575	67.14473
772.994	-12.02606
773.414	8.0178
773.834	31.07435
774.254	-6.01395
774.673	28.06424
775.093	25.05944
775.512	22.05209
775.931	28.06855
776.351	-21.04972
776.77	41.09564
777.189	-19.04278
777.607	47.1147
778.026	32.07647
778.445	12.02919
778.864	36.08738
779.282	-53.12153
779.701	3.00724
780.119	-13.03135
780.537	-16.03824
780.955	17.04105
781.373	3.00707
781.791	14.02996
782.209	62.13441
782.627	38.09633
783.045	14.03046
783.462	-17.04144
783.88	23.05732
784.297	26.06235
784.715	21.05251
785.132	29.06647
785.549	28.06766
785.966	21.0501
786.383	-11.02611
786.8	28.06143
787.217	26.05812
787.633	-35.08443
788.05	-10.02188
788.466	40.08779
788.883	43.10552
789.299	-29.06612
789.715	43.09963
790.131	15.03529
790.547	-26.06099
790.963	44.10346
791.379	25.0604
791.795	35.0747
792.21	36.07881
792.626	-15.03383
793.041	-19.04455
793.457	-12.02817
793.872	3.00671
794.287	67.15456
794.702	13.03023
795.117	-8.01885
795.532	21.05085
795.947	23.05164
796.362	-24.05394
796.776	-5.01068
797.191	41.09424
797.605	37.08392
798.02	54.12504
798.434	-18.03742
798.848	-25.05852
799.262	32.07671
799.676	14.03199
800.09	-4.00932
800.504	26.05954
800.918	-9.01967
801.331	-10.02493
801.745	-23.0499
802.158	18.04265
802.572	17.03873
802.985	8.01803
803.398	27.06069
803.811	31.07503
804.224	20.04695
804.637	-49.10979
805.05	21.04569
805.462	26.06009
805.875	38.09582
806.288	-10.02329
806.7	-11.0264
807.112	-4.00876
807.525	3.00708
807.937	8.01885
808.349	2.00475
808.761	-21.04848
809.173	-11.02502
809.584	-15.03507
809.996	-15.03528
810.408	20.04956
810.819	24.05336
811.231	7.01781
811.642	39.09172
812.053	4.00921
812.464	59.1329
812.875	38.09248
813.286	13.03177
813.697	23.04892
814.108	-8.01834
814.519	3.00621
814.929	-31.07483
815.34	-21.04837
815.75	4.00969
816.16	-53.12435
816.571	33.08158
816.981	-16.03516
817.391	14.03179
817.801	56.13311
818.211	37.08321
818.62	2.00455
819.03	-5.01148
819.44	49.12056
819.849	19.04566
820.259	62.1502
820.668	42.09883
821.077	-12.02856
821.486	-14.03153
821.895	-26.05989
822.304	52.13107
822.713	9.01997
823.122	30.07136
823.531	0
823.939	20.04618
824.348	41.09409
824.756	13.03072
825.164	-16.03803
825.573	10.02386
825.981	55.12824
826.389	-7.01648
826.797	-9.02154
827.205	9.01941
827.612	-11.02557
828.02	3.00673
828.428	-14.03389
828.835	-6.0152
829.243	42.09323
829.65	25.05909
830.057	41.09473
830.464	-10.02347
830.871	56.12451
831.278	-3.00679
831.685	17.03483
832.092	53.12251
832.499	8.0162
832.905	37.08898
833.312	10.02115
833.718	31.07242
834.124	30.06421
834.531	-28.06699
834.937	-12.02908
835.343	26.0591
835.749	12.02597
836.155	16.03979
836.561	-38.0874
836.966	23.05276
837.372	25.05996
837.777	-19.04479
838.183	-41.08355
838.588	29.06847
838.993	-10.02275
839.399	-18.04163
839.804	24.05597
840.209	32.07802
840.613	42.08779
841.018	-20.04772
841.423	-45.10949
841.828	-17.04096
842.232	-18.0415
842.637	-19.0416
843.041	18.0447
843.445	-22.05205
843.849	8.01877
844.253	53.11606
844.657	29.06985
845.061	24.05092
845.465	39.09072
845.869	26.0561
846.272	38.08698
846.676	57.12929
847.079	20.04873
847.483	42.09814
847.886	6.01348
848.289	26.06745
848.692	-20.04818
849.095	14.03121
849.498	-1.00235
849.901	11.02331
850.304	11.02448
850.707	-3.00725
851.109	-19.04475
851.512	21.04916
851.914	35.08538
852.316	14.03373
852.718	28.06969
853.121	10.02318
853.523	-8.01755
853.925	-23.05773
854.326	14.03366
854.728	-21.05169
855.13	10.02481
855.531	11.02526
855.933	30.06717
856.334	16.03803
856.736	-19.0396
857.137	33.07168
857.538	18.0429
857.939	42.09849
858.34	-14.03204
858.741	0
859.142	20.04532
859.542	60.1535
859.943	27.06394
860.343	-7.01661
860.744	50.11477
861.144	38.08694
861.544	7.01618
861.945	-18.04343
862.345	-11.02495
862.745	-1.00236
863.145	-10.022
863.544	66.15869
863.944	0
864.344	-6.0139
864.743	-5.01175
865.143	-9.02205
865.542	-6.01302
865.941	43.10113
866.34	34.07635
866.74	7.01796
867.139	-2.00456
867.537	-13.03131
867.936	19.04322
868.335	47.11376
868.734	48.1172
869.132	37.08088
869.531	41.09243
869.929	56.11985
870.327	9.02031
870.726	46.10707
871.124	7.01517
871.522	-49.11842
871.92	42.09691
872.318	20.04618
872.715	10.02322
873.113	56.12797
873.511	-8.01897
873.908	50.12222
874.306	-16.03803
874.703	39.09154
875.1	-29.07027
875.497	53.11757
875.894	49.11497
876.291	29.06754
876.688	9.02202
877.085	15.03358
877.482	4.00939
877.878	18.04092
878.275	17.04071
878.671	-14.02817
879.068	41.09224
879.464	0
879.86	34.07641
880.256	1.0023
880.652	5.01205
881.048	23.05287
881.444	11.02416
881.84	7.01677
882.236	63.1488
882.631	5.01162
883.027	-22.0495
883.422	-22.0536
883.817	32.07703
884.213	20.04878
884.608	35.08174
885.003	53.11982
885.398	-12.02856
885.793	-12.02846
886.188	20.04765
886.582	-22.05264
886.977	-23.05143
887.371	18.04297
887.766	21.04987
888.16	37.08698
888.554	-10.02309
888.949	8.01867
889.343	39.08774
889.737	18.04666
890.131	45.10678
890.525	-3.00727
890.918	45.10764
891.312	-33.07318
891.706	48.12034
892.099	40.09541
892.492	0
892.886	28.06386
893.279	12.02902
893.672	8.01942
894.065	23.05403
894.458	4.0095
894.851	14.03168
895.244	-20.04885
895.637	43.0971
896.029	-14.03242
896.422	19.04339
896.814	10.02356
897.206	31.07011
897.599	18.04082
897.991	30.06834
898.383	12.02645
898.775	9.01886
899.167	43.09467
899.559	20.0475
899.951	12.0264
900.342	-10.02369
900.734	27.06483
901.125	19.04683
901.517	24.05579
901.908	28.06202
902.299	9.02088
902.69	8.01775
903.082	42.09493
903.473	45.10203
903.863	36.08781
904.254	-19.04129
904.645	9.02078
905.036	51.1176
905.426	16.03292
905.817	4.00926
906.207	-18.04084
906.597	10.02204
906.987	-41.10028
907.378	-12.02866
907.768	12.03039
908.158	28.0643
908.547	13.03206
908.937	-13.0316
909.327	55.12379
909.717	23.05447
910.106	25.05631
910.495	53.12479
910.885	-9.02123
911.274	35.08279
911.663	46.11094
912.052	11.0253
912.441	44.10656
912.83	2.00427
913.219	-20.04934
913.608	11.02534
913.997	14.03318
914.385	-3.00665
914.774	15.03415
915.162	-27.06052
915.55	50.11283
915.939	-13.03139
916.327	28.06568
916.715	4.00979
917.103	35.0799
917.491	-6.0138
917.878	-1.00228
918.266	28.06857
918.654	52.12674
919.041	2.00499
919.429	16.03558
919.816	39.09244
920.203	16.03653
920.591	-6.01395
920.978	6.01379
921.365	-9.02243
921.752	33.07394
922.139	18.03644
922.525	15.03382
922.912	-31.07137
923.299	36.08462
923.685	-15.03742
924.072	26.05492
924.458	16.03742
924.844	5.01167
925.231	-31.06751
925.617	23.0564
926.003	45.10822
926.389	53.12693
926.774	34.08166
927.16	22.0511
927.546	27.06552
927.931	70.16286
928.317	18.03777
928.702	-17.03748
929.088	13.02899
929.473	-9.02182
929.858	8.01863
930.243	9.02048
930.628	-17.03898
931.013	40.09446
931.398	70.14631
931.783	12.03002
932.167	-17.03908
932.552	25.05804
932.937	-38.0881
933.321	16.03772
933.705	41.09849
934.09	2.0047
934.474	-3.00668
934.858	29.07161
935.242	42.0921
935.626	-19.04613
936.009	4.01014
936.393	56.13526
936.777	16.03921
937.16	-40.09836
937.544	-19.0419
937.927	-22.05344
938.311	34.07688
938.694	39.09755
939.077	-6.01341
939.46	43.09912
939.843	24.04493
940.226	-3.00727
940.609	-5.01068
940.991	-9.02178
941.374	11.02514
941.757	17.03933
942.139	-3.00622
942.522	3.00654
942.904	17.03847
943.286	10.02378
943.668	40.09771
944.05	-17.03964
944.432	15.03504
944.814	39.08893
945.196	-2.00468
945.578	-25.05707
945.959	12.02638
946.341	3.00678
946.722	40.08772
947.104	-7.01559
947.485	41.08826
947.866	58.13845
948.247	5.01196
948.628	-24.05493
949.009	39.09461
949.39	-16.03692
949.771	50.10659
950.152	57.13144
950.532	67.15935
950.913	-24.05401
951.293	-12.03143
951.674	1.00226
952.054	8.0188
952.434	6.01392
952.814	-4.00876
953.194	71.17514
953.574	5.01141
953.954	34.07535
954.334	34.08013
954.714	9.02075
955.093	-9.02058
955.473	-43.10172
955.853	4.00989
956.232	-3.00789
956.611	-38.08439
956.99	23.05481
957.37	36.08643
957.749	10.0221
958.128	47.1126
958.506	37.09167
958.885	27.06385
959.264	-7.01626
959.643	58.12198
960.021	20.04675
960.4	88.18573
960.778	-11.02505
961.156	31.07311
961.535	-18.03836
961.913	-2.00428
962.291	38.09341
962.669	8.01926
963.047	-34.08166
963.424	17.04125
963.802	-38.08778
964.18	39.0919
964.557	62.12907
964.935	14.03086
965.312	-9.02252
965.69	6.01409
966.067	10.02268
966.444	4.00928
966.821	17.04119
967.198	-35.079
967.575	26.05918
967.952	53.11581
968.329	9.02048
968.705	-5.00973
969.082	2.00491
969.458	-8.01838
969.835	29.06591
970.211	22.0535
970.587	30.07016
970.963	57.13687
971.339	-11.02769
971.715	-27.06288
972.091	2.00463
972.467	-57.13317
972.843	-16.03768
973.219	13.02871
973.594	-19.04759
973.97	30.06548
974.345	-38.08603
974.721	48.10739
975.096	-25.05657
975.471	17.03784
975.846	20.04539
976.221	4.00965
976.596	26.05836
976.971	13.03022
977.346	6.01283
977.72	0
978.095	16.03932
978.469	13.02913
978.844	28.06597
979.218	5.01139
979.593	21.04715
979.967	54.12345
980.341	-12.02566
980.715	-4.00948
981.089	-16.03752
981.463	39.08414
981.837	4.0093
982.21	71.15041
982.584	7.01578
982.957	11.02618
983.331	61.13346
983.704	73.1682
984.078	-27.06268
984.451	-22.05056
984.824	15.03469
985.197	23.0521
985.57	3.00703
985.943	-35.0801
986.316	54.1234
986.688	5.01125
987.061	13.02809
987.434	17.04212
987.806	26.05858
988.179	-36.07961
988.551	4.00951
988.923	9.02078
989.295	25.05847
989.667	43.09809
990.039	-7.01646
990.411	30.06482
990.783	47.09935
991.155	18.0413
991.527	12.02707
991.898	23.0535
992.27	-29.06831
992.641	12.02818
993.012	125.27048
993.384	38.08449
993.755	-38.09196
994.126	1.00227
994.497	17.03917
994.868	35.07483
995.239	28.06393
995.61	-50.11976
995.98	11.02542
996.351	0
996.722	2.00438
997.092	20.04486
997.462	-6.01335
997.833	17.03741
998.203	-19.04315
998.573	34.08023
998.943	-17.03697
999.313	29.06538
999.683	-37.08314
1000.053	31.06656
1000.423	8.01827
1000.792	21.05165
1001.162	28.06512
1001.531	39.09065
1001.901	2.00468
1002.27	72.14836
1002.639	13.03157
1003.009	46.10338
1003.378	16.03879
1003.747	1.0022
1004.116	57.12766
1004.485	60.13402
1004.853	26.06211
1005.222	19.04573
1005.591	-3.00662
1005.959	64.13484
1006.328	-34.07151
1006.696	37.08409
1007.064	-10.02388
1007.433	40.09431
1007.801	49.11114
1008.169	-44.10511
1008.537	66.13434
1008.905	25.05456
1009.273	60.13789
1009.64	32.0718
1010.008	-1.00223
1010.375	67.15042
1010.743	54.11192
1011.11	9.02002
1011.478	13.03019
1011.845	-13.02818
1012.212	-16.03347
1012.579	36.08303
1012.946	-18.03959
1013.313	30.06623
1013.68	25.0515
1014.047	36.08141
1014.414	14.03128
1014.78	36.08488
1015.147	20.04449
1015.513	64.14572
1015.88	34.08051
1016.246	25.05806
1016.612	5.01053
1016.978	-8.01841
1017.344	65.15162
1017.71	-32.0721
1018.076	40.08724
1018.442	-8.01945
1018.808	6.01419
1019.174	-16.03781
1019.539	40.0822
1019.905	54.11902
1020.27	-1.00236
1020.636	40.08901
1021.001	11.02446
1021.366	68.15471
1021.731	21.05131
1022.096	1.00242
1022.461	-29.06385
1022.826	17.03785
1023.191	-5.01252
1023.556	-35.07609
1023.92	-25.05742
1024.285	47.10634
1024.649	17.03914
1025.014	54.12454
1025.378	15.03602
1025.742	34.07904
1026.107	-18.03751
1026.471	17.03603
1026.835	20.04602
1027.199	-11.02514
1027.562	44.09543
1027.926	-14.03216
1028.29	29.06937
1028.654	-29.06189
1029.017	59.13562
1029.381	16.036
1029.744	54.13028
1030.107	8.01732
1030.471	23.05119
1030.834	3.00622
1031.197	-11.02448
1031.56	39.08662
1031.923	-24.0591
1032.286	42.09067
1032.648	6.01333
1033.011	20.04284
1033.374	55.11748
1033.736	13.03246
1034.099	-8.01851
1034.461	23.05537
1034.823	-32.0753
1035.185	-45.1062
1035.548	33.07485
1035.91	19.04296
1036.272	-6.01276
1036.634	-4.00907
1036.995	30.06637
1037.357	24.05489
1037.719	15.03415
1038.08	-27.05915
1038.442	65.14617
1038.803	28.0622
1039.165	6.01434
1039.526	32.0723
1039.887	37.08317
1040.248	25.05925
1040.609	28.06468
1040.97	2.00459
1041.331	-30.0709
1041.692	29.06369
1042.053	13.02715
1042.413	-15.0323
1042.774	36.08121
1043.134	-9.01983
1043.495	25.05859
1043.855	27.06132
1044.215	47.10859
1044.576	25.05638
1044.936	79.16699
1045.296	31.07208
1045.656	47.10747
1046.016	-13.02909
1046.375	83.18811
1046.735	29.06184
1047.095	44.09568
1047.454	23.0445
1047.814	-24.05396
1048.173	-3.00658
1048.533	9.01934
1048.892	25.05668
1049.251	29.06836
1049.61	-64.14843
1049.969	54.11897
1050.328	-16.03166
1050.687	-8.01829
1051.046	3.00693
1051.405	-35.08145
1051.763	10.02157
1052.122	-9.0215
1052.48	14.03199
1052.839	4.00883
1053.197	25.05493
1053.555	1.00203
1053.914	26.0592
1054.272	53.11845
1054.63	-34.07826
1054.988	-6.01335
1055.345	-28.05523
1055.703	-24.05385
1056.061	-12.02939
1056.419	-2.00495
1056.776	23.05185
1057.134	19.04076
1057.491	12.02821
1057.848	15.03485
1058.206	-17.03746
1058.563	84.17067
1058.92	32.06742
1059.277	-48.11031
1059.634	10.02142
1059.991	84.18646
1060.348	28.05925
1060.704	14.03132
1061.061	14.02946
1061.418	13.02981
1061.774	76.17717
1062.131	42.10764
1062.487	-4.00868
1062.843	9.0211
1063.199	12.0283
1063.555	95.20354
1063.911	9.02135
1064.267	-3.00557
1064.623	15.03463
1064.979	25.05347
1065.335	-11.02421
1065.691	69.15466
1066.046	-22.04451
1066.402	-23.04887
1066.757	5.01194
1067.112	-5.01141
1067.468	31.06957
1067.823	20.04511
1068.178	49.11105
1068.533	-28.06352
1068.888	-17.03771
1069.243	23.05359
1069.598	-42.09501
1069.952	41.08708
1070.307	26.06159
1070.662	10.02232
1071.016	31.06498
1071.371	-39.08291
1071.725	-38.0833
1072.079	-3.00676
1072.434	18.0409
1072.788	34.07604
1073.142	65.15012
1073.496	-5.01114
1073.85	12.02584
1074.203	28.06314
1074.557	38.0965
1074.911	-5.01104
1075.265	0
1075.618	28.06422
1075.971	-21.0467
1076.325	32.07662
1076.678	-23.04934
1077.031	33.06881
1077.385	63.12785
1077.738	19.0399
1078.091	-20.04336
1078.444	15.03187
1078.796	80.18348
1079.149	13.02995
1079.502	2.00444
1079.855	9.01972
1080.207	19.04374
1080.56	-5.01226
1080.912	-14.03155
1081.264	12.02704
1081.617	18.04127
1081.969	69.16606
1082.321	8.01837
1082.673	7.01511
1083.025	-18.03974
1083.377	-251.51636
1083.728	-2.00426
1084.08	56.13152
1084.432	-63.14086
1084.783	55.12043
1085.135	7.01683
1085.486	16.03441
1085.838	38.08754
1086.189	22.04995
1086.54	25.05564
1086.891	23.05569
1087.242	-8.01818
1087.593	-6.0136
1087.944	-17.03578
1088.295	0
1088.646	48.10854
1088.996	-13.02944
1089.347	-22.05064
1089.698	7.01567
1090.048	-12.02938
1090.398	49.10566
1090.749	39.08713
1091.099	5.01203
1091.449	-14.03271
1091.799	32.07495
1092.149	24.05634
1092.499	31.07103
1092.849	-20.04842
1093.199	14.0328
1093.548	45.1014
1093.898	-22.05237
1094.248	18.04366
1094.597	-7.01726
1094.947	-31.07913
1095.296	13.03
1095.645	14.0343
1095.994	59.13225
1096.343	49.11699
1096.692	8.02024
1097.041	-14.03668
1097.39	-18.0426
1097.739	36.08875
1098.088	11.02768
1098.437	-15.03787
1098.785	10.02554
1099.134	-20.05
1099.482	-46.12097
1099.83	17.04215
1100.179	27.06782
1100.527	-45.11393
1100.875	-2.00504
1101.223	46.11661
1101.571	-11.02939
1101.919	-21.05304
1102.267	40.10915
1102.615	9.02891
1102.962	5.01604
1103.31	-6.01929
1103.658	7.02242
