Data from N3 R7 sample 5_Subt2__3__16-52-54-413.txt Node

Date: Fri Sep 19 16:52:54 PDT 2025
User: uwsun
Spectrometer: HDX01956
Trigger mode: 0
Integration Time (sec): 5.000000E-1
Scans to average: 1
Nonlinearity correction enabled: true
Boxcar width: 0
Storing dark spectrum: false
XAxis mode: Wavelengths
Number of Pixels in Spectrum: 2068
>>>>>Begin Spectral Data<<<<<
194.03	-2.00581
194.578	16.05195
195.127	11.03526
195.676	-9.02889
196.225	18.04743
196.773	22.06126
197.321	62.1715
197.87	70.17927
198.418	108.27746
198.966	69.18161
199.513	136.34218
200.061	53.13433
200.609	112.29185
201.156	35.0756
201.704	63.15757
202.251	63.16655
202.798	77.19986
203.345	150.36393
203.892	40.10075
204.438	99.23401
204.985	73.17322
205.532	115.30595
206.078	65.15916
206.624	76.18737
207.17	142.3224
207.716	62.14868
208.262	70.13638
208.808	41.10229
209.354	25.06108
209.899	33.08293
210.445	91.22678
210.99	46.11136
211.535	109.25214
212.08	58.13382
212.625	73.18133
213.17	97.24217
213.715	60.13479
214.259	100.23137
214.804	65.15851
215.348	63.14295
215.892	89.21224
216.436	128.29227
216.98	93.20063
217.524	48.11309
218.068	101.25079
218.612	57.14128
219.155	111.25647
219.698	79.18413
220.242	79.19394
220.785	104.23948
221.328	98.24107
221.871	86.21459
222.414	41.10002
222.956	44.10612
223.499	101.22265
224.041	48.10898
224.583	114.23796
225.126	153.33276
225.668	109.26053
226.21	34.08506
226.751	39.08352
227.293	86.1909
227.835	63.15139
228.376	81.18163
228.918	87.21579
229.459	92.22856
230	71.16652
230.541	42.09517
231.082	82.19596
231.622	125.28064
232.163	72.17404
232.704	95.2308
233.244	85.20743
233.784	55.13192
234.324	127.27586
234.864	43.09599
235.404	64.14837
235.944	64.14796
236.484	72.17489
237.023	74.17298
237.563	53.1209
238.102	87.20157
238.641	105.26243
239.18	90.20832
239.719	116.28735
240.258	46.10147
240.797	72.17075
241.335	45.10744
241.874	146.2728
242.412	50.1183
242.95	112.26458
243.488	77.17288
244.026	70.15958
244.564	70.14105
245.102	108.23704
245.64	51.12102
246.177	89.1939
246.715	59.13795
247.252	48.10757
247.789	64.11101
248.326	10.02371
248.863	85.18141
249.4	120.26881
249.936	76.15258
250.473	88.20207
251.009	98.22224
251.546	80.17388
252.082	86.18637
252.618	97.21339
253.154	54.12826
253.69	51.113
254.226	81.18923
254.761	34.0745
255.297	81.17474
255.832	38.08859
256.367	37.08583
256.903	55.11814
257.438	35.08045
257.972	43.09372
258.507	101.22964
259.042	13.02742
259.576	80.16981
260.111	58.13142
260.645	114.24103
261.179	67.15289
261.713	63.1369
262.247	75.17198
262.781	127.26044
263.315	71.17159
263.849	92.22598
264.382	68.15264
264.915	128.29427
265.449	73.17642
265.982	57.12603
266.515	80.19206
267.048	77.16091
267.58	39.08262
268.113	115.24405
268.646	115.28022
269.178	119.25914
269.71	49.10489
270.243	88.19656
270.775	63.15854
271.307	48.11238
271.838	113.25942
272.37	81.19693
272.902	160.35383
273.433	93.19727
273.965	131.31467
274.496	4.0098
275.027	90.21804
275.558	83.19756
276.089	68.16876
276.62	81.20164
277.15	68.1648
277.681	24.05063
278.211	85.20278
278.741	73.16005
279.272	74.16645
279.802	109.26729
280.332	92.21328
280.861	65.15424
281.391	107.23588
281.921	43.10101
282.45	158.38808
282.98	144.36736
283.509	124.27089
284.038	85.18652
284.567	79.17744
285.096	136.32065
285.625	118.2653
286.153	100.2288
286.682	91.20238
287.21	85.20084
287.739	67.1548
288.267	82.19649
288.795	92.23727
289.323	161.37006
289.851	123.27921
290.378	139.30334
290.906	93.22306
291.433	121.29539
291.961	81.17894
292.488	101.24694
293.015	126.29234
293.542	104.25753
294.069	121.29065
294.596	138.33218
295.122	146.33914
295.649	163.35074
296.175	54.12757
296.702	89.20956
297.228	88.20643
297.754	72.15876
298.28	88.1955
298.806	116.27477
299.332	146.31328
299.857	109.23948
300.383	113.2773
300.908	121.29043
301.433	142.33818
301.958	81.18044
302.483	131.32432
303.008	89.21452
303.533	116.2905
304.058	123.28159
304.582	116.26892
305.107	113.29178
305.631	142.31127
306.155	139.31886
306.679	149.33988
307.203	161.36339
307.727	130.30317
308.251	118.28458
308.775	117.2714
309.298	152.35782
309.822	91.22587
310.345	174.39906
310.868	151.35082
311.391	157.37454
311.914	144.35305
312.437	123.27093
312.96	121.28035
313.482	148.34311
314.005	133.32662
314.527	151.3884
315.049	164.39999
315.571	215.47058
316.093	171.41418
316.615	152.36018
317.137	118.24861
317.659	196.45312
318.18	155.36467
318.702	151.34263
319.223	138.27538
319.744	200.43433
320.265	140.33329
320.786	143.3465
321.307	201.4861
321.828	241.52592
322.348	198.45282
322.869	155.35028
323.389	165.29846
323.909	203.44957
324.43	170.39411
324.95	198.44005
325.47	238.56504
325.989	246.56666
326.509	183.39225
327.029	195.425
327.548	239.5178
328.067	212.49283
328.587	220.52994
329.106	224.48707
329.625	183.45835
330.144	182.40264
330.662	216.48264
331.181	263.58874
331.7	264.58818
332.218	271.56353
332.736	202.45248
333.255	197.44319
333.773	271.61314
334.291	225.53407
334.808	219.46515
335.326	262.56508
335.844	291.65088
336.361	271.65561
336.879	204.45903
337.396	302.68202
337.913	201.44384
338.43	314.67403
338.947	266.60587
339.464	212.43721
339.981	274.62334
340.497	288.67792
341.014	281.64611
341.53	310.6686
342.046	322.75027
342.562	346.81093
343.078	326.72028
343.594	364.81966
344.11	315.70571
344.626	322.77265
345.141	339.73255
345.657	289.61274
346.172	331.74735
346.687	375.80617
347.202	297.63163
347.717	366.81944
348.232	378.88729
348.747	353.75986
349.261	457.93293
349.776	355.77598
350.29	338.7925
350.805	354.81376
351.319	398.86315
351.833	350.75098
352.347	276.60701
352.861	419.90384
353.374	427.89581
353.888	336.75786
354.401	418.88487
354.915	391.8203
355.428	409.94973
355.941	404.87654
356.454	452.92544
356.967	403.88721
357.48	415.87602
357.993	398.90976
358.505	489.10463
359.018	458.01365
359.53	429.94958
360.042	391.78914
360.554	431.95679
361.066	429.96026
361.578	500.99314
362.09	472.02644
362.602	467.9369
363.113	435.91018
363.625	534.08856
364.136	485.96312
364.647	473.0044
365.158	475.01085
365.669	550.20396
366.18	431.91019
366.691	513.01651
367.201	466.00778
367.712	459.93701
368.222	584.20469
368.733	551.07617
369.243	527.02774
369.753	525.08012
370.263	482.03267
370.773	552.22714
371.282	544.1537
371.792	633.26295
372.301	607.30347
372.811	621.43625
373.32	566.05769
373.829	625.30988
374.338	686.31343
374.847	686.35017
375.356	710.46893
375.865	720.29703
376.373	747.43974
376.882	764.65821
377.39	809.65271
377.898	843.76653
378.407	759.4244
378.915	851.49411
379.423	885.72818
379.93	917.67595
380.438	1042.04186
380.946	1078.98228
381.453	1100.0679
381.96	1126.07459
382.468	1239.2274
382.975	1341.44456
383.482	1300.13469
383.989	1343.58202
384.495	1436.34659
385.002	1470.09721
385.509	1478.4064
386.015	1710.13988
386.521	1741.45978
387.028	1886.6081
387.534	1903.418
388.04	1903.76159
388.546	1963.53018
389.051	2090.53316
389.557	2279.83614
390.063	2467.88094
390.568	2586.99647
391.073	2567.72219
391.578	2637.03381
392.084	2672.59455
392.589	2892.51832
393.093	3096.81397
393.598	3467.49692
394.103	3664.67741
394.607	4017.43922
395.112	4229.5411
395.616	4664.12231
396.12	5034.5922
396.624	5574.36215
397.128	6012.30871
397.632	6689.02308
398.136	7294.1811
398.639	7724.53532
399.143	8593.6482
399.646	9749.34082
400.15	10725.10065
400.653	12096.68505
401.156	13343.79172
401.659	15739.65076
402.162	19328.79003
402.664	25599.59745
403.167	36312.23839
403.67	57716.60917
404.172	55487.84425
404.674	37291.05854
405.176	4428.40989
405.678	533.47942
406.18	0
406.682	0
407.184	6962.89417
407.686	50953.82939
408.187	59237.6763
408.688	61091.12691
409.19	45882.67608
409.691	36868.05757
410.192	30824.43361
410.693	26840.12195
411.194	24015.94914
411.694	22605.83068
412.195	21065.04824
412.696	19096.59462
413.196	17627.11524
413.696	17257.49634
414.196	17330.0078
414.696	16976.48325
415.196	16066.37361
415.696	14659.30361
416.196	11879.4008
416.695	9262.98569
417.195	7921.71161
417.694	7495.95459
418.194	7018.70642
418.693	6563.93691
419.192	6371.16558
419.691	6331.17546
420.19	6095.26352
420.688	5969.52218
421.187	5646.62811
421.685	5341.48321
422.184	4794.8684
422.682	4193.87321
423.18	3560.51546
423.678	3242.58564
424.176	2911.67422
424.674	2775.4791
425.172	2586.82112
425.669	2498.1025
426.167	2301.72629
426.664	2096.60684
427.161	1965.5583
427.659	1873.82495
428.156	1720.19434
428.652	1595.72011
429.149	1514.49689
429.646	1449.1126
430.143	1366.3193
430.639	1319.22649
431.135	1198.20219
431.632	1159.94992
432.128	1119.05191
432.624	1029.05086
433.12	1014.79086
433.616	994.65821
434.111	943.78949
434.607	909.73742
435.103	829.36059
435.598	887.4222
436.093	793.49929
436.588	848.52893
437.083	721.34232
437.578	705.33394
438.073	622.3188
438.568	691.41905
439.062	641.1441
439.557	566.13612
440.051	562.09587
440.546	524.04295
441.04	512.05356
441.534	565.2527
442.028	492.03642
442.522	548.14752
443.015	501.95176
443.509	517.11423
444.002	479.04014
444.496	415.78951
444.989	513.10985
445.482	387.86699
445.975	449.91077
446.468	503.9402
446.961	449.8355
447.454	427.84359
447.947	420.9062
448.439	483.04929
448.931	410.82768
449.424	354.7978
449.916	380.82131
450.408	436.89228
450.9	300.66755
451.392	398.91268
451.884	332.68099
452.375	334.75089
452.867	356.72197
453.358	302.61834
453.849	377.71232
454.341	352.71777
454.832	354.68706
455.323	326.7278
455.814	330.68301
456.304	333.69215
456.795	272.56398
457.285	306.61092
457.776	257.52632
458.266	340.7399
458.756	253.55398
459.247	270.58883
459.737	349.76319
460.226	302.61918
460.716	344.74892
461.206	240.52651
461.695	330.7586
462.185	251.55053
462.674	247.51683
463.163	210.42686
463.653	291.5571
464.142	216.48145
464.63	270.60628
465.119	303.64663
465.608	223.47364
466.096	253.50734
466.585	216.45487
467.073	206.45364
467.561	295.66091
468.05	164.35357
468.538	254.58462
469.026	243.54241
469.513	221.42964
470.001	197.41514
470.489	232.50832
470.976	234.49906
471.463	255.59406
471.951	216.50371
472.438	240.52363
472.925	136.29748
473.412	198.44918
473.899	235.50131
474.385	196.45023
474.872	195.42284
475.359	162.37288
475.845	193.37073
476.331	198.3942
476.817	129.29449
477.303	173.37642
477.789	188.4232
478.275	161.37834
478.761	161.36324
479.247	190.39343
479.732	130.31043
480.218	119.29526
480.703	208.49059
481.188	102.2061
481.673	139.30193
482.158	126.25623
482.643	141.33972
483.128	86.18629
483.612	92.20405
484.097	138.31904
484.581	114.24694
485.066	121.27779
485.55	102.21064
486.034	136.28111
486.518	71.16052
487.002	94.22051
487.486	77.18067
487.969	130.30627
488.453	112.27092
488.936	76.16315
489.42	112.23566
489.903	110.26468
490.386	161.32494
490.869	81.16498
491.352	125.28812
491.835	32.06279
492.318	117.25262
492.8	67.13094
493.283	93.22873
493.765	41.09819
494.247	134.29286
494.73	119.249
495.212	97.2226
495.694	29.06567
496.175	52.11941
496.657	169.38269
497.139	19.03028
497.62	99.22646
498.102	79.18955
498.583	18.04323
499.064	67.14566
499.545	57.12487
500.026	68.14597
500.507	27.05995
500.988	18.043
501.469	11.02664
501.949	38.08984
502.43	31.07117
502.91	67.13187
503.39	33.07984
503.87	82.18565
504.35	0
504.83	42.08884
505.31	50.11766
505.79	6.01399
506.269	60.13374
506.749	11.02435
507.228	23.0524
507.707	12.02577
508.187	65.14773
508.666	20.04745
509.145	6.01364
509.623	63.14197
510.102	23.05382
510.581	76.1741
511.059	71.1734
511.538	29.07256
512.016	40.09314
512.494	11.02573
512.972	19.0443
513.45	40.09097
513.928	28.06607
514.406	73.17342
514.884	70.17625
515.361	33.07749
515.839	43.09424
516.316	18.04178
516.793	11.02703
517.27	35.08267
517.747	18.04513
518.224	2.00448
518.701	32.06923
519.178	58.14189
519.654	-12.02725
520.131	-21.05039
520.607	19.0458
521.083	-16.036
521.56	-17.03911
522.036	47.09991
522.512	69.16367
522.987	67.15542
523.463	45.10401
523.939	34.08079
524.414	28.0621
524.89	20.04574
525.365	76.16709
525.84	86.20206
526.315	0
526.79	32.06926
527.265	-22.04847
527.74	7.0166
528.215	70.15945
528.689	78.16824
529.164	-2.00414
529.638	2.00504
530.112	53.12251
530.587	59.12296
531.061	29.06839
531.534	16.03745
532.008	26.06111
532.482	0
532.956	63.15803
533.429	-53.12319
533.903	4.00852
534.376	20.04273
534.849	30.06778
535.322	35.0801
535.795	16.03806
536.268	11.02598
536.741	7.01637
537.213	66.14742
537.686	-13.03081
538.158	13.02844
538.631	-10.02358
539.103	-15.03292
539.575	7.01412
540.047	22.04676
540.519	20.04602
540.991	7.01653
541.463	57.13405
541.934	50.1109
542.406	56.12947
542.877	62.13436
543.348	20.04574
543.82	34.08063
544.291	-6.01343
544.762	42.09629
545.233	83.20293
545.703	27.05827
546.174	57.12871
546.645	97.22724
547.115	98.22728
547.585	88.19696
548.056	98.23178
548.526	76.17291
548.996	77.17819
549.466	31.07299
549.935	108.24948
550.405	108.22894
550.875	90.20393
551.344	116.26882
551.814	52.11355
552.283	133.27164
552.752	134.29621
553.221	113.23414
553.69	121.25734
554.159	140.33393
554.628	123.26171
555.096	126.30548
555.565	187.3899
556.033	158.35013
556.502	153.35041
556.97	152.31629
557.438	125.28237
557.906	165.36953
558.374	169.3649
558.842	199.44787
559.31	194.40279
559.777	209.47731
560.245	227.4897
560.712	182.38816
561.18	223.45587
561.647	226.4665
562.114	250.52809
562.581	319.72555
563.048	286.59565
563.514	295.6726
563.981	305.63452
564.448	344.70146
564.914	302.641
565.381	304.62102
565.847	382.80053
566.313	358.75024
566.779	454.91523
567.245	441.91946
567.711	417.90454
568.176	487.9892
568.642	477.07529
569.108	433.95723
569.573	470.96273
570.038	515.94217
570.504	533.05227
570.969	498.10188
571.434	610.14965
571.899	528.10703
572.363	534.05203
572.828	557.08842
573.293	623.21936
573.757	610.20768
574.222	612.18225
574.686	562.09639
575.15	591.22052
575.614	576.1344
576.078	582.17636
576.542	610.19359
577.006	610.18514
577.469	584.24243
577.933	525.01219
578.396	627.29498
578.86	516.05609
579.323	548.13942
579.786	558.02624
580.249	490.98644
580.712	498.06517
581.175	499.09055
581.637	558.12416
582.1	507.95893
582.563	447.8136
583.025	446.96805
583.487	439.76987
583.95	422.80771
584.412	419.76843
584.874	433.93844
585.336	410.87628
585.797	399.76461
586.259	344.72154
586.721	348.74411
587.182	356.73879
587.643	345.70749
588.105	351.75815
588.566	338.64004
589.027	320.71618
589.488	273.56921
589.949	307.67419
590.41	321.57059
590.87	271.55524
591.331	234.45697
591.791	276.57713
592.252	245.51946
592.712	259.57477
593.172	272.56221
593.632	253.49255
594.092	236.48539
594.552	256.50041
595.011	237.5093
595.471	272.55691
595.931	225.46288
596.39	257.57176
596.849	329.69328
597.308	298.58307
597.768	233.55434
598.227	281.62385
598.685	215.44948
599.144	212.46078
599.603	282.61265
600.062	278.52641
600.52	287.58669
600.978	276.60727
601.437	263.55007
601.895	237.46118
602.353	194.39469
602.811	248.50456
603.269	313.67898
603.727	299.6558
604.184	297.61072
604.642	268.60302
605.099	271.57383
605.557	272.60199
606.014	313.60647
606.471	335.77363
606.928	404.80358
607.385	372.8363
607.842	404.83728
608.299	376.78413
608.755	355.7727
609.212	434.85802
609.668	360.72307
610.125	415.88639
610.581	410.84439
611.037	410.82312
611.493	383.80174
611.949	401.86539
612.405	405.72031
612.861	388.79765
613.316	434.92837
613.772	435.88278
614.227	440.91962
614.683	428.80295
615.138	458.95978
615.593	369.76013
616.048	383.76696
616.503	477.02744
616.958	479.05867
617.412	441.92151
617.867	459.90171
618.321	389.68754
618.776	437.84391
619.23	394.83407
619.684	424.83118
620.138	404.80882
620.592	375.81241
621.046	413.85153
621.5	378.81978
621.954	421.82472
622.407	410.79918
622.861	328.70863
623.314	403.81149
623.768	380.79212
624.221	388.67344
624.674	350.71207
625.127	352.73865
625.58	356.70249
626.033	313.60792
626.485	324.69819
626.938	378.7953
627.39	354.73727
627.843	349.71408
628.295	369.76081
628.747	330.70654
629.199	324.66969
629.651	334.68323
630.103	394.80524
630.555	294.55181
631.006	298.63141
631.458	228.48563
631.909	301.61615
632.361	274.57295
632.812	286.60201
633.263	292.55752
633.714	245.46653
634.165	231.50303
634.616	242.52307
635.067	248.48983
635.518	280.59509
635.968	259.4618
636.419	180.35419
636.869	248.53305
637.319	275.57568
637.769	235.48323
638.219	236.50617
638.669	240.52807
639.119	262.58034
639.569	248.55505
640.019	257.53728
640.468	183.37019
640.918	241.52926
641.367	271.55223
641.816	266.54142
642.265	244.51542
642.714	228.48796
643.163	172.36062
643.612	246.55126
644.061	206.39523
644.51	227.47772
644.958	295.58417
645.406	248.54796
645.855	153.34984
646.303	254.53772
646.751	218.4607
647.199	176.36379
647.647	246.52579
648.095	189.3988
648.543	212.3875
648.99	251.55377
649.438	256.55072
649.885	221.51121
650.333	235.40146
650.78	249.56406
651.227	228.51702
651.674	281.58381
652.121	199.44291
652.568	228.51261
653.015	214.49158
653.461	209.46054
653.908	207.44426
654.354	157.34494
654.801	259.55849
655.247	186.37428
655.693	235.57046
656.139	228.50293
656.585	215.47872
657.031	218.47583
657.477	248.49282
657.922	274.58056
658.368	231.52372
658.813	171.35987
659.259	243.54016
659.704	256.55191
660.149	247.52805
660.594	243.53208
661.039	251.52776
661.484	277.60473
661.929	260.55427
662.373	243.57702
662.818	243.56321
663.262	197.43974
663.707	191.45058
664.151	264.60132
664.595	203.45706
665.039	190.43925
665.483	238.56873
665.927	229.49338
666.371	172.37639
666.814	234.51422
667.258	253.55889
667.701	226.43674
668.145	202.46587
668.588	273.61842
669.031	269.58677
669.474	239.53039
669.917	231.46515
670.36	205.471
670.803	278.61116
671.245	248.47075
671.688	232.52053
672.13	239.48924
672.573	228.54172
673.015	246.54172
673.457	252.50521
673.899	207.46282
674.341	202.45267
674.783	267.59228
675.225	214.48863
675.666	189.42711
676.108	215.43153
676.549	260.56077
676.991	218.43907
677.432	233.41393
677.873	256.53911
678.314	225.49517
678.755	222.50464
679.196	192.41145
679.637	214.47975
680.078	232.49716
680.518	144.30752
680.959	173.38649
681.399	199.45612
681.839	199.44989
682.28	169.39419
682.72	168.35613
683.16	218.50677
683.6	226.47195
684.039	253.47286
684.479	161.37199
684.919	199.43133
685.358	154.36577
685.798	171.41947
686.237	168.37787
686.676	204.43527
687.115	204.44339
687.554	201.44198
687.993	155.31269
688.432	226.48012
688.871	162.34221
689.309	225.51094
689.748	183.35067
690.186	166.36525
690.625	251.5503
691.063	196.44229
691.501	194.44814
691.939	165.38683
692.377	181.4137
692.815	236.52798
693.253	121.27054
693.69	168.34149
694.128	181.4152
694.565	196.43542
695.003	157.37684
695.44	174.37915
695.877	199.43648
696.314	188.36976
696.751	188.39277
697.188	160.34539
697.625	180.37756
698.061	131.29653
698.498	179.4027
698.934	123.27626
699.371	111.2487
699.807	168.37183
700.243	203.45987
700.679	169.35488
701.115	142.30982
701.551	162.3587
701.987	156.32143
702.422	142.31546
702.858	148.32715
703.294	127.26669
703.729	173.39828
704.164	130.29719
704.599	149.30598
705.035	128.26944
705.47	136.31616
705.904	67.14764
706.339	96.20688
706.774	111.24306
707.209	111.23998
707.643	143.32211
708.078	93.21385
708.512	109.26402
708.946	86.19368
709.38	58.12976
709.814	80.17122
710.248	76.17347
710.682	151.33929
711.116	81.18589
711.549	54.13264
711.983	61.13261
712.416	85.18715
712.85	108.25681
713.283	104.23181
713.716	114.26826
714.149	89.19743
714.582	110.23175
715.015	86.20245
715.448	54.12786
715.881	65.13046
716.313	65.14563
716.746	113.25193
717.178	78.17695
717.61	93.22399
718.043	76.17794
718.475	41.09432
718.907	77.18165
719.339	63.13527
719.77	105.23825
720.202	73.17509
720.634	79.18405
721.065	80.17854
721.497	80.18642
721.928	85.19928
722.359	51.11938
722.79	66.14997
723.221	30.07145
723.652	53.12891
724.083	73.15424
724.514	21.04493
724.945	42.09404
725.375	5.01118
725.806	-9.02119
726.236	24.05876
726.666	50.11117
727.096	25.05813
727.526	55.13377
727.956	40.08616
728.386	13.03007
728.816	70.16907
729.246	42.09822
729.675	56.1326
730.105	41.09537
730.534	66.14565
730.964	11.02628
731.393	26.0602
731.822	34.08342
732.251	22.05386
732.68	24.05219
733.109	37.08715
733.537	0
733.966	15.03546
734.395	41.08872
734.823	-4.00849
735.251	45.10302
735.68	37.08763
736.108	48.1148
736.536	15.03362
736.964	18.03946
737.392	-2.00476
737.82	11.025
738.247	8.01807
738.675	5.0112
739.102	74.17732
739.53	57.13947
739.957	-7.01723
740.384	27.06238
740.811	37.08989
741.238	-17.0395
741.665	49.10911
742.092	-34.07698
742.519	65.15436
742.945	7.01599
743.372	57.13437
743.798	12.02952
744.225	0
744.651	-23.05523
745.077	-8.01913
745.503	22.05058
745.929	20.04535
746.355	15.03477
746.781	54.12638
747.207	54.12156
747.632	6.01411
748.058	-30.07126
748.483	-7.01515
748.908	-37.08861
749.334	-11.02586
749.759	-3.00672
750.184	19.04299
750.609	-5.01166
751.033	2.00439
751.458	73.15431
751.883	-15.03533
752.307	54.12196
752.732	-14.03416
753.156	30.07038
753.58	43.09579
754.005	31.07565
754.429	-29.06417
754.853	23.05458
755.277	33.07452
755.7	38.08921
756.124	38.09099
756.548	-29.06647
756.971	32.07369
757.394	38.09327
757.818	24.05958
758.241	-5.01209
758.664	70.16933
759.087	66.14131
759.51	26.06156
759.933	6.0139
760.356	0
760.778	73.17269
761.201	-23.05253
761.623	-1.00227
762.046	-22.04843
762.468	34.07682
762.89	50.11665
763.312	17.03912
763.734	13.02995
764.156	-2.00475
764.578	40.08542
765	34.07867
765.421	52.12834
765.843	63.15791
766.264	45.10157
766.686	17.04116
767.107	38.08862
767.528	39.09542
767.949	18.04374
768.37	8.01864
768.791	38.08638
769.212	5.01227
769.632	-42.09389
770.053	6.01525
770.473	29.06719
770.894	-24.05687
771.314	21.0468
771.734	-14.03088
772.154	29.07119
772.575	27.05882
772.994	-8.01736
773.414	-21.04701
773.834	14.03369
774.254	-8.01861
774.673	3.00692
775.093	41.09718
775.512	-24.05733
775.931	42.10255
776.351	16.03761
776.77	-20.04721
777.189	-34.07679
777.607	17.04172
778.026	41.09781
778.445	-7.01709
778.864	37.08979
779.282	8.01812
779.701	-15.03635
780.119	-32.07744
780.537	-8.01909
780.955	18.04346
781.373	-25.05925
781.791	-4.00859
782.209	50.10868
782.627	-12.03069
783.045	16.03479
783.462	27.06528
783.88	10.02498
784.297	44.10515
784.715	29.0724
785.132	21.04821
785.549	17.04116
785.966	15.03583
786.383	3.0071
786.8	26.05707
787.217	11.02467
787.633	-12.02882
788.05	-2.00437
788.466	46.10083
788.883	62.15161
789.299	-8.01816
789.715	66.15222
790.131	1.00236
790.547	-53.12499
790.963	20.04725
791.379	31.07481
791.795	53.11267
792.21	3.00661
792.626	-11.02479
793.041	-2.00467
793.457	4.00936
793.872	15.03346
794.287	51.11802
794.702	23.05337
795.117	-31.07339
795.532	50.1204
795.947	11.02476
796.362	16.03566
796.776	0
797.191	15.03466
797.605	45.1019
798.02	49.11358
798.434	3.00621
798.848	18.04178
799.262	65.15483
799.676	-23.05295
800.09	-4.00932
800.504	-13.03
800.918	-33.0725
801.331	-3.00747
801.745	-12.02597
802.158	-37.08861
802.572	7.01598
802.985	-12.02716
803.398	33.07409
803.811	19.04609
804.224	6.01412
804.637	-77.17351
805.05	21.04569
805.462	-10.02328
805.875	59.14821
806.288	13.03014
806.7	10.02391
807.112	22.04792
807.525	57.13306
807.937	-17.04025
808.349	4.00949
808.761	-19.04385
809.173	-30.0685
809.584	48.11084
809.996	-22.05181
810.408	2.00497
810.819	-39.08785
811.231	28.07098
811.642	37.08705
812.053	10.023
812.464	71.15954
812.875	35.08522
813.286	-24.05906
813.697	9.0192
814.108	0
814.519	11.02271
814.929	12.02873
815.34	-23.05299
815.75	26.06275
816.16	-43.10069
816.571	11.0273
816.981	-39.08612
817.391	43.09706
817.801	10.02398
818.211	69.15415
818.62	0
819.03	-37.08549
819.44	37.09124
819.849	36.08623
820.259	45.10937
820.668	56.13142
821.077	12.02843
821.486	-13.02927
821.895	-4.00917
822.304	33.08346
822.713	59.12952
823.122	47.11144
823.531	7.01577
823.939	23.05308
824.348	64.1462
824.756	9.02128
825.164	-22.05235
825.573	57.13478
825.981	55.12824
826.389	-34.08044
826.797	57.13468
827.205	-13.02817
827.612	-2.00464
828.02	-28.06324
828.428	-5.01208
828.835	-8.02027
829.243	-28.06306
829.65	-11.02618
830.057	74.16986
830.464	34.0791
830.871	27.06039
831.278	-33.07518
831.685	-8.01648
832.092	41.095
832.499	-18.03667
832.905	22.05306
833.312	-23.049
833.718	13.03048
834.124	2.00431
834.531	-16.03819
834.937	-2.00484
835.343	43.09741
835.749	27.05825
836.155	3.00748
836.561	-37.08508
836.966	21.04819
837.372	-2.00482
837.777	-20.04716
838.183	-49.10003
838.588	38.08956
838.993	-14.03188
839.399	21.04819
839.804	-7.01642
840.209	35.08529
840.613	68.14131
841.018	-8.01905
841.423	-23.05573
841.828	4.0096
842.232	5.01147
842.637	-34.07469
843.041	35.08665
843.445	-35.08302
843.849	16.03748
844.253	0
844.657	31.07464
845.061	-11.02352
845.465	71.16411
845.869	23.04966
846.272	-14.03238
846.676	52.11807
847.079	-7.01714
847.483	29.06794
847.886	-10.02255
848.289	17.04417
848.692	-30.07241
849.095	-8.01791
849.498	6.01407
849.901	-13.0277
850.304	-27.06057
850.707	-6.01451
851.109	-20.04712
851.512	36.08402
851.914	53.12886
852.316	41.09826
852.718	-41.10333
853.121	2.00464
853.523	-16.03516
853.925	2.005
854.326	35.08382
854.728	13.0318
855.13	-1.00249
855.531	79.17897
855.933	38.08495
856.334	-3.00716
856.736	-57.1198
857.137	19.04139
857.538	15.03577
857.939	19.04475
858.34	30.06806
858.741	23.05705
859.142	33.07458
859.542	33.08483
859.943	23.05451
860.343	-14.03327
860.744	36.08286
861.144	35.08013
861.544	10.0231
861.945	-35.08471
862.345	-37.08437
862.745	-6.01416
863.145	9.01972
863.544	57.13729
863.944	-3.00664
864.344	13.03
864.743	31.07237
865.143	53.12833
865.542	-1.00217
865.941	62.14527
866.34	35.07858
866.74	26.06649
867.139	34.07698
867.537	21.05025
867.936	31.07034
868.335	24.05834
868.734	52.12688
869.132	50.109
869.531	32.07227
869.929	30.06457
870.327	-21.04769
870.726	31.07237
871.124	17.03675
871.522	-36.08679
871.92	39.09004
872.318	11.02545
872.715	59.13567
873.113	0
873.511	34.07998
873.908	45.1101
874.306	-17.04042
874.703	49.11479
875.1	-7.01689
875.497	18.04022
875.894	58.13585
876.291	42.09756
876.688	-26.06403
877.085	-27.06097
877.482	0
877.878	1.00228
878.275	8.01919
878.671	-8.01608
879.068	46.10338
879.464	36.0818
879.86	31.06971
880.256	14.03206
880.652	4.00964
881.048	3.00692
881.444	-1.0022
881.84	-1.0024
882.236	49.11605
882.631	50.11518
883.027	-23.05177
883.422	-26.06339
883.817	40.09614
884.213	17.04149
884.608	28.06548
885.003	63.14214
885.398	10.0237
885.793	-12.02846
886.188	9.02149
886.582	-33.07912
886.977	51.11229
887.371	11.02629
887.766	9.02142
888.16	44.1033
888.554	-35.08122
888.949	-16.03752
889.343	41.0922
889.737	16.04149
890.131	35.08321
890.525	-34.08283
890.918	29.06958
891.312	4.0088
891.706	72.17972
892.099	29.06932
892.492	45.08924
892.886	34.07745
893.279	-9.02185
893.672	22.05326
894.065	1.00236
894.458	53.12474
894.851	-20.04558
895.244	-45.11043
895.637	27.06117
896.029	-27.06268
896.422	1.00229
896.814	30.0704
897.206	2.00455
897.599	7.01591
897.991	-1.00229
898.383	2.00442
898.775	-4.00841
899.167	36.07938
899.559	10.0238
899.951	21.04612
900.342	-59.14108
900.734	51.1219
901.125	-10.02478
901.517	27.06273
901.908	-30.06726
902.299	26.06011
902.69	45.09908
903.082	16.03636
903.473	5.01143
903.863	61.14809
904.254	23.04953
904.645	29.06669
905.036	43.09931
905.426	-36.07495
905.817	-16.03718
906.207	-11.02492
906.597	-15.03323
906.987	-9.02188
907.378	11.02615
907.768	22.05561
908.158	-3.00693
908.547	-26.06457
908.937	-6.01456
909.327	10.02271
909.717	17.04031
910.106	17.03836
910.495	42.0991
910.885	-30.07106
911.274	57.13426
911.663	53.12765
912.052	20.04593
912.441	84.20189
912.83	-1.00213
913.219	-34.0841
913.608	25.05744
913.997	3.00712
914.385	35.07693
914.774	5.01141
915.162	14.03112
915.55	63.14179
915.939	28.06709
916.327	31.07268
916.715	24.05849
917.103	13.02981
917.491	1.0023
917.878	-18.0411
918.266	-3.00739
918.654	80.19396
919.041	-14.035
919.429	35.07751
919.816	-17.04073
920.203	24.05471
920.591	21.04858
920.978	41.09356
921.365	-21.05245
921.752	48.10721
922.139	16.0324
922.525	-37.0843
922.912	-23.05287
923.299	30.0706
923.685	-1.00249
924.072	-1.00212
924.458	3.00703
924.844	20.04655
925.231	-6.013
925.617	41.10021
926.003	33.07954
926.389	32.07694
926.774	4.00966
927.16	8.01863
927.546	14.03406
927.931	26.06102
928.317	-24.05083
928.702	-16.03526
929.088	-20.04491
929.473	29.06979
929.858	28.06496
930.243	29.06572
930.628	10.02281
931.013	-1.00238
931.398	59.12362
931.783	45.1119
932.167	15.03426
932.552	-27.06333
932.937	0
933.321	-35.08334
933.705	4.00968
934.09	8.01877
934.474	17.03768
934.858	20.04947
935.242	51.11163
935.626	-14.03396
936.009	-2.00508
936.393	11.02679
936.777	4.00983
937.16	-37.09093
937.544	-7.0154
937.927	22.053
938.311	8.01819
938.694	15.03768
939.077	-50.11274
939.46	24.05553
939.843	15.02815
940.226	-3.00727
940.609	5.01066
940.991	-50.12195
941.374	-14.03216
941.757	46.1058
942.139	7.01449
942.522	58.12488
942.904	10.02266
943.286	35.08283
943.668	9.02211
944.05	55.12642
944.432	21.049
944.814	9.02065
945.196	27.06276
945.578	21.0475
945.959	2.00441
946.341	-19.04311
946.722	11.02427
947.104	12.02663
947.485	18.03894
947.866	65.15495
948.247	2.00479
948.628	12.02727
949.009	-1.00244
949.39	-59.1373
949.771	45.09604
950.152	59.136
950.532	69.16404
950.913	-3.00672
951.293	16.04171
951.674	-53.12085
952.054	-11.02595
952.434	-53.1244
952.814	4.00875
953.194	31.07703
953.574	-51.11765
953.954	13.02893
954.334	35.08247
954.714	-15.03474
955.093	8.01823
955.473	-11.02586
955.853	44.108
956.232	18.04715
956.611	-12.0265
956.99	13.03104
957.37	16.03856
957.749	-23.05117
958.128	12.02894
958.506	36.08921
958.885	-7.01666
959.264	1.00232
959.643	64.13442
960.021	25.05838
960.4	52.11062
960.778	-20.04563
961.156	-17.04046
961.535	-53.1138
961.913	-25.05373
962.291	14.03457
962.669	23.05523
963.047	-12.0287
963.424	31.07503
963.802	-61.14156
964.18	6.01423
964.557	2.00422
964.935	32.07026
965.312	42.10412
965.69	16.03749
966.067	2.00454
966.444	67.15345
966.821	-20.0488
967.198	-14.03146
967.575	7.01599
967.952	58.1266
968.329	-2.00456
968.705	25.0483
969.082	27.06599
969.458	33.07518
969.835	42.09521
970.211	10.02437
970.587	32.0748
970.963	15.03631
971.339	13.03259
971.715	-10.02321
972.091	12.0277
972.467	-14.03243
972.843	21.0491
973.219	-14.03109
973.594	-1.0025
973.97	18.03939
974.345	-25.05645
974.721	1.00226
975.096	-56.12751
975.471	54.11927
975.846	51.11502
976.221	17.0409
976.596	37.08287
976.971	46.10622
977.346	2.00428
977.72	37.08851
978.095	-1.00246
978.469	47.10457
978.844	42.09868
979.218	23.05219
979.593	31.06946
979.967	24.0552
980.341	-13.0278
980.715	16.03778
981.089	-25.05873
981.463	51.10974
981.837	44.10148
982.21	68.14415
982.584	-5.0113
982.957	15.03568
983.331	45.09879
983.704	16.03728
984.078	21.04829
984.451	-4.00916
984.824	-8.01858
985.197	1.00228
985.57	-20.04706
985.943	1.00227
986.316	51.11662
986.688	55.12252
987.061	10.02162
987.434	26.06431
987.806	17.03837
988.179	-19.04187
988.551	6.01426
988.923	37.08494
989.295	30.0701
989.667	16.0367
990.039	19.04444
990.411	48.10331
990.783	43.09097
991.155	34.07776
991.527	18.04055
991.898	-18.04221
992.27	34.0791
992.641	29.06788
993.012	70.15325
993.384	9.02013
993.755	12.02877
994.126	29.06535
994.497	6.01385
994.868	17.03649
995.239	33.07528
995.61	15.03548
995.98	30.06905
996.351	39.0914
996.722	55.11921
997.092	21.04709
997.462	-3.00667
997.833	35.07674
998.203	74.16488
998.573	-18.0429
998.943	-20.04353
999.313	35.07881
999.683	-34.07635
1000.053	52.11115
1000.423	51.11544
1000.792	35.08586
1001.162	13.03032
1001.531	41.09526
1001.901	-12.02815
1002.27	63.13007
1002.639	31.07503
1003.009	72.16095
1003.378	28.06773
1003.747	-17.03759
1004.116	19.04289
1004.485	49.1097
1004.853	61.14475
1005.222	42.10064
1005.591	11.02419
1005.959	18.03831
1006.328	4.00834
1006.696	47.1066
1007.064	45.10633
1007.433	77.18024
1007.801	28.06378
1008.169	-2.00474
1008.537	63.12832
1008.905	-3.00659
1009.273	37.08542
1009.64	-20.04535
1010.008	3.00668
1010.375	81.18133
1010.743	30.06251
1011.11	37.08184
1011.478	56.12895
1011.845	-9.01949
1012.212	9.01872
1012.579	17.03936
1012.946	7.01532
1013.313	27.05965
1013.68	25.0515
1014.047	78.17487
1014.414	51.11309
1014.78	71.16626
1015.147	17.03784
1015.513	48.10965
1015.88	-7.01671
1016.246	49.11326
1016.612	1.00211
1016.978	18.04122
1017.344	7.01651
1017.71	-21.04721
1018.076	25.0547
1018.442	20.04836
1018.808	38.08928
1019.174	8.01882
1019.539	5.01036
1019.905	24.05323
1020.27	32.07492
1020.636	58.12859
1021.001	18.03997
1021.366	46.10512
1021.731	67.16229
1022.096	1.00242
1022.461	-26.05721
1022.826	32.07103
1023.191	7.01749
1023.556	29.06219
1023.92	-16.03668
1024.285	9.02052
1024.649	42.09621
1025.014	29.06722
1025.378	43.1027
1025.742	23.05359
1026.107	-1.00208
1026.471	-4.00852
1026.835	-3.00693
1027.199	38.086
1027.562	19.04143
1027.926	34.07735
1028.29	12.0288
1028.654	0
1029.017	59.13562
1029.381	46.10287
1029.744	23.05582
1030.107	32.06893
1030.471	-11.02466
1030.834	-6.01247
1031.197	29.06401
1031.56	22.04904
1031.923	17.04155
1032.286	27.05847
1032.648	39.08605
1033.011	8.01718
1033.374	23.04947
1033.736	9.02249
1034.099	8.01845
1034.461	50.11976
1034.823	-35.08241
1035.185	23.05356
1035.548	15.03415
1035.91	48.10788
1036.272	47.09883
1036.634	19.0429
1036.995	45.09924
1037.357	17.03893
1037.719	47.1063
1038.08	-19.04155
1038.442	86.19257
1038.803	26.05779
1039.165	54.12791
1039.526	7.0159
1039.887	39.08763
1040.248	91.21293
1040.609	-6.01395
1040.97	0
1041.331	-14.03298
1041.692	1.00221
1042.053	2.00419
1042.413	-3.00644
1042.774	25.05652
1043.134	40.08724
1043.495	19.04458
1043.855	37.08385
1044.215	18.04183
1044.576	25.05638
1044.936	91.19185
1045.296	1.00234
1045.656	36.0825
1046.016	11.02449
1046.375	3.00691
1046.735	14.02995
1047.095	54.11717
1047.454	17.03294
1047.814	-27.06074
1048.173	-14.03077
1048.533	26.05567
1048.892	26.05894
1049.251	49.11506
1049.61	-12.02754
1049.969	72.15803
1050.328	21.0412
1050.687	4.00912
1051.046	15.03459
1051.405	-16.03709
1051.763	-49.10702
1052.122	-3.00716
1052.48	23.05246
1052.839	-2.00442
1053.197	25.05493
1053.555	-53.10913
1053.914	-37.08532
1054.272	37.08297
1054.63	-29.06669
1054.988	-43.09638
1055.345	-49.09712
1055.703	9.02006
1056.061	16.03898
1056.419	29.07135
1056.776	31.06977
1057.134	-2.00431
1057.491	-18.04256
1057.848	19.04411
1058.206	-16.03525
1058.563	50.10238
1058.92	36.07578
1059.277	-18.04112
1059.634	-3.00644
1059.991	57.12724
1060.348	10.02124
1060.704	4.00897
1061.061	9.01896
1061.418	-1.0023
1061.774	32.07524
1062.131	41.1051
1062.487	15.0324
1062.843	47.10937
1063.199	39.09151
1063.555	49.10603
1063.911	-2.00475
1064.267	44.08079
1064.623	29.06677
1064.979	-22.04753
1065.335	-9.0198
1065.691	42.09466
1066.046	-39.07922
1066.402	-25.05315
1066.757	31.07367
1067.112	-17.03887
1067.468	24.05394
1067.823	74.16508
1068.178	1.00229
1068.533	-6.01355
1068.888	-17.03771
1069.243	18.04198
1069.598	-13.02923
1069.952	36.07655
1070.307	8.01902
1070.662	62.13688
1071.016	10.02106
1071.371	62.1289
1071.725	-3.00653
1072.079	2.0045
1072.434	-21.0481
1072.788	48.10704
1073.142	85.19553
1073.496	-10.02231
1073.85	-1.00216
1074.203	-17.03868
1074.557	26.06617
1074.911	11.0242
1075.265	-11.02359
1075.618	9.02072
1075.971	13.02871
1076.325	-13.03139
1076.678	-6.01282
1077.031	-34.07195
1077.385	99.19926
1077.738	-6.01267
1078.091	14.03013
1078.444	-6.01281
1078.796	18.0418
1079.149	-21.04871
1079.502	-50.11219
1079.855	24.05241
1080.207	25.05749
1080.56	15.03665
1080.912	-45.10207
1081.264	-13.02944
1081.617	30.06861
1081.969	25.06067
1082.321	-6.01382
1082.673	7.01511
1083.025	-15.0331
1083.377	19.03671
1083.728	-57.12281
1084.08	31.07316
1084.432	-69.15447
1084.783	43.0944
1085.135	54.12865
1085.486	55.11728
1085.838	20.04624
1086.189	5.01139
1086.54	48.10633
1086.891	-5.01217
1087.242	2.00454
1087.593	7.01582
1087.944	27.05627
1088.295	46.09495
1088.646	23.05227
1088.996	-41.09337
1089.347	-10.02296
1089.698	11.02461
1090.048	11.02681
1090.398	22.04772
1090.749	27.06047
1091.099	-6.01446
1091.449	33.0764
1091.799	40.09354
1092.149	32.07501
1092.499	18.04135
1092.849	32.07671
1093.199	23.0538
1093.548	34.07679
1093.898	0
1094.248	25.06055
1094.597	23.0564
1094.947	-7.01779
1095.296	-2.00463
1095.645	45.10961
1095.994	37.08331
1096.343	59.14059
1096.692	10.02529
1097.041	-11.02881
1097.39	-12.02837
1097.739	29.07159
1098.088	0
1098.437	3.00755
1098.785	16.04082
1099.134	-19.04749
1099.482	-44.11567
1099.83	1.00249
1100.179	32.08031
1100.527	16.04007
1100.875	-5.01261
1101.223	21.05347
1101.571	13.0346
1101.919	-8.02016
1102.267	14.03836
1102.615	1.00321
1102.962	5.01604
1103.31	16.05131
1103.658	-5.01604
