Data from N3 R7 sample 8_Subt2__4__16-55-53-909.txt Node

Date: Fri Sep 19 16:55:53 PDT 2025
User: uwsun
Spectrometer: HDX01956
Trigger mode: 0
Integration Time (sec): 5.000000E-1
Scans to average: 1
Nonlinearity correction enabled: true
Boxcar width: 0
Storing dark spectrum: false
XAxis mode: Wavelengths
Number of Pixels in Spectrum: 2068
>>>>>Begin Spectral Data<<<<<
194.03	54.15558
194.578	66.21305
195.127	66.21019
195.676	50.15939
196.225	81.21118
196.773	74.20437
197.321	91.25057
197.87	139.35167
198.418	226.56859
198.966	198.50972
199.513	233.57598
200.061	144.35905
200.609	152.39335
201.156	111.23587
201.704	138.34047
202.251	175.45389
202.798	160.40932
203.345	201.48299
203.892	167.41102
204.438	174.40529
204.985	157.36649
205.532	195.51184
206.078	163.39183
206.624	174.42121
207.17	187.42069
207.716	132.31231
208.262	203.38298
208.808	177.43065
209.354	202.47718
209.899	169.41426
210.445	151.37219
210.99	164.38817
211.535	185.42148
212.08	145.32875
212.625	147.3602
213.17	164.40446
213.715	161.35418
214.259	244.54835
214.804	183.4364
215.348	136.30402
215.892	190.4443
216.436	205.46081
216.98	161.34226
217.524	165.37986
218.068	177.43338
218.612	161.39143
219.155	172.39257
219.698	140.32237
220.242	152.36809
220.785	196.44302
221.328	154.3749
221.871	179.43909
222.414	112.2696
222.956	129.3061
223.499	175.3798
224.041	136.30326
224.583	142.29456
225.126	190.40998
225.668	172.40616
226.21	176.42893
226.751	107.22578
227.293	125.27522
227.835	105.2503
228.376	140.31012
228.918	156.38204
229.459	156.38303
230	125.29007
230.541	137.30442
231.082	158.37208
231.622	145.3242
232.163	150.35723
232.704	132.31846
233.244	161.38732
233.784	127.30042
234.324	162.34926
234.864	104.22922
235.404	118.27063
235.944	147.33423
236.484	153.36598
237.023	162.37214
237.563	154.34411
238.102	186.42247
238.641	176.43421
239.18	150.34305
239.719	193.47133
240.258	190.40646
240.797	186.43137
241.335	112.26397
241.874	198.3652
242.412	143.33224
242.95	181.42185
243.488	161.35522
244.026	136.3059
244.564	192.37602
245.102	212.45509
245.64	169.39186
246.177	132.28495
246.715	144.33105
247.252	154.33757
247.789	77.13309
248.326	151.34819
248.863	153.32171
249.4	183.4046
249.936	179.35081
250.473	143.32474
251.009	208.46112
251.546	180.3829
252.082	180.38223
252.618	200.43044
253.154	150.34967
253.69	181.39014
254.226	126.29176
254.761	93.20123
255.297	152.32292
255.832	97.22349
256.367	157.35552
256.903	163.34198
257.438	124.27994
257.972	182.38496
258.507	204.45414
259.042	115.23712
259.576	142.29733
260.111	163.36144
260.645	239.49145
261.179	154.34525
261.713	162.34461
262.247	209.46633
262.781	204.41106
263.315	147.35015
263.849	155.37628
264.382	164.36085
264.915	159.36327
265.449	155.36878
265.982	211.45148
266.515	189.4443
267.048	222.44898
267.58	168.34585
268.113	182.38058
268.646	198.47497
269.178	177.3807
269.71	163.34032
270.243	197.43009
270.775	161.39801
271.307	178.4061
271.838	179.4055
272.37	202.47995
272.902	197.43228
273.433	125.2633
273.965	176.41914
274.496	131.31348
275.027	182.43326
275.558	189.44067
276.089	199.48199
276.62	181.44235
277.15	163.38796
277.681	170.34713
278.211	143.33735
278.741	198.42265
279.272	188.41296
279.802	168.40745
280.332	183.41658
280.861	215.49536
281.391	139.30437
281.921	178.40709
282.45	257.61964
282.98	196.49542
283.509	199.42783
284.038	130.28256
284.567	161.35552
285.096	200.46567
285.625	210.46323
286.153	159.35946
286.682	160.35072
287.21	185.42862
287.739	156.35405
288.267	193.45265
288.795	192.48652
289.323	188.42978
289.851	179.40171
290.378	203.43699
290.906	175.41316
291.433	258.61369
291.961	186.40186
292.488	218.52135
293.015	205.46817
293.542	219.53083
294.069	207.48908
294.596	238.56199
295.122	228.52101
295.649	275.57746
296.175	232.52908
296.702	205.47175
297.228	206.47207
297.754	192.41269
298.28	222.47943
298.806	222.51505
299.332	183.38953
299.857	204.43924
300.383	187.45259
300.908	219.51583
301.433	213.50033
301.958	182.39692
302.483	257.62152
303.008	247.57747
303.533	187.46228
304.058	224.50238
304.582	192.4384
305.107	204.51839
305.631	218.47019
306.155	275.61357
306.679	209.47095
307.203	279.61451
307.727	319.71614
308.251	238.5609
308.775	198.45191
309.298	244.56407
309.822	274.65725
310.345	264.59451
310.868	235.53689
311.391	245.57459
311.914	273.65323
312.437	216.46647
312.96	253.57079
313.482	261.59148
314.005	252.60518
314.527	278.69913
315.049	232.55863
315.571	299.6428
316.093	308.72668
316.615	273.63173
317.137	269.5479
317.659	270.61498
318.18	297.67934
318.702	280.61865
319.223	288.55469
319.744	278.59367
320.265	325.74607
320.786	321.75162
321.307	306.72533
321.828	332.71051
322.348	310.69294
322.869	264.58331
323.389	310.54002
323.909	331.71343
324.43	334.74904
324.95	338.7293
325.47	329.76733
325.989	369.82905
326.509	342.70784
327.029	355.74741
327.548	361.76171
328.067	371.83525
328.587	347.81566
329.106	325.69147
329.625	300.73544
330.144	296.63923
330.662	322.70371
331.181	341.75105
331.7	357.78002
332.218	395.79868
332.736	396.85149
333.255	386.83463
333.773	387.85485
334.291	381.87704
334.808	366.75242
335.326	371.78143
335.844	440.95381
336.361	383.90691
336.879	444.94976
337.396	437.95962
337.913	441.92477
338.43	504.03568
338.947	459.00255
339.464	438.85741
339.981	486.05604
340.497	444.01116
341.014	431.96116
341.53	557.13578
342.046	462.0446
342.562	495.12412
343.078	456.98006
343.594	522.13537
344.11	524.12137
344.626	525.20871
345.141	516.07087
345.657	518.04152
346.172	520.1267
346.687	514.07004
347.202	562.12444
347.717	593.26352
348.232	573.29152
348.747	563.15532
349.261	610.20036
349.776	580.20553
350.29	582.29713
350.805	590.29002
351.319	629.29505
351.833	601.21788
352.347	567.16878
352.861	580.20607
353.374	600.20892
353.888	586.2521
354.401	616.24576
354.915	603.20411
355.428	679.49015
355.941	631.30092
356.454	667.29762
356.967	697.43782
357.48	639.28084
357.993	670.4454
358.505	679.47515
359.018	675.42726
359.53	699.45808
360.042	668.26103
360.554	679.42759
361.066	663.41042
361.578	710.33981
362.09	685.42315
362.602	675.28766
363.113	702.38041
363.625	760.47079
364.136	780.44125
364.647	701.41566
365.158	802.58698
365.669	841.72901
366.18	715.41427
366.691	790.46558
367.201	780.57506
367.712	771.46118
368.222	841.63594
368.733	840.52992
369.243	774.4223
369.753	837.60268
370.263	849.67658
370.773	858.78732
371.282	912.78056
371.792	838.5934
372.301	926.85315
372.811	952.05594
373.32	942.59956
373.829	985.90197
374.338	1041.82486
374.847	1013.84251
375.356	1115.09873
375.865	1152.85071
376.373	1164.02137
376.882	1185.34172
377.39	1156.17665
377.898	1261.39976
378.407	1200.01096
378.915	1330.0487
379.423	1441.44937
379.93	1489.33799
380.438	1577.70919
380.946	1635.59739
381.453	1647.69209
381.96	1738.72778
382.468	1795.78388
382.975	1989.05493
383.482	1986.67157
383.989	1988.24872
384.495	2047.80464
385.002	2185.4692
385.509	2294.93672
386.015	2547.3522
386.521	2542.76373
387.028	2690.85244
387.534	2823.58218
388.04	2835.04986
388.546	3017.67087
389.051	3163.57234
389.557	3437.81417
390.063	3692.71927
390.568	3665.84957
391.073	3853.42954
391.578	4020.73724
392.084	4124.12928
392.589	4231.99932
393.093	4554.20409
393.598	4985.7181
394.103	5503.71726
394.607	5937.45602
395.112	6458.51346
395.616	6814.35041
396.12	7345.28162
396.624	8022.83767
397.128	8729.86176
397.632	9940.88766
398.136	10682.67341
398.639	11256.18037
399.143	12537.25182
399.646	14271.87784
400.15	15839.30783
400.653	17644.60275
401.156	19892.32563
401.659	22902.97958
402.162	27868.31942
402.664	37108.16613
403.167	52599.25257
403.67	59374.45097
404.172	55487.84425
404.674	37291.05854
405.176	4428.40989
405.678	533.47942
406.18	0
406.682	0
407.184	6962.89417
407.686	50953.82939
408.187	59237.6763
408.688	61091.12691
409.19	61923.45898
409.691	53838.1943
410.192	45268.17468
410.693	39211.5225
411.194	35590.86373
411.694	33682.44008
412.195	31099.26205
412.696	28196.19035
413.196	26097.85163
413.696	25355.19461
414.196	25876.79135
414.696	25025.18655
415.196	23695.63719
415.696	21378.47434
416.196	17581.97324
416.695	13558.66114
417.195	11526.57478
417.694	10885.41696
418.194	10365.86185
418.693	9808.5095
419.192	9397.27502
419.691	9254.92873
420.19	8935.23955
420.688	8750.93674
421.187	8309.04156
421.685	7816.6399
422.184	7097.272
422.682	6095.98264
423.18	5290.61224
423.678	4600.95393
424.176	4290.15525
424.674	3986.06763
425.172	3868.54525
425.669	3658.00842
426.167	3424.66536
426.664	3120.67763
427.161	2872.72592
427.659	2626.14389
428.156	2493.41778
428.652	2249.19801
429.149	2268.00693
429.646	2143.50261
430.143	2030.85962
430.639	1938.74773
431.135	1729.76843
431.632	1690.44704
432.128	1645.62967
432.624	1546.71938
433.12	1494.31708
433.616	1414.09443
434.111	1356.31824
434.607	1248.19181
435.103	1313.87349
435.598	1243.79711
436.093	1194.03888
436.588	1158.92557
437.083	1103.86238
437.578	1047.81817
438.073	952.87454
438.568	893.75123
439.062	900.5009
439.557	809.53407
440.051	827.51266
440.546	843.55517
441.04	780.50956
441.534	838.75335
442.028	812.59181
442.522	786.56035
443.015	744.32872
443.509	807.63225
444.002	762.55625
444.496	673.19887
444.989	720.48964
445.482	681.43117
445.975	677.30023
446.468	676.20827
446.961	641.13467
447.454	619.16636
447.947	681.38528
448.439	704.45845
448.931	619.18808
449.424	582.24837
449.916	599.23208
450.408	584.15342
450.9	570.19524
451.392	562.24423
451.884	543.05901
452.375	497.07793
452.867	541.0491
453.358	528.02408
453.849	495.90831
454.341	561.08796
454.832	547.01126
455.323	484.04321
455.814	531.04783
456.304	464.93625
456.795	478.94546
457.285	424.82332
457.776	430.84613
458.266	517.08083
458.756	427.90056
459.247	424.89443
459.737	457.9765
460.226	437.86861
460.716	419.89765
461.206	421.88829
461.695	466.03996
462.185	459.96251
462.674	352.7194
463.163	393.76549
463.653	441.81368
464.142	341.74034
464.63	352.77706
465.119	433.89797
465.608	380.77944
466.096	349.68431
466.585	340.69645
467.073	270.58658
467.561	371.81814
468.05	318.66289
468.538	392.87728
469.026	351.76594
469.513	316.60042
470.001	329.67316
470.489	296.63978
470.976	340.70843
471.463	385.87385
471.951	323.73732
472.438	297.64015
472.925	294.62158
473.412	266.59509
473.899	356.73945
474.385	313.7021
474.872	274.58411
475.359	292.6546
475.845	251.4754
476.331	297.57767
476.817	225.50368
477.303	279.59335
477.789	240.53449
478.275	283.64915
478.761	184.41318
479.247	229.47004
479.732	212.49827
480.218	203.49593
480.703	226.53117
481.188	234.45849
481.673	222.47368
482.158	202.40366
482.643	209.49706
483.128	164.34932
483.612	227.48928
484.097	231.52414
484.581	176.37618
485.066	222.49932
485.55	187.3788
486.034	191.38992
486.518	182.40214
487.002	165.38168
487.486	178.40938
487.969	211.48924
488.453	194.46201
488.936	144.30459
489.42	180.37306
489.903	139.33262
490.386	184.3694
490.869	126.25401
491.352	113.26109
491.835	116.22309
492.318	131.282
492.8	161.30762
493.283	166.40275
493.765	151.35401
494.247	107.23519
494.73	147.30569
495.212	144.32734
495.694	109.24281
496.175	82.18716
496.657	212.47586
497.139	37.05866
497.62	64.14743
498.102	100.23898
498.583	43.10278
499.064	153.32653
499.545	120.25938
500.026	48.10349
500.507	63.13883
500.988	103.24205
501.469	57.13687
501.949	91.21293
502.43	85.19303
502.91	66.12993
503.39	80.19184
503.87	121.27177
504.35	75.16735
504.83	50.10557
505.31	119.27626
505.79	57.13154
506.269	80.17758
506.749	32.07053
507.228	62.14014
507.707	68.14427
508.187	101.22788
508.666	58.13659
509.145	73.16369
509.623	33.07482
510.102	96.22141
510.581	56.1288
511.059	56.13715
511.538	31.07754
512.016	84.19389
512.494	32.07454
512.972	75.17294
513.45	77.1738
513.928	73.17075
514.406	75.1781
514.884	90.22579
515.361	88.20442
515.839	54.11807
516.316	65.14947
516.793	72.17495
517.27	82.19191
517.747	94.23243
518.224	61.13498
518.701	78.16708
519.178	116.28071
519.654	23.05185
520.131	10.02385
520.607	34.08172
521.083	69.15256
521.56	56.12694
522.036	68.1439
522.512	69.16367
522.987	74.17142
523.463	57.13144
523.939	78.18376
524.414	53.11694
524.89	18.04118
525.365	119.25925
525.84	69.16265
526.315	14.0326
526.79	102.21745
527.265	39.08482
527.74	43.10129
528.215	50.11435
528.689	88.1894
529.164	-18.03737
529.638	86.21343
530.112	62.14305
530.587	107.22062
531.061	78.18219
531.534	52.12084
532.008	69.16082
532.482	9.01965
532.956	99.24672
533.429	-18.04155
533.903	38.08034
534.376	27.0576
534.849	85.18989
535.322	59.13437
535.795	56.13219
536.268	110.25481
536.741	63.14568
537.213	89.19785
537.686	50.11706
538.158	74.15981
538.631	45.10497
539.103	42.09106
539.575	88.17422
540.047	52.1098
540.519	62.14146
540.991	64.14949
541.463	127.2946
541.934	116.25374
542.406	68.15683
542.877	107.22965
543.348	48.10916
543.82	93.21804
544.291	104.22759
544.762	85.19319
545.233	138.33394
545.703	94.19996
546.174	137.30429
546.645	197.45244
547.115	159.36429
547.585	199.43519
548.056	203.47032
548.526	188.418
548.996	210.47311
549.466	164.37613
549.935	204.46223
550.405	214.44312
550.875	133.29872
551.344	143.32961
551.814	176.37423
552.283	230.4594
552.752	200.43599
553.221	181.36934
553.69	218.45383
554.159	250.58368
554.628	272.55994
555.096	225.53531
555.565	196.40785
556.033	257.55775
556.502	248.55711
556.97	237.48383
557.438	241.53149
557.906	252.55423
558.374	219.46778
558.842	247.55042
559.31	246.50482
559.777	217.49478
560.245	247.53056
560.712	215.45526
561.18	234.47716
561.647	250.51326
562.114	214.45562
562.581	305.69567
563.048	252.52881
563.514	261.59917
563.981	266.55819
564.448	241.50294
564.914	240.5163
565.381	257.53061
565.847	279.598
566.313	228.49154
566.779	326.67654
567.245	276.59655
567.711	313.69401
568.176	288.61156
568.642	262.61769
569.108	230.53002
569.573	210.45546
570.038	288.55709
570.504	293.612
570.969	230.53825
571.434	287.58457
571.899	291.64309
572.363	284.59333
572.828	260.54464
573.293	231.4947
573.757	304.64581
574.222	316.65462
574.686	287.59734
575.15	251.55864
575.614	232.49458
576.078	252.54864
576.542	287.60531
577.006	292.61113
577.469	247.56476
577.933	220.45596
578.396	270.60304
578.86	188.41401
579.323	230.51286
579.786	257.50916
580.249	196.42129
580.712	248.56008
581.175	238.54977
581.637	243.52579
582.1	205.41641
582.563	169.32933
583.025	187.42827
583.487	198.36924
583.95	155.31585
584.412	228.43828
584.874	219.49631
585.336	216.48105
585.797	166.33603
586.259	162.35346
586.721	160.35604
587.182	198.4254
587.643	154.32945
588.105	180.40304
588.566	125.24904
589.027	160.3699
589.488	146.31301
589.949	133.30277
590.41	199.36493
590.87	147.30964
591.331	122.24459
591.791	141.30366
592.252	133.28889
592.712	133.30289
593.172	92.19784
593.632	115.23125
594.092	126.26558
594.552	120.24214
595.011	93.20605
595.471	156.3278
595.931	120.25271
596.39	181.40903
596.849	183.398
597.308	150.30378
597.768	114.27742
598.227	173.39271
598.685	144.30579
599.144	148.32606
599.603	188.41661
600.062	144.28161
600.52	213.44273
600.978	204.45564
601.437	186.39566
601.895	220.42984
602.353	194.39469
602.811	191.39364
603.269	198.44005
603.727	228.50756
604.184	187.39406
604.642	187.42775
605.099	207.44445
605.557	219.49005
606.014	263.51568
606.471	279.6515
606.928	325.65835
607.385	329.74617
607.842	322.67958
608.299	366.76497
608.755	299.65856
609.212	357.71853
609.668	315.63926
610.125	396.84929
610.581	348.72671
611.037	378.76448
611.493	351.73996
611.949	379.82178
612.405	370.66402
612.861	363.75046
613.316	439.93805
613.772	386.79211
614.227	367.77947
614.683	462.85949
615.138	440.92573
615.593	394.80706
616.048	431.85349
616.503	433.94324
616.958	418.93738
617.412	404.85112
617.867	437.86294
618.321	415.72853
618.776	455.87489
619.23	423.88977
619.684	444.86628
620.138	365.73734
620.592	401.86391
621.046	448.91642
621.5	447.95514
621.954	425.83176
622.407	398.778
622.861	352.75657
623.314	425.85146
623.768	359.75184
624.221	423.72739
624.674	362.73447
625.127	401.83236
625.58	339.67162
626.033	379.72453
626.485	388.8246
626.938	356.75264
627.39	352.73343
627.843	344.70465
628.295	376.77403
628.747	342.73033
629.199	319.66009
629.651	260.54078
630.103	361.74332
630.555	293.55007
631.006	289.61355
631.458	290.60936
631.909	280.57589
632.361	267.55918
632.812	295.61973
633.263	299.56992
633.714	260.49329
634.165	215.46978
634.616	249.53739
635.067	236.46745
635.518	255.54491
635.968	318.55836
636.419	277.5326
636.869	234.50448
637.319	279.58353
637.769	302.61162
638.219	261.55677
638.669	264.57794
639.119	266.58871
639.569	278.61834
640.019	316.65198
640.468	248.49421
640.918	273.5955
641.367	274.55796
641.816	342.68406
642.265	308.64147
642.714	299.63007
643.163	310.63012
643.612	346.75935
644.061	315.58846
644.51	290.60183
644.958	329.64632
645.406	322.70043
645.855	293.65103
646.303	316.65989
646.751	347.71256
647.199	331.66037
647.647	416.85636
648.095	330.67475
648.543	385.67302
648.99	432.9169
649.438	400.8338
649.885	422.93701
650.333	410.6676
650.78	392.86209
651.227	419.91314
651.674	424.85279
652.121	321.69633
652.568	347.76106
653.015	365.813
653.461	375.7975
653.908	429.87656
654.354	384.8033
654.801	354.74776
655.247	418.79619
655.693	389.91684
656.139	400.85047
656.585	442.93771
657.031	403.8451
657.477	435.82676
657.922	438.89475
658.368	407.88962
658.813	326.66264
659.259	422.9031
659.704	463.95375
660.149	430.88279
660.594	413.8718
661.039	423.85568
661.484	435.91783
661.929	407.83991
662.373	404.92941
662.818	393.88368
663.262	386.82785
663.707	385.87385
664.151	477.03755
664.595	429.92105
665.039	412.91025
665.483	452.03356
665.927	420.86771
666.371	426.88208
666.814	486.00939
667.258	433.92042
667.701	496.89663
668.145	452.99026
668.588	445.97267
669.031	455.95328
669.474	446.94702
669.917	427.82104
670.36	434.95123
670.803	427.90925
671.245	512.90951
671.688	460.98355
672.13	458.89105
672.573	524.17155
673.015	519.07543
673.457	535.00087
673.899	516.07802
674.341	509.06642
674.783	487.02879
675.225	513.0985
675.666	502.05984
676.108	537.99781
676.549	528.07142
676.991	513.96317
677.432	536.87782
677.873	532.05054
678.314	555.13477
678.755	557.17797
679.196	556.09597
679.637	588.21458
680.078	551.09755
680.518	492.97133
680.959	592.2059
681.399	561.19006
681.839	550.15222
682.28	573.22772
682.72	545.05838
683.16	582.2532
683.6	566.09114
684.039	561.96897
684.479	626.30996
684.919	586.16334
685.358	639.37286
685.798	606.36349
686.237	605.23662
686.676	689.31378
687.115	634.25001
687.554	626.25156
687.993	652.16408
688.432	687.31123
688.871	621.17816
689.309	774.55935
689.748	676.14064
690.186	745.43794
690.625	765.49354
691.063	743.48688
691.501	781.59041
691.939	782.60868
692.377	799.59614
692.815	787.55834
693.253	751.45855
693.69	766.34418
694.128	799.60278
694.565	885.68251
695.003	865.79195
695.44	834.56119
695.877	875.64413
696.314	892.46474
696.751	882.55878
697.188	896.62802
697.625	921.61564
698.061	950.78925
698.498	921.75446
698.934	922.72878
699.371	946.75298
699.807	983.80407
700.243	1045.95939
700.679	981.69155
701.115	1022.81346
701.551	1094.9506
701.987	1100.78873
702.422	1044.88322
702.858	1078.91903
703.294	1064.77447
703.729	1146.121
704.164	1130.0592
704.599	1198.88382
705.035	1114.83893
705.47	1190.18526
705.904	1154.96408
706.339	1197.97277
706.774	1191.01367
707.209	1177.96641
707.643	1260.18771
708.078	1267.2259
708.512	1304.43825
708.946	1262.15673
709.38	1276.13787
709.814	1304.05763
710.248	1303.23605
710.682	1374.31302
711.116	1329.28452
711.549	1335.48968
711.983	1315.10062
712.416	1417.25332
712.85	1368.45715
713.283	1427.31309
713.716	1392.4548
714.149	1416.27788
714.582	1404.12717
715.015	1460.51298
715.448	1384.42802
715.881	1385.95021
716.313	1458.33415
716.746	1497.387
717.178	1446.37089
717.61	1414.54399
718.043	1476.50455
718.475	1499.44423
718.907	1422.47304
719.339	1429.175
719.77	1478.42107
720.202	1443.54977
720.634	1515.52935
721.065	1395.26967
721.497	1510.52572
721.928	1498.53804
722.359	1460.47061
722.79	1454.37622
723.221	1422.47434
723.652	1497.64566
724.083	1417.1236
724.514	1432.14055
724.945	1360.22033
725.375	1494.3211
725.806	1463.45386
726.236	1388.52486
726.666	1451.29346
727.096	1447.41768
727.526	1442.58539
727.956	1481.21522
728.386	1392.33593
728.816	1402.52487
729.246	1521.52294
729.675	1463.51618
730.105	1422.40334
730.534	1425.25588
730.964	1428.47964
731.393	1381.33552
731.822	1466.62995
732.251	1433.57636
732.68	1383.14532
733.109	1387.40367
733.537	1455.38641
733.966	1439.45769
734.395	1409.16576
734.823	1447.11481
735.251	1433.36561
735.68	1421.45903
736.108	1417.49458
736.536	1384.23102
736.964	1374.15657
737.392	1373.39427
737.82	1313.19604
738.247	1381.24673
738.675	1361.19921
739.102	1399.49713
739.53	1346.49243
739.957	1300.4153
740.384	1408.35784
740.811	1412.53523
741.238	1321.25388
741.665	1327.1739
742.092	1321.1664
742.519	1305.35129
742.945	1323.22007
743.372	1335.3593
743.798	1288.40943
744.225	1303.16386
744.651	1259.2773
745.077	1308.33225
745.503	1341.26749
745.929	1266.14287
746.355	1243.17562
746.781	1220.19702
747.207	1319.20016
747.632	1204.1637
748.058	1155.10968
748.483	1188.91745
748.908	1200.18721
749.334	1187.13249
749.759	1164.97904
750.184	1119.96305
750.609	1187.11404
751.033	1149.91629
751.458	1199.91413
751.883	1125.05573
752.307	1152.01621
752.732	1147.18228
753.156	1061.98262
753.58	1107.92169
754.005	1149.20929
754.429	1017.75847
754.853	1051.99384
755.277	1082.91824
755.7	988.88458
756.124	1052.0238
756.548	1040.86931
756.971	1065.94318
757.394	964.95325
757.818	984.0049
758.241	912.81838
758.664	957.92186
759.087	965.66477
759.51	986.89619
759.933	939.76979
760.356	921.86902
760.778	967.88675
761.201	861.61302
761.623	823.5508
762.046	830.49869
762.468	893.66157
762.89	893.73395
763.312	838.60885
763.734	827.59265
764.156	799.59909
764.578	800.42602
765	763.50653
765.421	760.62644
765.843	805.7417
766.264	705.37428
766.686	684.44411
767.107	712.43692
767.528	711.51789
767.949	677.43774
768.37	660.33732
768.791	659.30699
769.212	650.39981
769.632	572.11435
770.053	586.33188
770.473	646.31071
770.894	555.16502
771.314	577.13558
771.734	578.11485
772.154	529.17521
772.575	539.04471
772.994	522.00278
773.414	554.091
773.834	537.16087
774.254	503.04965
774.673	536.10205
775.093	488.0541
775.512	466.00606
775.931	484.08154
776.351	405.87927
776.77	424.91404
777.189	464.94098
777.607	406.92393
778.026	405.89834
778.445	408.91834
778.864	325.74577
779.282	341.71983
779.701	372.83527
780.119	332.74792
780.537	340.75685
780.955	345.78118
781.373	323.7138
781.791	395.77561
782.209	346.70457
782.627	294.71111
783.045	322.65451
783.462	262.6052
783.88	279.66274
784.297	269.61506
784.715	271.64671
785.132	249.54545
785.549	304.69605
785.966	230.52664
786.383	223.50537
786.8	191.40462
787.217	212.45568
787.633	199.45868
788.05	178.37403
788.466	239.50253
788.883	171.40966
789.299	156.34239
789.715	220.49178
790.131	182.41422
790.547	127.28899
790.963	221.50166
791.379	156.36752
791.795	177.3661
792.21	173.36777
792.626	186.40221
793.041	131.29809
793.457	167.37832
793.872	161.34822
794.287	239.53238
794.702	154.34809
795.117	131.30039
795.532	179.42047
795.947	134.29398
796.362	138.29982
796.776	135.27973
797.191	91.20707
797.605	128.28495
798.02	157.3561
798.434	130.26135
798.848	71.16307
799.262	125.29432
799.676	134.2988
800.09	85.19452
800.504	108.24322
800.918	59.12712
801.331	67.16466
801.745	97.20504
802.158	78.18269
802.572	81.18215
802.985	60.13379
803.398	124.27319
803.811	84.20128
804.224	93.21522
804.637	28.06174
805.05	109.23273
805.462	102.23215
805.875	95.23709
806.288	89.20326
806.7	85.20029
807.112	81.17422
807.525	85.19733
807.937	33.07737
808.349	75.17549
808.761	2.0046
809.173	9.02039
809.584	52.11998
809.996	57.13217
810.408	-2.00498
810.819	66.14547
811.231	67.16867
811.642	135.31154
812.053	88.19923
812.464	95.21241
812.875	80.19315
813.286	26.06339
813.697	53.11198
814.108	33.07503
814.519	47.09625
814.929	63.14938
815.34	29.06612
815.75	39.0939
816.16	-18.04194
816.571	82.20089
816.981	56.1212
817.391	79.177
817.801	67.15892
818.211	93.20674
818.62	17.03853
819.03	13.02974
819.44	55.13517
819.849	76.18065
820.259	67.16216
820.668	54.12678
821.077	52.12222
821.486	28.06252
821.895	22.05019
822.304	60.15102
822.713	50.10997
823.122	87.20469
823.531	31.06948
823.939	39.08972
824.348	61.13943
824.756	61.14279
825.164	1.00237
825.573	42.0996
825.981	55.12824
826.389	5.01174
826.797	23.0547
827.205	44.09417
827.612	58.13297
828.02	36.08024
828.428	-9.02177
828.835	25.06298
829.243	59.1305
829.65	30.07084
830.057	112.25512
830.464	35.08141
830.871	45.10028
831.278	12.02709
831.685	-19.03925
832.092	69.15898
832.499	25.05043
832.905	53.12707
833.312	7.01482
833.718	49.11407
834.124	41.08754
834.531	13.03086
834.937	9.02173
835.343	58.13099
835.749	12.02597
836.155	19.04723
836.561	-34.07814
836.966	35.0801
837.372	25.05996
837.777	4.00939
838.183	2.00404
838.588	53.12455
838.993	12.02718
839.399	6.01381
839.804	13.03038
840.209	38.09255
840.613	14.02944
841.018	-63.15156
841.423	-24.05817
841.828	-3.00721
842.232	15.03435
842.637	-38.08354
843.041	35.08665
843.445	24.05628
843.849	32.07472
844.253	10.0221
844.657	18.04344
845.061	14.02977
845.465	72.16639
845.869	17.03675
846.272	45.10286
846.676	27.06161
847.079	15.03658
847.483	24.05628
847.886	27.06042
848.289	49.12661
848.692	-40.09672
849.095	-33.07427
849.498	22.05143
849.901	-12.02556
850.304	-5.01117
850.707	43.10302
851.109	-36.08508
851.512	47.10946
851.914	50.12163
852.316	21.05052
852.718	17.0424
853.121	7.01624
853.523	17.0371
853.925	-12.03006
854.326	46.10993
854.728	7.01714
855.13	18.04459
855.531	55.12521
855.933	34.07607
856.334	20.0475
856.736	-18.03751
857.137	37.0803
857.538	-17.04079
857.939	50.11706
858.34	43.09729
858.741	6.01493
859.142	41.0925
859.542	66.16867
859.943	37.08746
860.343	19.04486
860.744	35.08058
861.144	28.06419
861.544	51.11685
861.945	-16.03859
862.345	-31.0706
862.745	39.09122
863.145	-29.06406
863.544	22.05334
863.944	-8.01772
864.344	-16.03714
864.743	66.15301
865.143	5.01222
865.542	-3.00651
865.941	56.13137
866.34	32.07189
866.74	20.0512
867.139	10.02275
867.537	-1.0024
867.936	11.02506
868.335	74.1782
868.734	71.17262
869.132	70.15195
869.531	14.03174
869.929	66.14095
870.327	-31.07054
870.726	45.10476
871.124	4.00867
871.522	5.01196
871.92	31.07168
872.318	59.13518
872.715	40.09233
873.113	3.00693
873.511	19.04482
873.908	100.24217
874.306	-22.05235
874.703	36.08455
875.1	5.01204
875.497	-14.03149
875.894	55.1289
876.291	54.12514
876.688	6.01469
877.085	49.10893
877.482	-29.06852
877.878	60.13523
878.275	-22.05308
878.671	-25.05043
879.068	71.15875
879.464	66.14906
879.86	46.10313
880.256	-31.07163
880.652	17.04088
881.048	5.01153
881.444	9.01977
881.84	10.02394
882.236	37.08783
882.631	9.0209
883.027	-10.02245
883.422	-15.0365
883.817	31.07464
884.213	53.12847
884.608	41.09564
885.003	6.01369
885.398	-26.06204
885.793	-32.07618
886.188	-13.03117
886.582	-19.04543
886.977	21.04653
887.371	11.02629
887.766	44.10402
888.16	55.12885
888.554	8.01841
888.949	-50.11803
889.343	30.06762
889.737	22.05699
890.131	29.06903
890.525	-3.00727
890.918	80.19009
891.312	4.0088
891.706	62.15504
892.099	-8.01926
892.492	23.04584
892.886	-41.09481
893.279	-1.00242
893.672	58.13946
894.065	23.05403
894.458	17.04029
894.851	34.07663
895.244	6.01459
895.637	47.10604
896.029	6.01384
896.422	0
896.814	26.06106
897.206	9.02045
897.599	3.00682
897.991	10.02287
898.383	-25.05553
898.775	-10.02104
899.167	20.04425
899.559	50.11807
899.951	31.06794
900.342	-11.02606
900.734	26.06244
901.125	8.01976
901.517	54.12479
901.908	23.051
902.299	-8.01862
902.69	20.04427
903.082	62.13957
903.473	64.14454
903.863	62.15049
904.254	-9.01952
904.645	-12.02782
905.036	14.03252
905.426	-14.029
905.817	16.03695
906.207	-31.07051
906.597	16.03522
906.987	-9.02188
907.378	1.00238
907.768	25.06316
908.158	62.1414
908.547	19.0468
908.937	16.03867
909.327	24.05436
909.717	8.019
910.106	29.06527
910.495	90.21038
910.885	-5.01179
911.274	38.08984
911.663	87.20819
912.052	7.01612
912.441	27.0656
912.83	1.00213
913.219	-26.06422
913.608	24.05515
913.997	-47.11269
914.385	9.01989
914.774	-9.02059
915.162	2.00446
915.55	29.06572
915.939	-6.01447
916.327	20.04699
916.715	48.11646
917.103	26.05946
917.491	-10.02302
917.878	-21.04798
918.266	8.01967
918.654	49.11949
919.041	-12.02999
919.429	-2.00446
919.816	-43.10353
920.203	8.0183
920.591	16.03705
920.978	17.03898
921.365	-21.05245
921.752	25.05611
922.139	41.08256
922.525	19.0428
922.912	22.05011
923.299	29.06826
923.685	19.04711
924.072	14.02965
924.458	27.063
924.844	21.04887
925.231	-8.01734
925.617	44.10748
926.003	44.10583
926.389	36.08649
926.774	20.04816
927.16	6.01398
927.546	27.06552
927.931	54.12603
928.317	-67.14324
928.702	47.10222
929.088	8.01786
929.473	7.01692
929.858	7.01631
930.243	19.04315
930.628	-5.01144
931.013	31.07333
931.398	53.1112
931.783	10.02503
932.167	18.04108
932.552	2.00466
932.937	5.01149
933.321	-35.08334
933.705	75.17899
934.09	10.02346
934.474	32.07071
934.858	25.06178
935.242	37.08123
935.626	5.01208
936.009	-14.03562
936.393	36.08728
936.777	48.11694
937.16	-24.05884
937.544	32.06982
937.927	-6.01453
938.311	15.03405
938.694	84.20839
939.077	-25.05608
939.46	69.15822
939.843	4.00753
940.226	4.00968
940.609	13.02766
940.991	-2.00483
941.374	-14.03216
941.757	54.124
942.139	-47.09843
942.522	-47.10348
942.904	47.10569
943.286	-1.00238
943.668	21.05148
944.05	2.00465
944.432	34.07914
944.814	-8.01841
945.196	-5.01169
945.578	29.06548
945.959	34.0744
946.341	-23.05223
946.722	67.14609
947.104	19.0421
947.485	46.09892
947.866	45.10768
948.247	18.04295
948.628	-27.06184
949.009	-32.07866
949.39	-25.05779
949.771	25.05359
950.152	24.05571
950.532	60.14289
950.913	27.06012
951.293	16.04171
951.674	-3.00677
952.054	26.0609
952.434	-47.11019
952.814	-22.04839
953.194	42.10416
953.574	-32.07354
953.954	20.04445
954.334	30.07076
954.714	25.05744
955.093	24.05451
955.473	-29.06842
955.853	-11.02727
956.232	11.02885
956.611	-11.02429
956.99	2.00479
957.37	44.10547
957.749	27.05945
958.128	14.03375
958.506	58.14315
958.885	-25.05971
959.264	-9.02091
959.643	39.08237
960.021	-36.08508
960.4	59.12532
960.778	-2.00455
961.156	-2.00475
961.535	-26.0555
961.913	-66.14309
962.291	38.09341
962.669	-21.05085
963.047	-35.08407
963.424	19.04609
963.802	-16.0368
964.18	33.07785
964.557	21.04412
964.935	3.00663
965.312	19.0473
965.69	18.04216
966.067	-9.02049
966.444	20.04624
966.821	26.06289
967.198	5.01119
967.575	30.06823
967.952	31.06805
968.329	16.03636
968.705	28.05406
969.082	48.11686
969.458	-19.04374
969.835	41.09296
970.211	0
970.587	38.08872
970.963	-14.03407
971.339	38.09482
971.715	-28.06522
972.091	32.07357
972.467	-43.10018
972.843	-20.04714
973.219	28.06164
973.594	-10.02501
973.97	36.07848
974.345	79.17459
974.721	24.05396
975.096	-16.03614
975.471	34.07541
975.846	56.12617
976.221	9.02168
976.596	0
976.971	36.08329
977.346	4.00856
977.72	6.01444
978.095	28.06865
978.469	-3.00674
978.844	28.06597
979.218	-17.03889
979.593	20.04491
979.967	-20.0464
980.341	-7.01495
980.715	33.07767
981.089	-20.04694
981.463	67.14367
981.837	45.10377
982.21	11.02361
982.584	-18.04079
982.957	6.01429
983.331	31.06825
983.704	49.11344
984.078	-29.06735
984.451	-33.076
984.824	21.0485
985.197	40.0903
985.57	-14.03291
985.943	-37.08471
986.316	44.10075
986.688	12.02697
987.061	2.00433
987.434	16.03965
987.806	44.09877
988.179	-1.0022
988.551	8.01901
988.923	-17.03945
989.295	6.01409
989.667	83.1878
990.039	-20.04714
990.411	49.10544
990.783	-9.01926
991.155	21.04815
991.527	22.04953
991.898	-5.01169
992.27	27.0629
992.641	-3.00707
993.012	73.15971
993.384	7.01566
993.755	-26.06278
994.126	34.07654
994.497	-34.07914
994.868	1.00215
995.239	24.05485
995.61	-13.03092
995.98	51.1169
996.351	19.0447
996.722	34.07403
997.092	23.05155
997.462	45.09904
997.833	67.14591
998.203	0
998.573	58.13622
998.943	-30.06543
999.313	16.03617
999.683	-23.05153
1000.053	54.11537
1000.423	37.08399
1000.792	8.01972
1001.162	17.03962
1001.531	82.18897
1001.901	-1.00234
1002.27	70.1443
1002.639	16.03884
1003.009	45.10116
1003.378	12.02912
1003.747	-4.00882
1004.116	-12.02726
1004.485	13.02932
1004.853	21.05021
1005.222	51.122
1005.591	68.14774
1005.959	41.08682
1006.328	-43.09061
1006.696	19.04334
1007.064	-5.01193
1007.433	11.02608
1007.801	28.06378
1008.169	8.01892
1008.537	82.1663
1008.905	35.07622
1009.273	75.17184
1009.64	15.03377
1010.008	20.0444
1010.375	23.0521
1010.743	49.10167
1011.11	8.0178
1011.478	21.04869
1011.845	-12.026
1012.212	7.01457
1012.579	32.07386
1012.946	8.0175
1013.313	104.22605
1013.68	12.02479
1014.047	33.07467
1014.414	4.00896
1014.78	67.15702
1015.147	-13.02911
1015.513	26.05966
1015.88	-23.05506
1016.246	18.04186
1016.612	21.04408
1016.978	-8.01841
1017.344	64.14931
1017.71	-85.19358
1018.076	17.03726
1018.442	26.0628
1018.808	30.0706
1019.174	-21.04968
1019.539	14.02894
1019.905	28.06205
1020.27	47.10972
1020.636	32.07133
1021.001	-3.00669
1021.366	21.04823
1021.731	41.0998
1022.096	32.07685
1022.461	-16.03513
1022.826	24.05336
1023.191	0
1023.556	-5.0108
1023.92	-27.06204
1024.285	14.03189
1024.649	25.05746
1025.014	33.07643
1025.378	34.08135
1025.742	-19.04463
1026.107	-28.05847
1026.471	13.02758
1026.835	-13.03011
1027.199	-8.01827
1027.562	35.07606
1027.926	30.06831
1028.29	35.08363
1028.654	-36.07695
1029.017	89.20334
1029.381	-10.02262
1029.744	34.08234
1030.107	31.06679
1030.471	-2.00447
1030.834	-2.00415
1031.197	-22.04908
1031.56	79.17401
1031.923	0
1032.286	40.08639
1032.648	54.11877
1033.011	39.0832
1033.374	15.03232
1033.736	-35.08814
1034.099	-10.02315
1034.461	-3.00726
1034.823	-22.05167
1035.185	-21.04933
1035.548	46.10406
1035.91	39.08781
1036.272	23.04862
1036.634	-11.02499
1036.995	10.02222
1037.357	4.00919
1037.719	13.02961
1038.08	-25.05474
1038.442	74.16611
1038.803	-12.02688
1039.165	-9.02158
1039.526	-36.08247
1039.887	49.10988
1040.248	37.08749
1040.609	11.0255
1040.97	-33.07631
1041.331	-47.11144
1041.692	24.05276
1042.053	17.03548
1042.413	23.04913
1042.774	-3.00682
1043.134	1.0022
1043.495	15.03522
1043.855	22.05001
1044.215	3.00699
1044.576	-8.01816
1044.936	84.17736
1045.296	23.05356
1045.656	55.12556
1046.016	-6.01341
1046.375	45.10277
1046.735	36.07665
1047.095	13.02845
1047.454	18.03487
1047.814	-7.01568
1048.173	-19.0418
1048.533	35.07479
1048.892	28.06344
1049.251	20.04723
1049.61	-24.05522
1049.969	77.16882
1050.328	-7.01382
1050.687	21.04773
1051.046	50.11449
1051.405	-43.10022
1051.763	8.01726
1052.122	20.04752
1052.48	-7.01606
1052.839	17.03741
1053.197	30.06584
1053.555	-83.17206
1053.914	7.016
1054.272	16.03603
1054.63	-47.10846
1054.988	-10.02226
1055.345	-36.07114
1055.703	-4.00894
1056.061	27.06565
1056.419	27.06646
1056.776	3.00679
1057.134	11.02364
1057.491	-10.02361
1057.848	17.03948
1058.206	-7.01539
1058.563	69.14067
1058.92	57.11943
1059.277	-22.0503
1059.634	1.00215
1059.991	104.22989
1060.348	12.02548
1060.704	-17.03828
1061.061	-13.02752
1061.418	23.05263
1061.774	41.09624
1062.131	63.16087
1062.487	-19.04134
1062.843	29.06772
1063.199	9.02124
1063.555	34.07381
1063.911	6.01424
1064.267	-43.08068
1064.623	22.05072
1064.979	-48.10429
1065.335	5.01097
1065.691	-5.01138
1066.046	38.07583
1066.402	-12.02544
1066.757	27.06422
1067.112	-49.11276
1067.468	26.05841
1067.823	24.05409
1068.178	65.14683
1068.533	0
1068.888	-16.03549
1069.243	17.03965
1069.598	-55.12475
1069.952	13.02778
1070.307	53.12489
1070.662	11.02454
1071.016	-7.0148
1071.371	-3.00633
1071.725	15.03251
1072.079	-1.00225
1072.434	-42.0966
1072.788	47.10483
1073.142	97.2226
1073.496	33.07296
1073.85	8.01724
1074.203	23.05191
1074.557	24.0611
1074.911	17.03735
1075.265	21.04472
1075.618	61.13898
1075.971	-17.03778
1076.325	-16.03866
1076.678	20.04251
1077.031	10.02096
1077.385	73.14781
1077.738	14.02943
1078.091	0
1078.444	29.06143
1078.796	-5.01166
1079.149	-11.02547
1079.502	15.03321
1079.855	10.0219
1080.207	-9.02084
1080.56	-14.03439
1080.912	-8.01801
1081.264	18.0405
1081.617	8.01838
1081.969	73.17555
1082.321	36.0822
1082.673	-13.02819
1083.025	-43.09543
1083.377	-251.51636
1083.728	-33.07073
1084.08	-1.00237
1084.432	-52.116
1084.783	59.12908
1085.135	7.01683
1085.486	11.02368
1085.838	69.15797
1086.189	19.04317
1086.54	65.14347
1086.891	36.08695
1087.242	-8.01818
1087.593	-18.04089
1087.944	9.01883
1088.295	20.04153
1088.646	3.00685
1088.996	-33.07503
1089.347	4.00916
1089.698	58.12848
1090.048	-22.05396
1090.398	64.13757
1090.749	37.08269
1091.099	20.04798
1091.449	-23.05384
1091.799	17.03993
1092.149	11.02589
1092.499	-1.00231
1092.849	30.07194
1093.199	34.07935
1093.548	48.1081
1093.898	-22.05237
1094.248	14.03398
1094.597	15.03684
1094.947	-16.04073
1095.296	-14.03248
1095.645	-10.02461
1095.994	76.16975
1096.343	53.12644
1096.692	49.12304
1097.041	6.01567
1097.39	-16.03786
1097.739	12.02972
1098.088	23.05776
1098.437	-22.05561
1098.785	11.02809
1099.134	0
1099.482	21.0546
1099.83	-6.01494
1100.179	60.14983
1100.527	2.00502
1100.875	-41.10406
1101.223	-4.01023
1101.571	-19.05083
1101.919	-31.07843
1102.267	18.04929
1102.615	13.04173
1102.962	8.02565
1103.31	12.0385
1103.658	1.0032
