Data from N3 R7 sample 11_Subt2__4__16-58-33-905.txt Node

Date: Fri Sep 19 16:58:33 PDT 2025
User: uwsun
Spectrometer: HDX01956
Trigger mode: 0
Integration Time (sec): 5.000000E-1
Scans to average: 1
Nonlinearity correction enabled: true
Boxcar width: 0
Storing dark spectrum: false
XAxis mode: Wavelengths
Number of Pixels in Spectrum: 2068
>>>>>Begin Spectral Data<<<<<
194.03	60.17272
194.578	75.24184
195.127	75.23859
195.676	51.16256
196.225	85.22145
196.773	92.25336
197.321	140.38249
197.87	223.5557
198.418	222.55893
198.966	219.56172
199.513	206.51176
200.061	180.44587
200.609	206.5281
201.156	158.33229
201.704	176.43117
202.251	197.509
202.798	211.53494
203.345	214.51295
203.892	182.4467
204.438	267.61049
204.985	199.46069
205.532	276.71443
206.078	215.51172
206.624	209.50259
207.17	198.44443
207.716	137.32382
208.262	203.38298
208.808	237.57013
209.354	181.42931
209.899	195.47568
210.445	231.56096
210.99	197.46329
211.535	243.54711
212.08	219.48904
212.625	189.4595
213.17	220.53695
213.715	213.46344
214.259	230.51838
214.804	186.4433
215.348	164.36449
215.892	242.56012
216.436	245.54619
216.98	207.43563
217.524	188.43082
218.068	261.62905
218.612	188.45475
219.155	213.48213
219.698	186.42435
220.242	169.40795
220.785	194.43867
221.328	242.5794
221.871	209.50983
222.414	171.407
222.956	205.47928
223.499	209.45029
224.041	160.35501
224.583	212.43289
225.126	229.48999
225.668	199.46745
226.21	196.47589
226.751	145.30341
227.293	196.4251
227.835	167.39335
228.376	185.40595
228.918	221.53467
229.459	227.55001
230	201.45941
230.541	181.39851
231.082	163.38349
231.622	171.38028
232.163	252.58835
232.704	162.38862
233.244	190.45456
233.784	209.48653
234.324	187.40099
234.864	187.40497
235.404	169.38363
235.944	155.35185
236.484	183.43523
237.023	189.43181
237.563	187.415
238.102	192.43557
238.641	232.56645
239.18	186.4223
239.719	213.51823
240.258	173.37145
240.797	216.49796
241.335	182.42309
241.874	212.38965
242.412	197.4528
242.95	227.52425
243.488	244.52897
244.026	209.46305
244.564	227.44088
245.102	243.51814
245.64	248.56602
246.177	161.34539
246.715	198.45027
247.252	186.40496
247.789	124.21165
248.326	154.35489
248.863	210.43601
249.4	212.46587
249.936	240.46357
250.473	192.43167
251.009	255.55977
251.546	230.48393
252.082	230.48308
252.618	228.48775
253.154	243.55606
253.69	176.37977
254.226	215.48903
254.761	216.45507
255.297	185.39019
255.832	186.42093
256.367	220.49178
256.903	189.39425
257.438	236.52057
257.972	213.44747
258.507	267.5866
259.042	161.32853
259.576	200.41339
260.111	204.44848
260.645	281.57234
261.179	186.41424
261.713	187.39562
262.247	204.45564
262.781	263.52275
263.315	211.4964
263.849	216.51834
264.382	214.46592
264.915	267.59671
265.449	192.45355
265.982	206.44126
266.515	236.5497
267.048	206.41815
267.58	195.39899
268.113	194.40459
268.646	209.5003
269.178	226.48096
269.71	181.37639
270.243	240.51919
270.775	224.54733
271.307	184.41928
271.838	185.41858
272.37	258.60637
272.902	258.55884
273.433	202.41828
273.965	265.62027
274.496	205.4836
275.027	225.53119
275.558	206.47869
276.089	249.5974
276.62	200.48705
277.15	215.5066
277.681	182.37062
278.211	216.50232
278.741	282.59098
279.272	228.49661
279.802	243.58101
280.332	246.55285
280.861	245.56109
281.391	214.46117
281.921	184.4203
282.45	264.63567
282.98	259.64727
283.509	242.51545
284.038	166.35804
284.567	208.45478
285.096	256.58946
285.625	249.54476
286.153	200.44837
286.682	223.48231
287.21	253.57825
287.739	218.48852
288.267	233.54217
288.795	264.66036
289.323	273.61339
289.851	252.55703
290.378	215.46163
290.906	238.55501
291.433	178.42992
291.961	227.48613
292.488	255.60551
293.015	283.63612
293.542	264.63447
294.069	262.61241
294.596	301.70204
295.122	278.62885
295.649	283.59321
296.175	240.54644
296.702	242.55277
297.228	187.43016
297.754	282.59438
298.28	307.65091
298.806	257.59211
299.332	260.54416
299.857	223.47819
300.383	280.66576
300.908	272.63404
301.433	266.61834
301.958	246.52921
302.483	315.75342
303.008	240.56187
303.533	228.55938
304.058	299.66022
304.582	234.52976
305.107	277.69475
305.631	234.50296
306.155	295.65547
306.679	273.6071
307.203	333.72513
307.727	268.60796
308.251	311.7225
308.775	262.59025
309.298	304.69437
309.822	309.73625
310.345	309.68942
310.868	313.70383
311.391	345.79324
311.914	317.75212
312.437	342.71861
312.96	329.7307
313.482	340.75811
314.005	305.72505
314.527	318.79396
315.049	296.70406
315.571	368.77937
316.093	384.89258
316.615	382.86476
317.137	335.67208
317.659	320.72148
318.18	359.81089
318.702	375.81207
319.223	366.69171
319.744	433.89356
320.265	366.83326
320.786	351.81702
321.307	369.86398
321.828	417.876
322.348	426.92937
322.869	355.76942
323.389	259.45726
323.909	455.95455
324.43	395.8747
324.95	375.8027
325.47	447.01616
325.989	436.96608
326.509	439.88886
327.029	436.90157
327.548	409.85389
328.067	418.93199
328.587	461.05734
329.106	402.84095
329.625	459.08966
330.144	446.93216
330.662	459.97398
331.181	457.982
331.7	424.91326
332.218	530.03679
332.736	452.96018
333.255	521.09209
333.773	529.13184
334.291	484.0891
334.808	460.92563
335.326	557.12343
335.844	554.16982
336.361	540.2376
336.879	516.08469
337.396	505.09112
337.913	524.07685
338.43	551.12047
338.947	562.20126
339.464	582.09893
339.981	520.1219
340.497	570.26564
341.014	524.14407
341.53	572.16246
342.046	635.3859
342.562	616.36507
343.078	615.2747
343.594	654.38311
344.11	678.40327
344.626	687.53108
345.141	662.32976
345.657	634.24122
346.172	676.4166
346.687	671.3488
347.202	650.2744
347.717	649.36624
348.232	699.53536
348.747	724.43243
349.261	723.3854
349.776	724.45716
350.29	693.50942
350.805	684.46618
351.319	747.49765
351.833	709.40173
352.347	710.41715
352.861	762.52108
353.374	766.48525
353.888	712.4803
354.401	813.5709
354.915	756.45676
355.428	804.71845
355.941	820.61961
356.454	824.54396
356.967	846.68742
357.48	795.5368
357.993	795.66954
358.505	800.69368
359.018	852.7324
359.53	793.61999
360.042	802.465
360.554	836.69752
361.066	827.69715
361.578	902.6232
362.09	915.80455
362.602	862.57087
363.113	827.57893
363.625	960.77015
364.136	934.66035
364.647	865.6819
365.158	976.85357
365.669	937.88511
366.18	880.67421
366.691	915.64539
367.201	954.85037
367.712	892.64124
368.222	1034.92019
368.733	992.73827
369.243	932.64567
369.753	977.8083
370.263	979.87504
370.773	1066.1174
371.282	1015.93383
371.792	1065.91485
372.301	1147.17807
372.811	1183.43
373.32	1113.80441
373.829	1181.17354
374.338	1143.95102
374.847	1202.08217
375.356	1344.39058
375.865	1359.05777
376.373	1440.32328
376.882	1381.60602
377.39	1488.579
377.898	1503.69594
378.407	1555.36184
378.915	1632.29983
379.423	1691.68726
379.93	1781.57064
380.438	1842.94894
380.946	1920.81294
381.453	1939.92264
381.96	2034.93309
382.468	2238.04892
382.975	2345.24892
383.482	2410.82615
383.989	2495.539
384.495	2559.97511
385.002	2695.52337
385.509	2829.02909
386.015	2985.29923
386.521	3076.74331
387.028	3295.78331
387.534	3384.45636
388.04	3453.95937
388.546	3598.50317
389.051	3763.35805
389.557	4066.55709
390.063	4415.3684
390.568	4390.50923
391.073	4671.99302
391.578	4730.36008
392.084	4914.6874
392.589	5144.49139
393.093	5578.65206
393.598	6067.2443
394.103	6625.38778
394.607	7237.41686
395.112	7700.78395
395.616	8203.14914
396.12	8884.131
396.624	9842.52545
397.128	10574.02576
397.632	11783.08692
398.136	12825.83487
398.639	13665.03015
399.143	15205.59715
399.646	17178.41435
400.15	19036.53015
400.653	21142.15122
401.156	23674.94419
401.659	27422.03426
402.162	33765.21558
402.664	45144.03182
403.167	60238.41527
403.67	60615.75294
404.172	55487.84425
404.674	37291.05854
405.176	4428.40989
405.678	533.47942
406.18	0
406.682	0
407.184	6962.89417
407.686	50953.82939
408.187	59237.6763
408.688	61091.12691
409.19	61923.45898
409.691	62441.93235
410.192	54407.439
410.693	46956.24558
411.194	42234.85017
411.694	40050.59582
412.195	37238.78186
412.696	33721.89044
413.196	31432.48006
413.696	30520.04281
414.196	31092.47899
414.696	30325.71281
415.196	28657.58482
415.696	26077.44163
416.196	21245.85774
416.695	16169.36924
417.195	14108.839
417.694	13376.90313
418.194	12511.78994
418.693	11661.54156
419.192	11374.68519
419.691	11145.55947
420.19	10805.99363
420.688	10382.18002
421.187	10095.81632
421.685	9478.48773
422.184	8606.65326
422.682	7421.21734
423.18	6245.25304
423.678	5584.43515
424.176	5228.63345
424.674	4806.61194
425.172	4595.16419
425.669	4404.66796
426.167	4164.34255
426.664	3787.45176
427.161	3418.60931
427.659	3224.14015
428.156	3089.34915
428.652	2831.36117
429.149	2754.11936
429.646	2571.57623
430.143	2441.02542
430.639	2296.91388
431.135	2168.062
431.632	2018.64225
432.128	1901.82744
432.624	1803.96577
433.12	1834.57499
433.616	1738.33272
434.111	1622.58163
434.607	1572.53381
435.103	1554.05582
435.598	1557.04013
436.093	1409.27098
436.588	1382.15928
437.083	1348.12759
437.578	1198.99892
438.073	1173.18994
438.568	1154.12422
439.062	1092.72715
439.557	1049.87447
440.051	1084.85638
440.546	1001.77472
441.04	999.8335
441.534	999.01484
442.028	959.81549
442.522	1009.90011
443.015	908.55411
443.509	934.83475
444.002	866.72736
444.496	758.32106
444.989	891.77359
445.482	824.67769
445.975	809.50499
446.468	798.38217
446.961	828.39561
447.454	737.34908
447.947	810.59984
448.439	786.59879
448.931	760.40982
449.424	756.56142
449.916	746.48428
450.408	743.4135
450.9	681.39346
451.392	686.47995
451.884	641.2215
452.375	688.43225
452.867	662.24724
453.358	578.10791
453.849	667.16977
454.341	684.28814
454.832	612.11336
455.323	631.31781
455.814	601.16679
456.304	645.24582
456.795	573.10651
457.285	622.14936
457.776	587.11083
458.266	589.21203
458.756	476.99309
459.247	546.11912
459.737	595.23154
460.226	532.03235
460.716	575.18849
461.206	444.93209
461.695	532.17136
462.185	492.02234
462.674	485.96133
463.163	488.92909
463.653	500.90894
464.142	461.97524
464.63	500.06761
465.119	523.06102
465.608	405.82603
466.096	466.88849
466.585	444.88808
467.073	442.92503
467.561	500.07084
468.05	406.82976
468.538	470.0329
469.026	440.94202
469.513	425.78612
470.001	352.71647
470.489	424.89129
470.976	427.87248
471.463	452.00991
471.951	391.88027
472.438	379.80249
472.925	344.71931
473.412	361.79176
473.899	349.72605
474.385	335.74804
474.872	339.71247
475.359	351.77729
475.845	330.61297
476.331	282.55045
476.817	286.63217
477.303	323.68034
477.789	251.55771
478.275	270.62094
478.761	337.7329
479.247	296.59837
479.732	258.60093
480.218	238.57763
480.703	322.74258
481.188	260.5063
481.673	260.55018
482.158	265.52182
482.643	251.59211
483.128	209.44081
483.612	211.45636
484.097	260.58646
484.581	200.42526
485.066	213.47997
485.55	226.45372
486.034	259.52057
486.518	223.4885
487.002	217.49677
487.486	206.47112
487.969	205.4759
488.453	226.5349
488.936	224.46549
489.42	239.48879
489.903	219.51603
490.386	242.47933
490.869	219.43205
491.352	154.35291
491.835	210.39473
492.318	216.45647
492.8	137.26329
493.283	178.43089
493.765	175.40835
494.247	174.37706
494.73	202.4149
495.212	167.37786
495.694	145.32059
496.175	131.29604
496.657	239.53348
497.139	116.17973
497.62	173.38984
498.102	184.43264
498.583	72.17114
499.064	189.4002
499.545	139.29922
500.026	156.32852
500.507	94.20579
500.988	120.28106
501.469	117.27773
501.949	137.31767
502.43	82.18633
502.91	138.26706
503.39	141.33418
503.87	132.29581
504.35	110.24366
504.83	147.30378
505.31	125.28984
505.79	64.14749
506.269	89.19719
506.749	111.24059
507.228	63.14237
507.707	133.27818
508.187	106.23891
508.666	56.13193
509.145	82.18353
509.623	103.2302
510.102	117.26871
510.581	75.17184
511.059	133.32105
511.538	87.21539
512.016	165.3747
512.494	67.15499
512.972	106.24291
513.45	70.15822
513.928	134.30967
514.406	118.27789
514.884	135.33594
515.361	100.23174
515.839	70.15254
516.316	81.18566
516.793	53.12924
517.27	101.23549
517.747	78.19343
518.224	84.18498
518.701	133.2815
519.178	122.29489
519.654	69.15409
520.131	28.06656
520.607	120.2837
521.083	124.27101
521.56	12.02744
522.036	78.1647
522.512	64.15195
522.987	100.23045
523.463	85.19491
523.939	65.15352
524.414	112.24406
524.89	74.1674
525.365	119.25925
525.84	146.33901
526.315	37.08576
526.79	69.14815
527.265	65.14059
527.74	64.15013
528.215	98.22196
528.689	126.26896
529.164	30.06162
529.638	80.19875
530.112	93.21325
530.587	142.29048
531.061	72.16837
531.534	45.10472
532.008	111.25657
532.482	64.1381
532.956	95.23692
533.429	21.0481
533.903	83.17375
534.376	123.25692
534.849	116.25749
535.322	41.09371
535.795	79.18565
536.268	73.17034
536.741	51.11821
537.213	134.29509
537.686	62.14482
538.158	68.14705
538.631	76.17619
539.103	95.20363
539.575	73.14503
540.047	89.1864
540.519	63.14371
540.991	91.21143
541.463	112.26058
541.934	99.21733
542.406	108.2471
542.877	96.20653
543.348	24.05485
543.82	101.23642
544.291	52.11504
544.762	91.20657
545.233	103.25089
545.703	94.19996
546.174	119.2653
546.645	140.3252
547.115	135.3108
547.585	173.38041
548.056	119.2803
548.526	98.22196
548.996	107.24614
549.466	113.26181
549.935	182.41422
550.405	154.32317
550.875	108.24382
551.344	174.39858
551.814	109.23515
552.283	148.30124
552.752	103.22916
553.221	163.33397
553.69	174.36578
554.159	246.57479
554.628	183.38428
555.096	165.39709
555.565	155.32548
556.033	160.35442
556.502	190.43191
556.97	191.39399
557.438	193.42992
557.906	225.49766
558.374	148.32099
558.842	185.41756
559.31	167.34882
559.777	159.36678
560.245	144.31618
560.712	110.23827
561.18	154.31974
561.647	120.2536
562.114	160.34465
562.581	181.42318
563.048	154.33016
563.514	146.34289
563.981	132.28519
564.448	212.44527
564.914	176.38384
565.381	142.30075
565.847	207.45058
566.313	179.38997
566.779	214.45522
567.245	172.38004
567.711	178.40578
568.176	260.55547
568.642	181.43345
569.108	174.40545
569.573	137.30176
570.038	235.46034
570.504	259.54506
570.969	174.41167
571.434	228.47063
571.899	241.53817
572.363	219.46413
572.828	225.47497
573.293	262.55732
573.757	206.44698
574.222	255.53546
574.686	223.47075
575.15	239.53326
575.614	232.49458
576.078	184.40639
576.542	233.49725
577.006	279.5856
577.469	220.50576
577.933	195.4064
578.396	237.53295
578.86	229.49995
579.323	229.51074
579.786	200.40152
580.249	196.42129
580.712	230.52134
581.175	209.48557
581.637	205.44718
582.1	226.45686
582.563	157.30682
583.025	197.45027
583.487	180.33717
583.95	205.41298
584.412	173.33696
584.874	148.34025
585.336	145.32768
585.797	183.369
586.259	157.34291
586.721	175.38821
587.182	150.32561
587.643	184.39107
588.105	215.47793
588.566	205.40081
589.027	178.41003
589.488	156.33372
589.949	151.34249
590.41	202.37015
590.87	147.30964
591.331	175.34654
591.791	113.24482
592.252	187.40151
592.712	167.3777
593.172	165.34923
593.632	111.22341
594.092	141.29621
594.552	206.40745
595.011	178.38738
595.471	198.4122
595.931	189.39197
596.39	206.46315
596.849	175.38125
597.308	206.41185
597.768	173.41634
598.227	223.50106
598.685	209.43752
599.144	178.38968
599.603	237.51982
600.062	187.36198
600.52	200.41692
600.978	252.55726
601.437	264.55204
601.895	213.41685
602.353	162.33199
602.811	295.59375
603.269	286.62398
603.727	243.53927
604.184	288.59341
604.642	276.62
605.099	247.52576
605.557	217.48578
606.014	317.61363
606.471	334.77148
606.928	380.76007
607.385	366.82383
607.842	388.807
608.299	411.85045
608.755	378.81874
609.212	379.75895
609.668	376.75242
610.125	422.89997
610.581	332.69576
611.037	396.79758
611.493	388.81131
611.949	353.76965
612.405	483.84173
612.861	405.8294
613.316	414.88942
613.772	538.0644
614.227	457.95155
614.683	462.85949
615.138	481.00099
615.593	443.89737
616.048	438.86593
616.503	491.05448
616.958	426.95374
617.412	450.93844
617.867	507.98474
618.321	480.82833
618.776	494.94097
619.23	476.98956
619.684	449.87499
620.138	477.93884
620.592	416.89334
621.046	439.89984
621.5	450.96092
621.954	460.89281
622.407	469.90138
622.861	404.8586
623.314	474.93886
623.768	447.9179
624.221	458.78024
624.674	373.75489
625.127	452.92754
625.58	378.74205
626.033	482.89849
626.485	399.84594
626.938	448.92804
627.39	446.90985
627.843	430.86367
628.295	431.87626
628.747	466.96835
629.199	467.9343
629.651	493.97216
630.103	472.94759
630.555	389.71304
631.006	466.95108
631.458	409.83684
631.909	422.84017
632.361	397.8075
632.812	406.83202
633.263	446.81982
633.714	427.77719
634.165	418.87403
634.616	434.89945
635.067	462.86675
635.518	402.83164
635.968	499.83478
636.419	489.89233
636.869	451.92695
637.319	490.97691
637.769	482.93596
638.219	487.98785
638.669	484.00836
639.119	517.08226
639.569	540.13373
640.019	546.06663
640.468	479.90331
640.918	529.08934
641.367	539.02977
641.816	531.01397
642.265	571.11794
642.714	608.19248
643.163	568.08503
643.612	575.19911
644.061	566.99193
644.51	584.13076
644.958	619.13154
645.406	647.30826
645.855	597.24065
646.303	638.23551
646.751	688.30266
647.199	646.19321
647.647	703.3522
648.095	631.20067
648.543	737.1689
648.99	689.37867
649.438	765.4639
649.885	750.5497
650.333	764.12102
650.78	856.69713
651.227	804.60726
651.674	778.43611
652.121	776.51827
652.568	832.63644
653.015	735.50952
653.461	831.59041
653.908	831.54217
654.354	816.54247
654.801	764.46727
655.247	877.48446
655.693	808.74634
656.139	921.73496
656.585	895.7098
657.031	897.67481
657.477	947.57652
657.922	970.7423
658.368	920.79111
658.813	937.63949
659.259	950.79974
659.704	979.78232
660.149	998.78631
660.594	1005.84546
661.039	1018.7793
661.484	1081.95757
661.929	1033.83255
662.373	1101.17542
662.818	1061.05529
663.262	1069.95442
663.707	1097.12619
664.151	1169.17174
664.595	1135.06471
665.039	1183.19024
665.483	1222.36287
665.927	1201.04815
666.371	1241.10316
666.814	1261.1728
667.258	1316.26146
667.701	1326.90106
668.145	1373.42426
668.588	1328.36079
669.031	1388.31283
669.474	1409.36783
669.917	1386.06121
670.36	1395.43917
670.803	1496.45213
671.245	1555.04018
671.688	1554.54374
672.13	1490.20158
672.573	1581.77196
673.015	1561.49697
673.457	1654.27016
673.899	1659.60765
674.341	1663.61549
674.783	1712.66815
675.225	1646.67786
675.666	1714.67896
676.108	1837.35428
676.549	1796.622
676.991	1820.35956
677.432	1865.98857
677.873	1928.61019
678.314	1995.79616
678.755	1941.89652
679.196	1979.65075
679.637	1981.85602
680.078	2057.72407
680.518	2021.61574
680.959	2030.83301
681.399	2119.01794
681.839	2206.99686
682.28	2199.11361
682.72	2178.66971
683.16	2274.18018
683.6	2329.7042
684.039	2352.2779
684.479	2339.11936
684.919	2400.86424
685.358	2503.3142
685.798	2482.50818
686.237	2476.03212
686.676	2615.82807
687.115	2589.91747
687.554	2643.98004
687.993	2703.50803
688.432	2776.83634
688.871	2788.73564
689.309	2868.19928
689.748	2892.27876
690.186	2997.94444
690.625	3015.02399
691.063	3011.1253
691.501	3110.25735
691.939	3238.30078
692.377	3174.16781
692.815	3241.09427
693.253	3349.92069
693.69	3429.40351
694.128	3412.14551
694.565	3487.93889
695.003	3587.37937
695.44	3508.7838
695.877	3709.78458
696.314	3630.17058
696.751	3752.4542
697.188	3861.56723
697.625	3890.40421
698.061	3954.79549
698.498	4099.75272
698.934	4033.69491
699.371	4197.58007
699.807	4256.54667
700.243	4368.69869
700.679	4378.14217
701.115	4375.35109
701.551	4509.4041
701.987	4557.90781
702.422	4555.37277
702.858	4755.2342
703.294	4827.83069
703.729	4894.47985
704.164	5102.24806
704.599	4995.63206
705.035	5026.73618
705.47	5219.31448
705.904	5254.82144
706.339	5346.66996
706.774	5480.72568
707.209	5476.64628
707.643	5660.87148
708.078	5679.93532
708.512	5761.30602
708.946	5836.71505
709.38	5909.60644
709.814	6073.31331
710.248	6095.69431
710.682	6334.6247
711.116	6251.68936
711.549	6273.12444
711.983	6458.30194
712.416	6479.39769
712.85	6708.86856
713.283	6671.4733
713.716	6858.79978
714.149	6899.43765
714.582	7053.24434
715.015	6932.76949
715.448	6962.76848
715.881	7206.07808
716.313	7191.51897
716.746	7440.63415
717.178	7502.70891
717.61	7649.08265
718.043	7640.92194
718.475	7801.91449
718.907	7844.08003
719.339	7940.81142
719.77	8119.17955
720.202	8080.32676
720.634	8320.45944
721.065	8357.3837
721.497	8474.64432
721.928	8381.55245
722.359	8613.82681
722.79	8680.86775
723.221	8681.95607
723.652	8965.4531
724.083	8963.29308
724.514	9007.38326
724.945	9068.52742
725.375	9129.64795
725.806	9170.76188
726.236	9316.10054
726.666	9367.17497
727.096	9577.67038
727.526	9690.93982
727.956	10015.02058
728.386	9984.78943
728.816	10080.99251
729.246	10104.12194
729.675	10199.38962
730.105	10345.91791
730.534	10351.07561
730.964	10406.06636
731.393	10503.49386
731.822	10804.40682
732.251	10773.30478
732.68	10937.50408
733.109	10978.26933
733.537	11091.89379
733.966	11167.08613
734.395	11397.67704
734.823	11434.05666
735.251	11532.97193
735.68	11649.33659
736.108	11724.63612
736.536	11681.93474
736.964	11810.80242
737.392	11850.40853
737.82	12068.97827
738.247	12048.9222
738.675	12218.00506
739.102	12248.44496
739.53	12421.30228
739.957	12170.8972
740.384	12575.88955
740.811	12615.6031
741.238	12686.64439
741.665	12737.30029
742.092	12682.93913
742.519	12779.84677
742.945	12745.16487
743.372	12864.50937
743.798	12963.78867
744.225	12916.47229
744.651	12937.9723
745.077	13004.44737
745.503	13050.16609
745.929	13112.7865
746.355	13067.20548
746.781	13008.58612
747.207	12934.52267
747.632	12910.96688
748.058	12912.94441
748.483	13144.66897
748.908	13290.5342
749.334	13430.75778
749.759	13108.97488
750.184	13136.99223
750.609	13015.81387
751.033	13189.7937
751.458	13291.8585
751.883	13094.27339
752.307	13146.99985
752.732	12876.35149
753.156	12993.5089
753.58	12865.18589
754.005	12773.57848
754.429	12753.66026
754.853	12717.53415
755.277	12644.5654
755.7	12433.81194
756.124	12556.37803
756.548	12432.17072
756.971	12467.22292
757.394	12456.51761
757.818	12187.86875
758.241	12159.98537
758.664	12160.86618
759.087	12008.03933
759.51	12022.3386
759.933	11691.75318
760.356	11731.54841
760.778	11692.51544
761.201	11456.69973
761.623	11183.40969
762.046	11194.66311
762.468	11180.3747
762.89	11139.99943
763.312	10910.11201
763.734	10951.2833
764.156	10843.71897
764.578	10457.6023
765	10444.279
765.421	10320.69461
765.843	10161.18433
766.264	9924.64121
766.686	9803.22807
767.107	9760.13708
767.528	9699.96197
767.949	9500.48904
768.37	9394.23519
768.791	9171.74574
769.212	8961.44566
769.632	8862.11815
770.053	8856.37556
770.473	8720.95269
770.894	8484.64728
771.314	8290.26718
771.734	8211.12936
772.154	8035.3564
772.575	8126.022
772.994	8002.86021
773.414	7850.80499
773.834	7799.08583
774.254	7522.75518
774.673	7354.65108
775.093	7271.80629
775.512	7206.76522
775.931	7062.95202
776.351	6931.67862
776.77	6836.65931
777.189	6635.38964
777.607	6601.98243
778.026	6409.85623
778.445	6340.97356
778.864	6298.0026
779.282	6112.55073
779.701	5954.043
780.119	5806.07295
780.537	5709.04629
780.955	5584.23464
781.373	5435.10789
781.791	5482.4525
782.209	5345.66235
782.627	5221.86482
783.045	5092.75182
783.462	4953.60395
783.88	4827.91784
784.297	4778.63745
784.715	4770.97425
785.132	4641.38164
785.549	4417.89779
785.966	4399.79853
786.383	4241.7962
786.8	4243.30072
787.217	4080.5061
787.633	3901.03957
788.05	3861.42581
788.466	3811.53358
788.883	3755.33361
789.299	3666.748
789.715	3582.98015
790.131	3404.09782
790.547	3341.0405
790.963	3307.15311
791.379	3212.32466
791.795	3108.60169
792.21	3076.75045
792.626	2968.8741
793.041	2810.09981
793.457	2806.11572
793.872	2757.85644
794.287	2739.10007
794.702	2673.07784
795.117	2497.09804
795.532	2449.26301
795.947	2379.85104
796.362	2368.80635
796.776	2234.55988
797.191	2163.90592
797.605	2216.86189
798.02	2153.94807
798.434	2025.37173
798.848	1992.84159
799.262	2033.02489
799.676	1933.73626
800.09	1847.74586
800.504	1796.66492
800.918	1674.37914
801.331	1705.90907
801.745	1619.30341
802.158	1571.60225
802.572	1577.46618
802.985	1472.32892
803.398	1486.34592
803.811	1397.50118
804.224	1469.46931
804.637	1200.99791
805.05	1328.09219
805.462	1310.2511
805.875	1206.39048
806.288	1199.12236
806.7	1175.17538
807.112	1107.85705
807.525	1139.08766
807.937	1068.99229
808.349	1006.9199
808.761	1005.84269
809.173	936.71806
809.584	965.81799
809.996	903.73925
810.408	860.79703
810.819	900.6353
811.231	875.87632
811.642	843.66782
812.053	891.68491
812.464	831.57356
812.875	798.66076
813.286	723.52887
813.697	765.36315
814.108	669.32253
814.519	703.22531
814.929	657.37582
815.34	642.28004
815.75	636.35438
816.16	559.15175
816.571	578.28236
816.981	544.05267
817.391	584.17015
817.801	570.21786
818.211	576.14984
818.62	496.01233
819.03	499.02746
819.44	506.13683
819.849	496.08101
820.259	467.04241
820.668	495.05943
821.077	415.90596
821.486	439.89659
821.895	374.79243
822.304	392.92732
822.713	375.76832
823.122	402.88742
823.531	341.71541
823.939	361.77675
824.348	409.86904
824.756	346.76446
825.164	353.77911
825.573	327.73259
825.981	359.78671
826.389	312.68849
826.797	301.67741
827.205	321.64578
827.612	264.58014
828.02	259.55058
828.428	205.47571
828.835	241.58349
829.243	255.5409
829.65	229.51981
830.057	302.6614
830.464	260.57783
830.871	281.59552
831.278	190.41332
831.685	256.49614
832.092	260.57615
832.499	263.50154
832.905	217.50395
833.312	186.37825
833.718	199.44952
834.124	165.34281
834.531	175.4024
834.937	170.39785
835.343	171.37728
835.749	219.45297
836.155	138.33557
836.561	126.28027
836.966	172.38274
837.372	139.32613
837.777	84.19404
838.183	124.24319
838.588	160.36813
838.993	103.22897
839.399	69.15682
839.804	169.38285
840.209	119.28541
840.613	168.34133
841.018	115.26729
841.423	91.21576
841.828	94.22172
842.232	137.30606
842.637	82.17572
843.041	147.35646
843.445	86.19922
843.849	134.30659
844.253	157.33623
844.657	110.26086
845.061	137.28349
845.465	123.28136
845.869	91.19362
846.272	83.18826
846.676	76.17172
847.079	92.22112
847.483	142.32528
847.886	99.21825
848.289	125.31872
848.692	48.11414
849.095	39.08648
849.498	23.05375
849.901	41.08632
850.304	68.14956
850.707	69.16449
851.109	41.09545
851.512	86.19874
851.914	73.17682
852.316	85.202
852.718	65.16069
853.121	111.25218
853.523	23.05013
853.925	51.12631
854.326	89.21094
854.728	32.07799
855.13	54.13289
855.531	77.17451
855.933	45.10045
856.334	79.1855
856.736	52.10666
857.137	85.18259
857.538	53.12547
857.939	52.1217
858.34	30.06806
858.741	29.07185
859.142	55.12374
859.542	80.20395
859.943	86.20135
860.343	63.14747
860.744	53.12158
861.144	20.04593
861.544	36.08273
861.945	23.05506
862.345	-20.04545
862.745	13.03056
863.145	23.05026
863.544	66.15869
863.944	41.08989
864.344	36.0827
864.743	57.13238
865.143	69.16656
865.542	1.00217
865.941	76.17759
866.34	71.15823
866.74	24.0614
867.139	8.01821
867.537	49.11663
867.936	51.11525
868.335	81.19479
868.734	46.11236
869.132	46.10037
869.531	51.11474
869.929	78.16614
870.327	23.05177
870.726	43.10014
871.124	37.07965
871.522	-10.02399
871.92	67.15382
872.318	50.11477
872.715	43.09919
873.113	37.08488
873.511	6.01419
873.908	49.1198
874.306	17.04015
874.703	41.0962
875.1	22.0528
875.497	-3.00673
875.894	47.11032
876.291	47.10907
876.688	-1.00245
877.085	35.07803
877.482	17.03981
877.878	51.11516
878.275	27.06454
878.671	2.00401
879.068	49.11006
879.464	65.14683
879.86	67.14956
880.256	7.01605
880.652	10.02408
881.048	-43.10014
881.444	18.03947
881.84	33.07867
882.236	33.0784
882.631	8.01858
883.027	-13.0292
883.422	42.1011
883.817	61.14603
884.213	10.02444
884.608	51.11873
885.003	4.00913
885.398	-11.02617
885.793	-13.03084
886.188	28.06661
886.582	10.02378
886.977	44.09702
887.371	59.13973
887.766	6.01429
888.16	87.20253
888.554	-6.01384
888.949	-8.01873
889.343	16.03617
889.737	39.10074
890.131	26.06192
890.525	8.01934
890.918	34.0815
891.312	-8.01765
891.706	78.19449
892.099	9.02159
892.492	83.16313
892.886	-39.09015
893.279	28.0675
893.672	26.06289
894.065	26.06104
894.458	29.06857
894.851	18.0407
895.244	39.09422
895.637	43.0971
896.029	15.03453
896.422	27.06156
896.814	25.05873
897.206	62.13934
897.599	-11.02509
897.991	35.07964
898.383	26.05714
898.775	55.11407
899.167	28.06184
899.559	38.08994
899.951	24.05268
900.342	10.0236
900.734	10.02409
901.125	-9.0223
901.517	66.15216
901.908	52.11461
902.299	58.13324
902.69	20.04427
903.082	29.06572
903.473	1.00229
903.863	36.08781
904.254	12.0259
904.645	4.00924
905.036	21.04871
905.426	-2.00413
905.817	-5.01159
906.207	-11.02492
906.597	11.02424
906.987	-28.06832
907.378	-19.04543
907.768	32.08075
908.158	56.12787
908.547	-3.00742
908.937	0
909.327	3.00682
909.717	29.0686
910.106	24.05407
910.495	68.15964
910.885	-31.07345
911.274	66.15519
911.663	64.15382
912.052	8.01841
912.441	70.16869
912.83	39.08251
913.219	-10.02463
913.608	15.03453
913.997	-24.05729
914.385	35.07693
914.774	11.02506
915.162	21.04661
915.55	41.09269
915.939	-12.02897
916.327	30.07035
916.715	3.00734
917.103	38.0867
917.491	30.0685
917.878	-3.00683
918.266	14.03438
918.654	76.1844
919.041	-5.01248
919.429	29.06431
919.816	17.04046
920.203	44.0999
920.591	-6.01395
920.978	24.05496
921.365	4.00994
921.752	29.06503
922.139	61.12227
922.525	20.04504
922.912	28.0637
923.299	27.06357
923.685	-16.03992
924.072	33.0696
924.458	47.10924
924.844	23.0535
925.231	17.03664
925.617	38.09293
926.003	37.08912
926.389	60.1435
926.774	63.15047
927.16	36.08339
927.546	46.11123
927.931	61.14217
928.317	-18.03807
928.702	52.11298
929.088	-29.06524
929.473	2.00484
929.858	74.17013
930.243	39.08821
930.628	20.04552
931.013	44.10382
931.398	26.05487
931.783	55.13652
932.167	-3.00688
932.552	-11.02572
932.937	-30.06944
933.321	10.02361
933.705	88.2095
934.09	28.06545
934.474	27.05972
934.858	14.03467
935.242	34.07469
935.626	-26.0632
936.009	4.01014
936.393	45.10892
936.777	32.07819
937.16	-21.05146
937.544	42.09144
937.927	1.00242
938.311	45.10153
938.694	40.10003
939.077	-36.08094
939.46	70.16048
939.843	24.04493
940.226	15.03621
940.609	-33.07092
940.991	8.0193
941.374	-19.04369
941.757	36.08296
942.139	21.04332
942.522	-6.0131
942.904	14.0317
943.286	2.00476
943.668	21.05148
944.05	-2.00465
944.432	44.10221
944.814	-15.03458
945.196	-9.02107
945.578	-14.03189
945.959	1.0022
946.341	53.1185
946.722	21.04624
947.104	-5.01113
947.485	27.0583
947.866	47.11243
948.247	19.04533
948.628	-37.08491
949.009	69.16644
949.39	-30.06941
949.771	56.11923
950.152	20.04646
950.532	61.14525
950.913	-6.01345
951.293	19.0495
951.674	-3.00677
952.054	28.06556
952.434	4.00928
952.814	-40.08831
953.194	73.18001
953.574	-19.04355
953.954	10.02227
954.334	52.12213
954.714	12.02764
955.093	18.04094
955.473	3.00703
955.853	16.03948
956.232	29.07581
956.611	-9.01987
956.99	47.11148
957.37	13.03135
957.749	30.06601
958.128	12.02894
958.506	52.12848
958.885	-1.00238
959.264	9.02084
959.643	61.12821
960.021	8.01874
960.4	85.17952
960.778	10.02268
961.156	1.00237
961.535	-28.0598
961.913	-26.05589
962.291	39.09585
962.669	23.05523
963.047	-4.00955
963.424	8.01945
963.802	-23.05297
964.18	18.04259
964.557	-6.01268
964.935	52.1137
965.312	6.01497
965.69	79.18282
966.067	9.02041
966.444	50.11491
966.821	12.0291
967.198	-41.09266
967.575	44.09978
967.952	47.10283
968.329	27.06122
968.705	60.11495
969.082	57.13853
969.458	-8.01838
969.835	46.10419
970.211	-10.02446
970.587	50.11647
970.963	36.08679
971.339	27.06751
971.715	-14.03252
972.091	11.0254
972.467	-42.09783
972.843	10.02343
973.219	11.0243
973.594	8.01994
973.97	42.09144
974.345	11.02466
974.721	20.045
975.096	-17.0384
975.471	7.01561
975.846	55.12394
976.221	-24.05819
976.596	17.03823
976.971	19.04411
977.346	22.04688
977.72	14.03364
978.095	14.03441
978.469	55.12216
978.844	44.10334
979.218	28.06347
979.593	26.05831
979.967	19.04374
980.341	12.02553
980.715	18.04249
981.089	21.04889
981.463	60.12886
981.837	52.11974
982.21	48.1022
982.584	-53.12095
982.957	48.11344
983.331	3.00664
983.704	23.05352
984.078	20.046
984.451	7.01599
984.824	37.08518
985.197	30.06787
985.57	18.04204
985.943	-28.06399
986.316	78.17739
986.688	23.05157
987.061	18.03886
987.434	29.07169
987.806	27.06082
988.179	-1.0022
988.551	17.04032
988.923	-10.02317
989.295	38.08865
989.667	59.13415
990.039	2.00469
990.411	52.11182
990.783	22.04676
991.155	38.08684
991.527	-14.03175
991.898	16.03727
992.27	8.01871
992.641	11.02584
993.012	97.21115
993.384	23.0513
993.755	-22.05308
994.126	28.06311
994.497	-10.02316
994.868	42.08966
995.239	35.07981
995.61	-9.02139
995.98	17.03923
996.351	27.06343
996.722	59.12777
997.092	22.04932
997.462	37.08157
997.833	-6.01327
998.203	42.0942
998.573	53.1246
998.943	2.00433
999.313	22.04967
999.683	-49.11037
1000.053	37.07934
1000.423	73.1645
1000.792	1.00247
1001.162	8.01868
1001.531	42.09756
1001.901	-12.02815
1002.27	44.09123
1002.639	39.09425
1003.009	91.20263
1003.378	3.00729
1003.747	-37.08215
1004.116	19.04289
1004.485	10.02257
1004.853	61.14475
1005.222	55.13146
1005.591	36.07875
1005.959	48.10148
1006.328	22.0457
1006.696	28.06375
1007.064	35.08286
1007.433	60.14092
1007.801	-2.00458
1008.169	-10.02373
1008.537	53.1082
1008.905	43.09348
1009.273	58.13334
1009.64	16.03602
1010.008	19.04218
1010.375	91.2033
1010.743	52.10782
1011.11	34.07525
1011.478	19.04407
1011.845	-24.05214
1012.212	-20.04188
1012.579	49.11272
1012.946	13.02841
1013.313	27.05965
1013.68	54.11051
1014.047	46.10381
1014.414	42.09331
1014.78	64.15008
1015.147	-11.02463
1015.513	67.15246
1015.88	7.01666
1016.246	63.14521
1016.612	14.02943
1016.978	11.02522
1017.344	57.13317
1017.71	-28.06303
1018.076	58.12601
1018.442	38.09158
1018.808	17.04011
1019.174	-24.05681
1019.539	9.01862
1019.905	32.07085
1020.27	-18.04256
1020.636	73.16133
1021.001	14.03112
1021.366	119.26794
1021.731	48.11668
1022.096	5.01207
1022.461	6.01311
1022.826	68.14981
1023.191	28.06969
1023.556	0
1023.92	26.0591
1024.285	11.02507
1024.649	11.02536
1025.014	40.09251
1025.378	36.0861
1025.742	35.08135
1026.107	-8.01663
1026.471	0
1026.835	6.01384
1027.199	-24.055
1027.562	58.12542
1027.926	61.13802
1028.29	37.08837
1028.654	-9.01912
1029.017	29.06706
1029.381	17.03825
1029.744	46.11115
1030.107	-38.08309
1030.471	2.00447
1030.834	-23.048
1031.197	14.031
1031.56	34.0756
1031.923	-22.05416
1032.286	17.0369
1032.648	9.01998
1033.011	21.04497
1033.374	-9.01949
1033.736	-24.06032
1034.099	21.04831
1034.461	24.05777
1034.823	-40.09427
1035.185	-5.01171
1035.548	4.00913
1035.91	46.10342
1036.272	5.01061
1036.634	5.01132
1036.995	12.02665
1037.357	10.02294
1037.719	40.0906
1038.08	-17.03716
1038.442	68.15283
1038.803	-12.02688
1039.165	23.05481
1039.526	38.08575
1039.887	46.10321
1040.248	52.1226
1040.609	70.16035
1040.97	-13.02994
1041.331	-20.04717
1041.692	-3.00663
1042.053	-39.0824
1042.413	-22.04745
1042.774	62.13911
1043.134	-1.0022
1043.495	0
1043.855	41.09284
1044.215	16.0372
1044.576	8.0181
1044.936	63.13364
1045.296	-4.00937
1045.656	40.09159
1046.016	21.04666
1046.375	-23.05325
1046.735	32.06819
1047.095	1.00219
1047.454	60.11506
1047.814	23.05121
1048.173	15.03276
1048.533	57.12123
1048.892	-5.01141
1049.251	52.12203
1049.61	-43.09931
1049.969	14.0311
1050.328	27.05289
1050.687	28.06355
1051.046	50.11449
1051.405	-19.04407
1051.763	54.11537
1052.122	26.06171
1052.48	2.00458
1052.839	40.08761
1053.197	3.00662
1053.555	-21.04293
1053.914	27.06146
1054.272	44.09852
1054.63	-4.00915
1054.988	-2.00445
1055.345	18.03512
1055.703	31.06877
1056.061	5.01221
1056.419	33.08113
1056.776	-1.00227
1057.134	-6.01294
1057.491	14.03289
1057.848	23.05335
1058.206	11.0241
1058.563	48.09832
1058.92	1.00212
1059.277	10.02271
1059.634	-24.05179
1059.991	85.18864
1060.348	22.04662
1060.704	-14.0315
1061.061	-7.0148
1061.418	13.02981
1061.774	65.15185
1062.131	55.14064
1062.487	-11.02389
1062.843	41.09552
1063.199	39.09151
1063.555	30.06518
1063.911	10.02372
1064.267	38.06988
1064.623	31.07134
1064.979	-22.04753
1065.335	1.0022
1065.691	42.09466
1066.046	-1.00201
1066.402	29.06092
1066.757	18.04288
1067.112	5.01138
1067.468	-10.02263
1067.823	49.10988
1068.178	52.11778
1068.533	44.09836
1068.888	-17.03771
1069.243	50.11587
1069.598	2.00448
1069.952	42.08919
1070.307	55.12955
1070.662	26.05783
1071.016	7.01475
1071.371	12.02523
1071.725	-26.05685
1072.079	41.09152
1072.434	1.00228
1072.788	27.06047
1073.142	88.20231
1073.496	21.04655
1073.85	18.03871
1074.203	23.05191
1074.557	80.20164
1074.911	30.06573
1075.265	28.05954
1075.618	42.09606
1075.971	-1.00221
1076.325	39.09326
1076.678	-26.05581
1077.031	-18.03796
1077.385	72.14582
1077.738	22.04617
1078.091	54.11522
1078.444	31.06564
1078.796	19.04411
1079.149	13.02995
1079.502	11.02437
1079.855	15.03282
1080.207	24.0552
1080.56	-32.07886
1080.912	-18.0406
1081.264	68.15145
1081.617	31.07088
1081.969	54.13033
1082.321	30.06858
1082.673	54.11542
1083.025	-6.01321
1083.377	22.04247
1083.728	-7.01492
1084.08	49.11524
1084.432	-41.09126
1084.783	97.21052
1085.135	83.19664
1085.486	17.03655
1085.838	13.0301
1086.189	3.00684
1086.54	23.05121
1086.891	34.08215
1087.242	0
1087.593	26.05853
1087.944	7.01465
1088.295	13.02703
1088.646	5.01141
1088.996	-4.00904
1089.347	24.05474
1089.698	36.08011
1090.048	-20.04904
1090.398	66.1418
1090.749	57.12687
1091.099	60.14284
1091.449	-3.00699
1091.799	-11.02598
1092.149	64.14908
1092.499	12.0276
1092.849	42.10049
1093.199	54.12554
1093.548	39.08799
1093.898	0
1094.248	45.10859
1094.597	17.04173
1094.947	30.07575
1095.296	-28.06514
1095.645	21.05138
1095.994	51.1145
1096.343	73.17349
1096.692	-14.03555
1097.041	25.06507
1097.39	32.07501
1097.739	19.04699
1098.088	17.04273
1098.437	-16.0404
1098.785	-21.05392
1099.134	-13.03246
1099.482	-9.02352
1099.83	1.00249
1100.179	62.15476
1100.527	-9.02264
1100.875	-26.06582
1101.223	39.09899
1101.571	5.01332
1101.919	-31.07843
1102.267	33.09015
1102.615	3.00964
1102.962	-1.00321
1103.31	6.01926
1103.658	2.00641
