Data from N3 R7 sample 3_Subt2__2__17-02-13-400.txt Node

Date: Fri Sep 19 17:02:13 PDT 2025
User: uwsun
Spectrometer: HDX01956
Trigger mode: 0
Integration Time (sec): 5.000000E-1
Scans to average: 1
Nonlinearity correction enabled: true
Boxcar width: 0
Storing dark spectrum: false
XAxis mode: Wavelengths
Number of Pixels in Spectrum: 2068
>>>>>Begin Spectral Data<<<<<
194.03	62.17842
194.578	61.19702
195.127	55.17539
195.676	56.17839
196.225	86.22402
196.773	101.27775
197.321	117.32083
197.87	152.38366
198.418	171.43447
198.966	176.45483
199.513	194.48301
200.061	148.36876
200.609	183.47103
201.156	130.27509
201.704	132.32602
202.251	168.43626
202.798	171.43662
203.345	158.38277
203.892	134.33181
204.438	187.43446
204.985	189.43841
205.532	239.62262
206.078	190.45439
206.624	204.49103
207.17	195.43797
207.716	125.29615
208.262	179.33969
208.808	134.32865
209.354	190.44987
209.899	177.43322
210.445	207.50495
210.99	162.38358
211.535	186.42367
212.08	148.33535
212.625	191.46418
213.17	156.3853
213.715	166.36479
214.259	213.48173
214.804	164.39251
215.348	141.31487
215.892	186.43529
216.436	176.39798
216.98	190.40135
217.524	178.40872
218.068	171.41916
218.612	139.33933
219.155	190.43208
219.698	131.30219
220.242	178.42894
220.785	203.45818
221.328	200.48268
221.871	189.46276
222.414	108.26017
222.956	146.3453
223.499	201.4338
224.041	167.37
224.583	161.33256
225.126	218.46757
225.668	142.33727
226.21	135.33153
226.751	112.23607
227.293	163.35602
227.835	124.29452
228.376	171.37633
228.918	198.4811
229.459	169.41395
230	147.33964
230.541	149.33026
231.082	156.36752
231.622	157.35016
232.163	150.35723
232.704	151.36299
233.244	163.39198
233.784	99.23546
234.324	168.36173
234.864	132.28922
235.404	96.22115
235.944	193.43472
236.484	143.34271
237.023	178.40758
237.563	143.32026
238.102	188.42684
238.641	159.3935
239.18	169.38503
239.719	165.40505
240.258	137.29644
240.797	161.37524
241.335	107.25243
241.874	193.35643
242.412	109.25495
242.95	182.42409
243.488	167.36799
244.026	205.45456
244.564	170.33467
245.102	167.36197
245.64	193.44538
246.177	137.29543
246.715	138.31764
247.252	149.32695
247.789	83.14324
248.326	104.24206
248.863	158.33186
249.4	239.52222
249.936	185.36205
250.473	152.34455
251.009	154.34525
251.546	159.33977
252.082	166.35358
252.618	188.40566
253.154	165.3835
253.69	204.43754
254.226	180.41232
254.761	149.31854
255.297	162.34341
255.832	150.34195
256.367	192.43167
256.903	158.33186
257.438	130.29312
257.972	159.33801
258.507	186.41561
259.042	128.26315
259.576	149.3115
260.111	170.37641
260.645	183.38105
261.179	146.32785
261.713	201.42394
262.247	198.44279
262.781	195.39374
263.315	164.38937
263.849	174.42089
264.382	186.40737
264.915	180.40951
265.449	138.32941
265.982	127.27668
266.515	163.38513
267.048	181.3695
267.58	157.324
268.113	160.3362
268.646	226.53924
269.178	176.37863
269.71	140.29379
270.243	158.3478
270.775	152.37638
271.307	125.28824
271.838	187.42293
272.37	205.48679
272.902	180.39639
273.433	137.28781
273.965	209.49457
274.496	144.34373
275.027	160.3825
275.558	179.41817
276.089	218.52612
276.62	171.41869
277.15	158.37642
277.681	165.3373
278.211	200.46659
278.741	199.4247
279.272	206.45079
279.802	208.50066
280.332	181.4122
280.861	199.45996
281.391	176.38237
281.921	138.31815
282.45	240.58052
282.98	190.48077
283.509	219.4688
284.038	146.31625
284.567	172.37893
285.096	197.45895
285.625	202.44633
286.153	124.28234
286.682	208.45132
287.21	187.43308
287.739	142.32319
288.267	193.45265
288.795	203.51338
289.323	229.51918
289.851	209.46613
290.378	173.37482
290.906	183.43137
291.433	226.54089
291.961	175.37899
292.488	206.49378
293.015	245.555
293.542	167.40875
294.069	208.49135
294.596	229.54168
295.122	204.46842
295.649	211.44933
296.175	194.44582
296.702	188.4341
297.228	172.39685
297.754	216.46188
298.28	220.47532
298.806	206.47945
299.332	188.39974
299.857	188.40618
300.383	210.50605
300.908	220.51808
301.433	240.56077
301.958	163.35692
302.483	220.53575
303.008	211.49679
303.533	164.40713
304.058	206.46372
304.582	186.42521
305.107	212.53796
305.631	239.51316
306.155	253.56706
306.679	186.4211
307.203	246.54558
307.727	261.59293
308.251	215.50896
308.775	233.52804
309.298	199.46416
309.822	219.53083
310.345	241.54528
310.868	223.51071
311.391	249.58351
311.914	243.58478
312.437	247.52988
312.96	248.56008
313.482	247.56135
314.005	253.60746
314.527	270.67999
315.049	245.58848
315.571	348.74024
316.093	284.67319
316.615	319.73141
317.137	267.54408
317.659	201.46421
318.18	302.69008
318.702	329.71946
319.223	274.5295
319.744	329.6948
320.265	250.58253
320.786	286.67426
321.307	325.76753
321.828	310.66659
322.348	309.69085
322.869	284.62487
323.389	284.49813
323.909	327.70541
324.43	319.71761
324.95	350.75324
325.47	354.82156
325.989	374.83942
326.509	281.58954
327.029	330.6986
327.548	336.71285
328.067	363.81858
328.587	347.81566
329.106	360.7601
329.625	317.77466
330.144	313.67348
330.662	380.82026
331.181	360.78973
331.7	359.78406
332.218	398.80419
332.736	387.83375
333.255	364.79077
333.773	434.94923
334.291	354.81929
334.808	406.82713
335.326	424.88265
335.844	431.9361
336.361	407.95925
336.879	410.88349
337.396	381.84652
337.913	404.85411
338.43	513.05207
338.947	455.99662
339.464	461.89753
339.981	484.05213
340.497	466.05665
341.014	477.05161
341.53	463.96576
342.046	516.15411
342.562	486.10565
343.078	491.04542
343.594	493.07877
344.11	483.04261
344.626	527.21284
345.141	569.16713
345.657	538.07683
346.172	505.09763
346.687	582.19357
347.202	557.11571
347.717	571.22237
348.232	623.39005
348.747	568.16429
349.261	631.23563
349.776	503.06312
350.29	609.34982
350.805	601.31105
351.319	595.23429
351.833	630.2683
352.347	529.09961
352.861	600.24218
353.374	657.30666
353.888	598.27446
354.401	616.24576
354.915	594.18858
355.428	673.47883
355.941	669.36763
356.454	624.22622
356.967	685.41683
357.48	631.26711
357.993	655.41753
358.505	652.42454
359.018	684.44348
359.53	684.43149
360.042	679.27839
360.554	717.49501
361.066	635.35898
361.578	760.41682
362.09	717.47913
362.602	692.31472
363.113	656.30376
363.625	742.44207
364.136	734.37165
364.647	752.5011
365.158	776.54477
365.669	848.74068
366.18	759.48601
366.691	795.47304
367.201	777.57007
367.712	818.53269
368.222	804.57759
368.733	838.52704
369.243	800.4606
369.753	850.62252
370.263	830.64628
370.773	879.82259
371.282	900.76207
371.792	890.67113
372.301	922.84683
372.811	946.04557
373.32	931.58551
373.829	950.8496
374.338	967.72759
374.847	1007.83434
375.356	1108.08908
375.865	1118.81306
376.373	1113.95962
376.882	1155.29823
377.39	1287.34695
377.898	1209.32937
378.407	1271.08966
378.915	1325.04391
379.423	1366.36771
379.93	1391.24427
380.438	1496.62418
380.946	1509.48109
381.453	1577.6265
381.96	1663.66469
382.468	1808.79383
382.975	1901.99283
383.482	1904.62684
383.989	1989.24949
384.495	2095.8284
385.002	2149.45922
385.509	2267.92711
386.015	2453.35038
386.521	2582.76773
387.028	2720.85355
387.534	2747.58778
388.04	2858.05
388.546	2908.68597
389.051	3015.60367
389.557	3285.85579
390.063	3642.73865
390.568	3670.8477
391.073	3794.45651
391.578	3839.81822
392.084	3973.20756
392.589	4272.97675
393.093	4514.22656
393.598	4920.75412
394.103	5362.78736
394.607	5792.50975
395.112	6269.55128
395.616	6618.34712
396.12	7184.20754
396.624	8024.83984
397.128	8605.65386
397.632	9698.13575
398.136	10504.94443
398.639	10940.69358
399.143	12129.68669
399.646	13837.02658
400.15	15388.41804
400.653	17040.98524
401.156	19216.78692
401.659	22359.10631
402.162	27316.71856
402.664	35768.85406
403.167	50373.79061
403.67	59162.91698
404.172	55487.84425
404.674	37291.05854
405.176	4428.40989
405.678	533.47942
406.18	0
406.682	0
407.184	6962.89417
407.686	50953.82939
408.187	59237.6763
408.688	61091.12691
409.19	61923.45898
409.691	52236.09856
410.192	44234.92143
410.693	38311.46996
411.194	34632.2335
411.694	32556.93151
412.195	30266.0654
412.696	27293.48861
413.196	25379.47633
413.696	24624.21302
414.196	24802.45618
414.696	24520.22638
415.196	23557.67654
415.696	21198.86347
416.196	17306.46872
416.695	13356.02833
417.195	11419.01264
417.694	10709.57508
418.194	10177.1104
418.693	9422.3913
419.192	9192.78547
419.691	9058.48993
420.19	8850.07584
420.688	8581.6675
421.187	8141.77877
421.685	7737.57202
422.184	7051.25891
422.682	6013.00135
423.18	5157.6816
423.678	4595.95677
424.176	4213.197
424.674	3969.07638
425.172	3783.58313
425.669	3544.04582
426.167	3282.70723
426.664	3104.68089
427.161	2757.73217
427.659	2629.14439
428.156	2486.41747
428.652	2280.21256
429.149	2259.00336
429.646	2103.48966
430.143	1948.81181
430.639	1907.72889
431.135	1663.711
431.632	1649.4168
432.128	1609.5976
432.624	1437.59798
433.12	1472.29717
433.616	1376.06096
434.111	1369.3325
434.607	1345.30361
435.103	1199.77053
435.598	1237.79168
436.093	1200.04589
436.588	1102.86018
437.083	1087.84319
437.578	1045.81564
438.073	950.87147
438.568	984.88871
439.062	907.50972
439.557	862.6137
440.051	842.53434
440.546	831.53758
441.04	745.45375
441.534	797.68255
442.028	827.61553
442.522	753.50622
443.015	782.38309
443.509	749.53485
444.002	740.51878
444.496	670.19444
444.989	758.55506
445.482	641.35884
445.975	672.29216
446.468	681.21566
446.961	641.13467
447.454	654.22188
447.947	641.31564
448.439	638.34099
448.931	648.23517
449.424	566.21818
449.916	592.21958
450.408	642.25098
450.9	555.16758
451.392	603.32375
451.884	506.9971
452.375	494.07209
452.867	522.01676
453.358	517.00533
453.849	518.94503
454.341	522.02159
454.832	514.95958
455.323	491.05674
455.814	473.94762
456.304	440.89272
456.795	464.92078
457.285	498.94997
457.776	443.86905
458.266	477.00587
458.756	452.94805
459.247	437.91922
459.737	509.07347
460.226	457.90413
460.716	460.97674
461.206	361.77174
461.695	477.06214
462.185	487.01305
462.674	424.8524
463.163	359.70492
463.653	407.75734
464.142	368.79436
464.63	408.89011
465.119	387.81083
465.608	364.74932
466.096	387.75201
466.585	361.73595
467.073	334.71572
467.561	388.85258
468.05	341.70719
468.538	386.86492
469.026	370.80415
469.513	347.65435
470.001	274.56761
470.489	363.77332
470.976	342.71228
471.463	332.76167
471.951	327.74584
472.438	274.5935
472.925	252.53768
473.412	260.58239
473.899	344.71644
474.385	263.59602
474.872	242.51949
475.359	288.64616
475.845	281.52832
476.331	266.52119
476.817	222.49728
477.303	247.52896
477.789	229.51116
478.275	231.5354
478.761	202.45192
479.247	188.38946
479.732	263.61197
480.218	228.5544
480.703	233.54688
481.188	196.38749
481.673	265.56014
482.158	228.45287
482.643	209.49706
483.128	175.37186
483.612	184.40026
484.097	240.54357
484.581	132.28483
485.066	200.45187
485.55	176.35742
486.034	240.4845
486.518	197.43391
487.002	152.35252
487.486	170.39161
487.969	171.39964
488.453	188.44823
488.936	114.24272
489.42	134.28058
489.903	170.40439
490.386	218.43422
490.869	77.15698
491.352	145.33289
491.835	148.28244
492.318	104.22518
492.8	149.28552
493.283	137.3342
493.765	131.30832
494.247	132.28861
494.73	127.26527
495.212	123.2808
495.694	109.24281
496.175	98.22296
496.657	189.42624
497.139	53.08364
497.62	103.23542
498.102	133.31583
498.583	63.15001
499.064	98.21165
499.545	82.17868
500.026	93.19857
500.507	60.1323
500.988	76.17954
501.469	68.16294
501.949	22.05217
502.43	35.08029
502.91	69.13574
503.39	87.20835
503.87	122.27396
504.35	74.16515
504.83	63.13264
505.31	64.15019
505.79	52.12012
506.269	81.17976
506.749	58.12714
507.228	71.16019
507.707	97.2045
508.187	90.20351
508.666	42.09922
509.145	80.17913
509.623	49.11073
510.102	46.10715
510.581	62.14243
511.059	54.1323
511.538	78.19343
512.016	78.18026
512.494	39.09072
512.972	76.17521
513.45	68.15377
513.928	70.16382
514.406	96.22705
514.884	111.27742
515.361	105.24308
515.839	34.07465
516.316	15.03484
516.793	51.12441
517.27	96.22406
517.747	49.12216
518.224	56.12405
518.701	73.15654
519.178	84.2045
519.654	-10.0227
520.131	25.05946
520.607	54.1293
521.083	48.10659
521.56	25.05703
522.036	66.13973
522.512	78.18469
522.987	87.20101
523.463	62.14282
523.939	55.13016
524.414	81.17767
524.89	49.11141
525.365	71.15626
525.84	116.27095
526.315	46.10643
526.79	51.10993
527.265	-4.00878
527.74	27.0638
528.215	63.14371
528.689	40.08698
529.164	-7.0145
529.638	30.07521
530.112	73.16806
530.587	40.08372
531.061	55.12905
531.534	57.13233
532.008	61.1424
532.482	-9.01972
532.956	41.10325
533.429	-15.0346
533.903	70.14696
534.376	51.10823
534.849	73.16349
535.322	37.08464
535.795	48.11348
536.268	74.17264
536.741	36.08369
537.213	36.08091
537.686	23.05413
538.158	60.12997
538.631	9.02114
539.103	21.04573
539.575	62.12349
540.047	60.12647
540.519	18.04143
540.991	2.00473
541.463	42.09907
541.934	65.14371
542.406	9.021
542.877	11.0241
543.348	-44.10193
543.82	45.10649
544.291	16.03566
544.762	17.03917
545.233	49.12056
545.703	48.10313
546.174	66.14876
546.645	37.0877
547.115	64.14943
547.585	93.20794
548.056	73.17349
548.526	51.11662
548.996	22.05147
549.466	70.16357
549.935	76.17668
550.405	77.16433
550.875	17.03909
551.344	55.129
551.814	6.01323
552.283	67.13889
552.752	60.13468
553.221	29.06122
553.69	102.21783
554.159	94.22618
554.628	67.14429
555.096	37.0912
555.565	72.15396
556.033	72.16241
556.502	54.12613
556.97	10.02147
557.438	50.11468
557.906	47.10782
558.374	53.11728
558.842	51.11826
559.31	29.06243
559.777	52.12251
560.245	-1.00226
560.712	-64.14378
561.18	4.00858
561.647	36.07748
562.114	42.09276
562.581	95.22586
563.048	15.03312
563.514	24.05771
563.981	43.09467
564.448	67.14522
564.914	74.16488
565.381	21.04565
565.847	11.02494
566.313	31.06966
566.779	72.15789
567.245	50.11329
567.711	78.1814
568.176	86.19066
568.642	60.147
569.108	70.16645
569.573	47.10548
570.038	122.24538
570.504	117.25392
570.969	51.12353
571.434	112.23721
571.899	118.2702
572.363	100.21745
572.828	48.10526
573.293	107.23529
573.757	104.23057
574.222	154.33059
574.686	77.16775
575.15	100.22953
575.614	89.19563
576.078	92.2071
576.542	144.31325
577.006	138.29867
577.469	161.3745
577.933	107.22737
578.396	141.32331
578.86	106.23745
579.323	103.23571
579.786	151.30658
580.249	64.14147
580.712	66.15458
581.175	150.35256
581.637	150.33102
582.1	138.2846
582.563	73.14551
583.025	101.23531
583.487	98.18729
583.95	91.18814
584.412	105.20783
584.874	89.20702
585.336	147.33206
585.797	96.19745
586.259	96.21239
586.721	115.25829
587.182	107.2344
587.643	113.24388
588.105	125.28306
588.566	116.23159
589.027	143.33171
589.488	97.21016
589.949	139.31604
590.41	146.27132
590.87	116.24601
591.331	115.23093
591.791	82.17884
592.252	81.17789
592.712	137.31175
593.172	148.31442
593.632	114.22929
594.092	192.39882
594.552	162.32373
595.011	173.3769
595.471	165.34602
595.931	205.42363
596.39	187.42207
596.849	171.37286
597.308	209.41755
597.768	184.44189
598.227	233.52245
598.685	195.40948
599.144	197.42954
599.603	255.55718
600.062	239.45688
600.52	263.54056
600.978	358.7741
601.437	294.61068
601.895	303.58035
602.353	318.62869
602.811	374.73905
603.269	353.75921
603.727	375.80929
604.184	476.9393
604.642	395.86559
605.099	459.93191
605.557	451.96077
606.014	466.86995
606.471	536.1861
606.928	575.09657
607.385	556.20072
607.842	597.18218
608.299	583.15818
608.755	636.29979
609.212	685.27328
609.668	650.21679
610.125	679.36553
610.581	677.30898
611.037	752.38941
611.493	697.35608
611.949	753.50066
612.405	784.25759
612.861	760.43013
613.316	801.57576
613.772	816.5109
614.227	810.55277
614.683	857.43797
615.138	825.58727
615.593	788.46912
616.048	809.45958
616.503	854.69237
616.958	861.7527
617.412	834.58963
617.867	881.55823
618.321	794.25564
618.776	857.48816
619.23	898.69032
619.684	886.54718
620.138	812.47135
620.592	809.58853
621.046	862.59704
621.5	785.55293
621.954	774.38882
622.407	756.35159
622.861	696.38338
623.314	779.43186
623.768	777.47543
624.221	796.23282
624.674	660.24651
625.127	648.26928
625.58	695.26117
626.033	768.32937
626.485	689.36658
626.938	695.3586
627.39	689.3265
627.843	643.22651
628.295	668.28323
628.747	720.40988
629.199	640.22757
629.651	616.17804
630.103	691.31569
630.555	628.08075
631.006	658.28282
631.458	596.16615
631.909	646.21764
632.361	561.09677
632.812	648.25372
633.263	530.95372
633.714	499.8917
634.165	547.10929
634.616	547.10322
635.067	627.12714
635.518	533.06853
635.968	626.00974
636.419	571.0189
636.869	625.23252
637.319	622.20045
637.769	616.15644
638.219	632.23788
638.669	655.31357
639.119	628.28283
639.569	696.41166
640.019	672.27418
640.468	687.22829
640.918	709.40173
641.367	691.27236
641.816	698.2798
642.265	766.43156
642.714	753.42701
643.163	735.34812
643.612	760.52059
644.061	756.25803
644.51	823.50381
644.958	778.366
645.406	835.61655
645.855	879.71321
646.303	855.57106
646.751	841.53368
647.199	822.4525
647.647	916.67286
648.095	940.65638
648.543	910.37313
648.99	958.79905
649.438	969.76408
649.885	949.87431
650.333	908.2748
650.78	972.87549
651.227	972.86833
651.674	964.6979
652.121	942.77155
652.568	952.82018
653.015	927.82227
653.461	962.78358
653.908	1001.78022
654.354	930.70959
654.801	964.76337
655.247	925.54568
655.693	960.00623
656.139	958.78848
656.585	968.81698
657.031	943.74091
657.477	924.5478
657.922	955.72187
658.368	918.78806
658.813	917.61281
659.259	940.78509
659.704	941.72942
660.149	896.64532
660.594	889.67948
661.039	894.61288
661.484	976.81407
661.929	862.59624
662.373	932.91497
662.818	879.77723
663.262	883.68928
663.707	884.80079
664.151	911.80085
664.595	928.77679
665.039	892.77106
665.483	955.96446
665.927	884.63544
666.371	879.63466
666.814	972.80305
667.258	942.77936
667.701	936.50319
668.145	982.90927
668.588	968.88023
669.031	914.71964
669.474	1020.89414
669.917	898.53119
670.36	973.88862
670.803	987.84499
671.245	1012.56708
671.688	1036.93819
672.13	991.68439
672.573	985.99447
673.015	1008.86348
673.457	1036.70307
673.899	1080.97804
674.341	1045.93346
674.783	1031.92172
675.225	1023.95192
675.666	1043.94413
676.108	1065.72142
676.549	1044.87269
676.991	1068.73356
677.432	1070.49614
677.873	1049.82453
678.314	1100.97543
678.755	1109.06401
679.196	1121.92151
679.637	1071.97577
680.078	1056.86042
680.518	1076.83478
680.959	1077.95525
681.399	1082.03595
681.839	1124.05853
682.28	1101.09151
682.72	1073.82622
683.16	1138.15937
683.6	1094.84662
684.039	1065.5963
684.479	1119.08781
684.919	1121.95222
685.358	1214.28728
685.798	1147.29492
686.237	1116.0193
686.676	1262.07764
687.115	1177.02848
687.554	1198.08177
687.993	1187.83376
688.432	1236.05029
688.871	1190.95092
689.309	1310.31791
689.748	1222.76487
690.186	1246.12018
690.625	1269.18549
691.063	1232.18945
691.501	1261.29015
691.939	1246.29756
692.377	1277.2715
692.815	1342.31736
693.253	1288.18616
693.69	1251.92313
694.128	1295.30365
694.565	1387.32057
695.003	1340.48373
695.44	1332.1924
695.877	1346.24119
696.314	1348.9413
696.751	1362.11308
697.188	1405.23029
697.625	1345.10283
698.061	1389.33905
698.498	1426.38947
698.934	1439.36128
699.371	1396.30223
699.807	1422.3274
700.243	1454.45645
700.679	1414.164
701.115	1426.27095
701.551	1428.33084
701.987	1397.08709
702.422	1470.36941
702.858	1410.29871
703.294	1451.16988
703.729	1575.61177
704.164	1506.4904
704.599	1500.15917
705.035	1549.25878
705.47	1562.60768
705.904	1532.34915
706.339	1522.28876
706.774	1537.36308
707.209	1516.30402
707.643	1560.50027
708.078	1594.56815
708.512	1627.80595
708.946	1661.54549
709.38	1629.47553
709.814	1652.35616
710.248	1651.57869
710.682	1738.64715
711.116	1648.59978
711.549	1610.80341
711.983	1637.38445
712.416	1651.45643
712.85	1789.87836
713.283	1721.56811
713.716	1717.77982
714.149	1764.56988
714.582	1713.36683
715.015	1787.81757
715.448	1729.76843
715.881	1730.18192
716.313	1776.59706
716.746	1804.63546
717.178	1819.68588
717.61	1806.93431
718.043	1801.79812
718.475	1856.73728
718.907	1812.83886
719.339	1831.47051
719.77	1892.75786
720.202	1922.98956
720.634	1901.85268
721.065	1931.69276
721.497	1856.82281
721.928	1860.85542
722.359	1851.81427
722.79	1866.71437
723.221	1927.92475
723.652	1993.0859
724.083	1943.4769
724.514	1939.48002
724.945	1891.65077
725.375	1922.63206
725.806	1940.84961
726.236	1987.08704
726.666	1922.64717
727.096	1982.84965
727.526	2013.10131
727.956	2028.56308
728.386	1970.80957
728.816	2010.0797
729.246	2046.92743
729.675	1976.95401
730.105	1972.85926
730.534	2029.686
730.964	2066.01045
731.393	1994.83926
731.822	2113.18906
732.251	2101.1595
732.68	2005.57716
733.109	2006.93246
733.537	2019.81819
733.966	2090.97714
734.395	2085.60609
734.823	2029.46799
735.251	2054.83861
735.68	2108.01573
736.108	2065.04797
736.536	2049.71674
736.964	2058.62868
737.392	2023.95156
737.82	2066.78196
738.247	2059.74818
738.675	2092.72385
739.102	2043.06706
739.53	2088.18102
739.957	2002.09562
740.384	2064.86896
740.811	2095.13185
741.238	2095.87024
741.665	2095.73961
742.092	1990.68746
742.519	2010.99686
742.945	1998.76641
743.372	2043.97594
743.798	1993.10358
744.225	2054.744
744.651	1998.96279
745.077	2000.95699
745.503	1936.77034
745.929	2003.74816
746.355	2021.84931
746.781	1945.88025
747.207	1867.66732
747.632	1927.84803
748.058	1860.81577
748.483	1936.49865
748.908	1854.84113
749.334	1843.77576
749.759	1833.57758
750.184	1818.62734
750.609	1814.72742
751.033	1799.48785
751.458	1859.4363
751.883	1735.69899
752.307	1847.66753
752.732	1787.88791
753.156	1733.71597
753.58	1761.54754
754.005	1680.82897
754.429	1658.39564
754.853	1689.71889
755.277	1743.57819
755.7	1656.66006
756.124	1642.72303
756.548	1611.48384
756.971	1606.54006
757.394	1564.74128
757.818	1567.77856
758.241	1525.61516
758.664	1562.7066
759.087	1489.22067
759.51	1475.50885
759.933	1494.44073
760.356	1451.59301
760.778	1458.51878
761.201	1391.27191
761.623	1360.2314
762.046	1328.09938
762.468	1338.2193
762.89	1417.41347
763.312	1337.26311
763.734	1316.24112
764.156	1313.31905
764.578	1221.94503
765	1290.23652
765.421	1266.41451
765.843	1261.46329
766.264	1233.10636
766.686	1173.21252
767.107	1188.13809
767.528	1181.26555
767.949	1172.22191
768.37	1135.05224
768.791	1109.97183
769.212	1056.07615
769.632	1062.83216
770.053	1019.11239
770.473	1050.93647
770.894	982.8695
771.314	1013.79234
771.734	944.66345
772.154	1006.01372
772.575	975.69635
772.994	905.58087
773.414	876.59643
773.834	921.82913
774.254	860.65432
774.673	861.64236
775.093	921.80706
775.512	897.75991
775.931	886.81712
776.351	762.52671
776.77	811.60144
777.189	785.47401
777.607	757.59804
778.026	775.58461
778.445	751.56944
778.864	658.40675
779.282	676.32047
779.701	688.44241
780.119	643.35418
780.537	635.32501
780.955	643.36545
781.373	671.37297
781.791	634.17334
782.209	693.29841
782.627	627.41855
783.045	601.14237
783.462	535.1664
783.88	577.28942
784.297	553.1899
784.715	578.29564
785.132	499.03345
785.549	541.17751
785.966	510.09982
786.383	504.07477
786.8	501.98933
787.217	470.95402
787.633	409.90306
788.05	416.82822
788.466	446.89497
788.883	431.981
789.299	410.85161
789.715	411.88241
790.131	366.80188
790.547	270.59656
790.963	378.83061
791.379	330.75102
791.795	392.77172
792.21	323.66418
792.626	362.75326
793.041	308.67568
793.457	334.73086
793.872	328.68403
794.287	300.65979
794.702	283.6228
795.117	243.54465
795.532	308.70521
795.947	236.50661
796.362	272.57406
796.776	217.44139
797.191	194.43223
797.605	261.56498
798.02	241.53728
798.434	242.47394
798.848	190.42595
799.262	247.56771
799.676	199.43777
800.09	202.45136
800.504	221.48616
800.918	179.37571
801.331	167.40282
801.745	197.40728
802.158	171.3932
802.572	171.37744
802.985	167.36413
803.398	155.33926
803.811	201.47085
804.224	148.33875
804.637	98.21291
805.05	171.36019
805.462	178.39889
805.875	176.43277
806.288	166.37322
806.7	120.28084
807.112	159.33624
807.525	125.28789
807.937	114.26303
808.349	99.23056
808.761	64.14525
809.173	74.16542
809.584	131.29749
809.996	90.20733
810.408	81.19848
810.819	106.23167
811.231	131.32599
811.642	159.36517
812.053	145.32447
812.464	130.28857
812.875	100.24053
813.286	95.22863
813.697	65.13698
814.108	66.14906
814.519	111.22403
814.929	93.21923
815.34	65.14713
815.75	67.16045
816.16	87.19853
816.571	74.18156
816.981	48.10406
817.391	38.08586
817.801	68.16126
818.211	93.20674
818.62	54.12146
819.03	36.08197
819.44	66.16188
819.849	101.23892
820.259	97.23345
820.668	102.23722
821.077	39.0919
821.486	14.03135
821.895	39.08867
822.304	13.033
822.713	27.05967
823.122	78.18383
823.531	79.17532
823.939	85.19373
824.348	88.20005
824.756	55.1289
825.164	29.06834
825.573	63.1488
825.981	73.16961
826.389	12.02814
826.797	64.15101
827.205	44.09417
827.612	29.06687
828.02	56.12431
828.428	20.04811
828.835	68.16999
829.243	30.06676
829.65	30.07084
830.057	58.13356
830.464	87.20029
830.871	61.13549
831.278	27.06077
831.685	21.04299
832.092	79.18166
832.499	42.0844
832.905	40.09614
833.312	33.06945
833.718	22.05149
834.124	56.11918
834.531	14.03323
834.937	20.04818
835.343	57.12876
835.749	44.09458
836.155	6.01495
836.561	4.00912
836.966	61.13886
837.372	-1.00241
837.777	10.02344
838.183	-29.05893
838.588	21.04966
838.993	6.01361
839.399	12.02759
839.804	23.05365
840.209	29.07075
840.613	50.10432
841.018	0
841.423	-12.02902
841.828	0
842.232	-26.06004
842.637	8.01742
843.041	58.14299
843.445	-1.00236
843.849	-16.03771
844.253	59.12903
844.657	31.07464
845.061	40.08457
845.465	59.1367
845.869	13.02813
846.272	11.02531
846.676	26.05934
847.079	19.0463
847.483	64.1489
847.886	19.04259
848.289	47.12149
848.692	26.06209
849.095	-15.03364
849.498	14.03278
849.901	-4.00851
850.304	32.07091
850.707	22.05292
851.109	-30.07082
851.512	38.08865
851.914	66.16007
852.316	81.19265
852.718	-1.0025
853.121	65.14905
853.523	37.0804
853.925	-12.03006
854.326	26.06237
854.728	43.10459
855.13	4.00993
855.531	62.14094
855.933	30.06717
856.334	31.07347
856.736	-47.09856
857.137	19.04139
857.538	12.02863
857.939	3.00709
858.34	-2.00457
858.741	23.05705
859.142	54.12151
859.542	49.1256
859.943	41.09684
860.343	14.03309
860.744	42.09656
861.144	38.08694
861.544	20.04611
861.945	-20.04827
862.345	-21.04773
862.745	26.06097
863.145	30.06546
863.544	77.18475
863.944	19.04185
864.344	-28.06514
864.743	28.0654
865.143	26.06327
865.542	-2.00434
865.941	29.06839
866.34	62.13843
866.74	19.04865
867.139	20.04541
867.537	18.0431
867.936	79.17751
868.335	32.07767
868.734	69.16782
869.132	53.11547
869.531	41.09243
869.929	53.1135
870.327	22.04953
870.726	33.077
871.124	36.07751
871.522	-40.0965
871.92	36.08316
872.318	22.05078
872.715	50.11518
873.113	29.06663
873.511	28.06594
873.908	22.05406
874.306	9.02129
874.703	10.02361
875.1	7.01685
875.497	-13.02923
875.894	21.04954
876.291	32.07448
876.688	-3.00736
877.085	37.08246
877.482	-14.03298
877.878	27.06127
878.275	-2.00481
878.671	7.01402
879.068	88.19607
879.464	9.02056
879.86	29.06524
880.256	-7.0161
880.652	5.01205
881.048	32.07342
881.444	-19.04199
881.84	-2.0048
882.236	34.08076
882.631	26.06018
883.027	30.06679
883.422	-26.06339
883.817	25.06026
884.213	23.05607
884.608	27.06315
885.003	33.07491
885.398	17.04023
885.793	32.07524
886.188	26.06187
886.582	-8.01909
886.977	38.08389
887.371	25.0596
887.766	45.10637
888.16	38.08932
888.554	40.09145
888.949	-27.06345
889.343	-16.0364
889.737	24.06215
890.131	43.10207
890.525	38.09133
890.918	62.14783
891.312	-8.01765
891.706	38.09544
892.099	19.0455
892.492	52.10295
892.886	23.05251
893.279	22.0531
893.672	-11.02679
894.065	-56.13357
894.458	12.02847
894.851	-6.01363
895.244	-2.00487
895.637	43.0971
896.029	16.03683
896.422	8.01831
896.814	25.05873
897.206	36.08134
897.599	-34.07792
897.991	20.04565
898.383	18.03962
898.775	17.03556
899.167	25.05525
899.559	11.02617
899.951	9.01982
900.342	-33.07852
900.734	19.04569
901.125	3.00742
901.517	55.12708
901.908	44.09714
902.299	23.05321
902.69	81.17699
903.082	64.14401
903.473	46.10427
903.863	40.09749
904.254	9.01944
904.645	33.07582
905.036	-12.02802
905.426	-7.01448
905.817	6.01388
906.207	1.00226
906.597	4.00883
906.987	17.04113
907.378	31.07342
907.768	40.10079
908.158	57.13013
908.547	19.0468
908.937	-15.03647
909.327	4.0091
909.717	31.0733
910.106	31.06974
910.495	53.12479
910.885	-56.13332
911.274	18.04272
911.663	89.21289
912.052	40.09148
912.441	56.13531
912.83	4.00853
913.219	-17.04192
913.608	19.04371
913.997	-37.08854
914.385	71.15488
914.774	-11.02517
915.162	7.01558
915.55	58.13067
915.939	23.05517
916.327	16.03762
916.715	-7.01716
917.103	35.0799
917.491	23.05259
917.878	7.0159
918.266	-10.02466
918.654	61.14842
919.041	-1.00249
919.429	40.08849
919.816	12.02859
920.203	19.04336
920.591	-31.07245
920.978	-8.01844
921.365	-7.01744
921.752	22.0494
922.139	64.12819
922.525	-48.1096
922.912	21.04784
923.299	31.07293
923.685	-11.02742
924.072	25.05282
924.458	10.02341
924.844	9.02099
925.231	8.01728
925.617	31.07591
926.003	68.16282
926.389	17.04099
926.774	59.14102
927.16	16.03721
927.546	41.09924
927.931	30.07035
928.317	-33.07003
928.702	-6.0132
929.088	0
929.473	-11.02667
929.858	32.07419
930.243	18.04089
930.628	11.02508
931.013	78.18283
931.398	-7.01488
931.783	41.10203
932.167	-22.05062
932.552	6.01398
932.937	-16.03693
933.321	-4.00947
933.705	12.02898
934.09	31.07242
934.474	37.08167
934.858	43.10591
935.242	63.13754
935.626	-14.03396
936.009	-3.00762
936.393	72.17338
936.777	39.09518
937.16	-29.07117
937.544	14.03066
937.927	-33.08032
938.311	59.13274
938.694	18.04519
939.077	6.01337
939.46	69.15822
939.843	1.00188
940.226	-6.01454
940.609	3.0064
940.991	17.04094
941.374	74.16699
941.757	22.05084
942.139	40.08216
942.522	8.01741
942.904	54.12126
943.286	-3.00715
943.668	0
944.05	17.03937
944.432	13.03038
944.814	8.01836
945.196	20.04655
945.578	13.02945
945.959	55.11982
946.341	-13.02946
946.722	34.07465
947.104	24.05312
947.485	67.14342
947.866	18.0433
948.247	11.02628
948.628	-10.02282
949.009	15.03655
949.39	-15.0346
949.771	29.06211
950.152	74.17006
950.532	46.10985
950.913	-6.01345
951.293	31.0806
951.674	-23.05213
952.054	-10.02359
952.434	4.00928
952.814	-26.05723
953.194	38.0943
953.574	-6.01372
953.954	29.06433
954.334	14.03312
954.714	-10.02314
955.093	12.02732
955.473	-4.00939
955.853	25.06158
956.232	16.04192
956.611	-26.05759
956.99	-9.02158
957.37	9.02172
957.749	-14.03109
958.128	52.12446
958.506	32.07936
958.885	1.00238
959.264	-26.06061
959.643	71.1489
960.021	11.02576
960.4	89.1878
960.778	-56.12869
961.156	-5.01187
961.535	-28.0598
961.913	43.09105
962.291	14.03457
962.669	23.05523
963.047	-17.0407
963.424	31.07503
963.802	-11.02527
964.18	51.1199
964.557	26.05456
964.935	-10.02215
965.312	42.10412
965.69	46.10715
966.067	-23.05251
966.444	34.07839
966.821	4.00972
967.198	29.0646
967.575	28.0637
967.952	70.15241
968.329	-16.03659
968.705	-2.00389
969.082	34.08299
969.458	6.01374
969.835	5.01142
970.211	54.13053
970.587	43.1003
970.963	55.13212
971.339	9.02258
971.715	-12.02786
972.091	12.0277
972.467	-19.04406
972.843	2.00469
973.219	20.0441
973.594	10.02492
973.97	-26.05743
974.345	17.03806
974.721	33.07406
975.096	-40.09078
975.471	46.10177
975.846	36.08144
976.221	1.00241
976.596	19.04271
976.971	3.00699
977.346	4.00856
977.72	1.00241
978.095	17.04177
978.469	31.0692
978.844	49.11497
979.218	25.0567
979.593	16.03596
979.967	71.16176
980.341	9.01916
980.715	17.04014
981.089	14.03264
981.463	38.082
981.837	73.16739
982.21	60.12741
982.584	10.02253
982.957	50.11812
983.331	38.08354
983.704	55.12718
984.078	-33.0767
984.451	-34.07832
984.824	5.01158
985.197	27.06112
985.57	48.11146
985.943	-21.04792
986.316	62.14146
986.688	18.0404
987.061	-5.01085
987.434	1.00248
987.806	34.07648
988.179	-15.03303
988.551	38.08977
988.923	15.03459
989.295	40.09328
989.667	63.14313
990.039	11.02577
990.411	33.07125
990.783	9.01918
991.155	46.10495
991.527	-10.02266
991.898	-9.02107
992.27	12.02804
992.641	5.01176
993.012	89.19406
993.384	29.0646
993.755	-7.01684
994.126	32.07207
994.497	9.02077
994.868	48.10233
995.239	44.10014
995.61	-14.0333
995.98	22.05072
996.351	11.02592
996.722	45.09775
997.092	33.07382
997.462	29.06404
997.833	2.00442
998.203	7.01581
998.573	24.05674
998.943	-5.01085
999.313	29.06538
999.683	-4.00893
1000.053	70.14904
1000.423	23.05236
1000.792	-4.00988
1001.162	14.03265
1001.531	28.06522
1001.901	17.03965
1002.27	104.21275
1002.639	0
1003.009	45.10116
1003.378	54.12999
1003.747	42.09172
1004.116	54.12101
1004.485	96.21283
1004.853	28.06686
1005.222	57.13619
1005.591	-9.01987
1005.959	58.12236
1006.328	-15.03142
1006.696	27.06149
1007.064	-18.04305
1007.433	30.07087
1007.801	41.09315
1008.169	10.02364
1008.537	69.14035
1008.905	3.00658
1009.273	-2.00465
1009.64	-10.02263
1010.008	-13.02905
1010.375	75.16811
1010.743	73.15065
1011.11	47.10374
1011.478	-6.01399
1011.845	-26.05651
1012.212	-2.00417
1012.579	-10.02328
1012.946	5.01094
1013.313	26.05745
1013.68	42.08619
1014.047	29.06567
1014.414	50.1109
1014.78	6.01423
1015.147	15.0334
1015.513	61.13898
1015.88	24.05694
1016.246	37.08573
1016.612	0
1016.978	-10.02303
1017.344	63.14701
1017.71	-38.08572
1018.076	54.11742
1018.442	36.08679
1018.808	36.08462
1019.174	-24.05681
1019.539	35.072
1019.905	-16.03578
1020.27	32.07492
1020.636	40.08901
1021.001	16.03555
1021.366	15.03449
1021.731	38.09255
1022.096	10.02412
1022.461	-13.02853
1022.826	40.08864
1023.191	20.04985
1023.556	-9.01946
1023.92	30.06814
1024.285	31.07037
1024.649	37.08484
1025.014	49.11313
1025.378	39.09322
1025.742	36.08366
1026.107	70.143
1026.471	47.09896
1026.835	-11.02547
1027.199	-20.0458
1027.562	16.03491
1027.926	4.00916
1028.29	34.08125
1028.654	28.05902
1029.017	35.08084
1029.381	43.09622
1029.744	39.09436
1030.107	-7.01521
1030.471	-3.00671
1030.834	34.07006
1031.197	7.01552
1031.56	38.08442
1031.923	-6.01473
1032.286	58.12478
1032.648	53.11659
1033.011	41.08743
1033.374	-3.00649
1033.736	-25.06285
1034.099	35.08029
1034.461	14.03376
1034.823	10.02334
1035.185	-7.0164
1035.548	-1.00228
1035.91	77.17202
1036.272	16.03387
1036.634	40.08993
1036.995	48.10579
1037.357	-21.04846
1037.719	28.06357
1038.08	12.02607
1038.442	98.21889
1038.803	42.09304
1039.165	3.00718
1039.526	44.09917
1039.887	41.09209
1040.248	55.1296
1040.609	31.07157
1040.97	-19.04381
1041.331	-28.06615
1041.692	37.08112
1042.053	35.07275
1042.413	-5.01075
1042.774	23.05202
1043.134	16.03507
1043.495	-3.00707
1043.855	-6.01372
1044.215	23.0534
1044.576	-1.00227
1044.936	86.18151
1045.296	3.00701
1045.656	5.01153
1046.016	-17.03807
1046.375	28.06417
1046.735	51.10823
1047.095	9.01972
1047.454	51.09801
1047.814	5.01117
1048.173	-2.00438
1048.533	19.04074
1048.892	-8.01826
1049.251	26.06133
1049.61	-25.05753
1049.969	24.05321
1050.328	-40.0796
1050.687	22.04999
1051.046	19.04378
1051.405	-13.03012
1051.763	-3.00649
1052.122	11.02618
1052.48	2.00458
1052.839	1.00221
1053.197	47.10279
1053.555	-27.05527
1053.914	57.12897
1054.272	31.0696
1054.63	-31.07131
1054.988	8.01774
1055.345	15.02929
1055.703	22.0489
1056.061	12.02926
1056.419	11.02715
1056.776	55.12318
1057.134	-8.01726
1057.491	6.01412
1057.848	32.0741
1058.206	23.05026
1058.563	57.11652
1058.92	30.06323
1059.277	-27.06179
1059.634	-13.02799
1059.991	64.14266
1060.348	28.05925
1060.704	-8.01798
1061.061	24.05039
1061.418	46.10478
1061.774	36.08458
1062.131	44.11273
1062.487	-31.06762
1062.843	34.07932
1063.199	50.11706
1063.555	17.03704
1063.911	30.07087
1064.267	-9.01675
1064.623	50.11463
1064.979	-26.05622
1065.335	-3.00659
1065.691	78.17451
1066.046	9.01808
1066.402	17.03581
1066.757	45.10666
1067.112	-37.08494
1067.468	7.01579
1067.823	65.14527
1068.178	32.07277
1068.533	29.06503
1068.888	24.05279
1069.243	17.03965
1069.598	-16.036
1069.952	36.07655
1070.307	23.05451
1070.662	41.09092
1071.016	27.05665
1071.371	-1.00211
1071.725	-20.04367
1072.079	1.00225
1072.434	47.10617
1072.788	49.10924
1073.142	50.11582
1073.496	20.04434
1073.85	14.03013
1074.203	8.01811
1074.557	25.06363
1074.911	36.07878
1075.265	-27.0581
1075.618	67.15246
1075.971	-3.00665
1076.325	-11.02655
1076.678	5.01066
1077.031	-4.00841
1077.385	71.14382
1077.738	32.067
1078.091	29.06221
1078.444	10.02127
1078.796	32.0741
1079.149	-23.05337
1079.502	13.02879
1079.855	36.07841
1080.207	6.01385
1080.56	2.0049
1080.912	-16.03608
1081.264	3.00677
1081.617	17.03898
1081.969	37.08959
1082.321	6.01378
1082.673	29.06232
1083.025	31.06774
1083.377	-277.57319
1083.728	-15.03203
1084.08	49.11524
1084.432	-51.11375
1084.783	127.27386
1085.135	51.12158
1085.486	44.09405
1085.838	17.03933
1086.189	6.01367
1086.54	39.08655
1086.891	25.06051
1087.242	-28.06388
1087.593	31.06971
1087.944	31.06455
1088.295	-41.08629
1088.646	-16.03665
1088.996	3.00677
1089.347	-7.01606
1089.698	-14.03148
1090.048	-6.01467
1090.398	58.12483
1090.749	24.05378
1091.099	3.00722
1091.449	8.01861
1091.799	16.03759
1092.149	45.10521
1092.499	26.05963
1092.849	7.01686
1093.199	32.07472
1093.548	-24.05485
1093.898	19.04488
1094.248	41.09901
1094.597	31.07591
1094.947	-7.01779
1095.296	2.00463
1095.645	5.01227
1095.994	38.08554
1096.343	48.11462
1096.692	24.06054
1097.041	16.04171
1097.39	5.01178
1097.739	33.0814
1098.088	2.00504
1098.437	-21.05307
1098.785	-3.00768
1099.134	-20.05
1099.482	-21.05499
1099.83	-16.03991
1100.179	29.07282
1100.527	-7.0176
1100.875	-16.04043
1101.223	46.11661
1101.571	-22.05889
1101.919	-13.03279
1102.267	18.04929
1102.615	-2.00643
1102.962	10.03206
1103.31	14.04491
1103.658	-2.00641
