Data from N3 R7 sample 3_Subt2__1__17-02-12-400.txt Node

Date: Fri Sep 19 17:02:12 PDT 2025
User: uwsun
Spectrometer: HDX01956
Trigger mode: 0
Integration Time (sec): 5.000000E-1
Scans to average: 1
Nonlinearity correction enabled: true
Boxcar width: 0
Storing dark spectrum: false
XAxis mode: Wavelengths
Number of Pixels in Spectrum: 2068
>>>>>Begin Spectral Data<<<<<
194.03	57.16415
194.578	56.18098
195.127	65.20703
195.676	59.18787
196.225	95.24708
196.773	106.29127
197.321	135.36912
197.87	152.38366
198.418	201.50796
198.966	205.5271
199.513	183.45653
200.061	133.33229
200.609	175.45107
201.156	145.30583
201.704	145.35727
202.251	137.35766
202.798	157.40186
203.345	150.36393
203.892	166.40864
204.438	154.36012
204.985	187.43394
205.532	231.60261
206.078	155.37317
206.624	143.34819
207.17	198.44443
207.716	163.38334
208.262	186.35237
208.808	152.37155
209.354	183.43389
209.899	175.42849
210.445	180.4413
210.99	173.40875
211.535	239.53855
212.08	138.31332
212.625	171.41714
213.17	160.39488
213.715	201.43845
214.259	222.50117
214.804	110.26599
215.348	142.31704
215.892	215.50029
216.436	216.48444
216.98	174.36885
217.524	143.33066
218.068	183.44757
218.612	123.30117
219.155	152.34833
219.698	153.35139
220.242	143.34689
220.785	197.44519
221.328	142.34646
221.871	174.42722
222.414	129.30952
222.956	175.41156
223.499	194.41932
224.041	177.39134
224.583	184.3781
225.126	206.44297
225.668	139.33033
226.21	137.33632
226.751	102.21547
227.293	133.29234
227.835	151.35678
228.376	185.40595
228.918	187.45531
229.459	174.4258
230	137.31717
230.541	129.28712
231.082	151.35609
231.622	131.29375
232.163	156.37109
232.704	138.33256
233.244	125.30277
233.784	174.40785
234.324	147.31794
234.864	146.31895
235.404	175.39676
235.944	130.2966
236.484	173.41224
237.023	174.39874
237.563	147.32895
238.102	149.34097
238.641	186.45803
239.18	111.25585
239.719	173.42406
240.258	143.30903
240.797	207.47807
241.335	121.28468
241.874	151.2818
242.412	141.32772
242.95	141.33121
243.488	155.34241
244.026	141.31682
244.564	186.36479
245.102	165.35779
245.64	137.31968
246.177	171.36605
246.715	171.391
247.252	156.34181
247.789	119.20339
248.326	97.22608
248.863	119.25209
249.4	222.48682
249.936	135.26733
250.473	189.42519
251.009	185.4121
251.546	173.36857
252.082	173.36793
252.618	201.4325
253.154	163.379
253.69	165.35687
254.226	142.32776
254.761	114.24557
255.297	191.40232
255.832	149.33974
256.367	181.40786
256.903	161.33793
257.438	155.3477
257.972	171.36257
258.507	216.47965
259.042	99.20486
259.576	168.34974
260.111	163.36144
260.645	191.397
261.179	179.39923
261.713	144.30752
262.247	228.50672
262.781	229.45879
263.315	179.42375
263.849	163.3951
264.382	168.36934
264.915	159.36327
265.449	172.40789
265.982	135.29361
266.515	199.4669
267.048	191.38903
267.58	165.3399
268.113	220.45616
268.646	217.51866
269.178	146.31612
269.71	188.39033
270.243	186.40702
270.775	208.50975
271.307	150.34416
271.838	196.44247
272.37	212.50274
272.902	249.54039
273.433	157.32837
273.965	237.55778
274.496	127.30414
275.027	181.43097
275.558	158.37064
276.089	201.48665
276.62	177.4329
277.15	162.38566
277.681	176.35889
278.211	182.4261
278.741	203.43286
279.272	206.45079
279.802	208.50066
280.332	179.40781
280.861	200.46218
281.391	196.42401
281.921	153.35167
282.45	210.51083
282.98	200.50517
283.509	218.46676
284.038	139.30154
284.567	154.34056
285.096	238.54998
285.625	237.51982
286.153	183.41169
286.682	182.39709
287.21	235.53906
287.739	196.44121
288.267	189.44361
288.795	195.49386
289.323	236.53429
289.851	228.50651
290.378	166.36019
290.906	160.37885
291.433	172.4159
291.961	196.42256
292.488	215.51447
293.015	267.60213
293.542	190.46305
294.069	245.57459
294.596	210.49857
295.122	217.49697
295.649	286.5991
296.175	190.43698
296.702	235.53754
297.228	160.37004
297.754	178.38375
298.28	195.42356
298.806	222.51505
299.332	212.44841
299.857	197.42481
300.383	210.50605
300.908	213.50228
301.433	204.48003
301.958	219.47386
302.483	275.66278
303.008	215.50581
303.533	147.36606
304.058	183.41389
304.582	175.40095
305.107	194.49386
305.631	229.49275
306.155	272.60726
306.679	212.47742
307.203	219.48844
307.727	290.65492
308.251	229.54063
308.775	238.53882
309.298	242.55967
309.822	260.62533
310.345	239.54097
310.868	231.52818
311.391	290.67412
311.914	216.52247
312.437	250.53596
312.96	261.58788
313.482	314.70391
314.005	233.56157
314.527	238.60285
315.049	264.63182
315.571	337.71856
316.093	271.64399
316.615	304.69912
317.137	221.45506
317.659	252.57608
318.18	292.66858
318.702	295.64975
319.223	287.5529
319.744	286.60969
320.265	263.61125
320.786	299.70313
321.307	330.77858
321.828	296.63841
322.348	306.68457
322.869	226.50332
323.389	290.50785
323.909	318.68732
324.43	310.69866
324.95	352.75722
325.47	355.82372
325.989	400.89297
326.509	348.71929
327.029	343.72405
327.548	342.72463
328.067	328.74496
328.587	355.83316
329.106	369.77756
329.625	327.7976
330.144	285.61693
330.662	350.76036
331.181	394.85812
331.7	372.81021
332.218	424.85161
332.736	360.78009
333.255	350.76263
333.773	386.85282
334.291	340.78908
334.808	360.74109
335.326	430.89394
335.844	459.99096
336.361	429.00462
336.879	446.95362
337.396	423.93162
337.913	418.881
338.43	444.92634
338.947	454.99464
339.464	448.87491
339.981	488.05995
340.497	510.14629
341.014	470.03766
341.53	504.03987
342.046	451.02196
342.562	492.11797
343.078	505.07202
343.594	537.16433
344.11	502.0793
344.626	541.24163
345.141	552.13654
345.657	548.09435
346.172	495.07814
346.687	582.19357
347.202	523.0557
347.717	603.28207
348.232	589.3233
348.747	522.08093
349.261	664.29024
349.776	507.07065
350.29	571.27547
350.805	556.22428
351.319	612.2648
351.833	598.21262
352.347	542.12342
352.861	557.16408
353.374	591.19322
353.888	601.28003
354.401	588.19666
354.915	675.32568
355.428	668.46937
355.941	659.35021
356.454	741.41653
356.967	635.32794
357.48	606.22383
357.993	649.40632
358.505	687.49002
359.018	677.43087
359.53	681.42614
360.042	690.29564
360.554	696.45791
361.066	683.44672
361.578	697.31941
362.09	716.47739
362.602	698.32421
363.113	667.32226
363.625	768.48346
364.136	757.40669
364.647	718.44441
365.158	772.53822
365.669	855.7523
366.18	716.41592
366.691	836.53339
367.201	722.47713
367.712	783.47963
368.222	847.64529
368.733	848.5414
369.243	756.39542
369.753	816.57031
370.263	807.60917
370.773	864.79744
371.282	911.77902
371.792	894.67701
372.301	881.78127
372.811	927.01252
373.32	948.60718
373.829	938.83139
374.338	990.75834
374.847	954.76082
375.356	1082.05284
375.865	1037.71935
376.373	1144.99816
376.882	1124.25244
377.39	1234.27988
377.898	1233.36215
378.407	1266.08426
378.915	1275.99588
379.423	1358.35871
379.93	1413.26601
380.438	1462.58683
380.946	1560.52975
381.453	1626.67284
381.96	1633.63817
382.468	1819.80214
382.975	1874.97233
383.482	2000.67871
383.989	1909.18559
384.495	2090.82601
385.002	2176.46678
385.509	2293.93637
386.015	2500.35192
386.521	2457.75198
387.028	2666.85118
387.534	2755.58733
388.04	2773.04799
388.546	2832.69296
389.051	3048.59755
389.557	3293.85384
390.063	3556.77002
390.568	3674.84621
391.073	3766.46899
391.578	3839.81822
392.084	4025.18105
392.589	4104.06849
393.093	4436.27006
393.598	4751.84916
394.103	5318.81002
394.607	5740.53071
395.112	6204.56798
395.616	6607.34758
396.12	7247.23421
396.624	7990.80346
397.128	8637.70597
397.632	9604.86606
398.136	10404.55093
398.639	10962.79337
399.143	12122.64438
399.646	13912.67881
400.15	15482.41843
400.653	16998.46053
401.156	19142.75347
401.659	22142.96707
402.162	27234.71914
402.664	36115.7176
403.167	50537.51276
403.67	59248.32699
404.172	55487.84425
404.674	37291.05854
405.176	4428.40989
405.678	533.47942
406.18	0
406.682	0
407.184	6962.89417
407.686	50953.82939
408.187	59237.6763
408.688	61091.12691
409.19	61923.45898
409.691	51970.80661
410.192	44283.57138
410.693	38370.98892
411.194	34730.01512
411.694	32815.15742
412.195	30574.14892
412.696	27399.77849
413.196	25522.36589
413.696	24799.63242
414.196	24998.11422
414.696	24663.20925
415.196	23484.63604
415.696	21295.26454
416.196	17192.03185
416.695	13452.80123
417.195	11344.63316
417.694	10816.08001
418.194	10135.95271
418.693	9489.57292
419.192	9227.86604
419.691	9043.45814
420.19	8755.90389
420.688	8558.63312
421.187	8111.73458
421.685	7618.47985
422.184	6966.23851
422.682	6022.99893
423.18	5231.64264
423.678	4614.94598
424.176	4234.18569
424.674	3958.08202
425.172	3785.58226
425.669	3519.05336
426.167	3363.68433
426.664	3057.68982
427.161	2792.73102
427.659	2632.14489
428.156	2478.41709
428.652	2283.21393
429.149	2189.97406
429.646	2078.48101
430.143	2022.85518
430.639	1826.67619
431.135	1728.76759
431.632	1666.4295
432.128	1628.61466
432.624	1451.61415
433.12	1410.23892
433.616	1388.07166
434.111	1394.35953
434.607	1268.21553
435.103	1304.86575
435.598	1278.82821
436.093	1194.03888
436.588	1119.88032
437.083	1033.77678
437.578	1017.77988
438.073	946.86533
438.568	969.86657
439.062	936.54577
439.557	864.61666
440.051	793.46276
440.546	819.51986
441.04	756.47141
441.534	766.628
442.028	796.56627
442.522	766.52766
443.015	781.38168
443.509	780.58729
444.002	712.47044
444.496	664.18555
444.989	712.4757
445.482	652.37888
445.975	701.33864
446.468	642.15741
446.961	669.17574
447.454	609.15029
447.947	620.27849
448.439	675.40733
448.931	613.17824
449.424	535.159
449.916	612.25519
450.408	640.24767
450.9	571.19708
451.392	565.2501
451.884	559.08614
452.375	551.18153
452.867	569.09614
453.358	467.92046
453.849	526.95768
454.341	547.06429
454.832	535.9936
455.323	551.17085
455.814	452.90995
456.304	526.0445
456.795	440.87804
457.285	508.9667
457.776	484.94029
458.266	503.05476
458.756	418.88332
459.247	428.90207
459.737	443.94946
460.226	457.90413
460.716	436.93063
461.206	404.85561
461.695	453.0136
462.185	452.9493
462.674	419.84332
463.163	388.75665
463.653	407.75734
464.142	417.89066
464.63	405.88413
465.119	406.84706
465.608	339.70179
466.096	365.71298
466.585	355.72471
467.073	300.64759
467.561	380.83641
468.05	337.69952
468.538	380.85253
469.026	397.85786
469.513	346.65262
470.001	324.66368
470.489	354.75563
470.976	294.61885
471.463	310.71434
471.951	322.73518
472.438	318.68232
472.925	293.6196
473.412	264.59086
473.899	282.59542
474.385	263.59602
474.872	249.5337
475.359	259.58457
475.845	295.55273
476.331	246.48429
476.817	285.6301
477.303	287.6093
477.789	213.47702
478.275	251.57944
478.761	250.55376
479.247	263.53568
479.732	256.59651
480.218	239.57995
480.703	240.56253
481.188	170.33814
481.673	222.47368
482.158	220.4378
482.643	223.52892
483.128	126.2706
483.612	217.46873
484.097	212.48289
484.581	152.32658
485.066	191.43233
485.55	206.41548
486.034	197.40162
486.518	196.4318
487.002	179.41291
487.486	187.4293
487.969	147.34517
488.453	169.4044
488.936	146.30868
489.42	129.27041
489.903	186.44108
490.386	166.33465
490.869	97.19685
491.352	143.32843
491.835	109.20998
492.318	172.367
492.8	144.27627
493.283	190.4589
493.765	146.34262
494.247	62.13757
494.73	129.26933
495.212	152.34497
495.694	88.19688
496.175	68.15565
496.657	161.36517
497.139	45.07118
497.62	116.26444
498.102	142.33662
498.583	75.17817
499.064	183.38801
499.545	175.3738
500.026	99.2111
500.507	53.11704
500.988	116.2719
501.469	62.14873
501.949	66.15519
502.43	60.13695
502.91	94.18383
503.39	127.30182
503.87	100.22557
504.35	96.21327
504.83	116.24138
505.31	124.28758
505.79	81.18603
506.269	73.16228
506.749	81.17669
507.228	115.25713
507.707	55.11702
508.187	104.2345
508.666	62.1459
509.145	66.14821
509.623	88.19729
510.102	65.15084
510.581	89.20334
511.059	60.14683
511.538	79.19587
512.016	68.15746
512.494	51.11835
512.972	55.12733
513.45	91.20481
513.928	49.11515
514.406	84.19913
514.884	101.25289
515.361	53.12397
515.839	36.07901
516.316	87.19917
516.793	39.09535
517.27	92.21489
517.747	80.19832
518.224	35.07787
518.701	76.16287
519.178	127.30669
519.654	-6.01361
520.131	31.07364
520.607	38.09126
521.083	107.23469
521.56	44.09998
522.036	82.17299
522.512	35.08356
522.987	124.28439
523.463	107.24427
523.939	58.13718
524.414	46.10164
524.89	58.13163
525.365	72.15843
525.84	77.18123
526.315	-6.01403
526.79	54.11632
527.265	-8.01757
527.74	11.02607
528.215	83.18856
528.689	57.1235
529.164	23.04732
529.638	55.13727
530.112	52.12022
530.587	83.17206
531.061	25.059
531.534	29.0677
532.008	66.15392
532.482	14.03053
532.956	92.22956
533.429	0
533.903	50.10544
534.376	72.15209
534.849	49.11028
535.322	78.17695
535.795	42.09941
536.268	48.11256
536.741	34.07907
537.213	88.19566
537.686	5.01181
538.158	17.03716
538.631	40.09339
539.103	-1.00219
539.575	29.05821
540.047	21.04464
540.519	23.05289
540.991	37.08688
541.463	66.15495
541.934	59.13061
542.406	44.10197
542.877	37.08061
543.348	2.00459
543.82	51.12055
544.291	-5.01119
544.762	3.00693
545.233	88.21495
545.703	28.06042
546.174	44.09962
546.645	66.15555
547.115	59.13789
547.585	92.20575
548.056	57.13588
548.526	55.12566
548.996	73.16907
549.466	53.12426
549.935	73.16981
550.405	98.2082
550.875	65.14803
551.344	85.19819
551.814	39.0854
552.283	74.15316
552.752	35.07897
553.221	67.14026
553.69	78.16744
554.159	127.30367
554.628	77.16547
555.096	73.17875
555.565	84.17915
556.033	39.08857
556.502	86.19961
556.97	61.12951
557.438	74.1689
557.906	59.13502
558.374	64.1413
558.842	55.12743
559.31	-1.00217
559.777	74.17359
560.245	37.08307
560.712	-4.00888
561.18	24.05128
561.647	56.12001
562.114	-3.00669
562.581	53.12702
563.048	43.0944
563.514	53.12673
563.981	26.05745
564.448	38.08288
564.914	59.13186
565.381	49.10589
565.847	39.08792
566.313	22.04953
566.779	105.22866
567.245	58.13121
567.711	53.12387
568.176	85.18848
568.642	93.22645
569.108	78.18519
569.573	83.18489
570.038	71.14448
570.504	93.20287
570.969	38.09227
571.434	89.18945
571.899	112.25677
572.363	64.14023
572.828	84.18281
573.293	83.18343
573.757	94.20883
574.222	132.28471
574.686	126.27165
575.15	127.28993
575.614	106.23216
576.078	104.23354
576.542	177.38233
577.006	172.36954
577.469	141.32927
577.933	95.2024
578.396	128.29427
578.86	87.19565
579.323	133.30252
579.786	139.28299
580.249	81.17842
580.712	42.09883
581.175	114.26983
581.637	159.35022
582.1	123.25452
582.563	83.16505
583.025	131.3034
583.487	105.20033
583.95	65.13517
584.412	86.17098
584.874	113.26161
585.336	158.35611
585.797	144.29297
586.259	77.17103
586.721	109.24512
587.182	114.24936
587.643	110.23756
588.105	156.35103
588.566	171.33703
589.027	151.34971
589.488	147.31508
589.949	85.19538
590.41	153.28383
590.87	111.23566
591.331	64.13003
591.791	153.32865
592.252	124.26986
592.712	149.33823
593.172	188.39591
593.632	129.25856
594.092	148.31044
594.552	159.31796
595.011	208.44978
595.471	193.40223
595.931	196.40585
596.39	209.4696
596.849	237.50952
597.308	231.45915
597.768	199.47655
598.227	226.50749
598.685	258.53423
599.144	236.51032
599.603	266.57986
600.062	258.49093
600.52	317.64361
600.978	334.72592
601.437	352.72169
601.895	362.68347
602.353	375.73147
602.811	366.7246
603.269	380.81252
603.727	405.86841
604.184	413.82703
604.642	434.94322
605.099	489.98602
605.557	440.93957
606.014	489.90769
606.471	537.18807
606.928	575.09657
607.385	569.22543
607.842	632.24139
608.299	670.3044
608.755	653.32945
609.212	702.29944
609.668	691.28063
610.125	754.49048
610.581	739.40793
611.037	751.3879
611.493	706.37069
611.949	770.52855
612.405	812.29232
612.861	814.51169
613.316	856.6624
613.772	799.48562
614.227	836.59267
614.683	873.45852
615.138	928.74176
615.593	802.4901
616.048	821.47675
616.503	867.71297
616.958	907.82721
617.412	898.68536
617.867	886.56506
618.321	845.31704
618.776	888.52953
619.23	839.60188
619.684	803.43249
620.138	848.52269
620.592	843.64217
621.046	835.5573
621.5	863.67641
621.954	824.45982
622.407	866.50502
622.861	788.53306
623.314	822.4948
623.768	821.54249
624.221	812.25181
624.674	754.39172
625.127	805.51905
625.58	697.26417
626.033	714.25337
626.485	756.47629
626.938	634.25704
627.39	698.34096
627.843	718.345
628.295	671.28807
628.747	697.37217
629.199	765.4237
629.651	658.24576
630.103	652.25304
630.555	630.08362
631.006	603.19074
631.458	593.16109
631.909	642.21127
632.361	585.13729
632.812	631.22572
633.263	638.11498
633.714	591.02967
634.165	556.12526
634.616	655.28876
635.067	634.13771
635.518	633.24014
635.968	653.04539
636.419	616.08664
636.869	607.20202
637.319	640.22994
637.769	627.17395
638.219	659.28264
638.669	663.32718
639.119	703.41192
639.569	682.38763
640.019	673.27577
640.468	686.22681
640.918	753.47355
641.367	709.29969
641.816	830.472
642.265	736.38557
642.714	851.57466
643.163	773.40445
643.612	810.60208
644.061	809.32693
644.51	848.53984
644.958	860.47803
645.406	865.66276
645.855	896.73937
646.303	938.68814
646.751	936.66649
647.199	960.63636
647.647	990.77468
648.095	967.69213
648.543	997.46606
648.99	1026.89494
649.438	1064.89111
649.885	1002.95467
650.333	1027.38865
650.78	1027.95579
651.227	1094.04053
651.674	1003.74888
652.121	977.82177
652.568	1059.97304
653.015	1008.94412
653.461	1040.89125
653.908	1077.87831
654.354	1044.86504
654.801	984.791
655.247	1028.67023
655.693	966.01612
656.139	983.82394
656.585	1016.88483
657.031	992.80923
657.477	1027.6728
657.922	995.77591
658.368	980.88102
658.813	945.65006
659.259	971.83021
659.704	979.78232
660.149	1036.83647
660.594	987.8205
661.039	1021.78316
661.484	1014.86714
661.929	964.74035
662.373	1007.03286
662.818	1005.97394
663.262	963.80713
663.707	939.88914
664.151	969.88976
664.595	963.8284
665.039	998.93307
665.483	972.99184
665.927	979.76884
666.371	993.79511
666.814	1023.87389
667.258	1053.93573
667.701	1072.6566
668.145	995.92863
668.588	1043.99014
669.031	1097.97254
669.474	993.85623
669.917	1140.81997
670.36	1037.98249
670.803	1103.00226
671.245	1076.63564
671.688	1030.92979
672.13	1090.80411
672.573	1174.27416
673.015	1153.05431
673.457	1150.83185
673.899	1113.02048
674.341	1082.9837
674.783	1137.06315
675.225	1159.13824
675.666	1148.08371
676.108	1210.87769
676.549	1189.05359
676.991	1150.82457
677.432	1112.53456
677.873	1132.92649
678.314	1159.04916
678.755	1224.21432
679.196	1210.02451
679.637	1162.09432
680.078	1209.04536
680.518	1125.89352
680.959	1169.07225
681.399	1171.15615
681.839	1228.19128
682.28	1163.17654
682.72	1168.93803
683.16	1220.26957
683.6	1217.98712
684.039	1207.73388
684.479	1190.18199
684.919	1251.10428
685.358	1261.34896
685.798	1228.41165
686.237	1226.15748
686.676	1343.16265
687.115	1277.14361
687.554	1284.18167
687.993	1257.90304
688.432	1304.12359
688.871	1269.03467
689.309	1360.37582
689.748	1339.86578
690.186	1325.20782
690.625	1425.35489
691.063	1415.3985
691.501	1397.45158
691.939	1422.50925
692.377	1417.43148
692.815	1418.4004
693.253	1364.26888
693.69	1377.0397
694.128	1457.48598
694.565	1353.28421
695.003	1467.63509
695.44	1401.26305
695.877	1468.36484
696.314	1452.02494
696.751	1515.24906
697.188	1502.32018
697.625	1488.23311
698.061	1487.43928
698.498	1544.50637
698.934	1465.38705
699.371	1511.41495
699.807	1614.50512
700.243	1564.56588
700.679	1538.27059
701.115	1502.34173
701.551	1588.47999
701.987	1515.18573
702.422	1544.43832
702.858	1526.40964
703.294	1547.24896
703.729	1614.64859
704.164	1638.61322
704.599	1612.2428
705.035	1601.29868
705.47	1613.65638
705.904	1584.39295
706.339	1677.40939
706.774	1673.47324
707.209	1713.45736
707.643	1702.62199
708.078	1692.65327
708.512	1698.87483
708.946	1749.61358
709.38	1742.56202
709.814	1691.38353
710.248	1697.61646
710.682	1765.66762
711.116	1782.70713
711.549	1785.96954
711.983	1731.45152
712.416	1774.5455
712.85	1799.88657
713.283	1906.69311
713.716	1859.89438
714.149	1810.60122
714.582	1904.47772
715.015	1876.88533
715.448	1793.82073
715.881	1884.25661
716.313	1891.67234
716.746	1943.72345
717.178	1913.74773
717.61	1935.03429
718.043	1940.89757
718.475	1982.81661
718.907	1976.95575
719.339	1890.50332
719.77	2002.82458
720.202	2049.07443
720.634	2006.92011
721.065	2024.74331
721.497	2038.94077
721.928	2009.9555
722.359	2074.95566
722.79	2131.86172
723.221	2048.00167
723.652	2021.10489
724.083	2040.51927
724.514	2049.52811
724.945	2119.76827
725.375	2080.71136
725.806	2050.91532
726.236	2044.12545
726.666	2079.72706
727.096	2060.89383
727.526	2179.20265
727.956	2190.62361
728.386	2123.89117
728.816	2150.1657
729.246	2151.98264
729.675	2198.07868
730.105	2141.95166
730.534	2171.74698
730.964	2182.07277
731.393	2147.91915
731.822	2295.28715
732.251	2154.19062
732.68	2180.6463
733.109	2233.0506
733.537	2270.93209
733.966	2256.05663
734.395	2237.65856
734.823	2301.54904
735.251	2201.90718
735.68	2303.10742
736.108	2202.12276
736.536	2321.81963
736.964	2167.67141
737.392	2207.04849
737.82	2227.85081
738.247	2291.83997
738.675	2257.7866
739.102	2218.16536
739.53	2264.28008
739.957	2207.21962
740.384	2204.93502
740.811	2253.21758
741.238	2173.90659
741.665	2268.80553
742.092	2222.78814
742.519	2198.10163
742.945	2180.85324
743.372	2154.0361
743.798	2140.19765
744.225	2099.76492
744.651	2102.0235
745.077	2131.03171
745.503	2133.87556
745.929	2181.83114
746.355	2047.86353
746.781	2016.92432
747.207	2027.75893
747.632	2001.89422
748.058	2047.93517
748.483	1960.51014
748.908	2040.96341
749.334	2018.8883
749.759	2000.67176
750.184	2004.73822
750.609	1934.80825
751.033	1922.5584
751.458	1977.49422
751.883	1929.83912
752.307	1875.68556
752.732	1849.93798
753.156	1838.79667
753.58	1873.62011
754.005	1876.99731
754.429	1761.46682
754.853	1854.85102
755.277	1773.59967
755.7	1777.76037
756.124	1695.77127
756.548	1720.57042
756.971	1672.59615
757.394	1740.91359
757.818	1723.93535
758.241	1649.73696
758.664	1682.82478
759.087	1663.35519
759.51	1657.68475
759.933	1589.52932
760.356	1572.72403
760.778	1572.63586
761.201	1468.34764
761.623	1426.29795
762.046	1491.25031
762.468	1468.35029
762.89	1480.47922
763.312	1469.40025
763.734	1371.3011
764.156	1392.40921
764.578	1327.0506
765	1375.33155
765.421	1354.52832
765.843	1340.56949
766.264	1307.18951
766.686	1333.41775
767.107	1242.20502
767.528	1269.38365
767.949	1249.32426
768.37	1195.12835
768.791	1195.07708
769.212	1157.22152
769.632	1143.93018
770.053	1167.34035
770.473	1129.04032
770.894	1069.99269
771.314	1013.79234
771.734	1017.75847
772.154	1048.07773
772.575	1035.77267
772.994	1038.75082
773.414	995.75949
773.834	1003.95431
774.254	949.78692
774.673	906.70957
775.093	914.79626
775.512	929.80909
775.931	900.84005
776.351	859.68289
776.77	822.61902
777.189	808.50871
777.607	802.67649
778.026	823.66465
778.445	774.60934
778.864	782.62743
779.282	760.45537
779.701	762.57171
780.119	690.43833
780.537	680.40491
780.955	715.49479
781.373	662.35728
781.791	691.2609
782.209	714.33091
782.627	638.44024
783.045	649.21941
783.462	622.33142
783.88	595.32477
784.297	566.21452
784.715	553.24588
785.132	559.14245
785.549	543.18136
785.966	543.16284
786.383	546.15391
786.8	548.06852
787.217	465.94495
787.633	467.01662
788.05	412.82102
788.466	504.99782
788.883	501.12212
789.299	394.8213
789.715	413.88632
790.131	425.91954
790.547	347.75433
790.963	388.85079
791.379	400.89739
791.795	395.77708
792.21	374.7602
792.626	358.7456
793.041	347.75497
793.457	332.72679
793.872	330.6879
794.287	338.73742
794.702	317.69264
795.117	253.56589
795.532	324.73945
795.947	267.56932
796.362	307.64294
796.776	267.5369
797.191	233.51493
797.605	297.63795
798.02	284.62749
798.434	244.47763
798.848	235.52195
799.262	273.6242
799.676	199.43777
800.09	175.39321
800.504	236.51752
800.918	224.46549
801.331	191.45861
801.745	233.47782
802.158	185.4242
802.572	224.48893
802.985	199.43096
803.398	189.4107
803.811	179.42113
804.224	180.40934
804.637	118.25527
805.05	195.40857
805.462	174.39024
805.875	202.49431
806.288	147.33179
806.7	164.3805
807.112	191.40108
807.525	140.32147
807.937	130.29899
808.349	104.24196
808.761	118.26487
809.173	107.23756
809.584	121.27534
809.996	127.2904
810.408	79.19365
810.819	130.28268
811.231	137.34054
811.642	150.34512
812.053	138.30925
812.464	136.30151
812.875	129.30857
813.286	103.24751
813.697	97.20297
814.108	49.11105
814.519	93.18848
814.929	96.22617
815.34	65.14713
815.75	64.15336
816.16	52.1195
816.571	87.21295
816.981	31.06745
817.391	109.24271
817.801	108.25414
818.211	103.22849
818.62	52.11701
819.03	76.17165
819.44	93.22696
819.849	112.26438
820.259	100.24053
820.668	50.11748
821.077	58.13617
821.486	62.13745
821.895	41.09318
822.304	32.08095
822.713	34.07503
823.122	89.20931
823.531	60.13368
823.939	103.23391
824.348	104.23565
824.756	93.21633
825.164	54.12663
825.573	43.10196
825.981	119.27396
826.389	25.05847
826.797	40.09482
827.205	44.09417
827.612	28.06458
828.02	42.0935
828.428	24.05768
828.835	39.098
829.243	56.12394
829.65	70.16402
830.057	67.154
830.464	84.1935
830.871	44.09808
831.278	17.03834
831.685	-1.00206
832.092	76.17487
832.499	75.14956
832.905	86.20489
833.312	12.02537
833.718	39.09097
834.124	69.14643
834.531	53.12484
834.937	8.01932
835.343	28.06363
835.749	65.13908
836.155	57.14071
836.561	-13.02975
836.966	48.10956
837.372	-14.03383
837.777	13.03045
838.183	29.05815
838.588	90.20997
838.993	33.07442
839.399	25.05733
839.804	24.05597
840.209	35.08529
840.613	52.10845
841.018	7.01662
841.423	8.01927
841.828	60.14246
842.232	28.06396
842.637	-22.0482
843.041	43.1063
843.445	-1.00236
843.849	17.03981
844.253	0
844.657	48.11519
845.061	66.13875
845.465	79.18231
845.869	48.10309
846.272	-4.00923
846.676	26.05934
847.079	41.0995
847.483	81.18782
847.886	39.08706
848.289	26.06745
848.692	-3.0072
849.095	-10.0224
849.498	9.02109
849.901	-4.00851
850.304	3.00669
850.707	-4.00967
851.109	7.01641
851.512	-1.00235
851.914	64.15528
852.316	43.10302
852.718	13.03244
853.121	8.01855
853.523	30.06529
853.925	-12.03006
854.326	26.06237
854.728	-9.0221
855.13	16.03965
855.531	41.0936
855.933	24.05381
856.334	19.04514
856.736	-5.01039
857.137	46.09964
857.538	13.03101
857.939	21.04945
858.34	25.05677
858.741	-6.01496
859.142	40.09027
859.542	58.14844
859.943	61.14352
860.343	-36.0859
860.744	64.14649
861.144	28.06419
861.544	56.12818
861.945	4.00961
862.345	-38.08666
862.745	47.10976
863.145	19.04155
863.544	81.1942
863.944	15.03307
864.344	3.00694
864.743	47.10937
865.143	49.11873
865.542	24.05174
865.941	77.17989
866.34	54.12076
866.74	24.0614
867.139	9.02048
867.537	21.05025
867.936	36.08161
868.335	38.09213
868.734	41.10024
869.132	90.19453
869.531	67.15024
869.929	29.06243
870.327	25.05624
870.726	58.13468
871.124	38.08179
871.522	-16.03843
871.92	19.04404
872.318	36.08286
872.715	48.11062
873.113	16.03686
873.511	15.03541
873.908	50.12222
874.306	-7.01661
874.703	11.02596
875.1	23.05519
875.497	18.04022
875.894	49.11497
876.291	61.14117
876.688	14.03422
877.085	11.02465
877.482	5.01174
877.878	6.01367
878.275	-1.0024
878.671	-48.09734
879.068	21.04744
879.464	33.07503
879.86	11.02484
880.256	-21.04842
880.652	24.05764
881.048	40.09163
881.444	-10.02206
881.84	-14.03367
882.236	68.16045
882.631	39.09004
883.027	-6.01346
883.422	-11.02674
883.817	44.10567
884.213	40.0972
884.608	24.05617
885.003	34.07717
885.398	20.0473
885.793	-25.05944
886.188	33.07843
886.582	16.038
886.977	39.08608
887.371	42.0998
887.766	2.00477
888.16	72.16811
888.554	9.0207
888.949	28.06509
889.343	-6.01362
889.737	30.07761
890.131	22.05243
890.525	-4.00969
890.918	62.14783
891.312	-5.01102
891.706	87.21658
892.099	3.00721
892.492	49.09708
892.886	-30.06922
893.279	30.0723
893.672	19.04602
894.065	-1.00236
894.458	-8.01905
894.851	8.01813
895.244	47.11337
895.637	49.11051
896.029	48.10978
896.422	18.04112
896.814	28.06574
897.206	66.14821
897.599	-6.01367
897.991	35.07964
898.383	1.00221
898.775	71.14672
899.167	3.00666
899.559	38.08994
899.951	56.12208
900.342	-11.02606
900.734	34.08153
901.125	-6.01486
901.517	31.07197
901.908	18.03996
902.299	23.05321
902.69	45.09908
903.082	36.08147
903.473	24.05465
903.863	78.18875
904.254	-12.02604
904.645	16.03689
905.036	48.11075
905.426	-9.01862
905.817	-11.02554
906.207	6.01355
906.597	-25.05551
906.987	-4.00972
907.378	5.0119
907.768	16.04049
908.158	26.05973
908.547	-21.05211
908.937	-2.00485
909.327	26.05887
909.717	24.05683
910.106	7.01583
910.495	93.21727
910.885	-11.02596
911.274	11.02614
911.663	51.12288
912.052	10.02301
912.441	23.05592
912.83	3.0064
913.219	-17.04192
913.608	27.06201
913.997	-16.03813
914.385	36.07911
914.774	31.07034
915.162	30.06645
915.55	28.06347
915.939	-4.00964
916.327	37.08664
916.715	60.14525
917.103	3.00689
917.491	-20.04613
917.878	-20.04569
918.266	16.03927
918.654	51.12432
919.041	-24.0601
919.429	42.09288
919.816	23.05468
920.203	1.00229
920.591	-2.00465
920.978	22.0504
921.365	-16.03992
921.752	8.01802
922.139	99.19669
922.525	-1.00226
922.912	-14.03212
923.299	11.02598
923.685	1.00249
924.072	-2.00425
924.458	-9.02115
924.844	26.06044
925.231	34.07302
925.617	33.08077
926.003	30.07235
926.389	33.07933
926.774	33.07927
927.16	24.05573
927.546	22.05344
927.931	27.06335
928.317	-36.07645
928.702	-2.0044
929.088	11.02454
929.473	21.05062
929.858	-21.0492
930.243	2.00456
930.628	-38.0875
931.013	56.13183
931.398	23.04857
931.783	37.09214
932.167	27.06151
932.552	11.02561
932.937	-3.00691
933.321	-51.12181
933.705	19.04583
934.09	-19.04482
934.474	63.1383
934.858	10.02478
935.242	90.19537
935.626	11.02655
936.009	-11.02797
936.393	57.13765
936.777	33.08062
937.16	-14.03426
937.544	33.07199
937.927	25.06019
938.311	56.12606
938.694	16.04018
939.077	0
939.46	74.16951
939.843	11.02066
940.226	10.02416
940.609	-21.04501
940.991	-4.00967
941.374	-15.03446
941.757	-6.01394
942.139	-24.05001
942.522	5.01089
942.904	60.13457
943.286	-22.05264
943.668	10.02456
944.05	5.01161
944.432	30.06988
944.814	-11.02533
945.196	16.03727
945.578	-12.02732
945.959	31.06788
946.341	0
946.722	8.01766
947.104	-3.00668
947.485	19.0411
947.866	50.11954
948.247	21.05008
948.628	29.06567
949.009	20.04869
949.39	-46.10677
949.771	13.02794
950.152	21.04877
950.532	60.14289
950.913	21.04682
951.293	46.11929
951.674	-38.08638
952.054	-24.05676
952.434	-26.06071
952.814	-15.03294
953.194	53.13117
953.574	-18.04125
953.954	31.06874
954.334	26.06137
954.714	22.05058
955.093	25.05677
955.473	0
955.853	53.12987
956.232	-22.05801
956.611	13.02856
956.99	10.02389
957.37	15.03616
957.749	-19.04224
958.128	27.06493
958.506	60.14803
958.885	8.01899
959.264	-12.0279
959.643	61.12821
960.021	0
960.4	30.06412
960.778	-8.01821
961.156	-17.04046
961.535	-84.18157
961.913	-38.08189
962.291	12.02964
962.669	-38.0923
963.047	14.03332
963.424	54.13013
963.802	-26.05992
964.18	7.0166
964.557	11.02316
964.935	24.05279
965.312	4.00998
965.69	40.09328
966.067	28.06326
966.444	21.04854
966.821	11.02668
967.198	-14.03146
967.575	8.01827
967.952	54.11797
968.329	16.03636
968.705	29.05597
969.082	24.05869
969.458	10.02289
969.835	14.03192
970.211	-21.05148
970.587	45.10492
970.963	37.08918
971.339	-1.00251
971.715	-28.06522
972.091	10.02309
972.467	-16.03708
972.843	-52.12332
973.219	0
973.594	6.01496
973.97	50.10868
974.345	-20.04511
974.721	-12.02718
975.096	26.05822
975.471	86.18867
975.846	64.14395
976.221	13.0313
976.596	17.03823
976.971	37.08559
977.346	0
977.72	24.05755
978.095	42.10271
978.469	44.09795
978.844	73.17048
979.218	-12.02742
979.593	36.08058
979.967	76.17298
980.341	-15.0321
980.715	45.10567
981.089	-32.07527
981.463	41.08841
981.837	62.14248
982.21	39.0832
982.584	13.02927
982.957	21.04989
983.331	16.03534
983.704	33.07664
984.078	-17.03939
984.451	2.00457
984.824	24.0554
985.197	24.05436
985.57	6.01405
985.943	-35.0801
986.316	33.07573
986.688	23.05157
987.061	3.0065
987.434	11.02728
987.806	-11.02497
988.179	10.0219
988.551	46.1085
988.923	-2.00463
989.295	23.05382
989.667	28.06406
990.039	35.08161
990.411	25.05407
990.783	37.07838
991.155	34.07776
991.527	-7.01585
991.898	-36.08472
992.27	6.01404
992.641	24.05623
993.012	82.17906
993.384	25.05574
993.755	3.0072
994.126	57.12771
994.497	-11.02549
994.868	40.08542
995.239	16.03662
995.61	-22.05241
995.98	-4.00927
996.351	19.0447
996.722	34.07403
997.092	5.01125
997.462	-7.01557
997.833	34.07456
998.203	29.06522
998.573	47.11062
998.943	-19.04134
999.313	19.04292
999.683	-7.01563
1000.053	25.05375
1000.423	61.1378
1000.792	46.11261
1001.162	-16.03753
1001.531	56.12972
1001.901	23.05359
1002.27	56.1158
1002.639	27.0654
1003.009	33.07436
1003.378	16.03879
1003.747	-8.01765
1004.116	-6.01361
1004.485	51.11413
1004.853	72.17048
1005.222	27.06488
1005.591	18.03952
1005.959	30.06368
1006.328	32.06632
1006.696	67.15135
1007.064	50.11803
1007.433	67.15714
1007.801	64.14472
1008.169	1.00237
1008.537	60.12229
1008.905	28.06107
1009.273	-12.02797
1009.64	7.01579
1010.008	30.06645
1010.375	85.19013
1010.743	-3.0063
1011.11	43.09499
1011.478	7.01628
1011.845	-21.0456
1012.212	-47.099
1012.579	49.11272
1012.946	54.11697
1013.313	18.03984
1013.68	26.05355
1014.047	56.12612
1014.414	22.04908
1014.78	36.08488
1015.147	31.0688
1015.513	22.05052
1015.88	-21.05025
1016.246	45.1041
1016.612	23.04826
1016.978	4.00919
1017.344	91.21118
1017.71	-3.00672
1018.076	51.11097
1018.442	19.04595
1018.808	13.03069
1019.174	-29.06871
1019.539	43.0883
1019.905	-12.02681
1020.27	49.11434
1020.636	39.0868
1021.001	15.03333
1021.366	109.24592
1021.731	77.18616
1022.096	34.08163
1022.461	13.02837
1022.826	-14.03137
1023.191	35.087
1023.556	-6.01296
1023.92	15.03417
1024.285	20.0455
1024.649	64.14596
1025.014	9.02094
1025.378	24.05753
1025.742	17.03965
1026.107	5.01037
1026.471	21.04447
1026.835	-24.05571
1027.199	-5.01141
1027.562	52.11259
1027.926	55.1246
1028.29	-22.05314
1028.654	16.03381
1029.017	61.14016
1029.381	22.04944
1029.744	60.14459
1030.107	30.06465
1030.471	44.09751
1030.834	-4.00831
1031.197	-7.01557
1031.56	80.17618
1031.923	32.07799
1032.286	8.0174
1032.648	13.02884
1033.011	54.11482
1033.374	-12.026
1033.736	2.005
1034.099	-4.00925
1034.461	-1.00242
1034.823	-38.08953
1035.185	-13.03049
1035.548	-7.01601
1035.91	64.14336
1036.272	37.07797
1036.634	11.02488
1036.995	47.10361
1037.357	-49.11371
1037.719	32.0726
1038.08	-6.01309
1038.442	24.05443
1038.803	13.02897
1039.165	10.02389
1039.526	-15.03422
1039.887	42.09432
1040.248	37.08749
1040.609	28.06468
1040.97	20.04576
1041.331	-28.06615
1041.692	11.02425
1042.053	54.11177
1042.413	55.11667
1042.774	22.04977
1043.134	13.02851
1043.495	17.0399
1043.855	18.04095
1044.215	6.01398
1044.576	37.08324
1044.936	75.15867
1045.296	35.08132
1045.656	27.06199
1046.016	0
1046.375	72.16354
1046.735	45.09562
1047.095	35.07625
1047.454	25.04835
1047.814	-1.00224
1048.173	14.03058
1048.533	59.12543
1048.892	13.02955
1049.251	38.08942
1049.61	-20.04598
1049.969	27.05982
1050.328	0
1050.687	4.00912
1051.046	-2.00463
1051.405	8.01846
1051.763	34.07296
1052.122	38.08998
1052.48	-26.05989
1052.839	37.08109
1053.197	-11.02435
1053.555	-26.05321
1053.914	-6.01375
1054.272	24.05396
1054.63	14.03192
1054.988	-11.02449
1055.345	-19.0374
1055.703	11.0245
1056.061	3.00733
1056.419	-12.02975
1056.776	31.06977
1057.134	44.09388
1057.491	34.07957
1057.848	-7.01633
1058.206	15.03283
1058.563	76.15469
1058.92	33.06951
1059.277	-21.048
1059.634	-8.0172
1059.991	49.10956
1060.348	48.10113
1060.704	23.05136
1061.061	18.03784
1061.418	6.01378
1061.774	53.12411
1062.131	60.15329
1062.487	14.03025
1062.843	14.03279
1063.199	79.18391
1063.555	-10.02191
1063.911	-14.03335
1064.267	28.05162
1064.623	49.11236
1064.979	-16.03452
1065.335	-23.05075
1065.691	76.1701
1066.046	-17.03436
1066.402	12.0253
1066.757	12.02862
1067.112	35.07919
1067.468	29.06511
1067.823	63.14086
1068.178	52.11778
1068.533	18.04045
1068.888	-2.00442
1069.243	28.06517
1069.598	-33.07452
1069.952	46.0976
1070.307	4.00952
1070.662	25.05562
1071.016	-24.05092
1071.371	-44.09364
1071.725	-40.08772
1072.079	21.04707
1072.434	-41.09428
1072.788	74.16412
1073.142	69.15924
1073.496	11.02443
1073.85	23.04941
1074.203	32.0721
1074.557	-7.01792
1074.911	8.01761
1075.265	-3.00642
1075.618	63.14348
1075.971	-17.03778
1076.325	3.00722
1076.678	-12.02568
1077.031	13.02723
1077.385	46.09372
1077.738	21.04408
1078.091	1.00216
1078.444	-7.01495
1078.796	39.09018
1079.149	3.00693
1079.502	7.01552
1079.855	26.05675
1080.207	44.10079
1080.56	38.09244
1080.912	-5.01125
1081.264	12.02704
1081.617	34.0777
1081.969	48.11598
1082.321	63.14307
1082.673	10.02158
1083.025	-28.06195
1083.377	-240.49251
1083.728	-5.01065
1084.08	32.07551
1084.432	-75.16811
1084.783	71.15494
1085.135	55.13101
1085.486	48.10251
1085.838	-2.00464
1086.189	25.05673
1086.54	2.00447
1086.891	51.12283
1087.242	-9.02046
1087.593	29.06524
1087.944	3.00629
1088.295	23.04772
1088.646	26.05906
1088.996	-15.03398
1089.347	13.02971
1089.698	6.01343
1090.048	-9.02202
1090.398	29.0628
1090.749	30.06715
1091.099	7.01683
1091.449	-22.05149
1091.799	25.05864
1092.149	4.00943
1092.499	22.0505
1092.849	-19.04599
1093.199	13.03047
1093.548	9.02043
1093.898	-16.03805
1094.248	27.06537
1094.597	51.12441
1094.947	-19.0484
1095.296	-26.06047
1095.645	4.00982
1095.994	16.03618
1096.343	73.17349
1096.692	-5.01268
1097.041	4.01045
1097.39	-19.04498
1097.739	34.08385
1098.088	-15.03792
1098.437	9.02262
1098.785	-23.05908
1099.134	-24.06004
1099.482	-25.06551
1099.83	4.00994
1100.179	37.09278
1100.527	-17.04283
1100.875	-8.02019
1101.223	45.1141
1101.571	16.04256
1101.919	-34.08607
1102.267	21.05748
1102.615	17.05455
1102.962	0
1103.31	12.0385
1103.658	-7.02246
