Data from N3 R7 sample 11_Subt2__3__16-58-32-905.txt Node

Date: Fri Sep 19 16:58:32 PDT 2025
User: uwsun
Spectrometer: HDX01956
Trigger mode: 0
Integration Time (sec): 5.000000E-1
Scans to average: 1
Nonlinearity correction enabled: true
Boxcar width: 0
Storing dark spectrum: false
XAxis mode: Wavelengths
Number of Pixels in Spectrum: 2068
>>>>>Begin Spectral Data<<<<<
194.03	74.21258
194.578	77.24823
195.127	75.23859
195.676	65.20683
196.225	97.2522
196.773	126.34512
197.321	119.32621
197.87	211.52695
198.418	206.52013
198.966	232.5937
199.513	245.6043
200.061	169.41947
200.609	209.53551
201.156	134.28331
201.704	210.51121
202.251	181.46896
202.798	164.41926
203.345	241.57469
203.892	196.47981
204.438	191.4434
204.985	197.45624
205.532	273.70703
206.078	226.53676
206.624	196.47249
207.17	227.50649
207.716	141.33302
208.262	183.34694
208.808	236.56783
209.354	189.44759
209.899	190.46391
210.445	230.55864
210.99	241.56189
211.535	244.54925
212.08	188.42251
212.625	204.49457
213.17	188.46159
213.715	219.47589
214.259	201.45571
214.804	207.49135
215.348	207.45594
215.892	249.57551
216.436	255.56731
216.98	194.40944
217.524	185.4242
218.068	193.47115
218.612	178.43138
219.155	178.40578
219.698	184.41996
220.242	212.50758
220.785	207.46683
221.328	175.42435
221.871	204.49809
222.414	204.48246
222.956	163.38423
223.499	258.55001
224.041	200.44006
224.583	210.429
225.126	232.49609
225.668	197.46293
226.21	202.4899
226.751	171.35575
227.293	124.27307
227.835	141.3338
228.376	188.41227
228.918	200.48578
229.459	210.51045
230	152.35084
230.541	177.39003
231.082	176.41302
231.622	193.42724
232.163	190.449
232.704	157.37698
233.244	159.38265
233.784	160.37606
234.324	201.42971
234.864	168.3653
235.404	195.44031
235.944	190.42823
236.484	186.44211
237.023	244.55128
237.563	161.35923
238.102	230.51774
238.641	171.42226
239.18	185.42011
239.719	149.36686
240.258	186.39825
240.797	205.47364
241.335	171.39839
241.874	195.35994
242.412	179.41291
242.95	209.48441
243.488	215.46899
244.026	239.5262
244.564	206.4021
245.102	207.44484
245.64	164.38065
246.177	180.38457
246.715	215.48725
247.252	164.35873
247.789	133.22646
248.326	161.37051
248.863	161.33793
249.4	233.50976
249.936	208.40485
250.473	248.55116
251.009	252.55354
251.546	194.41142
252.082	188.39852
252.618	259.55034
253.154	197.45498
253.69	197.42316
254.226	208.47378
254.761	195.41273
255.297	193.40635
255.832	184.41657
256.367	233.51944
256.903	182.38024
257.438	151.33901
257.972	192.40522
258.507	241.53238
259.042	150.30685
259.576	224.46051
260.111	210.46109
260.645	243.49923
261.179	162.36259
261.713	177.37529
262.247	276.60727
262.781	223.44739
263.315	201.4738
263.849	187.45123
264.382	223.48458
264.915	255.57131
265.449	248.57946
265.982	195.41869
266.515	241.56079
267.048	196.39876
267.58	201.41071
268.113	216.44827
268.646	211.5049
269.178	190.40751
269.71	243.49833
270.243	219.47589
270.775	257.62409
271.307	211.47818
271.838	253.56449
272.37	255.59967
272.902	256.55475
273.433	210.43406
273.965	263.61583
274.496	168.39917
275.027	198.4699
275.558	209.48537
276.089	216.52149
276.62	212.51512
277.15	255.59617
277.681	179.36476
278.211	207.48225
278.741	275.5772
279.272	236.51316
279.802	242.57873
280.332	256.57414
280.861	220.50637
281.391	209.45087
281.921	197.44881
282.45	270.64938
282.98	241.60425
283.509	221.47287
284.038	185.39739
284.567	243.52737
285.096	277.63513
285.625	260.5675
286.153	242.53783
286.682	214.46374
287.21	208.47971
287.739	191.4304
288.267	236.54883
288.795	268.66988
289.323	271.60915
289.851	230.51074
290.378	230.49224
290.906	221.51709
291.433	241.57513
291.961	249.53071
292.488	274.64824
293.015	295.66146
293.542	238.57481
294.069	238.55894
294.596	289.67564
295.122	292.65863
295.649	287.60106
296.175	213.48762
296.702	256.5831
297.228	225.51364
297.754	297.62393
298.28	291.61914
298.806	263.60521
299.332	252.52835
299.857	279.59103
300.383	251.60014
300.908	291.67578
301.433	291.67311
301.958	229.49444
302.483	294.70602
303.008	245.57302
303.533	242.59218
304.058	317.69732
304.582	307.68468
305.107	306.76345
305.631	276.58787
306.155	317.70113
306.679	274.60919
307.203	284.62487
307.727	279.6315
308.251	278.65006
308.775	286.64115
309.298	328.74556
309.822	290.6935
310.345	296.6622
310.868	305.68697
311.391	306.70906
311.914	250.60083
312.437	304.64412
312.96	318.70789
313.482	302.67868
314.005	304.72281
314.527	307.76803
315.049	305.72421
315.571	351.74614
316.093	374.87105
316.615	333.76136
317.137	330.66281
317.659	325.73201
318.18	377.84841
318.702	373.80808
319.223	415.77491
319.744	401.83347
320.265	370.84169
320.786	372.8623
321.307	397.92442
321.828	365.77556
322.348	379.83508
322.869	376.81128
323.389	256.45232
323.909	389.82799
324.43	396.87674
324.95	374.80073
325.47	445.01201
325.989	441.97614
326.509	407.83011
327.029	433.89597
327.548	457.94393
328.067	388.87048
328.587	431.99645
329.106	415.86565
329.625	357.86588
330.144	383.81167
330.662	405.86953
331.181	484.03205
331.7	411.88773
332.218	460.91625
332.736	456.96783
333.255	454.96737
333.773	472.02209
334.291	473.06669
334.808	465.93461
335.326	510.03954
335.844	552.1661
336.361	511.17783
336.879	535.12001
337.396	497.07563
337.913	557.1363
338.43	560.13648
338.947	625.31796
339.464	574.08591
339.981	548.17534
340.497	565.25582
341.014	531.15766
341.53	651.29952
342.046	579.27846
342.562	590.31444
343.078	580.21142
343.594	667.40664
344.11	617.29423
344.626	658.47516
345.141	665.33488
345.657	666.29414
346.172	606.2893
346.687	659.3283
347.202	703.36129
347.717	687.43429
348.232	701.53912
348.747	694.3826
349.261	698.34547
349.776	686.39262
350.29	724.56667
350.805	712.51707
351.319	737.48098
351.833	712.40668
352.347	704.4071
352.861	766.52766
353.374	738.44041
353.888	756.55654
354.401	774.50935
354.915	742.43453
355.428	780.67573
355.941	777.54999
356.454	829.55143
356.967	829.65997
357.48	762.48451
357.993	803.68339
358.505	807.70591
359.018	821.68104
359.53	790.61495
360.042	836.51416
360.554	824.67769
361.066	809.66689
361.578	877.58818
362.09	901.78272
362.602	868.57943
363.113	852.61692
363.625	892.67243
364.136	867.56764
364.647	857.66948
365.158	984.86517
365.669	986.96154
366.18	886.68319
366.691	969.71873
367.201	957.85487
367.712	926.68946
368.222	1030.91464
368.733	1025.78079
369.243	975.70259
369.753	1035.88831
370.263	976.87064
370.773	1046.08721
371.282	1091.03942
371.792	1099.95903
372.301	1080.08375
372.811	1129.34692
373.32	1144.83883
373.829	1146.1273
374.338	1268.09217
374.847	1171.0448
375.356	1284.31858
375.865	1355.05409
376.373	1421.30458
376.882	1456.69816
377.39	1465.55422
377.898	1476.66543
378.407	1539.34829
378.915	1585.26558
379.423	1735.72379
379.93	1768.56173
380.438	1856.96001
380.946	1897.79792
381.453	1961.93727
381.96	2077.9573
382.468	2224.04276
382.975	2432.28229
383.482	2433.83106
383.989	2490.53706
384.495	2503.96501
385.002	2656.52461
385.509	2763.02714
386.015	3068.27895
386.521	3095.73987
387.028	3354.76734
387.534	3390.45431
388.04	3499.94571
388.546	3551.52146
389.051	3743.36706
389.557	4027.57619
390.063	4446.35132
390.568	4419.49348
391.073	4639.01176
391.578	4740.35442
392.084	5023.62747
392.589	5122.50293
393.093	5389.74347
393.598	6089.23852
394.103	6576.39064
394.607	7356.46507
395.112	7649.75145
395.616	8127.0641
396.12	9011.38998
396.624	9729.18594
397.128	10550.93515
397.632	11703.63895
398.136	12782.52656
398.639	13610.58423
399.143	15165.19022
399.646	17110.57715
400.15	19063.9073
400.653	21125.91581
401.156	23564.37136
401.659	27436.20734
402.162	33762.19058
402.664	44255.83924
403.167	60143.98007
403.67	60573.80938
404.172	55487.84425
404.674	37291.05854
405.176	4428.40989
405.678	533.47942
406.18	0
406.682	0
407.184	6962.89417
407.686	50953.82939
408.187	59237.6763
408.688	61091.12691
409.19	61923.45898
409.691	62441.93235
410.192	54317.09441
410.693	46925.77203
411.194	42396.70862
411.694	40257.58305
412.195	37306.33036
412.696	33463.74304
413.196	31242.72133
413.696	30546.30489
414.196	30979.40363
414.696	30254.99341
415.196	28867.93902
415.696	26049.07215
416.196	21062.1939
416.695	16454.65756
417.195	13892.9657
417.694	13290.18682
418.194	12567.18167
418.693	11633.385
419.192	11255.09145
419.691	10965.73013
420.19	10782.89568
420.688	10545.78438
421.187	10107.86174
421.685	9423.34507
422.184	8571.5973
422.682	7548.30492
423.18	6249.25226
423.678	5537.45606
424.176	5173.66232
424.674	4751.64283
425.172	4640.13872
425.669	4395.67278
426.167	4068.392
426.664	3775.45712
427.161	3362.62714
427.659	3179.14707
428.156	3024.36495
428.652	2790.35686
429.149	2719.11627
429.646	2508.57249
430.143	2469.03251
430.639	2342.92864
431.135	2150.05283
431.632	2053.65834
432.128	1901.82744
432.624	1767.93456
433.12	1816.56362
433.616	1780.35762
434.111	1691.64034
434.607	1581.54205
435.103	1521.03346
435.598	1485.99184
436.093	1421.28278
436.588	1423.19768
437.083	1330.10976
437.578	1225.02805
438.073	1174.19127
438.568	1148.1163
439.062	1140.77873
439.557	1055.88232
440.051	1054.81928
440.546	1000.7734
441.04	945.75764
441.534	973.97553
442.028	974.83722
442.522	945.80722
443.015	952.61051
443.509	909.79605
444.002	878.74647
444.496	802.38176
444.989	866.73375
445.482	820.67105
445.975	853.56973
446.468	790.37117
446.961	842.41389
447.454	753.37289
447.947	810.59984
448.439	799.62047
448.931	797.46501
449.424	707.47609
449.916	739.47272
450.408	725.38522
450.9	686.40212
451.392	695.4965
451.884	658.2488
452.375	618.30631
452.867	679.274
453.358	607.15548
453.849	634.12138
454.341	659.24857
454.832	614.11644
455.323	626.3088
455.814	622.2016
456.304	590.15439
456.795	629.1986
457.285	574.0732
457.776	530.01671
458.266	620.26704
458.756	607.22782
459.247	550.12631
459.737	584.2117
460.226	537.04083
460.716	559.15949
461.206	514.06054
461.695	558.22201
462.185	525.08303
462.674	476.94547
463.163	513.97076
463.653	567.01174
464.142	499.04497
464.63	462.99637
465.119	523.06102
465.608	430.87203
466.096	474.90199
466.585	445.88988
467.073	439.91936
467.561	439.95428
468.05	377.77556
468.538	533.15614
469.026	445.95169
469.513	397.73946
470.001	394.79428
470.489	387.82015
470.976	430.87801
471.463	432.97115
471.951	421.94197
472.438	363.77131
472.925	321.67464
473.412	352.77349
473.899	355.73754
474.385	336.75012
474.872	342.7183
475.359	296.66302
475.845	320.59587
476.331	358.6862
476.817	284.62802
477.303	284.60333
477.789	333.72728
478.275	299.68364
478.761	292.64112
479.247	293.59271
479.732	287.66465
480.218	270.65135
480.703	330.75982
481.188	255.49716
481.673	276.58199
482.158	254.50145
482.643	282.66122
483.128	178.37798
483.612	211.45636
484.097	272.61202
484.581	224.47379
485.066	243.5442
485.55	187.3788
486.034	240.4845
486.518	190.41911
487.002	202.46383
487.486	196.44915
487.969	246.56643
488.453	237.55974
488.936	193.40385
489.42	233.47717
489.903	244.57213
490.386	201.40194
490.869	159.3181
491.352	176.40154
491.835	139.26584
492.318	179.38135
492.8	145.27812
493.283	211.50759
493.765	162.37898
494.247	160.34776
494.73	177.36561
495.212	143.32514
495.694	140.30986
496.175	142.32018
496.657	206.46296
497.139	79.12373
497.62	125.28444
498.102	180.42356
498.583	74.17583
499.064	154.32859
499.545	172.36763
500.026	101.21527
500.507	109.23787
500.988	114.26732
501.469	77.18419
501.949	81.1899
502.43	91.2064
502.91	93.18192
503.39	124.29486
503.87	137.3067
504.35	121.26741
504.83	98.20474
505.31	93.21701
505.79	81.18603
506.269	131.2877
506.749	64.14011
507.228	93.20888
507.707	166.34466
508.187	99.22345
508.666	94.21982
509.145	84.18793
509.623	77.17302
510.102	72.16685
510.581	66.15149
511.059	117.28329
511.538	122.30011
512.016	92.21202
512.494	56.12983
512.972	125.28536
513.45	64.14484
513.928	71.16613
514.406	109.25714
514.884	93.23319
515.361	79.18384
515.839	83.18036
516.316	69.15854
516.793	67.16296
517.27	98.22863
517.747	93.23
518.224	85.18715
518.701	79.16919
519.178	113.2736
519.654	-8.01815
520.131	69.16272
520.607	100.23733
521.083	36.08014
521.56	19.04339
522.036	88.1854
522.512	71.16834
522.987	123.28215
523.463	69.15873
523.939	59.13951
524.414	75.16471
524.89	42.09563
525.365	116.25288
525.84	91.2136
526.315	44.10184
526.79	69.14815
527.265	-20.04404
527.74	64.15013
528.215	94.21308
528.689	102.21887
529.164	55.11233
529.638	68.16931
530.112	82.18844
530.587	108.22263
531.061	85.19827
531.534	75.1735
532.008	94.21801
532.482	64.1381
532.956	97.24182
533.429	9.02066
533.903	88.18402
534.376	110.23043
534.849	87.19428
535.322	91.2059
535.795	87.20413
536.268	125.2887
536.741	96.22053
537.213	114.2521
537.686	2.00473
538.158	105.22526
538.631	56.13034
539.103	62.13384
539.575	78.15478
540.047	95.1987
540.519	78.17739
540.991	21.04947
541.463	95.22177
541.934	93.20442
542.406	93.21342
542.877	48.10433
543.348	49.11141
543.82	99.23183
544.291	81.17812
544.762	72.16407
545.233	142.34336
545.703	96.20413
546.174	146.32368
546.645	182.41925
547.115	105.24318
547.585	213.46443
548.056	151.35346
548.526	133.29909
548.996	173.39271
549.466	104.24139
549.935	159.36356
550.405	168.35146
550.875	144.3227
551.344	138.3184
551.814	130.27919
552.283	169.34234
552.752	148.3262
553.221	181.36934
553.69	186.38997
554.159	217.50992
554.628	178.37419
555.096	182.43659
555.565	184.3839
556.033	197.433
556.502	170.38801
556.97	221.4528
557.438	163.36535
557.906	177.39542
558.374	163.3524
558.842	137.31225
559.31	158.33068
559.777	164.37794
560.245	150.32894
560.712	131.28249
561.18	184.37947
561.647	172.35935
562.114	156.33632
562.581	227.52592
563.048	150.32186
563.514	179.41768
563.981	188.40131
564.448	187.39493
564.914	129.28414
565.381	184.38612
565.847	188.41088
566.313	174.37948
566.779	222.47142
567.245	146.32435
567.711	176.40138
568.176	273.5816
568.642	188.44961
569.108	199.46142
569.573	168.36763
570.038	207.40818
570.504	187.39978
570.969	157.37268
571.434	218.451
571.899	209.4698
572.363	230.48627
572.828	207.4387
573.293	255.54326
573.757	228.49239
574.222	250.52554
574.686	247.51867
575.15	216.48424
575.614	233.49661
576.078	187.41275
576.542	234.49928
577.006	265.55793
577.469	254.57995
577.933	198.41238
578.396	219.49429
578.86	240.52274
579.323	227.50649
579.786	257.50916
580.249	225.4806
580.712	169.38783
581.175	226.52329
581.637	244.52784
582.1	181.36967
582.563	153.29929
583.025	185.42386
583.487	164.30841
583.95	195.39374
584.412	198.38336
584.874	172.39352
585.336	198.44261
585.797	147.29887
586.259	185.40167
586.721	201.44347
587.182	150.32561
587.643	157.33565
588.105	166.37276
588.566	199.38964
589.027	198.45428
589.488	98.21228
589.949	164.37099
590.41	225.40991
590.87	130.27485
591.331	150.29877
591.791	110.23848
592.252	197.42207
592.712	145.32942
593.172	179.3777
593.632	143.28569
594.092	154.3226
594.552	155.31024
595.011	218.47039
595.471	222.45969
595.931	176.36607
596.39	206.46315
596.849	168.36655
597.308	177.35625
597.768	253.5996
598.227	197.445
598.685	199.41751
599.144	206.44831
599.603	201.44421
600.062	187.36198
600.52	192.40095
600.978	268.59066
601.437	196.41603
601.895	249.48315
602.353	202.41022
602.811	257.52179
603.269	236.52036
603.727	307.67221
604.184	253.5254
604.642	270.60727
605.099	307.64493
605.557	218.48792
606.014	316.61184
606.471	319.73903
606.928	397.79094
607.385	368.82799
607.842	338.71084
608.299	380.79177
608.755	393.8485
609.212	443.87397
609.668	397.79058
610.125	441.93661
610.581	415.85373
611.037	424.84847
611.493	384.80366
611.949	398.85947
612.405	436.76923
612.861	440.89394
613.316	451.96118
613.772	442.89555
614.227	435.91018
614.683	478.88572
615.138	452.94846
615.593	435.88278
616.048	420.83385
616.503	456.98849
616.958	496.09243
617.412	456.94968
617.867	519.00347
618.321	446.77661
618.776	533.00401
619.23	483.0007
619.684	458.89062
620.138	447.88601
620.592	415.89138
621.046	489.991
621.5	472.00118
621.954	491.94594
622.407	509.96884
622.861	410.87021
623.314	457.90879
623.768	411.85083
624.221	488.82465
624.674	422.84447
625.127	457.93674
625.58	401.78293
626.033	460.86215
626.485	382.81291
626.938	453.93735
627.39	447.91168
627.843	480.95297
628.295	453.91637
628.747	470.97579
629.199	494.98214
629.651	432.86408
630.103	435.88076
630.555	391.71635
631.006	457.93462
631.458	411.84055
631.909	469.92353
632.361	361.7403
632.812	428.87274
633.263	429.79193
633.714	466.8398
634.165	372.78578
634.616	457.94224
635.067	449.84506
635.518	429.88213
635.968	492.82464
636.419	458.8423
636.869	432.8917
637.319	466.93424
637.769	521.00061
638.219	512.03085
638.669	516.06753
639.119	489.02987
639.569	563.17612
640.019	509.00292
640.468	475.89664
640.918	570.16313
641.367	562.06784
641.816	592.11402
642.265	585.14162
642.714	616.20592
643.163	578.1015
643.612	589.22454
644.061	588.02308
644.51	687.29792
644.958	658.19117
645.406	665.33918
645.855	648.33153
646.303	660.27149
646.751	680.29
647.199	662.21794
647.647	733.39986
648.095	716.33465
648.543	732.16261
648.99	728.44371
649.438	793.50733
649.885	825.6763
650.333	797.15783
650.78	848.68438
651.227	807.61215
651.674	881.58492
652.121	754.48282
652.568	836.64278
653.015	767.56399
653.461	860.63451
653.908	887.62346
654.354	837.57414
654.801	850.59903
655.247	866.47014
655.693	938.97134
656.139	866.65311
656.585	946.78518
657.031	901.68063
657.477	942.57032
657.922	944.70676
658.368	950.83647
658.813	962.67234
659.259	1049.93992
659.704	1015.83125
660.149	990.77559
660.594	1070.93319
661.039	1042.80994
661.484	1129.01862
661.929	1076.88788
662.373	1107.18425
662.818	1150.18115
663.262	1100.99559
663.707	1099.12907
664.151	1203.21637
664.595	1171.11114
665.039	1165.16642
665.483	1280.44128
665.927	1301.16052
666.371	1282.14914
666.814	1288.20373
667.258	1362.31247
667.701	1349.92056
668.145	1389.44253
668.588	1423.46897
669.031	1498.423
669.474	1463.42342
669.917	1476.13732
670.36	1482.53359
670.803	1548.50176
671.245	1547.03491
671.688	1586.5737
672.13	1533.23653
672.573	1715.90461
673.015	1636.56307
673.457	1722.31385
673.899	1643.59402
674.341	1735.67422
674.783	1791.72975
675.225	1822.82386
675.666	1774.7264
676.108	1864.36799
676.549	1876.67464
676.991	1883.39193
677.432	1956.01522
677.873	2030.6619
678.314	2053.82736
678.755	2074.97745
679.196	2063.69123
679.637	2063.90265
680.078	2156.7671
680.518	2195.68479
680.959	2227.92536
681.399	2180.04901
681.839	2260.01933
682.28	2333.17335
682.72	2293.7048
683.16	2456.25062
683.6	2424.72403
684.039	2415.28212
684.479	2511.17357
684.919	2582.89735
685.358	2583.33664
685.798	2600.54899
686.237	2670.06643
686.676	2747.83412
687.115	2718.92873
687.554	2808.98997
687.993	2820.49853
688.432	2863.83359
688.871	2910.72691
689.309	3053.1953
689.748	3027.24869
690.186	3197.91489
690.625	3139.009
691.063	3219.10065
691.501	3292.23312
691.939	3368.27848
692.377	3290.14873
692.815	3411.05699
693.253	3424.90034
693.69	3530.36522
694.128	3694.06099
694.565	3574.91108
695.003	3673.35444
695.44	3793.67506
695.877	3836.73225
696.314	3957.01286
696.751	3912.38043
697.188	4074.46525
697.625	4028.33664
698.061	4112.72105
698.498	4318.64176
698.934	4257.5828
699.371	4335.50765
699.807	4441.44733
700.243	4554.59789
700.679	4612.01059
701.115	4658.193
701.551	4736.27635
701.987	4842.74642
702.422	4869.19512
702.858	4957.11969
703.294	5103.67811
703.729	5220.29631
704.164	5253.1646
704.599	5207.51919
705.035	5298.59211
705.47	5463.18301
705.904	5530.68262
706.339	5591.55266
706.774	5678.63394
707.209	5820.49622
707.643	5910.76388
708.078	5900.83882
708.512	6072.16903
708.946	6178.59572
709.38	6336.48138
709.814	6368.25081
710.248	6429.60742
710.682	6551.58579
711.116	6590.62264
711.549	6562.04619
711.983	6787.29492
712.416	6876.39233
712.85	7020.86126
713.283	7091.50812
713.716	7147.82021
714.149	7280.5243
714.582	7434.40146
715.015	7452.87352
715.448	7319.82765
715.881	7522.26878
716.313	7737.78511
716.746	7878.90973
717.178	7738.84506
717.61	8049.33548
718.043	8071.225
718.475	8161.22431
718.907	8362.54561
719.339	8286.19828
719.77	8526.65749
720.202	8593.87655
720.634	8866.21438
721.065	8800.03597
721.497	8850.18868
721.928	8972.40787
722.359	9117.66348
722.79	9055.5168
723.221	9272.98593
723.652	9306.07896
724.083	9326.09799
724.514	9533.62481
724.945	9619.8
725.375	9806.32432
725.806	9706.99631
726.236	9916.52295
726.666	9935.69949
727.096	10269.6711
727.526	10326.74157
727.956	10522.81893
728.386	10496.48023
728.816	10577.60135
729.246	10665.0475
729.675	10817.57848
730.105	10831.72075
730.534	11031.79663
730.964	11082.66653
731.393	11143.07848
731.822	11370.77652
732.251	11572.75359
732.68	11596.69345
733.109	11798.1455
733.537	11794.33215
733.966	12066.61988
734.395	11992.90649
734.823	12167.2072
735.251	12209.67854
735.68	12336.13545
736.108	12462.78999
736.536	12419.22305
736.964	12527.13728
737.392	12653.14491
737.82	12843.88511
738.247	12912.43936
738.675	12906.50254
739.102	13117.01675
739.53	13056.38418
739.957	13023.22741
740.384	13428.87525
740.811	13502.73247
741.238	13438.99482
741.665	13487.76281
742.092	13408.15227
742.519	13576.53229
742.945	13747.58664
743.372	13768.15771
743.798	13747.5002
744.225	13851.6087
744.651	13702.59378
745.077	13762.08695
745.503	13841.2135
745.929	14036.04944
746.355	14005.47174
746.781	13956.80347
747.207	13749.6794
747.632	13882.26181
748.058	13869.108
748.483	14054.00783
748.908	14187.65756
749.334	14122.31704
749.759	14136.18159
750.184	13925.15292
750.609	14092.16593
751.033	14028.52885
751.458	14013.75053
751.883	13968.00297
752.307	14087.44336
752.732	13772.89005
753.156	13965.91429
753.58	13879.93448
754.005	13797.9622
754.429	13540.48289
754.853	13496.03822
755.277	13439.2443
755.7	13448.78437
756.124	13347.7708
756.548	13433.16505
756.971	13157.89487
757.394	13233.62741
757.818	13166.04104
758.241	12901.60254
758.664	13078.6446
759.087	12839.39839
759.51	12863.52019
759.933	12696.68918
760.356	12502.86496
760.778	12491.0245
761.201	12310.43761
761.623	11955.36924
762.046	11892.29481
762.468	11819.58492
762.89	11998.28826
763.312	11763.16536
763.734	11656.60227
764.156	11441.34724
764.578	11295.25518
765	11250.56133
765.421	11036.28516
765.843	10817.3622
766.264	10691.28417
766.686	10518.41455
767.107	10409.12968
767.528	10302.65848
767.949	10277.60017
768.37	10027.90798
768.791	9804.28532
769.212	9774.14836
769.632	9494.49273
770.053	9401.31744
770.473	9417.2877
770.894	9250.92817
771.314	8994.37533
771.734	8801.00079
772.154	8585.91267
772.575	8760.9263
772.994	8584.61851
773.414	8402.4013
773.834	8253.45548
774.254	8168.23666
774.673	7960.01805
775.093	7849.07317
775.512	7687.95138
775.931	7654.10683
776.351	7463.80059
776.77	7327.73689
777.189	7075.42915
777.607	7008.9516
778.026	6862.79731
778.445	6735.89619
778.864	6688.91688
779.282	6579.45808
779.701	6384.89696
780.119	6262.89866
780.537	6099.88398
780.955	6009.04045
781.373	5901.88806
781.791	5995.25484
782.209	5717.49045
782.627	5654.62783
783.045	5495.54638
783.462	5388.36098
783.88	5233.68804
784.297	5219.38831
784.715	5127.77248
785.132	4742.32451
785.549	4813.68035
785.966	4686.64176
786.383	4558.62775
786.8	4560.12556
787.217	4278.40352
787.633	4233.88675
788.05	4140.28715
788.466	3993.44833
788.883	4131.18347
789.299	3938.63213
789.715	3739.92409
790.131	3658.02195
790.547	3572.97544
790.963	3530.09797
791.379	3447.28239
791.795	3391.52328
792.21	3314.69602
792.626	3181.84176
793.041	3102.08771
793.457	3067.10862
793.872	2972.84554
794.287	2873.10582
794.702	2805.08815
795.117	2733.13789
795.532	2706.32667
795.947	2601.89103
796.362	2513.83506
796.776	2430.59853
797.191	2412.99531
797.605	2318.89744
798.02	2255.99244
798.434	2188.42061
798.848	2163.93026
799.262	2109.06983
799.676	2070.81084
800.09	1991.83752
800.504	1974.77906
800.918	1825.47659
801.331	1844.03223
801.745	1762.39946
802.158	1747.75847
802.572	1682.55331
802.985	1631.46697
803.398	1617.45997
803.811	1573.6923
804.224	1494.49472
804.637	1416.22049
805.05	1443.20039
805.462	1409.35889
805.875	1426.68402
806.288	1339.28598
806.7	1296.3285
807.112	1256.02221
807.525	1249.2272
807.937	1147.09712
808.349	1128.08862
808.761	1094.96162
809.173	1004.81182
809.584	973.82951
809.996	978.85018
810.408	974.98429
810.819	903.63952
811.231	983.05753
811.642	925.79532
812.053	865.64602
812.464	919.70328
812.875	910.84709
813.286	824.70428
813.697	789.39731
814.108	741.44046
814.519	701.22246
814.929	716.48004
815.34	671.32897
815.75	670.41637
816.16	611.24439
816.571	684.48445
816.981	563.08456
817.391	581.16494
817.801	618.30688
818.211	564.12897
818.62	539.08955
819.03	558.13396
819.44	484.09221
819.849	575.23254
820.259	518.1443
820.668	500.069
821.077	502.07374
821.486	427.87446
821.895	384.81183
822.304	422.99247
822.713	389.79448
823.122	461.00311
823.531	435.89366
823.939	443.93635
824.348	391.83405
824.756	346.76446
825.164	366.8056
825.573	336.75136
825.981	393.85503
826.389	285.63246
826.797	324.72572
827.205	320.64392
827.612	306.66648
828.02	337.70421
828.428	244.56183
828.835	284.68201
829.243	279.5887
829.65	210.47853
830.057	297.65114
830.464	253.56309
830.871	277.58756
831.278	213.46108
831.685	246.4779
832.092	245.54461
832.499	215.41478
832.905	236.54601
833.312	192.38991
833.718	209.47115
834.124	215.44171
834.531	194.44439
834.937	120.28359
835.343	186.40909
835.749	183.38156
836.155	141.34268
836.561	123.27377
836.966	168.37415
837.372	135.317
837.777	128.29309
838.183	109.21453
838.588	209.47615
838.993	121.26797
839.399	131.29399
839.804	192.43291
840.209	159.37844
840.613	166.33742
841.018	100.23312
841.423	114.2691
841.828	120.28161
842.232	108.24272
842.637	97.2072
843.041	133.32336
843.445	118.27161
843.849	78.18047
844.253	120.25905
844.657	139.32779
845.061	136.28149
845.465	149.33905
845.869	123.25988
846.272	65.14797
846.676	156.34671
847.079	144.34268
847.483	135.30968
847.886	54.12017
848.289	130.33118
848.692	73.17275
849.095	89.1953
849.498	77.17805
849.901	96.19968
850.304	94.20562
850.707	71.16919
851.109	29.06767
851.512	107.24624
851.914	91.21967
852.316	81.19265
852.718	74.18264
853.121	74.16938
853.523	33.07177
853.925	47.11649
854.326	98.23187
854.728	61.14786
855.13	62.15235
855.531	125.28052
855.933	72.15982
856.334	50.11807
856.736	0
857.137	76.16357
857.538	48.11374
857.939	34.07985
858.34	60.13529
858.741	46.11362
859.142	106.23598
859.542	119.30128
859.943	27.06394
860.343	15.03544
860.744	114.25831
861.144	43.09828
861.544	63.144
861.945	49.11672
862.345	17.03834
862.745	35.08193
863.145	26.05678
863.544	70.16818
863.944	48.10508
864.344	2.00463
864.743	66.15301
865.143	57.13791
865.542	44.09445
865.941	81.18909
866.34	63.14063
866.74	-6.01543
867.139	45.10165
867.537	35.08353
867.936	62.1398
868.335	82.19716
868.734	47.11478
869.132	117.25143
869.531	96.21398
869.929	86.18286
870.327	0
870.726	54.12549
871.124	15.03244
871.522	-26.06256
871.92	29.06709
872.318	55.12612
872.715	0
873.113	6.01385
873.511	24.05656
873.908	57.13915
874.306	24.05661
874.703	7.01653
875.1	23.05519
875.497	6.01344
875.894	56.13121
876.291	26.06059
876.688	42.10213
877.085	-6.01349
877.482	3.00704
877.878	27.06127
878.275	-15.03614
878.671	4.00802
879.068	70.15655
879.464	85.19123
879.86	76.16933
880.256	-19.0438
880.652	-6.01449
881.048	12.02764
881.444	31.0678
881.84	-4.0096
882.236	12.02862
882.631	8.01858
883.027	40.08886
883.422	25.06037
883.817	6.01451
884.213	83.20006
884.608	24.05617
885.003	47.10639
885.398	-2.00475
885.793	25.05886
886.188	48.11374
886.582	-13.03105
886.977	70.15351
887.371	18.04297
887.766	17.0404
888.16	61.14273
888.554	-5.01153
888.949	-2.00468
889.343	12.02715
889.737	19.04925
890.131	42.09972
890.525	8.01934
890.918	44.10527
891.312	-2.00441
891.706	66.16493
892.099	32.07644
892.492	43.08531
892.886	-32.07386
893.279	10.02419
893.672	12.0291
894.065	19.04467
894.458	12.02847
894.851	-2.00454
895.244	32.07741
895.637	8.01819
896.029	33.0757
896.422	74.16713
896.814	-5.01181
897.206	50.11265
897.599	-7.01595
897.991	67.15147
898.383	24.05276
898.775	29.06049
899.167	5.0111
899.559	52.12275
899.951	39.08533
900.342	0
900.734	40.09581
901.125	21.05174
901.517	19.04421
901.908	35.07742
902.299	14.03244
902.69	38.08379
903.082	25.0567
903.473	22.05011
903.863	59.14329
904.254	-8.01734
904.645	16.03689
905.036	24.05564
905.426	-81.17032
905.817	30.06908
906.207	3.00678
906.597	40.08761
906.987	-10.02432
907.378	-10.02387
907.768	41.10329
908.158	8.01844
908.547	16.03943
908.937	29.06993
909.327	9.02045
909.717	26.06154
910.106	1.00226
910.495	73.17121
910.885	-6.01415
911.274	11.02614
911.663	84.20113
912.052	7.01612
912.441	97.23256
912.83	36.07621
913.219	4.00983
913.608	1.00231
913.997	-47.11269
914.385	12.0265
914.774	11.02506
915.162	25.05544
915.55	43.09718
915.939	5.01203
916.327	6.01414
916.715	17.04149
917.103	6.01378
917.491	-78.18197
917.878	-26.05946
918.266	6.01475
918.654	37.09043
919.041	7.01743
919.429	60.13219
919.816	23.05468
920.203	-6.01376
920.591	-21.04898
920.978	11.02525
921.365	-23.05746
921.752	60.13368
922.139	70.14001
922.525	24.05401
922.912	16.03649
923.299	21.0495
923.685	-3.00747
924.072	33.0696
924.458	39.09079
924.844	11.02565
925.231	23.04951
925.617	53.12924
926.003	12.02904
926.389	-23.05588
926.774	97.23017
927.16	-21.0492
927.546	34.0824
927.931	36.08432
928.317	11.02312
928.702	39.08497
929.088	7.01563
929.473	9.02174
929.858	41.09488
930.243	72.16175
930.628	-9.0206
931.013	40.09446
931.398	55.11534
931.783	36.08967
932.167	42.0954
932.552	-5.01168
932.937	2.0046
933.321	-33.07855
933.705	39.09372
934.09	8.01877
934.474	15.03326
934.858	36.08879
935.242	31.06814
935.626	-18.04369
936.009	-1.00254
936.393	33.08005
936.777	19.04654
937.16	-50.12318
937.544	37.08064
937.927	10.02414
938.311	65.14605
938.694	29.07266
939.077	-21.04707
939.46	27.06243
939.843	34.0635
940.226	-4.00969
940.609	7.01491
940.991	-21.05094
941.374	-17.03908
941.757	53.12173
942.139	28.05767
942.522	-25.05479
942.904	39.08785
943.286	30.07106
943.668	27.06611
944.05	13.03013
944.432	58.13436
944.814	2.00459
945.196	64.14767
945.578	7.01588
945.959	40.08742
946.341	-8.01811
946.722	93.20166
947.104	27.05972
947.485	1.00217
947.866	31.07438
948.247	52.12327
948.628	0
949.009	25.06081
949.39	-62.14436
949.771	32.06849
950.152	35.08106
950.532	62.1476
950.913	-16.03594
951.293	20.0521
951.674	0
952.054	-2.00471
952.434	-7.01628
952.814	-19.04176
953.194	47.11645
953.574	23.05227
953.954	18.04002
954.334	73.17075
954.714	-6.01387
955.093	-26.05966
955.473	-19.04474
955.853	25.06158
956.232	11.02885
956.611	-4.00882
956.99	35.08321
957.37	1.00242
957.749	18.03971
958.128	70.16697
958.506	26.06455
958.885	-20.04772
959.264	43.09888
959.643	32.06769
960.021	18.04209
960.4	45.09587
960.778	47.10578
961.156	6.01422
961.535	-32.0684
961.913	24.05103
962.291	44.10804
962.669	-3.00724
963.047	-14.0335
963.424	30.07262
963.802	-11.02527
964.18	13.03079
964.557	26.05456
964.935	9.01986
965.312	4.00998
965.69	-16.03772
966.067	7.01588
966.444	49.11263
966.821	39.09411
967.198	-2.00448
967.575	11.02511
967.952	71.15455
968.329	6.01366
968.705	24.04638
969.082	19.04651
969.458	45.10228
969.835	75.16887
970.211	-2.00489
970.587	26.06085
970.963	32.0772
971.339	-3.00754
971.715	1.00232
972.091	15.0346
972.467	-2.00462
972.843	-5.01175
973.219	26.05726
973.594	-7.0175
973.97	6.01316
974.345	20.04475
974.721	-2.00452
975.096	-31.07023
975.471	62.13671
975.846	54.12171
976.221	-32.0777
976.596	2.00451
976.971	32.0741
977.346	23.049
977.72	17.04082
978.095	13.03196
978.469	74.16371
978.844	66.15434
979.218	39.08821
979.593	91.20137
979.967	54.12345
980.341	14.02977
980.715	21.04954
981.089	12.02799
981.463	13.0282
981.837	31.07168
982.21	37.07896
982.584	2.00451
982.957	33.07821
983.331	-10.02221
983.704	46.10656
984.078	-26.06035
984.451	-4.00916
984.824	56.12844
985.197	-6.01367
985.57	7.01639
985.943	-3.00682
986.316	66.15046
986.688	37.08273
987.061	-13.02825
987.434	2.00497
987.806	-12.02725
988.179	-36.07961
988.551	39.09211
988.923	-14.03247
989.295	19.04449
989.667	52.1184
990.039	36.08392
990.411	34.0734
990.783	57.12022
991.155	-18.0416
991.527	15.03382
991.898	-9.02107
992.27	-23.05411
992.641	-10.02359
993.012	69.15109
993.384	22.04908
993.755	-12.0289
994.126	5.01132
994.497	-14.03246
994.868	26.05569
995.239	53.12041
995.61	-4.0095
995.98	19.04383
996.351	36.08442
996.722	25.05454
997.092	6.0135
997.462	36.07938
997.833	25.05493
998.203	23.05179
998.573	22.05203
998.943	-33.07202
999.313	13.0294
999.683	-37.08314
1000.053	70.14904
1000.423	20.04556
1000.792	-5.01236
1001.162	52.12036
1001.531	24.05595
1001.901	-14.03285
1002.27	8.01672
1002.639	33.07984
1003.009	87.19388
1003.378	13.03154
1003.747	-27.05982
1004.116	-16.03637
1004.485	42.09416
1004.853	34.0811
1005.222	28.06727
1005.591	33.07223
1005.959	67.14107
1006.328	55.1134
1006.696	16.03652
1007.064	38.08991
1007.433	16.0379
1007.801	36.08187
1008.169	-14.03325
1008.537	56.11424
1008.905	9.01971
1009.273	19.04402
1009.64	8.01804
1010.008	10.02224
1010.375	80.17913
1010.743	-14.02946
1011.11	22.04881
1011.478	12.02788
1011.845	-45.0982
1012.212	27.05595
1012.579	55.12637
1012.946	12.02623
1013.313	87.18978
1013.68	8.01654
1014.047	23.05215
1014.414	27.06017
1014.78	43.10125
1015.147	46.10177
1015.513	53.12095
1015.88	-9.02149
1016.246	57.13154
1016.612	53.11046
1016.978	48.10925
1017.344	64.14931
1017.71	11.02456
1018.076	21.04598
1018.442	61.14636
1018.808	3.0071
1019.174	1.00236
1019.539	63.12879
1019.905	34.07525
1020.27	20.04694
1020.636	60.13296
1021.001	24.05323
1021.366	67.15246
1021.731	40.09738
1022.096	37.08878
1022.461	5.01093
1022.826	8.01785
1023.191	19.04737
1023.556	2.00431
1023.92	-15.03438
1024.285	9.02052
1024.649	33.07573
1025.014	24.05568
1025.378	55.13106
1025.742	17.03965
1026.107	3.00622
1026.471	-25.05347
1026.835	-19.04406
1027.199	22.04995
1027.562	49.10616
1027.926	27.06151
1028.29	11.0264
1028.654	33.06948
1029.017	59.13562
1029.381	49.10951
1029.744	48.11594
1030.107	-4.00868
1030.471	-11.02466
1030.834	-23.048
1031.197	-20.0446
1031.56	50.1108
1031.923	11.02691
1032.286	49.10562
1032.648	-14.03123
1033.011	34.07261
1033.374	-26.05651
1033.736	-22.05527
1034.099	54.1234
1034.461	18.04338
1034.823	1.00234
1035.185	-3.00702
1035.548	38.0861
1035.91	50.11233
1036.272	36.07588
1036.634	26.05863
1036.995	36.07955
1037.357	7.01606
1037.719	-13.02976
1038.08	20.04338
1038.442	42.0949
1038.803	3.0067
1039.165	31.07376
1039.526	63.14144
1039.887	40.08986
1040.248	37.08749
1040.609	47.10816
1040.97	28.06396
1041.331	-9.02118
1041.692	27.05932
1042.053	58.11994
1042.413	-10.02151
1042.774	41.09239
1043.134	40.08724
1043.495	-20.04728
1043.855	50.11302
1044.215	-9.02103
1044.576	12.02714
1044.936	41.08739
1045.296	24.05588
1045.656	50.11426
1046.016	-10.02236
1046.375	61.13886
1046.735	51.10823
1047.095	1.00219
1047.454	67.12826
1047.814	22.049
1048.173	0
1048.533	26.05567
1048.892	23.05217
1049.251	32.07539
1049.61	22.05015
1049.969	105.22885
1050.328	-15.02968
1050.687	6.01368
1051.046	55.12581
1051.405	-25.05806
1051.763	57.1217
1052.122	49.11578
1052.48	-18.0414
1052.839	-3.00663
1053.197	19.0418
1053.555	-8.01631
1053.914	33.07503
1054.272	34.07629
1054.63	-10.02291
1054.988	-35.07832
1055.345	-6.01177
1055.703	-9.02013
1056.061	33.08014
1056.419	17.04192
1056.776	0
1057.134	64.13597
1057.491	36.08422
1057.848	3.00699
1058.206	-2.00439
1058.563	41.08412
1058.92	49.10285
1059.277	-17.03883
1059.634	8.01714
1059.991	35.07848
1060.348	19.04029
1060.704	24.05358
1061.061	57.1188
1061.418	46.10478
1061.774	48.11251
1062.131	18.04633
1062.487	52.11144
1062.843	13.03045
1063.199	41.09616
1063.555	25.05437
1063.911	3.00712
1064.267	8.01482
1064.623	30.06905
1064.979	-43.09332
1065.335	-8.0176
1065.691	64.1436
1066.046	-31.06285
1066.402	9.01899
1066.757	38.09019
1067.112	1.00228
1067.468	22.04946
1067.823	55.12318
1068.178	65.14683
1068.533	42.09393
1068.888	42.09203
1069.243	23.05359
1069.598	20.04467
1069.952	43.09129
1070.307	29.06865
1070.662	27.06005
1071.016	32.06706
1071.371	15.03151
1071.725	-24.05245
1072.079	-9.0203
1072.434	20.04543
1072.788	46.10262
1073.142	100.22935
1073.496	0
1073.85	50.10678
1074.203	11.02489
1074.557	28.07123
1074.911	25.05484
1075.265	14.02986
1075.618	45.10286
1075.971	12.0265
1076.325	18.04321
1076.678	7.01492
1077.031	26.0543
1077.385	68.13784
1077.738	57.11869
1078.091	8.01724
1078.444	-20.04282
1078.796	36.08329
1079.149	31.07117
1079.502	20.04423
1079.855	15.03282
1080.207	21.04833
1080.56	7.01713
1080.912	-35.07923
1081.264	25.05617
1081.617	17.03898
1081.969	39.09439
1082.321	23.05266
1082.673	53.11331
1083.025	-31.06863
1083.377	13.02515
1083.728	1.00213
1084.08	77.1801
1084.432	-80.1795
1084.783	92.19988
1085.135	64.15219
1085.486	19.04083
1085.838	22.05084
1086.189	-19.0435
1086.54	55.12165
1086.891	44.10612
1087.242	-38.08687
1087.593	-1.00226
1087.944	-7.0147
1088.295	-3.00626
1088.646	34.0771
1088.996	3.00677
1089.347	-11.02526
1089.698	12.02684
1090.048	10.02438
1090.398	59.12696
1090.749	30.06715
1091.099	-2.00482
1091.449	-41.09631
1091.799	5.01177
1092.149	8.01884
1092.499	9.02071
1092.849	-26.06301
1093.199	16.03748
1093.548	28.06332
1093.898	15.03546
1094.248	9.02187
1094.597	29.07104
1094.947	2.00508
1095.296	-43.10034
1095.645	6.01472
1095.994	44.09893
1096.343	29.0695
1096.692	27.06807
1097.041	2.00523
1097.39	-9.02127
1097.739	38.09365
1098.088	2.00504
1098.437	-27.06831
1098.785	11.02809
1099.134	9.02238
1099.482	9.02345
1099.83	8.01987
1100.179	43.10771
1100.527	21.05254
1100.875	-20.05057
1101.223	22.05601
1101.571	-13.03475
1101.919	-20.0505
1102.267	47.1281
1102.615	6.01928
1102.962	8.02565
1103.31	15.04811
1103.658	-1.00321
