Data from N3 R7 sample 12_Subt2__3__16-58-54-405.txt Node

Date: Fri Sep 19 16:58:54 PDT 2025
User: uwsun
Spectrometer: HDX01956
Trigger mode: 0
Integration Time (sec): 5.000000E-1
Scans to average: 1
Nonlinearity correction enabled: true
Boxcar width: 0
Storing dark spectrum: false
XAxis mode: Wavelengths
Number of Pixels in Spectrum: 2068
>>>>>Begin Spectral Data<<<<<
194.03	60.17272
194.578	65.20984
195.127	59.18806
195.676	55.17522
196.225	64.16734
196.773	103.28316
197.321	142.38783
197.87	130.32942
198.418	236.59268
198.966	212.54443
199.513	187.46617
200.061	146.36391
200.609	179.46106
201.156	138.29151
201.704	127.31396
202.251	181.46896
202.798	174.44404
203.345	185.44589
203.892	179.43958
204.438	227.52321
204.985	174.40482
205.532	239.62262
206.078	168.40347
206.624	233.55775
207.17	223.49797
207.716	156.36738
208.262	207.39014
208.808	159.38816
209.354	218.51337
209.899	229.55506
210.445	206.5026
210.99	195.45877
211.535	183.41709
212.08	183.41169
212.625	154.37686
213.17	200.48996
213.715	174.38173
214.259	211.4774
214.804	197.46852
215.348	223.48953
215.892	198.46228
216.436	263.58413
216.98	166.3525
217.524	170.39098
218.068	215.5227
218.612	177.42903
219.155	213.48213
219.698	190.43313
220.242	194.46608
220.785	196.44302
221.328	192.46408
221.871	163.40103
222.414	217.51191
222.956	175.41156
223.499	191.41311
224.041	155.34427
224.583	226.46001
225.126	221.47369
225.668	132.31412
226.21	150.36735
226.751	175.36375
227.293	122.26878
227.835	148.34989
228.376	169.37209
228.918	188.45766
229.459	156.38303
230	158.36426
230.541	143.31736
231.082	173.40622
231.622	196.43361
232.163	205.48304
232.704	174.41645
233.244	132.3193
233.784	160.37606
234.324	176.3783
234.864	169.3674
235.404	153.34844
235.944	135.30769
236.484	161.38453
237.023	139.32077
237.563	193.42778
238.102	176.40057
238.641	199.48887
239.18	184.41793
239.719	216.52523
240.258	204.43508
240.797	212.48913
241.335	132.30989
241.874	198.3652
242.412	138.32094
242.95	167.39029
243.488	180.39556
244.026	208.46093
244.564	200.39095
245.102	207.44484
245.64	199.45868
246.177	134.28914
246.715	185.42182
247.252	195.42374
247.789	162.27369
248.326	99.23065
248.863	216.44787
249.4	227.49726
249.936	146.28837
250.473	199.44677
251.009	188.41852
251.546	188.39922
252.082	185.39242
252.618	214.45918
253.154	161.3745
253.69	183.39428
254.226	133.30754
254.761	150.32061
255.297	210.44049
255.832	189.42746
256.367	188.42303
256.903	201.41816
257.438	174.3888
257.972	154.32773
258.507	195.43491
259.042	198.40063
259.576	188.38964
260.111	192.42317
260.645	239.49145
261.179	189.42066
261.713	168.35691
262.247	225.50036
262.781	211.42449
263.315	166.39396
263.849	175.42323
264.382	169.37146
264.915	201.45534
265.449	211.4966
265.982	180.38773
266.515	188.44204
267.048	196.39876
267.58	169.34783
268.113	223.46207
268.646	227.54152
269.178	189.40546
269.71	210.43387
270.243	208.45305
270.775	200.49087
271.307	205.46515
271.838	243.5433
272.37	212.50274
272.902	199.43648
273.433	184.38254
273.965	228.53754
274.496	181.42898
275.027	209.49495
275.558	170.39785
276.089	231.55612
276.62	171.41869
277.15	201.47491
277.681	142.2918
278.211	190.44413
278.741	204.43489
279.272	230.50075
279.802	199.47982
280.332	163.37256
280.861	218.50197
281.391	153.33403
281.921	168.38499
282.45	283.67896
282.98	268.66867
283.509	202.434
284.038	202.43231
284.567	187.41068
285.096	216.50133
285.625	260.5675
286.153	210.46982
286.682	156.34224
287.21	175.40626
287.739	158.35844
288.267	207.48415
288.795	208.52556
289.323	271.60915
289.851	219.48743
290.378	215.46163
290.906	205.48116
291.433	237.56602
291.961	215.46163
292.488	248.58968
293.015	253.57219
293.542	255.61389
294.069	221.52074
294.596	221.52357
295.122	288.65014
295.649	251.52986
296.175	196.45023
296.702	221.50694
297.228	232.52887
297.754	188.40444
298.28	208.45055
298.806	242.55923
299.332	234.49256
299.857	291.61483
300.383	234.56131
300.908	222.52259
301.433	239.55855
301.958	179.39063
302.483	280.67419
303.008	268.62397
303.533	191.47182
304.058	214.48094
304.582	245.55342
305.107	252.6349
305.631	286.60784
306.155	274.61147
306.679	300.66339
307.203	291.63933
307.727	289.6528
308.251	283.6611
308.775	250.5646
309.298	257.59259
309.822	304.72503
310.345	243.54958
310.868	296.66793
311.391	310.71776
311.914	323.76546
312.437	279.59439
312.96	340.7534
313.482	336.74981
314.005	252.60518
314.527	317.79161
315.049	295.70182
315.571	294.63273
316.093	332.77965
316.615	283.65357
317.137	257.52489
317.659	286.64932
318.18	337.76462
318.702	340.74178
319.223	309.59213
319.744	337.71045
320.265	294.6791
320.786	321.75162
321.307	377.88132
321.828	384.81255
322.348	326.72629
322.869	276.60829
323.389	228.40579
323.909	396.8416
324.43	363.80921
324.95	394.8399
325.47	392.90289
325.989	420.93373
326.509	361.74398
327.029	353.74352
327.548	383.80422
328.067	363.81858
328.587	390.90902
329.106	385.80842
329.625	359.8704
330.144	352.75103
330.662	380.82026
331.181	416.9018
331.7	399.86403
332.218	449.89663
332.736	417.89259
333.255	438.93652
333.773	449.97892
334.291	395.90671
334.808	425.86209
335.326	473.97391
335.844	471.01232
336.361	431.00892
336.879	478.01305
337.396	449.98348
337.913	505.04217
338.43	537.09543
338.947	534.14822
339.464	472.91654
339.981	487.05799
340.497	493.11187
341.014	487.07145
341.53	496.02516
342.046	490.10172
342.562	560.25524
343.078	531.12093
343.594	595.27437
344.11	569.20601
344.626	590.34098
345.141	633.27991
345.657	567.12739
346.172	571.22395
346.687	587.20248
347.202	577.15051
347.717	617.3079
348.232	610.36465
348.747	636.28392
349.261	643.25561
349.776	635.3039
350.29	589.31086
350.805	629.3641
351.319	650.33204
351.833	623.2562
352.347	619.26128
352.861	678.37948
353.374	653.2999
353.888	650.36984
354.401	645.29586
354.915	684.34054
355.428	713.55368
355.941	706.43132
356.454	721.38489
356.967	751.53064
357.48	686.3603
357.993	750.59051
358.505	728.56528
359.018	743.54791
359.53	723.50019
360.042	752.3908
360.554	738.53169
361.066	702.48086
361.578	785.45448
362.09	767.5647
362.602	748.402
363.113	785.51382
363.625	741.44046
364.136	803.47533
364.647	749.49614
365.158	837.64281
365.669	853.74898
366.18	822.58566
366.691	827.52027
367.201	838.6699
367.712	822.53869
368.222	897.72189
368.733	911.62981
369.243	819.4882
369.753	949.76859
370.263	882.72841
370.773	936.91629
371.282	964.85914
371.792	938.74072
372.301	971.92318
372.811	970.08684
373.32	943.60083
373.829	1013.94306
374.338	1101.90018
374.847	1067.91455
375.356	1151.14769
375.865	1142.83974
376.373	1240.11104
376.882	1295.49427
377.39	1258.31056
377.898	1300.45097
378.407	1330.15178
378.915	1411.12335
379.423	1548.55758
379.93	1485.33432
380.438	1630.7618
380.946	1677.63325
381.453	1724.75957
381.96	1795.77268
382.468	1940.88728
382.975	2108.13034
383.482	2135.74021
383.989	2170.37531
384.495	2250.8938
385.002	2371.5073
385.509	2411.97258
386.015	2749.33973
386.521	2698.77398
387.028	2861.85198
387.534	2935.56852
388.04	3042.04069
388.546	3126.65009
389.051	3323.52787
389.557	3475.80232
390.063	3826.66352
390.568	3895.75563
391.073	4065.32594
391.578	4176.66107
392.084	4307.02996
392.589	4517.83923
393.093	4781.07544
393.598	5350.5262
394.103	5713.62147
394.607	6237.37007
395.112	6820.49142
395.616	7156.41291
396.12	7793.59596
396.624	8535.5183
397.128	9225.85726
397.632	10353.33472
398.136	11234.20325
398.639	11819.16975
399.143	13164.64854
399.646	14827.14816
400.15	16548.44423
400.653	18445.14575
401.156	20593.38671
401.659	23995.59351
402.162	29318.63969
402.664	38680.62225
403.167	54660.79919
403.67	59622.79091
404.172	55487.84425
404.674	37291.05854
405.176	4428.40989
405.678	533.47942
406.18	0
406.682	0
407.184	6962.89417
407.686	50953.82939
408.187	59237.6763
408.688	61091.12691
409.19	61923.45898
409.691	55235.62972
410.192	46631.32615
410.693	40640.37526
411.194	36737.02469
411.694	35177.51234
412.195	32453.69299
412.696	29602.70479
413.196	27349.38857
413.696	26741.30011
414.196	27127.5905
414.696	26712.44489
415.196	25327.24083
415.696	23180.5785
416.196	18777.84339
416.695	14463.61687
417.195	12341.34944
417.694	11618.38027
418.194	11056.01209
418.693	10301.20505
419.192	9935.80108
419.691	9840.50358
420.19	9508.55263
420.688	9306.03377
421.187	8844.08136
421.685	8394.30855
422.184	7554.48588
422.682	6480.93973
423.18	5555.48455
423.678	4852.81117
424.176	4507.03443
424.674	4284.90664
425.172	4040.46313
425.669	3831.94253
426.167	3706.56043
426.664	3306.6314
427.161	3044.70387
427.659	2854.16613
428.156	2622.4185
428.652	2444.2781
429.149	2389.04948
429.646	2198.51865
430.143	2173.93102
430.639	2111.83961
431.135	1852.86603
431.632	1829.53975
432.128	1743.71158
432.624	1570.74474
433.12	1589.39846
433.616	1550.20459
434.111	1483.45142
434.607	1360.32017
435.103	1350.90461
435.598	1354.8923
436.093	1233.08393
436.588	1202.97505
437.083	1179.95047
437.578	1107.89238
438.073	1025.98403
438.568	990.89751
439.062	1001.62392
439.557	954.74591
440.051	942.67374
440.546	911.6524
441.04	804.54718
441.534	920.89029
442.028	879.69619
442.522	846.65621
443.015	822.43892
443.509	776.58057
444.002	804.62654
444.496	734.28722
444.989	787.60409
445.482	709.48092
445.975	758.42776
446.468	662.18745
446.961	734.26836
447.454	676.25621
447.947	733.47361
448.439	698.44794
448.931	644.22872
449.424	655.38311
449.916	642.30792
450.408	668.29371
450.9	618.28235
451.392	651.41486
451.884	566.09794
452.375	603.27874
452.867	611.16536
453.358	523.01557
453.849	607.08105
454.341	573.1081
454.832	546.00966
455.323	571.20815
455.814	602.16846
456.304	555.09476
456.795	542.0543
457.285	553.03922
457.776	504.97448
458.266	518.08268
458.756	497.03022
459.247	463.96833
459.737	519.09221
460.226	534.03574
460.716	474.0015
461.206	482.00152
461.695	445.99934
462.185	502.04083
462.674	456.90997
463.163	429.82846
463.653	459.84308
464.142	382.8221
464.63	424.92188
465.119	448.92597
465.608	381.78132
466.096	396.76785
466.585	435.87189
467.073	378.8023
467.561	436.94837
468.05	407.83161
468.538	413.92027
469.026	401.86576
469.513	328.6214
470.001	336.68639
470.489	359.76547
470.976	329.68719
471.463	386.87594
471.951	344.78192
472.438	307.66028
472.925	294.62158
473.412	281.6267
473.899	328.68555
474.385	285.64298
474.872	281.59813
475.359	314.70072
475.845	359.66203
476.331	342.65807
476.817	269.59671
477.303	287.6093
477.789	297.65361
478.275	270.62094
478.761	264.58306
479.247	275.55859
479.732	222.52075
480.218	299.71734
480.703	315.72746
481.188	232.45479
481.673	217.46351
482.158	245.4847
482.643	227.53799
483.128	235.49281
483.612	255.54633
484.097	209.47634
484.581	185.39465
485.066	218.49073
485.55	167.33984
486.034	275.55069
486.518	211.46338
487.002	185.42624
487.486	196.44915
487.969	172.4019
488.453	216.51222
488.936	174.36562
489.42	227.46552
489.903	190.45022
490.386	213.42475
490.869	114.23045
491.352	137.31502
491.835	171.32451
492.318	160.34228
492.8	165.31496
493.283	199.47982
493.765	158.36991
494.247	124.27158
494.73	180.37155
495.212	115.26296
495.694	119.26453
496.175	116.26295
496.657	197.44355
497.139	53.08364
497.62	155.35056
498.102	131.3112
498.583	124.29179
499.064	122.26212
499.545	156.33459
500.026	83.1776
500.507	100.21865
500.988	126.29477
501.469	79.1889
501.949	124.28827
502.43	107.24191
502.91	111.2162
503.39	109.25994
503.87	90.20343
504.35	115.25447
504.83	142.29377
505.31	137.31691
505.79	97.22207
506.269	100.22105
506.749	60.13147
507.228	79.17795
507.707	92.19417
508.187	57.12976
508.666	37.08749
509.145	52.11711
509.623	67.15086
510.102	135.30894
510.581	85.19436
511.059	132.3187
511.538	72.17875
512.016	120.275
512.494	86.19819
512.972	79.18202
513.45	99.22245
513.928	63.14764
514.406	79.18746
514.884	130.32379
515.361	143.32856
515.839	67.14609
516.316	84.19242
516.793	106.25593
517.27	103.24006
517.747	95.23486
518.224	59.13061
518.701	150.3163
519.178	104.25224
519.654	64.14307
520.131	8.01909
520.607	63.15059
521.083	97.21321
521.56	35.07968
522.036	47.09991
522.512	105.24732
522.987	79.18282
523.463	103.23533
523.939	66.15585
524.414	73.16039
524.89	66.14955
525.365	130.28256
525.84	94.22051
526.315	43.09955
526.79	69.14815
527.265	29.06321
527.74	72.16864
528.215	86.19526
528.689	116.24816
529.164	-20.04154
529.638	79.1963
530.112	92.211
530.587	90.18628
531.061	59.13832
531.534	34.07929
532.008	52.1216
532.482	52.11249
532.956	61.15307
533.429	-12.02767
533.903	98.20447
534.376	32.06819
534.849	106.23578
535.322	79.17919
535.795	86.20182
536.268	74.17264
536.741	106.24301
537.213	90.20003
537.686	13.03066
538.158	57.12355
538.631	56.13034
539.103	38.08245
539.575	67.1333
540.047	70.14722
540.519	61.1392
540.991	21.04947
541.463	108.25147
541.934	70.15461
542.406	62.14317
542.877	56.12151
543.348	5.01147
543.82	121.28213
544.291	108.23614
544.762	49.11218
545.233	104.25328
545.703	107.22697
546.174	110.24569
546.645	132.30711
547.115	102.23637
547.585	133.29492
548.056	103.24337
548.526	121.27278
548.996	139.31771
549.466	124.28667
549.935	132.30347
550.405	133.28039
550.875	126.28341
551.344	115.26655
551.814	157.33521
552.283	108.22183
552.752	152.33473
553.221	158.32409
553.69	137.29035
554.159	183.43288
554.628	117.24927
555.096	144.34793
555.565	134.28269
556.033	177.39068
556.502	161.36814
556.97	145.3022
557.438	163.36535
557.906	192.4276
558.374	155.33567
558.842	133.30338
559.31	163.34077
559.777	117.27215
560.245	162.35436
560.712	156.33459
561.18	134.27946
561.647	146.30679
562.114	175.37575
562.581	205.47703
563.048	153.32809
563.514	191.44463
563.981	135.29149
564.448	241.50294
564.914	148.32469
565.381	174.36594
565.847	186.40668
566.313	182.39625
566.779	216.45928
567.245	219.47913
567.711	200.4539
568.176	282.5996
568.642	215.51152
569.108	195.45251
569.573	183.39919
570.038	212.41755
570.504	277.58063
570.969	239.55833
571.434	252.51737
571.899	257.57199
572.363	238.5023
572.828	272.56826
573.293	232.49673
573.757	264.56573
574.222	309.64112
574.686	278.57977
575.15	266.59018
575.614	256.5429
576.078	244.53213
576.542	282.59542
577.006	303.6326
577.469	297.67224
577.933	254.52242
578.396	255.57131
578.86	236.51447
579.323	268.59289
579.786	260.51474
580.249	250.5311
580.712	239.54075
581.175	228.52772
581.637	251.54217
582.1	272.54405
582.563	214.41256
583.025	244.5524
583.487	204.37986
583.95	240.4796
584.412	235.45097
584.874	229.51792
585.336	235.5213
585.797	205.41127
586.259	153.33446
586.721	200.44135
587.182	206.44183
587.643	203.42966
588.105	151.34012
588.566	174.3427
589.027	194.44546
589.488	181.38511
589.949	222.49625
590.41	212.3875
590.87	159.33403
591.331	160.31795
591.791	150.32242
592.252	175.37672
592.712	180.40602
593.172	175.36959
593.632	169.3356
594.092	204.42261
594.552	227.44678
595.011	176.38319
595.471	210.43601
595.931	227.46678
596.39	204.45884
596.849	217.46853
597.308	175.35239
597.768	175.421
598.227	247.55225
598.685	228.47528
599.144	224.48562
599.603	291.63099
600.062	203.39145
600.52	237.48998
600.978	283.62175
601.437	246.51645
601.895	261.50498
602.353	275.54916
602.811	276.55794
603.269	289.63013
603.727	283.6228
604.184	291.59919
604.642	289.64747
605.099	302.63513
605.557	332.72556
606.014	331.63859
606.471	372.85274
606.928	479.93612
607.385	385.86322
607.842	438.90084
608.299	468.95603
608.755	454.96737
609.212	520.00565
609.668	487.9495
610.125	503.05197
610.581	501.00889
611.037	462.91638
611.493	502.02135
611.949	465.98972
612.405	534.91813
612.861	481.9681
613.316	543.13227
613.772	510.0155
614.227	537.09642
614.683	549.99932
615.138	527.08571
615.593	528.04702
616.048	506.98444
616.503	566.19625
616.958	528.15525
617.412	533.08922
617.867	587.11679
618.321	526.89663
618.776	588.09292
619.23	551.12455
619.684	517.99125
620.138	531.03016
620.592	503.05801
621.046	566.12513
621.5	511.07487
621.954	494.95103
622.407	536.0119
622.861	467.97885
623.314	549.06667
623.768	489.99462
624.221	544.90538
624.674	467.92478
625.127	461.94408
625.58	491.93821
626.033	494.91812
626.485	476.99221
626.938	522.06164
627.39	503.01107
627.843	537.05026
628.295	505.00763
628.747	506.04026
629.199	543.06553
629.651	478.9459
630.103	578.13034
630.555	536.94624
631.006	533.06952
631.458	489.98239
631.909	608.15654
632.361	453.90965
632.812	532.05743
633.263	567.00913
633.714	553.97448
634.165	512.04647
634.616	534.08017
635.067	627.12714
635.518	602.18793
635.968	699.10463
636.419	659.14965
636.869	690.34021
637.319	708.33864
637.769	727.32806
638.219	688.32997
638.669	703.39439
639.119	757.50166
639.569	813.6054
640.019	753.39993
640.468	753.32373
640.918	864.6469
641.367	839.48839
641.816	914.58616
642.265	943.68634
642.714	982.75851
643.163	920.61009
643.612	986.87078
644.061	928.4726
644.51	1079.84632
644.958	1035.69718
645.406	1069.9554
645.855	1155.10439
646.303	1171.98406
646.751	1183.97432
647.199	1203.91946
647.647	1295.14227
648.095	1226.00136
648.543	1297.73789
648.99	1313.25329
649.438	1350.22466
649.885	1285.33976
650.333	1347.63749
650.78	1440.47182
651.227	1451.47305
651.674	1400.19142
652.121	1352.29049
652.568	1437.4308
653.015	1428.48094
653.461	1465.38309
653.908	1447.28318
654.354	1447.32227
654.801	1475.35826
655.247	1524.14286
655.693	1534.80552
656.139	1559.48814
656.585	1494.44882
657.031	1609.48936
657.477	1532.15426
657.922	1622.44091
658.368	1565.58941
658.813	1702.40154
659.259	1672.62456
659.704	1693.54233
660.149	1726.5305
660.594	1700.59309
661.039	1695.45363
661.484	1791.67725
661.929	1813.59042
662.373	1785.97756
662.818	1818.9052
663.262	1865.74995
663.707	1832.94749
664.151	1943.94253
664.595	1983.86593
665.039	1972.96187
665.483	2045.20397
665.927	2116.77062
666.371	2105.78032
666.814	2146.87408
667.258	2206.94157
667.701	2204.35855
668.145	2262.11979
668.588	2332.13077
669.031	2247.91582
669.474	2302.98673
669.917	2447.57063
670.36	2493.18576
670.803	2525.04304
671.245	2591.3411
671.688	2585.11051
672.13	2573.66393
672.573	2722.45255
673.015	2711.0439
673.457	2729.58215
673.899	2840.08917
674.341	2773.09341
674.783	2869.11512
675.225	2912.21901
675.666	2961.1279
676.108	3085.4963
676.549	3119.92872
676.991	3087.51689
677.432	3122.93791
677.873	3172.78011
678.314	3251.97878
678.755	3235.17633
679.196	3353.75504
679.637	3271.0734
680.078	3343.80821
680.518	3358.6733
680.959	3336.98512
681.399	3497.14197
681.839	3601.01968
682.28	3530.21037
682.72	3594.57943
683.16	3797.16735
683.6	3732.51006
684.039	3794.91061
684.479	3771.05483
684.919	3904.62599
685.358	3894.195
685.798	4033.41076
686.237	3936.8119
686.676	4097.43996
687.115	4218.49648
687.554	4305.52365
687.993	4367.88935
688.432	4390.28713
688.871	4434.13841
689.309	4576.63535
689.748	4670.46977
690.186	4717.25008
690.625	4873.25875
691.063	4861.38717
691.501	4889.5389
691.939	5089.49393
692.377	5071.33842
692.815	5180.20468
693.253	5283.97927
693.69	5236.47017
694.128	5307.23402
694.565	5519.91964
695.003	5629.37136
695.44	5706.67546
695.877	5880.67866
696.314	6002.01556
696.751	5967.34244
697.188	6053.46906
697.625	6143.30466
698.061	6179.68641
698.498	6391.65538
698.934	6447.56439
699.371	6588.51652
699.807	6686.50756
700.243	6779.67892
700.679	6899.25392
701.115	7067.43747
701.551	7063.52957
701.987	7163.23072
702.422	7259.57519
702.858	7417.61831
703.294	7548.4714
703.729	7657.9421
704.164	7795.95781
704.599	7831.63881
705.035	7929.78513
705.47	8197.36029
705.904	8364.3566
706.339	8389.35612
706.774	8532.59412
707.209	8628.71905
707.643	8762.00769
708.078	8923.29455
708.512	9184.85181
708.946	9397.24165
709.38	9305.03098
709.814	9681.01054
710.248	9673.92015
710.682	9806.2771
711.116	10168.34589
711.549	9993.72839
711.983	10193.57573
712.416	10254.73416
712.85	10601.71306
713.283	10797.71248
713.716	10840.64927
714.149	10842.9342
714.582	11076.19961
715.015	11169.04365
715.448	11275.52203
715.881	11449.42482
716.313	11734.13897
716.746	11724.04833
717.178	12010.54274
717.61	12126.67336
718.043	12208.41457
718.475	12318.29431
718.907	12543.37024
719.339	12746.73013
719.77	12732.94242
720.202	12961.93676
720.634	13148.56952
721.065	13373.77045
721.497	13596.90931
721.928	13562.54696
722.359	13766.26082
722.79	13939.06259
723.221	13971.73244
723.652	14160.90901
724.083	14226.62703
724.514	14394.1188
724.945	14579.99962
725.375	14823.44372
725.806	14744.82855
726.236	14834.84287
726.666	15017.2518
727.096	15361.92647
727.526	15735.7147
727.956	15651.37681
728.386	16083.68168
728.816	16039.00808
729.246	16137.91288
729.675	16372.16693
730.105	16600.22794
730.534	16562.88081
730.964	16841.52301
731.393	17029.43283
731.822	17515.8074
732.251	17569.58587
732.68	17685.05735
733.109	17799.39413
733.537	17913.55571
733.966	18111.38532
734.395	18623.32391
734.823	18825.79962
735.251	18804.20414
735.68	19045.5388
736.108	19150.61476
736.536	19229.7341
736.964	19367.22819
737.392	19452.18586
737.82	19795.19571
738.247	19995.20338
738.675	20235.86746
739.102	20149.2187
739.53	20403.25414
739.957	20358.81284
740.384	20753.1877
740.811	20794.15908
741.238	20929.81955
741.665	21139.7201
742.092	21033.19507
742.519	20932.69298
742.945	21344.16244
743.372	21622.93342
743.798	21835.93265
744.225	21693.58406
744.651	21925.22387
745.077	21914.11111
745.503	21913.13547
745.929	22187.55606
746.355	22034.69438
746.781	22024.00084
747.207	21922.71673
747.632	22107.3595
748.058	22176.26386
748.483	22598.08179
748.908	22681.39078
749.334	22652.39662
749.759	22579.78992
750.184	22558.01785
750.609	22560.26515
751.033	22862.42387
751.458	22956.45346
751.883	22740.64249
752.307	22786.17313
752.732	22844.01231
753.156	22772.96561
753.58	22736.93742
754.005	22822.41971
754.429	22503.18276
754.853	22382.97776
755.277	22584.37642
755.7	22404.53548
756.124	22453.62777
756.548	22364.09952
756.971	22194.11097
757.394	22299.5858
757.818	22345.97009
758.241	22035.48566
758.664	21974.13302
759.087	21977.91499
759.51	21860.4287
759.933	21820.64445
760.356	21721.4041
760.778	21527.34205
761.201	21337.25811
761.623	21070.48897
762.046	21023.81854
762.468	20822.81463
762.89	20970.87857
763.312	20594.09192
763.734	20531.18193
764.156	20174.31064
764.578	19817.08881
765	19717.45664
765.421	19558.21373
765.843	19432.9597
766.264	18886.70499
766.686	18912.21335
767.107	18623.31783
767.528	18447.65098
767.949	18385.14445
768.37	18112.82583
768.791	17724.36528
769.212	17367.14201
769.632	17299.90649
770.053	17233.60254
770.473	16994.9936
770.894	16745.77048
771.314	16332.23214
771.734	15990.79852
772.154	15779.07
772.575	15760.3718
772.994	15639.30784
773.414	15379.02622
773.834	15160.29869
774.254	14834.8855
774.673	14545.31572
775.093	14361.08202
775.512	14124.11747
775.931	13933.00284
776.351	13794.52736
776.77	13493.20127
777.189	13367.87629
777.607	13031.26481
778.026	12842.26064
778.445	12518.02891
778.864	12439.52661
779.282	12164.57552
779.701	11789.96518
780.119	11712.599
780.537	11463.4265
780.955	11146.88395
781.373	10952.18776
781.791	10952.6669
782.209	10844.07432
782.627	10488.18753
783.045	10196.61329
783.462	9866.39586
783.88	9784.17073
784.297	9655.85529
784.715	9475.45498
785.132	9282.98492
785.549	8964.42839
785.966	8739.03972
786.383	8671.91451
786.8	8504.525
787.217	8127.09203
787.633	8003.20129
788.05	7830.72142
788.466	7734.68888
788.883	7638.12761
789.299	7294.54457
789.715	7084.64434
790.131	6915.68239
790.547	6852.61538
790.963	6636.72342
791.379	6457.91124
791.795	6419.17826
792.21	6195.35779
792.626	6025.52145
793.041	5719.89731
793.457	5788.88603
793.872	5632.64361
794.287	5530.99318
794.702	5394.04328
795.117	5171.23288
795.532	5087.53094
795.947	5009.01978
796.362	4761.10081
796.776	4656.85699
797.191	4650.41394
797.605	4404.45056
798.02	4311.67119
798.434	4203.92774
798.848	4009.78701
799.262	3964.06108
799.676	3846.74698
800.09	3729.90077
800.504	3630.86238
800.918	3500.57093
801.331	3372.47571
801.745	3231.59346
802.158	3223.18585
802.572	3131.95122
802.985	3000.89433
803.398	2968.90466
803.811	2827.35142
804.224	2820.15322
804.637	2653.80704
805.05	2662.73186
805.462	2575.04399
805.875	2487.52944
806.288	2381.00239
806.7	2334.14158
807.112	2262.67713
807.525	2231.02463
807.937	2150.98589
808.349	2057.96605
808.761	1890.72324
809.173	1931.69445
809.584	1870.76819
809.996	1837.76985
810.408	1786.98165
810.819	1753.5203
811.231	1764.06763
811.642	1685.69274
812.053	1621.53279
812.464	1563.44407
812.875	1539.68256
813.286	1478.61528
813.697	1485.16833
814.108	1396.29844
814.519	1314.93175
814.929	1271.30373
815.34	1275.17384
815.75	1208.25492
816.16	1164.07558
816.571	1185.29824
816.981	1106.85789
817.391	1070.90671
817.801	1065.03273
818.211	1000.80275
818.62	1027.8473
819.03	999.82891
819.44	968.97027
819.849	994.93996
820.259	971.94374
820.668	895.75186
821.077	906.7705
821.486	833.54819
821.895	717.40366
822.304	787.71649
822.713	738.38662
823.122	747.52799
823.531	769.45951
823.939	643.29778
824.348	697.38633
824.756	642.32867
825.164	655.35228
825.573	650.35725
825.981	595.23703
826.389	539.13088
826.797	537.14799
827.205	521.99988
827.612	557.14659
828.02	522.04427
828.428	500.0902
828.835	481.10946
829.243	517.03209
829.65	475.02224
830.057	472.99654
830.464	443.947
830.871	484.98019
831.278	358.7509
831.685	387.72656
832.092	422.90349
832.499	364.67714
832.905	418.93199
833.312	343.67255
833.718	354.77429
834.124	370.73355
834.531	325.72482
834.937	331.75009
835.343	340.72354
835.749	337.67859
836.155	268.63576
836.561	271.58462
836.966	292.63356
837.372	259.59339
837.777	261.58162
838.183	213.40895
838.588	281.63085
838.993	229.49571
839.399	224.49307
839.804	267.59277
840.209	242.56678
840.613	259.51528
841.018	194.44386
841.423	190.44186
841.828	209.48192
842.232	188.41557
842.637	181.37957
843.041	206.49397
843.445	148.33862
843.849	189.42763
844.253	185.39379
844.657	231.53498
845.061	192.39241
845.465	230.51477
845.869	165.34541
846.272	143.32039
846.676	225.49288
847.079	137.32646
847.483	142.32528
847.886	112.24623
848.289	159.40298
848.692	126.29511
849.095	141.30601
849.498	139.31745
849.901	106.21998
850.304	149.32213
850.707	106.25089
851.109	130.29731
851.512	101.23271
851.914	143.3418
852.316	106.25089
852.718	89.21905
853.121	110.24995
853.523	62.13401
853.925	84.20679
854.326	130.30567
854.728	95.22881
855.13	105.25595
855.531	148.33057
855.933	128.28081
856.334	129.29995
856.736	64.13092
857.137	91.19522
857.538	92.21616
857.939	122.2816
858.34	76.17081
858.741	82.20119
859.142	96.21416
859.542	140.35312
859.943	159.36693
860.343	79.18434
860.744	110.24945
861.144	59.13442
861.544	104.23575
861.945	48.11436
862.345	28.06301
862.745	69.16044
863.145	60.13008
863.544	63.15156
863.944	55.12023
864.344	29.06671
864.743	163.37061
865.143	57.13791
865.542	39.08381
865.941	118.27345
866.34	122.269
866.74	74.18766
867.139	59.1329
867.537	55.13076
867.936	48.10854
868.335	74.1782
868.734	106.25602
869.132	71.15409
869.531	70.15687
869.929	91.19328
870.327	41.09194
870.726	75.17356
871.124	55.11794
871.522	43.10211
871.92	30.06938
872.318	79.18028
872.715	68.15608
873.113	59.13475
873.511	30.07062
873.908	82.19925
874.306	64.14978
874.703	37.08688
875.1	60.14295
875.497	22.04912
875.894	71.16587
876.291	79.18217
876.688	32.07796
877.085	78.17235
877.482	26.06078
877.878	64.14413
878.275	12.02877
878.671	-5.01004
879.068	69.15434
879.464	57.12897
879.86	62.13854
880.256	29.0662
880.652	15.03609
881.048	48.10978
881.444	52.11322
881.84	17.04065
882.236	53.12542
882.631	47.10834
883.027	-7.0157
883.422	9.0218
883.817	45.10805
884.213	46.11165
884.608	56.13024
885.003	19.04325
885.398	37.08722
885.793	44.10322
886.188	95.22307
886.582	3.00714
886.977	60.13185
887.371	36.08564
887.766	6.01429
888.16	59.13811
888.554	46.10504
888.949	-30.07054
889.343	44.09889
889.737	21.05441
890.131	44.10443
890.525	50.1199
890.918	53.12659
891.312	7.01539
891.706	49.12282
892.099	60.14256
892.492	43.08531
892.886	-9.02068
893.279	-8.01942
893.672	26.06289
894.065	37.08668
894.458	14.0332
894.851	57.12787
895.244	4.00973
895.637	52.1172
896.029	49.11204
896.422	12.02744
896.814	46.10761
897.206	18.04082
897.599	33.07461
897.991	27.06154
898.383	5.01104
898.775	42.08736
899.167	46.10122
899.559	23.0546
899.951	55.11993
900.342	-20.04747
900.734	45.10768
901.125	22.0542
901.517	36.08349
901.908	30.06643
902.299	8.01856
902.69	39.08598
903.082	34.07698
903.473	21.04784
903.863	83.20066
904.254	9.01944
904.645	42.09633
905.036	44.1016
905.426	8.01649
905.817	23.05304
906.207	0
906.597	18.03961
906.987	20.04836
907.378	41.09691
907.768	18.04553
908.158	41.0939
908.547	-11.02724
908.937	6.01453
909.327	47.10596
909.717	53.12479
910.106	11.02485
910.495	66.15501
910.885	-6.01415
911.274	34.08044
911.663	51.12288
912.052	22.0505
912.441	49.11855
912.83	16.03402
913.219	-32.07912
913.608	35.08026
913.997	-23.05489
914.385	22.04849
914.774	49.11078
915.162	21.04661
915.55	74.16617
915.939	17.04082
916.327	74.17203
916.715	63.15243
917.103	30.06856
917.491	15.03435
917.878	2.00455
918.266	1.00246
918.654	48.11707
919.041	0
919.429	28.0621
919.816	32.07595
920.203	25.05698
920.591	-23.05367
920.978	56.12741
921.365	-4.00996
921.752	57.12708
922.139	78.15572
922.525	16.03606
922.912	31.07049
923.299	36.08462
923.685	22.05452
924.072	62.12994
924.458	67.15511
924.844	16.03727
925.231	19.04094
925.617	43.10505
926.003	34.08194
926.389	42.10079
926.774	75.17872
927.16	20.04648
927.546	19.04618
927.931	56.13065
928.317	-11.02323
928.702	26.0568
929.088	15.03344
929.473	6.0145
929.858	56.12921
930.243	63.14179
930.628	-7.01602
931.013	58.13649
931.398	81.16889
931.783	24.05991
932.167	4.00916
932.552	-31.07276
932.937	-8.01844
933.321	-27.06419
933.705	22.05304
934.09	24.05615
934.474	24.05312
934.858	30.07407
935.242	106.22931
935.626	-6.01453
936.009	-5.0127
936.393	70.16863
936.777	37.09033
937.16	-15.03672
937.544	-2.0044
937.927	8.01932
938.311	53.11938
938.694	32.08014
939.077	14.03115
939.46	43.09912
939.843	49.09117
940.226	-12.02912
940.609	5.01066
940.991	-33.08023
941.374	20.04563
941.757	40.09211
942.139	-30.06259
942.522	19.04125
942.904	3.00681
943.286	13.0309
943.668	53.12915
944.05	33.07619
944.432	62.14351
944.814	21.04806
945.196	48.1111
945.578	18.04074
945.959	40.08742
946.341	44.09856
946.722	64.13964
947.104	38.08386
947.485	35.07544
947.866	23.05527
948.247	-2.00479
948.628	35.07916
949.009	24.05838
949.39	-30.06941
949.771	17.0365
950.152	40.09255
950.532	62.1476
950.913	13.02903
951.293	16.04171
951.674	-20.0453
952.054	35.08183
952.434	-1.00232
952.814	-12.02634
953.194	35.08691
953.574	-14.03206
953.954	18.04002
954.334	82.19146
954.714	-15.03474
955.093	4.00912
955.473	2.00469
955.853	55.13472
956.232	35.09141
956.611	-30.06651
956.99	50.11853
957.37	-15.03636
957.749	13.02871
958.128	42.10072
958.506	55.13582
958.885	14.03319
959.264	20.0462
959.643	14.02973
960.021	27.06303
960.4	86.18159
960.778	3.00681
961.156	-17.04046
961.535	8.01695
961.913	-3.00642
962.291	68.16623
962.669	12.02887
963.047	-2.00477
963.424	44.10624
963.802	-4.00918
964.18	15.03551
964.557	15.03155
964.935	38.08333
965.312	6.01497
965.69	33.07707
966.067	17.0385
966.444	29.06693
966.821	11.02668
967.198	-12.02696
967.575	7.01599
967.952	87.18873
968.329	76.1706
968.705	18.03483
969.082	44.1072
969.458	43.09777
969.835	34.0772
970.211	15.03652
970.587	27.06318
970.963	14.03389
971.339	44.10967
971.715	-17.03951
972.091	32.07357
972.467	-31.07205
972.843	8.01875
973.219	49.10739
973.594	8.01994
973.97	24.05245
974.345	-33.07464
974.721	42.09408
975.096	-33.07479
975.471	52.1149
975.846	66.14839
976.221	-8.01934
976.596	-15.03395
976.971	27.06258
977.346	-13.02791
977.72	-9.02172
978.095	-5.01233
978.469	42.09354
978.844	21.04954
979.218	8.01821
979.593	37.0828
979.967	57.13023
980.341	6.01278
980.715	34.08001
981.089	1.00234
981.463	55.11825
981.837	28.06478
982.21	97.20432
982.584	34.07623
982.957	34.08057
983.331	62.13562
983.704	52.12031
984.078	15.03453
984.451	-42.09691
984.824	-11.02557
985.197	29.06562
985.57	-5.01173
985.943	2.00454
986.316	87.19749
986.688	16.03593
987.061	44.09445
987.434	0
987.806	-10.0227
988.179	-27.0596
988.551	10.02375
988.923	23.05295
989.295	32.07474
989.667	30.06861
990.039	10.02343
990.411	59.12668
990.783	42.08888
991.155	33.07549
991.527	-4.00905
991.898	1.00234
992.27	28.06522
992.641	48.11194
993.012	103.22392
993.384	15.03351
993.755	-46.11148
994.126	37.08324
994.497	14.03228
994.868	42.08966
995.239	42.09563
995.61	-4.0095
995.98	42.09644
996.351	48.11229
996.722	21.04585
997.092	36.08048
997.462	14.03101
997.833	48.10495
998.203	15.03383
998.573	27.0638
998.943	-10.02172
999.313	25.05641
999.683	-46.10355
1000.053	55.11748
1000.423	36.08174
1000.792	24.059
1001.162	21.04891
1001.531	40.09295
1001.901	3.00702
1002.27	41.08507
1002.639	28.06781
1003.009	65.14551
1003.378	-5.01217
1003.747	24.05261
1004.116	18.04064
1004.485	22.04953
1004.853	44.10475
1005.222	63.15036
1005.591	54.11767
1005.959	44.09311
1006.328	14.02913
1006.696	-6.01376
1007.064	31.07345
1007.433	35.0826
1007.801	44.0999
1008.169	-6.01423
1008.537	95.19209
1008.905	5.01096
1009.273	17.0394
1009.64	3.00677
1010.008	-26.05827
1010.375	103.22954
1010.743	30.06251
1011.11	19.04218
1011.478	33.07634
1011.845	-14.03035
1012.212	28.05801
1012.579	31.07157
1012.946	4.00876
1013.313	48.10557
1013.68	20.04125
1014.047	62.13946
1014.414	22.04908
1014.78	78.1824
1015.147	21.0467
1015.513	92.20829
1015.88	24.05694
1016.246	60.13838
1016.612	31.06492
1016.978	39.08893
1017.344	54.12623
1017.71	25.05567
1018.076	45.09804
1018.442	-13.03163
1018.808	28.06592
1019.174	-29.06871
1019.539	2.00415
1019.905	23.05102
1020.27	32.07492
1020.636	22.04914
1021.001	-12.02681
1021.366	39.08925
1021.731	42.10221
1022.096	22.05294
1022.461	29.06307
1022.826	53.11713
1023.191	25.06226
1023.556	-22.0477
1023.92	9.02053
1024.285	-15.03437
1024.649	11.02536
1025.014	20.04644
1025.378	70.16633
1025.742	-18.04228
1026.107	12.02484
1026.471	31.0655
1026.835	-26.06037
1027.199	-10.02285
1027.562	46.09973
1027.926	36.08187
1028.29	2.00481
1028.654	16.03381
1029.017	35.08084
1029.381	8.01803
1029.744	-13.03176
1030.107	-21.04575
1030.471	23.05119
1030.834	-32.06691
1031.197	-12.02671
1031.56	57.12613
1031.923	-4.00981
1032.286	26.05632
1032.648	35.07729
1033.011	25.05349
1033.374	24.05161
1033.736	-17.04267
1034.099	17.03914
1034.461	6.01449
1034.823	-26.06111
1035.185	-8.01874
1035.548	28.06357
1035.91	-3.00681
1036.272	38.08006
1036.634	-35.0799
1036.995	67.14708
1037.357	0
1037.719	43.09733
1038.08	-2.00436
1038.442	51.11502
1038.803	44.09743
1039.165	16.03818
1039.526	26.05882
1039.887	72.16069
1040.248	84.19682
1040.609	49.11272
1040.97	31.07077
1041.331	16.03748
1041.692	30.06587
1042.053	26.05415
1042.413	-11.02367
1042.774	10.02268
1043.134	21.04598
1043.495	2.00471
1043.855	31.07034
1044.215	25.05802
1044.576	31.06983
1044.936	61.12945
1045.296	-21.04933
1045.656	67.15259
1046.016	34.07535
1046.375	73.16578
1046.735	27.0576
1047.095	1.00219
1047.454	56.10749
1047.814	5.01117
1048.173	4.00876
1048.533	26.05567
1048.892	4.00911
1049.251	40.09409
1049.61	-59.1367
1049.969	70.1537
1050.328	9.01771
1050.687	38.08607
1051.046	30.06897
1051.405	4.00924
1051.763	30.06443
1052.122	38.08998
1052.48	-2.00459
1052.839	11.02424
1053.197	43.09412
1053.555	-25.05115
1053.914	19.04332
1054.272	25.0562
1054.63	-6.01373
1054.988	-25.05583
1055.345	62.1197
1055.703	16.0356
1056.061	30.0729
1056.419	11.02715
1056.776	73.16288
1057.134	-29.06286
1057.491	37.08654
1057.848	-2.00466
1058.206	21.04591
1058.563	57.11652
1058.92	53.11115
1059.277	-6.01367
1059.634	-2.0043
1059.991	39.08738
1060.348	15.03183
1060.704	-15.03376
1061.061	32.06706
1061.418	61.13853
1061.774	54.12643
1062.131	35.08981
1062.487	-35.07641
1062.843	60.13926
1063.199	65.15174
1063.555	44.09531
1063.911	38.08963
1064.267	19.03511
1064.623	11.02542
1064.979	5.01074
1065.335	-3.00659
1065.691	72.16128
1066.046	42.08373
1066.402	6.01267
1066.757	21.05
1067.112	37.08368
1067.468	54.12061
1067.823	52.11653
1068.178	58.13121
1068.533	3.00676
1068.888	24.05279
1069.243	47.10898
1069.598	-46.10415
1069.952	65.13734
1070.307	37.08746
1070.662	12.02677
1071.016	1.00211
1071.371	-26.05512
1071.725	14.03035
1072.079	4.009
1072.434	13.02957
1072.788	51.11365
1073.142	115.26296
1073.496	-9.02007
1073.85	45.09621
1074.203	3.0068
1074.557	40.10154
1074.911	53.11557
1075.265	40.08483
1075.618	37.08471
1075.971	14.03091
1076.325	6.01444
1076.678	14.02979
1077.031	28.05845
1077.385	76.15378
1077.738	20.04199
1078.091	7.01509
1078.444	45.095
1078.796	47.10851
1079.149	-15.03475
1079.502	-2.00444
1079.855	47.10213
1080.207	38.08715
1080.56	10.02445
1080.912	13.02914
1081.264	58.12944
1081.617	22.0504
1081.969	64.15417
1082.321	-19.04387
1082.673	41.08788
1083.025	15.03289
1083.377	-241.49467
1083.728	1.00213
1084.08	20.0473
1084.432	-37.08228
1084.783	99.21477
1085.135	37.08844
1085.486	-2.00432
1085.838	48.11035
1086.189	-17.0389
1086.54	64.1413
1086.891	28.06773
1087.242	-9.02046
1087.593	11.02484
1087.944	26.0542
1088.295	22.04566
1088.646	53.11973
1088.996	-7.01583
1089.347	-15.03448
1089.698	25.05576
1090.048	-12.02938
1090.398	60.12908
1090.749	45.10041
1091.099	35.08372
1091.449	22.05104
1091.799	22.05163
1092.149	36.08432
1092.499	-32.07425
1092.849	-3.00724
1093.199	30.07007
1093.548	61.13701
1093.898	81.18901
1094.248	65.15626
1094.597	-10.02467
1094.947	-14.03563
1095.296	22.05068
1095.645	22.05382
1095.994	70.15655
1096.343	76.18051
1096.692	29.07308
1097.041	36.09352
1097.39	10.02354
1097.739	18.04452
1098.088	-6.01515
1098.437	8.02011
1098.785	-44.11344
1099.134	8.0199
1099.482	-34.08923
1099.83	7.01739
1100.179	72.1794
1100.527	-38.09609
1100.875	12.03017
1101.223	31.07879
1101.571	-9.02404
1101.919	-27.06826
1102.267	31.08471
1102.615	12.03853
1102.962	10.03206
1103.31	10.03209
1103.658	9.02882
