Data from N3 R7 sample 6_Subt2__0__16-54-25-911.txt Node

Date: Fri Sep 19 16:54:25 PDT 2025
User: uwsun
Spectrometer: HDX01956
Trigger mode: 0
Integration Time (sec): 5.000000E-1
Scans to average: 1
Nonlinearity correction enabled: true
Boxcar width: 0
Storing dark spectrum: false
XAxis mode: Wavelengths
Number of Pixels in Spectrum: 2068
>>>>>Begin Spectral Data<<<<<
194.03	63.18127
194.578	62.20023
195.127	67.21335
195.676	54.17206
196.225	77.20089
196.773	92.25336
197.321	131.35842
197.87	207.51733
198.418	197.49821
198.966	192.49479
199.513	199.495
200.061	130.32497
200.609	149.38579
201.156	130.27509
201.704	189.4619
202.251	140.3653
202.798	132.33935
203.345	197.47374
203.892	198.48453
204.438	196.45456
204.985	197.45624
205.532	207.54222
206.078	183.43824
206.624	152.36948
207.17	195.43797
207.716	123.29152
208.262	130.24965
208.808	193.46817
209.354	174.41327
209.899	180.44032
210.445	214.52134
210.99	156.3698
211.535	216.48901
212.08	158.35727
212.625	183.44541
213.17	183.44973
213.715	232.50274
214.259	186.42298
214.804	163.3902
215.348	209.46015
215.892	201.46901
216.436	217.48658
216.98	204.4296
217.524	124.28781
218.068	219.53202
218.612	147.35833
219.155	201.45608
219.698	161.36917
220.242	157.37984
220.785	221.49697
221.328	192.46408
221.871	172.42247
222.414	147.35149
222.956	171.40246
223.499	149.32516
224.041	142.31625
224.583	192.39383
225.126	231.49406
225.668	166.39244
226.21	123.30273
226.751	72.15309
227.293	153.33488
227.835	185.43422
228.376	157.34654
228.918	207.50212
229.459	219.53143
230	165.37986
230.541	177.39003
231.082	172.40395
231.622	179.39741
232.163	176.41705
232.704	203.48316
233.244	150.36161
233.784	166.38971
234.324	184.39481
234.864	173.37578
235.404	141.32189
235.944	122.27879
236.484	170.40532
237.023	203.46248
237.563	173.38505
238.102	197.44646
238.641	176.43421
239.18	170.38723
239.719	190.46426
240.258	133.28803
240.797	163.37975
241.335	166.38712
241.874	212.38965
242.412	173.39955
242.95	177.41285
243.488	174.38285
244.026	213.47152
244.564	194.37976
245.102	164.3557
245.64	164.38065
246.177	164.3516
246.715	139.31988
247.252	160.35028
247.789	136.23139
248.326	105.24434
248.863	136.28703
249.4	232.50768
249.936	169.33199
250.473	175.39483
251.009	206.45688
251.546	181.38494
252.082	187.39649
252.618	205.44073
253.154	200.46163
253.69	180.38807
254.226	140.32327
254.761	116.24977
255.297	168.35566
255.832	186.42093
256.367	144.32695
256.903	163.34198
257.438	161.36072
257.972	163.34621
258.507	209.46478
259.042	146.29893
259.576	156.32563
260.111	164.36358
260.645	240.4934
261.179	180.40138
261.713	177.37529
262.247	238.52784
262.781	189.38215
263.315	210.49415
263.849	158.38334
264.382	153.33743
264.915	176.40073
265.449	150.35723
265.982	154.33358
266.515	188.44204
267.048	204.41428
267.58	165.3399
268.113	217.45024
268.646	200.47958
269.178	155.33496
269.71	184.38237
270.243	191.41752
270.775	179.44104
271.307	177.4039
271.838	224.50279
272.37	214.50728
272.902	238.51773
273.433	174.36256
273.965	243.57123
274.496	171.40606
275.027	167.3987
275.558	189.44067
276.089	232.55842
276.62	172.42106
277.15	261.60947
277.681	161.32942
278.211	206.48001
278.741	227.48151
279.272	210.45915
279.802	184.44491
280.332	212.47976
280.861	215.49536
281.391	166.36142
281.921	210.47717
282.45	242.58514
282.98	183.46363
283.509	193.41547
284.038	199.42617
284.567	192.42122
285.096	209.48576
285.625	248.54269
286.153	175.39434
286.682	169.36974
287.21	160.37254
287.739	200.44984
288.267	198.46392
288.795	205.51826
289.323	259.58361
289.851	248.54864
290.378	183.39563
290.906	215.50365
291.433	216.51794
291.961	188.40601
292.488	218.52135
293.015	269.60639
293.542	192.46775
294.069	203.48
294.596	229.54168
295.122	260.59029
295.649	225.47768
296.175	201.46126
296.702	244.55712
297.228	177.40797
297.754	215.45984
298.28	204.44226
298.806	254.58555
299.332	225.47456
299.857	228.48838
300.383	238.57047
300.908	206.48643
301.433	286.6622
301.958	193.41993
302.483	246.59615
303.008	283.65695
303.533	216.53112
304.058	220.49381
304.582	253.57056
305.107	238.60113
305.631	254.5436
306.155	316.69906
306.679	243.54375
307.203	295.64757
307.727	252.57353
308.251	237.55865
308.775	277.62212
309.298	267.61441
309.822	246.59324
310.345	270.60727
310.868	267.60606
311.391	244.57235
311.914	255.61226
312.437	275.58637
312.96	297.66402
313.482	263.59577
314.005	290.69138
314.527	289.72536
315.049	280.66806
315.571	308.66087
316.093	332.77965
316.615	318.72927
317.137	323.6498
317.659	302.68341
318.18	298.68149
318.702	331.72353
319.223	381.71741
319.744	312.66136
320.265	306.70513
320.786	301.70755
321.307	330.77858
321.828	326.69858
322.348	357.79024
322.869	269.59373
323.389	295.51593
323.909	372.79473
324.43	387.85842
324.95	366.78496
325.47	385.88801
325.989	424.94184
326.509	340.70402
327.029	369.77449
327.548	390.81766
328.067	344.77875
328.587	401.93263
329.106	378.79495
329.625	355.86136
330.144	385.81555
330.662	394.84792
331.181	426.9215
331.7	392.85014
332.218	466.9269
332.736	443.94291
333.255	385.83265
333.773	419.91933
334.291	455.02979
334.808	388.79369
335.326	482.99043
335.844	460.99291
336.361	437.02179
336.879	460.98057
337.396	468.01902
337.913	477.99231
338.43	485.00082
338.947	466.01637
339.464	526.00659
339.981	484.05213
340.497	489.10374
341.014	502.10104
341.53	547.11788
342.046	522.16611
342.562	573.281
343.078	540.13772
343.594	560.20834
344.11	548.16674
344.626	625.41058
345.141	561.15276
345.657	604.19076
346.172	549.18229
346.687	579.18821
347.202	574.14531
347.717	595.26724
348.232	644.43074
348.747	658.32172
349.261	688.32933
349.776	610.25953
350.29	612.35563
350.805	678.45518
351.319	649.33029
351.833	624.25793
352.347	614.25249
352.861	641.31505
353.374	704.385
353.888	625.3243
354.401	665.32996
354.915	726.40891
355.428	696.52205
355.941	701.42278
356.454	727.39442
356.967	703.44827
357.48	749.46364
357.993	673.45095
358.505	730.56891
359.018	755.56875
359.53	789.61327
360.042	728.35437
360.554	717.49501
361.066	715.50402
361.578	767.42742
362.09	751.53757
362.602	770.4355
363.113	769.48859
363.625	855.61751
364.136	816.49438
364.647	785.5551
365.158	867.68979
365.669	902.82918
366.18	804.55756
366.691	847.54932
367.201	900.76788
367.712	838.56252
368.222	906.73544
368.733	945.67605
369.243	871.56209
369.753	959.78285
370.263	933.80657
370.773	940.92276
371.282	1012.9295
371.792	973.79015
372.301	1057.05043
372.811	1009.15278
373.32	1004.67679
373.829	1030.96767
374.338	1058.84652
374.847	1086.93928
375.356	1176.18101
375.865	1138.83533
376.373	1309.18813
376.882	1280.4741
377.39	1334.40435
377.898	1321.47799
378.407	1350.17217
378.915	1426.13658
379.423	1579.58713
379.93	1534.37834
380.438	1619.75108
380.946	1717.66606
381.453	1839.85137
381.96	1896.84589
382.468	2114.98994
382.975	2087.11782
383.482	2129.73775
383.989	2215.40266
384.495	2265.89923
385.002	2412.51276
385.509	2433.9783
386.015	2737.34107
386.521	2832.7717
387.028	2972.84319
387.534	3038.55058
388.04	3108.03304
388.546	3268.61508
389.051	3340.52255
389.557	3647.74204
390.063	3905.62825
390.568	3998.70868
391.073	4231.23886
391.578	4365.56255
392.084	4410.97198
392.589	4544.82391
393.093	5031.93415
393.598	5438.48358
394.103	5903.54569
394.607	6419.3371
395.112	6956.50237
395.616	7432.52198
396.12	8123.93873
396.624	8815.00103
397.128	9555.67282
397.632	10536.04562
398.136	11567.93392
398.639	12232.64277
399.143	13687.72573
399.646	15402.00411
400.15	17084.93368
400.653	18737.09919
401.156	21344.27155
401.659	24652.78782
402.162	30121.02676
402.664	39798.94528
403.167	56264.19535
403.67	59817.35156
404.172	55487.84425
404.674	37291.05854
405.176	4428.40989
405.678	533.47942
406.18	0
406.682	0
407.184	6962.89417
407.686	50953.82939
408.187	59237.6763
408.688	61091.12691
409.19	61923.45898
409.691	57970.9748
410.192	48851.69666
410.693	42370.30401
411.194	38487.63917
411.694	36312.53911
412.195	33532.94653
412.696	30522.09505
413.196	28340.92384
413.696	27408.57888
414.196	27769.28421
414.696	27322.05039
415.196	26094.4021
415.696	23732.44616
416.196	19381.18648
416.695	14812.96978
417.195	12604.08453
417.694	11993.69598
418.194	11171.60255
418.693	10480.90081
419.192	10154.52247
419.691	10092.30873
420.19	9686.03651
420.688	9506.51465
421.187	9002.45009
421.685	8588.60619
422.184	7661.55949
422.682	6641.94574
423.18	5713.41693
423.678	4989.73483
424.176	4686.93238
424.674	4368.85969
425.172	4152.40628
425.669	3938.89728
426.167	3688.5679
426.664	3419.59641
427.161	3094.69477
427.659	2915.16691
428.156	2743.4109
428.652	2534.30614
429.149	2434.06276
429.646	2192.517
430.143	2217.95
430.639	2143.85419
431.135	1919.91412
431.632	1857.55663
432.128	1699.67577
432.624	1608.78389
433.12	1649.44609
433.616	1556.20911
434.111	1511.47895
434.607	1441.40629
435.103	1405.94882
435.598	1351.88986
436.093	1271.12656
436.588	1241.01644
437.083	1173.94369
437.578	1129.9188
438.073	1042.00739
438.568	1013.93095
439.062	970.58711
439.557	999.80781
440.051	966.70586
440.546	880.60859
441.04	871.64943
441.534	877.81925
442.028	893.71749
442.522	809.59749
443.015	784.38592
443.509	845.69439
444.002	841.68713
444.496	742.29856
444.989	772.57883
445.482	778.60044
445.975	760.43083
446.468	672.20234
446.961	695.21324
447.454	715.31598
447.947	714.44162
448.439	707.46369
448.931	666.26401
449.424	650.37404
449.916	620.26933
450.408	661.28227
450.9	597.2445
451.392	647.40735
451.884	631.20533
452.375	569.21546
452.867	608.16047
453.358	547.05621
453.849	531.96557
454.341	593.14137
454.832	562.03516
455.323	569.20444
455.814	548.07713
456.304	535.06019
456.795	543.05599
457.285	492.93989
457.776	472.9196
458.266	558.15613
458.756	494.02467
459.247	519.07015
459.737	532.11642
460.226	516.00505
460.716	468.99199
461.206	429.90358
461.695	478.06415
462.185	518.07024
462.674	438.8777
463.163	430.8302
463.653	501.91053
464.142	377.81221
464.63	450.97299
465.119	462.95191
465.608	415.8445
466.096	415.80104
466.585	412.83019
467.073	329.70577
467.561	382.84046
468.05	357.73773
468.538	384.8608
469.026	370.80415
469.513	333.6301
470.001	332.67884
470.489	349.74576
470.976	399.82045
471.463	390.8843
471.951	375.84702
472.438	359.76347
472.925	310.6531
473.412	277.61829
473.899	375.77562
474.385	319.71467
474.872	312.65963
475.359	293.6567
475.845	305.57006
476.331	282.55045
476.817	219.49086
477.303	307.64892
477.789	207.46416
478.275	285.65347
478.761	271.59765
479.247	269.54715
479.732	209.49151
480.218	238.57763
480.703	270.62913
481.188	266.51725
481.673	210.44924
482.158	256.50516
482.643	197.4696
483.128	189.40038
483.612	198.42944
484.097	222.50464
484.581	183.39055
485.066	191.43233
485.55	158.32219
486.034	211.42879
486.518	191.42123
487.002	163.3772
487.486	209.47769
487.969	187.43566
488.453	222.52584
488.936	116.24687
489.42	209.43035
489.903	137.32796
490.386	168.33852
490.869	78.15898
491.352	175.39934
491.835	185.34988
492.318	149.31951
492.8	136.26143
493.283	174.42153
493.765	144.33806
494.247	162.35196
494.73	156.32375
495.212	159.36034
495.694	125.27752
496.175	132.29824
496.657	197.44355
497.139	48.07586
497.62	127.28888
498.102	141.33431
498.583	80.18987
499.064	146.31206
499.545	141.3034
500.026	122.25884
500.507	106.23147
500.988	87.20509
501.469	66.15821
501.949	97.2267
502.43	88.19972
502.91	137.26519
503.39	113.26927
503.87	116.26081
504.35	54.12101
504.83	151.31176
505.31	47.11066
505.79	108.2467
506.269	135.29623
506.749	103.22363
507.228	74.16686
507.707	108.22714
508.187	86.19463
508.666	68.15983
509.145	75.16811
509.623	133.29541
510.102	136.31116
510.581	127.28794
511.059	131.31635
511.538	81.20076
512.016	123.2817
512.494	108.2478
512.972	132.30092
513.45	141.31409
513.928	156.35893
514.406	132.31001
514.884	153.37948
515.361	198.44991
515.839	108.23344
516.316	98.22386
516.793	136.3265
517.27	171.3932
517.747	173.42154
518.224	132.28776
518.701	174.36498
519.178	191.45565
519.654	104.23057
520.131	125.29157
520.607	147.34571
521.083	155.33654
521.56	109.24442
522.036	140.29158
522.512	184.42673
522.987	157.35769
523.463	169.38098
523.939	141.32811
524.414	77.16904
524.89	112.2514
525.365	148.32045
525.84	180.41514
526.315	67.15437
526.79	105.2237
527.265	28.06104
527.74	88.20547
528.215	71.16169
528.689	156.33083
529.164	15.03091
529.638	138.33921
530.112	103.23571
530.587	198.39989
531.061	99.23029
531.534	25.05841
532.008	105.24299
532.482	62.13384
532.956	114.28332
533.429	37.08447
533.903	85.17786
534.376	43.09141
534.849	96.21398
535.322	56.12761
535.795	68.16014
536.268	96.223
536.741	67.1548
537.213	111.24562
537.686	45.10546
538.158	79.17043
538.631	65.15102
539.103	3.00656
539.575	129.25294
540.047	82.172
540.519	102.23084
540.991	47.11015
541.463	118.27421
541.934	128.27928
542.406	104.23814
542.877	107.22965
543.348	62.1406
543.82	102.23871
544.291	62.13688
544.762	47.10764
545.233	106.25805
545.703	102.2166
546.174	164.36222
546.645	133.30937
547.115	118.27258
547.585	169.37193
548.056	157.36707
548.526	169.37724
548.996	154.35093
549.466	172.39384
549.935	223.50332
550.405	226.46671
550.875	158.35305
551.344	212.48191
551.814	172.36604
552.283	221.44235
552.752	190.41507
553.221	178.36346
553.69	258.53232
554.159	211.4964
554.628	202.4224
555.096	242.57387
555.565	206.4277
556.033	242.52687
556.502	233.52503
556.97	248.50502
557.438	255.56071
557.906	270.59157
558.374	240.5103
558.842	274.60717
559.31	296.60056
559.777	303.67883
560.245	331.69811
560.712	260.54512
561.18	301.60443
561.647	326.6578
562.114	314.65397
562.581	353.79734
563.048	353.72423
563.514	412.91709
563.981	388.79225
564.448	452.89906
564.914	422.87223
565.381	446.88175
565.847	499.01685
566.313	504.0203
566.779	569.11507
567.245	496.01966
567.711	553.16286
568.176	613.20769
568.642	666.44412
569.108	658.3843
569.573	578.1533
570.038	681.1925
570.504	728.3725
570.969	677.44273
571.434	742.35381
571.899	781.54717
572.363	772.4371
572.828	789.45827
573.293	835.55345
573.757	798.51133
574.222	822.50917
574.686	819.50177
575.15	885.70861
575.614	878.60816
576.078	824.57433
576.542	880.61345
577.006	883.60557
577.469	907.79544
577.933	883.55853
578.396	898.74326
578.86	914.7045
579.323	909.73994
579.786	886.49771
580.249	757.42902
580.712	791.58598
581.175	793.62658
581.637	822.55687
582.1	771.36324
582.563	659.13393
583.025	715.46114
583.487	763.22414
583.95	681.22067
584.412	708.20321
584.874	641.32571
585.336	655.32385
585.797	601.09414
586.259	561.11855
586.721	544.11199
587.182	594.16553
587.643	560.09093
588.105	556.14633
588.566	583.0366
589.027	548.16674
589.488	520.02295
589.949	484.02133
590.41	467.7988
590.87	445.87586
591.331	462.85351
591.791	434.87572
592.252	454.9186
592.712	398.85763
593.172	458.90717
593.632	366.6934
594.092	436.85632
594.552	368.70026
595.011	376.78378
595.471	407.80785
595.931	390.77248
596.39	382.82775
596.849	352.73799
597.308	393.75166
597.768	365.84625
598.227	366.79816
598.685	348.70607
599.144	346.73054
599.603	424.89325
600.062	368.68152
600.52	338.68296
600.978	413.8825
601.437	375.76484
601.895	374.70406
602.353	388.75449
602.811	363.71917
603.269	392.836
603.727	428.91316
604.184	398.79976
604.642	396.8676
605.099	434.88618
605.557	380.82201
606.014	419.7913
606.471	464.04189
606.928	525.01316
607.385	441.97736
607.842	523.05328
608.299	525.05683
608.755	508.06784
609.212	581.1075
609.668	483.9426
610.125	541.1221
610.581	526.05326
611.037	538.0465
611.493	507.03037
611.949	517.08608
612.405	542.9299
612.861	508.01433
613.316	536.11938
613.772	527.04528
614.227	517.06029
614.683	605.08416
615.138	582.18443
615.593	480.96409
616.048	563.07884
616.503	571.20551
616.958	551.19981
617.412	532.08742
617.867	574.09546
618.321	503.86272
618.776	504.95769
619.23	567.15306
619.684	586.10325
620.138	469.92483
620.592	501.05426
621.046	528.05873
621.5	509.07112
621.954	519.99316
622.407	539.01683
622.861	427.90293
623.314	520.01719
623.768	503.01804
624.221	503.84655
624.674	430.85888
625.127	421.86997
625.58	403.78646
626.033	414.78473
626.485	372.79335
626.938	359.75849
627.39	469.95177
627.843	407.82181
628.295	377.77591
628.747	387.81836
629.199	411.83293
629.651	362.73581
630.103	370.7603
630.555	336.62412
631.006	356.74473
631.458	293.61525
631.909	300.61424
632.361	258.5414
632.812	265.56039
633.263	233.45124
633.714	292.54968
634.165	258.5586
634.616	272.58413
635.067	226.44869
635.518	237.50842
635.968	280.49654
636.419	220.42882
636.869	215.46541
637.319	266.55794
637.769	208.43031
638.219	200.43229
638.669	198.4395
639.119	228.50861
639.569	248.55505
640.019	232.48771
640.468	142.28995
640.918	218.48107
641.367	202.41809
641.816	258.5261
642.265	239.50541
642.714	242.51635
643.163	163.34243
643.612	161.3671
644.061	140.27288
644.51	161.34375
644.958	233.4681
645.406	191.42705
645.855	163.37196
646.303	200.4284
646.751	155.33209
647.199	125.26133
647.647	171.37143
648.095	177.37447
648.543	161.29807
648.99	166.37276
649.438	183.39987
649.885	181.42201
650.333	147.25707
650.78	229.52087
651.227	162.37228
651.674	206.43515
652.121	82.18693
652.568	145.33155
653.015	132.3082
653.461	141.31513
653.908	172.37193
654.354	93.20708
654.801	138.3053
655.247	143.2906
655.693	143.35312
656.139	131.29483
656.585	159.35814
657.031	171.37696
657.477	108.22163
657.922	187.40376
658.368	122.28272
658.813	83.17806
659.259	102.23337
659.704	189.41332
660.149	106.23353
660.594	137.3067
661.039	189.40283
661.484	131.29483
661.929	114.25073
662.373	122.29645
662.818	120.28491
663.262	104.23661
663.707	89.21411
664.151	123.28814
664.595	110.25238
665.039	110.25834
665.483	148.35976
665.927	119.26244
666.371	103.22868
666.814	135.30284
667.258	105.23913
667.701	155.30464
668.145	132.30868
668.588	163.3775
669.031	128.28755
669.474	120.2729
669.917	69.14413
670.36	88.20692
670.803	132.29909
671.245	87.17163
671.688	108.24849
672.13	82.17383
672.573	131.31706
673.015	66.15082
673.457	90.1872
673.899	100.22852
674.341	85.19506
674.783	48.11132
675.225	68.15983
675.666	90.20749
676.108	91.18788
676.549	98.21871
676.991	61.1273
677.432	48.08938
677.873	68.14912
678.314	38.08691
678.755	90.21005
679.196	72.15829
679.637	96.22044
680.078	87.19227
680.518	72.15616
680.959	78.17767
681.399	37.08756
681.839	108.24869
682.28	37.08854
682.72	29.06334
683.16	56.13434
683.6	114.24398
684.039	117.22604
684.479	53.12508
684.919	64.14271
685.358	67.1618
685.798	50.1254
686.237	66.15155
686.676	73.16019
687.115	66.14766
687.554	61.13808
687.993	69.14195
688.432	96.20972
688.871	50.10821
689.309	144.33238
689.748	56.11061
690.186	86.19241
690.625	140.31412
691.063	83.19162
691.501	86.20293
691.939	64.15301
692.377	78.18197
692.815	87.20061
693.253	61.13808
693.69	65.13523
694.128	89.20792
694.565	64.14608
695.003	64.15633
695.44	56.12508
695.877	76.17102
696.314	108.21642
696.751	68.14585
697.188	109.23787
697.625	92.19673
698.061	73.16719
698.498	99.22637
698.934	20.04587
699.371	94.21135
699.807	82.18474
700.243	96.22221
700.679	65.13963
701.115	88.1942
701.551	54.12226
701.987	123.25532
702.422	44.09974
702.858	40.09041
703.294	40.08561
703.729	80.18759
704.164	71.16424
704.599	86.17912
705.035	81.17227
705.47	97.22724
705.904	49.10838
706.339	26.05687
706.774	54.11967
707.209	28.06161
707.643	99.22501
708.078	36.08372
708.512	73.17802
708.946	84.18925
709.38	35.07868
709.814	32.0692
710.248	9.02082
710.682	49.1124
711.116	80.18363
711.549	33.08137
711.983	32.07
712.416	54.11967
712.85	56.13449
713.283	59.13274
713.716	88.20813
714.149	95.21048
714.582	79.16758
715.015	95.22325
715.448	32.07609
715.881	21.04258
716.313	76.16989
716.746	82.18399
717.178	31.071
717.61	48.11659
718.043	50.11766
718.475	25.05769
718.907	63.14903
719.339	20.04334
719.77	66.15095
720.202	79.18926
720.634	67.15647
721.065	39.08778
721.497	39.09161
721.928	55.1297
722.359	42.09849
722.79	36.0823
723.221	51.12097
723.652	80.19359
724.083	48.10197
724.514	15.03214
724.945	42.09404
725.375	38.08439
725.806	10.02346
726.236	50.12182
726.666	66.14626
727.096	24.05582
727.526	56.13618
727.956	10.02168
728.386	-15.03489
728.816	39.09475
729.246	65.15132
729.675	56.1326
730.105	43.09998
730.534	69.15217
730.964	41.0974
731.393	24.0556
731.822	49.11989
732.251	56.13623
732.68	4.00873
733.109	22.05197
733.537	12.02764
733.966	32.07539
734.395	-6.01311
734.823	46.09662
735.251	46.10529
735.68	41.09703
736.108	24.05766
736.536	47.10465
736.964	35.07645
737.392	21.04972
737.82	37.08365
738.247	34.07638
738.675	2.00448
739.102	76.18204
739.53	40.09818
739.957	3.00737
740.384	77.17614
740.811	61.14753
741.238	2.00463
741.665	60.1333
742.092	35.07813
742.519	-8.01926
742.945	35.07952
743.372	47.11101
743.798	19.04668
744.225	35.07858
744.651	26.06185
745.077	61.14391
745.503	-18.04171
745.929	34.07688
746.355	14.03246
746.781	-7.01658
747.207	30.06787
747.632	44.10269
748.058	9.02122
748.483	-3.00649
748.908	24.05681
749.334	47.10924
749.759	5.01117
750.184	56.12575
750.609	23.05335
751.033	24.05248
751.458	96.2019
751.883	26.06075
752.307	63.14202
752.732	16.03882
753.156	28.06571
753.58	41.09137
754.005	85.20534
754.429	21.04598
754.853	35.08286
755.277	59.13252
755.7	64.14949
756.124	70.16658
756.548	49.11055
756.971	-1.00232
757.394	12.0296
757.818	34.08425
758.241	10.02412
758.664	65.15738
759.087	68.14553
759.51	10.02375
759.933	7.01622
760.356	16.03917
760.778	118.2767
761.201	26.05879
761.623	-10.02271
762.046	-7.01536
762.468	30.06784
762.89	70.16267
763.312	35.08026
763.734	14.03225
764.156	78.18226
764.578	49.10444
765	45.10389
765.421	61.15031
765.843	64.16039
766.264	49.11051
766.686	66.15833
767.107	57.13243
767.528	32.0784
767.949	10.02434
768.37	30.06961
768.791	35.07961
769.212	36.08781
769.632	-17.03781
770.053	28.07088
770.473	59.13589
770.894	17.03997
771.314	19.04236
771.734	20.0438
772.154	60.14645
772.575	14.03058
772.994	12.02593
773.414	-32.0718
773.834	22.05286
774.254	22.05088
774.673	37.08474
775.093	21.04997
775.512	37.08736
775.931	42.10255
776.351	-19.04496
776.77	1.00235
777.189	-24.05409
777.607	40.09774
778.026	55.13086
778.445	43.104
778.864	2.00489
779.282	-14.03185
779.701	19.04574
780.119	-47.11406
780.537	19.0451
780.955	2.00484
781.373	-21.04973
781.791	77.16255
782.209	75.16215
782.627	9.02293
783.045	6.01307
783.462	9.02183
783.88	14.03495
784.297	11.02645
784.715	30.07489
785.132	-17.03933
785.549	63.15122
785.966	-31.07469
786.383	23.05424
786.8	21.04614
787.217	-9.02026
787.633	-51.12339
788.05	-22.04827
788.466	6.01326
788.883	55.13467
789.299	1.00227
789.715	42.09733
790.131	27.06338
790.547	-59.1393
790.963	13.03075
791.379	29.07001
791.795	51.10847
792.21	38.08316
792.626	-2.0045
793.041	12.02796
793.457	2.00468
793.872	42.09315
794.287	72.16593
794.702	39.09022
795.117	-14.03303
795.532	37.08932
795.947	-5.01129
796.362	18.04011
796.776	8.01705
797.191	-3.00696
797.605	56.12653
798.02	12.02802
798.434	59.12056
798.848	-14.0327
799.262	67.15953
799.676	-40.0924
800.09	-21.04908
800.504	-3.00691
800.918	-36.07915
801.331	-24.05997
801.745	-14.03031
802.158	-6.01428
802.572	37.08396
802.985	24.05392
803.398	25.05622
803.811	-13.03173
804.224	13.03056
804.637	-60.13474
805.05	43.09312
805.462	-13.03028
805.875	37.09331
806.288	38.08768
806.7	-17.04085
807.112	36.07818
807.525	52.12151
807.937	-33.07837
808.349	6.01423
808.761	-28.06473
809.173	-6.01363
809.584	9.02094
809.996	10.0234
810.408	-22.05494
810.819	-5.01118
811.231	6.01527
811.642	57.13358
812.053	11.02529
812.464	73.16396
812.875	62.1502
813.286	-3.00735
813.697	23.04892
814.108	6.01372
814.519	18.03711
814.929	11.02634
815.34	-8.01838
815.75	-25.06092
816.16	-29.06772
816.571	12.02978
816.981	-14.03075
817.391	22.04987
817.801	21.05025
818.211	46.10326
818.62	16.03627
819.03	16.03658
819.44	46.11324
819.849	14.03367
820.259	24.05856
820.668	37.08715
821.077	-17.04049
821.486	-5.01124
821.895	10.02287
822.304	18.04565
822.713	21.04647
823.122	33.07846
823.531	-11.02487
823.939	30.06914
824.348	58.13265
824.756	10.02364
825.164	11.02601
825.573	33.0784
825.981	44.10281
826.389	-4.00941
826.797	1.00239
827.205	22.04731
827.612	-8.01858
828.02	13.02911
828.428	-19.04604
828.835	3.00759
829.243	28.06233
829.65	19.04496
830.057	81.18566
830.464	41.09526
830.871	64.14206
831.278	-21.04773
831.685	18.03687
832.092	58.13393
832.499	15.03033
832.905	49.11757
833.312	33.06945
833.718	9.02112
834.124	19.04076
834.531	18.04269
834.937	-36.08764
835.343	38.08617
835.749	45.09671
836.155	4.00997
836.561	-29.06658
836.966	-2.00461
837.372	27.06473
837.777	-3.00705
838.183	19.03819
838.588	19.04495
838.993	-14.03188
839.399	-35.08122
839.804	11.02572
840.209	8.01959
840.613	92.19016
841.018	-6.01428
841.423	-20.04843
841.828	-3.00721
842.232	37.08437
842.637	-56.12358
843.041	42.10385
843.445	2.00471
843.849	-13.03062
844.253	-3.00665
844.657	17.04104
845.061	52.10965
845.465	70.16183
845.869	19.04106
846.272	-26.06028
846.676	32.07295
847.079	20.04873
847.483	16.03758
847.886	-33.07476
848.289	46.11892
848.692	-18.04335
849.095	-6.01343
849.498	-13.0306
849.901	2.00425
850.304	24.05327
850.707	-6.01451
851.109	-17.04003
851.512	69.16
851.914	31.07568
852.316	73.17389
852.718	14.03493
853.121	6.01392
853.523	20.04362
853.925	-2.005
854.326	18.04325
854.728	2.0049
855.13	54.13289
855.531	33.07546
855.933	22.04934
856.334	-14.03347
856.736	-25.05217
857.137	-17.03732
857.538	15.03577
857.939	49.11475
858.34	32.07257
858.741	8.0199
859.142	51.11483
859.542	64.16362
859.943	62.14584
860.343	21.04956
860.744	59.13518
861.144	63.14342
861.544	37.08501
861.945	-1.0024
862.345	-83.19101
862.745	54.12593
863.145	-28.06184
863.544	44.10624
863.944	56.12239
864.344	18.0415
864.743	25.05843
865.143	50.12113
865.542	-37.08081
865.941	71.16607
866.34	41.09194
866.74	10.02565
867.139	27.06122
867.537	19.04548
867.936	25.0568
868.335	60.14487
868.734	28.06862
869.132	51.11116
869.531	58.1303
869.929	27.05815
870.327	-6.01358
870.726	56.13008
871.124	17.03675
871.522	-44.10624
871.92	35.08087
872.318	25.05767
872.715	31.07168
873.113	40.0917
873.511	15.03541
873.908	46.11253
874.306	33.0777
874.703	-1.00237
875.1	37.08854
875.497	-6.01347
875.894	-6.01423
876.291	40.09295
876.688	5.01224
877.085	27.06029
877.482	-26.0614
877.878	8.01822
878.275	-11.02648
878.671	-16.03221
879.068	44.09893
879.464	66.14906
879.86	16.03609
880.256	8.01834
880.652	-17.04115
881.048	-27.06268
881.444	0
881.84	-38.09182
882.236	9.02148
882.631	22.05096
883.027	-54.12231
883.422	8.01938
883.817	45.10805
884.213	18.04392
884.608	11.02581
885.003	15.03417
885.398	-21.05006
885.793	-10.02371
886.188	30.07134
886.582	-17.04063
886.977	65.14269
887.371	18.04297
887.766	10.0238
888.16	35.08231
888.554	14.03217
888.949	2.00467
889.343	2.00453
889.737	14.03632
890.131	43.10207
890.525	24.05784
890.918	51.12186
891.312	7.01539
891.706	39.09793
892.099	-13.03132
892.492	110.21482
892.886	-15.03451
893.279	18.04348
893.672	-3.0073
894.065	2.00472
894.458	46.10842
894.851	-1.00227
895.244	12.02914
895.637	53.11943
896.029	13.02994
896.422	6.01374
896.814	49.11457
897.206	30.06787
897.599	-9.02052
897.991	18.0411
898.383	-8.01771
898.775	15.03139
899.167	19.04204
899.559	27.06404
899.951	67.14572
900.342	-63.15076
900.734	58.13845
901.125	1.00247
901.517	62.14305
901.908	12.02667
902.299	-7.01629
902.69	62.13602
903.082	15.03409
903.473	27.06144
903.863	31.07568
904.254	-29.06315
904.645	-6.01389
905.036	58.13356
905.426	-8.01655
905.817	-6.01392
906.207	11.02481
906.597	-53.11836
906.987	-22.05362
907.378	-19.04543
907.768	-23.05861
908.158	33.0757
908.547	-21.05211
908.937	12.02903
909.327	-10.02281
909.717	50.1178
910.106	23.05183
910.495	69.16196
910.885	-23.05441
911.274	46.10858
911.663	49.11811
912.052	3.00691
912.441	47.11376
912.83	-8.0171
913.219	20.04898
913.608	33.0757
913.997	-12.02858
914.385	12.0265
914.774	3.00685
915.162	-35.07858
915.55	36.08147
915.939	17.04082
916.327	14.03293
916.715	24.05849
917.103	40.09122
917.491	13.02979
917.878	4.00909
918.266	-6.01479
918.654	34.08314
919.041	-22.05508
919.429	18.04001
919.816	4.00954
920.203	22.05017
920.591	-15.03495
920.978	67.15209
921.365	-7.01744
921.752	29.06503
922.139	69.13804
922.525	26.05848
922.912	11.02511
923.299	29.06826
923.685	-10.02493
924.072	16.03387
924.458	31.07228
924.844	10.02332
925.231	30.06448
925.617	61.14853
926.003	17.0411
926.389	46.11031
926.774	3.00725
927.16	27.06266
927.546	12.0292
927.931	26.06102
928.317	24.0503
928.702	20.04375
929.088	-7.01568
929.473	-1.00242
929.858	29.06727
930.243	15.03409
930.628	-23.0528
931.013	70.16434
931.398	-7.01488
931.783	5.01252
932.167	-8.01836
932.552	-38.08932
932.937	-12.02768
933.321	-18.04272
933.705	24.05784
934.09	-4.00941
934.474	76.16638
934.858	31.07653
935.242	43.09428
935.626	21.0506
936.009	4.01014
936.393	29.0704
936.777	15.03677
937.16	-29.07117
937.544	31.06765
937.927	-8.01938
938.311	-4.00912
938.694	42.10499
939.077	-30.06737
939.46	24.05553
939.843	-3.00565
940.226	12.02898
940.609	10.02129
940.991	0
941.374	19.04336
941.757	0
942.139	20.04127
942.522	-39.08572
942.904	20.04523
943.286	7.01666
943.668	30.07342
944.05	0
944.432	16.03737
944.814	-16.03689
945.196	-10.02341
945.578	-9.02048
945.959	23.05045
946.341	27.06069
946.722	58.12671
947.104	-20.04467
947.485	1.00217
947.866	-5.01208
948.247	28.06668
948.628	10.02273
949.009	17.04141
949.39	-49.1138
949.771	26.05572
950.152	67.15419
950.532	48.11458
950.913	-24.05401
951.293	27.07025
951.674	-18.04075
952.054	-40.0949
952.434	-24.05601
952.814	-40.08831
953.194	59.14586
953.574	-28.0643
953.954	19.04224
954.334	28.06607
954.714	1.00231
955.093	-20.04583
955.473	-18.04237
955.853	38.09337
956.232	31.08102
956.611	3.00661
956.99	20.04769
957.37	6.01449
957.749	-10.02219
958.128	35.08404
958.506	23.05713
958.885	11.02609
959.264	-7.01626
959.643	45.09491
960.021	2.00469
960.4	53.11272
960.778	-18.04105
961.156	10.02368
961.535	-34.0727
961.913	-53.11458
962.291	20.04933
962.669	6.01445
963.047	-33.07924
963.424	20.04851
963.802	-43.09943
964.18	14.03315
964.557	-7.0148
964.935	21.04622
965.312	37.09181
965.69	69.16
966.067	-11.02505
966.444	24.05544
966.821	-8.01948
967.198	-21.04726
967.575	-3.00687
967.952	79.17167
968.329	0
968.705	13.02519
969.082	27.06599
969.458	-9.02068
969.835	-16.0367
970.211	22.0535
970.587	29.06783
970.963	30.07241
971.339	4.01004
971.715	-27.06288
972.091	6.01387
972.467	-2.00462
972.843	-37.08749
973.219	11.0243
973.594	-8.02
973.97	30.06548
974.345	-16.03606
974.721	-1.00226
975.096	-6.01352
975.471	18.04006
975.846	26.05894
976.221	-31.07526
976.596	1.00226
976.971	49.11308
977.346	5.01069
977.72	28.06709
978.095	-7.01727
978.469	60.13313
978.844	43.10101
979.218	41.09269
979.593	21.04715
979.967	55.12571
980.341	14.02977
980.715	19.04484
981.089	-7.01639
981.463	48.10335
981.837	69.15835
982.21	26.05562
982.584	-14.0317
982.957	9.02143
983.331	70.15286
983.704	13.03031
984.078	-34.07904
984.451	-9.02063
984.824	29.06687
985.197	27.06112
985.57	5.01171
985.943	-26.05939
986.316	77.17515
986.688	48.10708
987.061	-22.0479
987.434	34.08398
987.806	14.03162
988.179	6.01315
988.551	1.00238
988.923	20.04607
989.295	43.10022
989.667	29.06634
990.039	-11.02588
990.411	48.10331
990.783	14.02981
991.155	21.04815
991.527	3.00678
991.898	47.10881
992.27	-7.01642
992.641	31.07254
993.012	75.16402
993.384	-1.00224
993.755	-11.02648
994.126	25.05638
994.497	-1.00231
994.868	42.08966
995.239	21.04802
995.61	18.04256
995.98	-14.03251
996.351	-9.02129
996.722	54.11707
997.092	-16.03615
997.462	15.03322
997.833	61.13301
998.203	28.06298
998.573	26.06145
998.943	-1.00217
999.313	38.08551
999.683	4.00891
1000.053	41.08784
1000.423	10.02282
1000.792	44.10776
1001.162	-6.01405
1001.531	7.01637
1001.901	23.05359
1002.27	-10.02099
1002.639	72.17292
1003.009	64.1433
1003.378	14.03396
1003.747	38.08305
1004.116	35.07874
1004.485	38.08526
1004.853	20.04783
1005.222	50.11963
1005.591	-8.01766
1005.959	10.02132
1006.328	21.04363
1006.696	35.07958
1007.064	27.06402
1007.433	46.10833
1007.801	60.13579
1008.169	3.0071
1008.537	43.08798
1008.905	43.09348
1009.273	52.11969
1009.64	-4.00904
1010.008	24.05323
1010.375	62.13934
1010.743	-11.02313
1011.11	-3.00669
1011.478	5.01163
1011.845	-24.05214
1012.212	-54.11392
1012.579	24.05549
1012.946	1.00219
1013.313	-1.00222
1013.68	42.08619
1014.047	9.02046
1014.414	8.0179
1014.78	28.06612
1015.147	-42.09463
1015.513	70.15919
1015.88	4.00953
1016.246	39.09033
1016.612	-20.04236
1016.978	30.06853
1017.344	38.08911
1017.71	27.0601
1018.076	35.07641
1018.442	10.02423
1018.808	39.09161
1019.174	-29.06871
1019.539	31.06383
1019.905	4.00891
1020.27	34.07957
1020.636	23.05136
1021.001	8.0178
1021.366	101.22825
1021.731	54.13112
1022.096	9.02171
1022.461	-35.07716
1022.826	66.14547
1023.191	30.07464
1023.556	-4.00864
1023.92	-19.04359
1024.285	44.09962
1024.649	15.03455
1025.014	27.06261
1025.378	19.04559
1025.742	-15.03521
1026.107	16.03309
1026.471	-7.01491
1026.835	-7.01619
1027.199	23.05221
1027.562	75.16159
1027.926	42.0954
1028.29	-2.00481
1028.654	-16.03405
1029.017	51.11741
1029.381	13.02927
1029.744	1.00244
1030.107	-14.03046
1030.471	27.06005
1030.834	14.02898
1031.197	-17.03789
1031.56	19.04238
1031.923	3.00735
1032.286	19.04122
1032.648	-22.04916
1033.011	9.01932
1033.374	-60.13136
1033.736	-62.15689
1034.099	33.07573
1034.461	32.07691
1034.823	-16.03753
1035.185	-29.06823
1035.548	27.06132
1035.91	53.11899
1036.272	-6.01276
1036.634	-21.04781
1036.995	57.12539
1037.357	20.04578
1037.719	2.00456
1038.08	-26.05694
1038.442	36.08144
1038.803	4.00893
1039.165	9.0215
1039.526	10.0227
1039.887	17.03837
1040.248	59.13892
1040.609	10.02318
1040.97	17.03892
1041.331	-58.13781
1041.692	5.01104
1042.053	42.08716
1042.413	48.10197
1042.774	26.05877
1043.134	21.04598
1043.495	27.06325
1043.855	45.10182
1044.215	6.01398
1044.576	26.05863
1044.936	31.06622
1045.296	27.06283
1045.656	45.10294
1046.016	45.09949
1046.375	45.10277
1046.735	31.06607
1047.095	29.06326
1047.454	42.08089
1047.814	25.05564
1048.173	15.03276
1048.533	26.05567
1048.892	-34.07801
1049.251	19.04488
1049.61	-43.09931
1049.969	31.06863
1050.328	-46.09167
1050.687	16.0364
1051.046	59.13486
1051.405	-23.0534
1051.763	33.07083
1052.122	31.0735
1052.48	-4.00917
1052.839	0
1053.197	-6.01327
1053.555	-50.10289
1053.914	8.01828
1054.272	22.04948
1054.63	-30.069
1054.988	4.00888
1055.345	-17.03344
1055.703	-6.01341
1056.061	6.01465
1056.419	18.04438
1056.776	5.01131
1057.134	9.01935
1057.491	42.09814
1057.848	17.03948
1058.206	22.04808
1058.563	65.13264
1058.92	-24.05119
1059.277	10.02271
1059.634	-31.06699
1059.991	64.14266
1060.348	50.1053
1060.704	-15.03376
1061.061	-1.00211
1061.418	38.0867
1061.774	90.20923
1062.131	11.02834
1062.487	19.04101
1062.843	1.00235
1063.199	74.17244
1063.555	36.07811
1063.911	17.04026
1064.267	-21.03919
1064.623	23.05302
1064.979	-22.04753
1065.335	-14.03083
1065.691	76.1701
1066.046	-8.01614
1066.402	14.02951
1066.757	44.10431
1067.112	-2.00456
1067.468	42.09404
1067.823	57.1276
1068.178	16.0365
1068.533	35.07839
1068.888	12.02646
1069.243	25.05822
1069.598	-29.06543
1069.952	15.03204
1070.307	43.10152
1070.662	32.07109
1071.016	25.05247
1071.371	14.02942
1071.725	-59.1299
1072.079	27.06044
1072.434	-21.0481
1072.788	76.16849
1073.142	34.07901
1073.496	11.02443
1073.85	10.02154
1074.203	18.04067
1074.557	19.04841
1074.911	35.07661
1075.265	41.08693
1075.618	59.13448
1075.971	15.03311
1076.325	-10.02414
1076.678	17.03616
1077.031	2.0042
1077.385	55.11182
1077.738	47.09809
1078.091	22.04727
1078.444	27.05722
1078.796	32.0741
1079.149	-48.11194
1079.502	2.00444
1079.855	49.10644
1080.207	75.17074
1080.56	-8.01963
1080.912	-32.07239
1081.264	8.01804
1081.617	21.04812
1081.969	38.09199
1082.321	26.05949
1082.673	20.04306
1083.025	-34.07531
1083.377	-299.62176
1083.728	-34.07289
1084.08	13.03079
1084.432	-28.06215
1084.783	28.06166
1085.135	31.07418
1085.486	23.04938
1085.838	31.07151
1086.189	12.0273
1086.54	39.08655
1086.891	27.06533
1087.242	-46.10533
1087.593	23.05181
1087.944	12.02509
1088.295	20.04153
1088.646	32.0726
1088.996	-69.15803
1089.347	-28.06453
1089.698	14.0313
1090.048	15.03654
1090.398	17.03691
1090.749	23.05155
1091.099	56.13342
1091.449	-18.04209
1091.799	61.14206
1092.149	32.07501
1092.499	54.12315
1092.849	-3.00724
1093.199	30.07007
1093.548	40.09023
1093.898	39.09176
1094.248	29.07019
1094.597	39.09535
1094.947	-28.07143
1095.296	-8.01854
1095.645	18.04407
1095.994	67.14993
1096.343	71.1688
1096.692	-19.04829
1097.041	27.07025
1097.39	41.09594
1097.739	20.04945
1098.088	17.04273
1098.437	-25.06323
1098.785	-14.03591
1099.134	9.02238
1099.482	-29.07605
1099.83	19.04709
1100.179	17.04278
1100.527	-20.05041
1100.875	2.00504
1101.223	75.18914
1101.571	-8.02137
1101.919	-24.06065
1102.267	16.04383
1102.615	14.04494
1102.962	10.03206
1103.31	7.02247
1103.658	0
