Data from N3 R7 sample 2_Subt2__4__17-00-00-904.txt Node

Date: Fri Sep 19 17:00:00 PDT 2025
User: uwsun
Spectrometer: HDX01956
Trigger mode: 0
Integration Time (sec): 5.000000E-1
Scans to average: 1
Nonlinearity correction enabled: true
Boxcar width: 0
Storing dark spectrum: false
XAxis mode: Wavelengths
Number of Pixels in Spectrum: 2068
>>>>>Begin Spectral Data<<<<<
194.03	41.11835
194.578	71.22905
195.127	61.19438
195.676	51.16256
196.225	79.20603
196.773	104.28586
197.321	118.32352
197.87	169.42527
198.418	168.42707
198.966	198.50972
199.513	195.48541
200.061	154.38329
200.609	157.40594
201.156	164.34446
201.704	154.37882
202.251	159.41353
202.798	163.41678
203.345	215.51525
203.892	227.55249
204.438	182.42326
204.985	155.36197
205.532	202.52958
206.078	193.4613
206.624	204.49103
207.17	161.36413
207.716	119.28226
208.262	229.42927
208.808	181.44005
209.354	169.40178
209.899	155.38093
210.445	229.55631
210.99	177.41788
211.535	209.47384
212.08	186.41819
212.625	205.4969
213.17	153.37809
213.715	159.34992
214.259	234.52696
214.804	165.39483
215.348	177.39232
215.892	187.43755
216.436	222.49728
216.98	182.38513
217.524	184.42199
218.068	186.45466
218.612	152.37017
219.155	189.42989
219.698	151.34694
220.242	178.42894
220.785	148.3378
221.328	165.40085
221.871	234.56814
222.414	158.377
222.956	177.4161
223.499	167.36305
224.041	167.37
224.583	188.38597
225.126	226.48389
225.668	147.34881
226.21	145.35543
226.751	105.22166
227.293	152.33276
227.835	127.30147
228.376	169.37209
228.918	203.49279
229.459	160.39256
230	155.35755
230.541	166.36663
231.082	185.43338
231.622	149.33287
232.163	197.46491
232.704	153.36766
233.244	147.35458
233.784	132.31195
234.324	216.46028
234.864	123.27002
235.404	180.40768
235.944	162.36722
236.484	180.42834
237.023	184.42081
237.563	137.3072
238.102	221.4984
238.641	180.44375
239.18	152.34749
239.719	195.47603
240.258	162.34866
240.797	227.52217
241.335	152.35545
241.874	227.41565
242.412	158.366
242.95	191.44428
243.488	203.44394
244.026	178.39692
244.564	176.34599
245.102	185.39944
245.64	198.45647
246.177	171.36605
246.715	137.3154
247.252	184.40077
247.789	107.18347
248.326	114.26481
248.863	157.32983
249.4	199.4385
249.936	138.27308
250.473	200.44892
251.009	197.43774
251.546	203.42966
252.082	213.44905
252.618	204.43867
253.154	178.41265
253.69	209.44778
254.226	185.42335
254.761	134.28741
255.297	197.41441
255.832	168.38159
256.367	169.38176
256.903	175.36618
257.438	199.44236
257.972	194.40926
258.507	165.37029
259.042	199.40256
259.576	172.35775
260.111	216.47367
260.645	233.47976
261.179	143.32131
261.713	191.40373
262.247	226.50248
262.781	210.42257
263.315	187.442
263.849	160.38805
264.382	174.38205
264.915	239.53723
265.449	200.47172
265.982	152.32939
266.515	172.40568
267.048	234.47195
267.58	221.44952
268.113	227.46994
268.646	182.43792
269.178	210.44846
269.71	212.4378
270.243	179.39228
270.775	157.38841
271.307	172.39289
271.838	208.46841
272.37	216.51182
272.902	244.5301
273.433	208.43012
273.965	246.57795
274.496	148.35301
275.027	164.39177
275.558	154.36154
276.089	221.53306
276.62	166.40683
277.15	193.45671
277.681	145.29776
278.211	142.33506
278.741	179.38367
279.272	235.51109
279.802	174.42153
280.332	179.40781
280.861	233.5349
281.391	183.39699
281.921	158.3628
282.45	252.60816
282.98	263.65679
283.509	242.51545
284.038	184.39533
284.567	189.4149
285.096	232.53676
285.625	218.48007
286.153	149.33754
286.682	181.39499
287.21	207.4775
287.739	174.39345
288.267	213.49759
288.795	201.50851
289.323	234.52998
289.851	226.50227
290.378	203.43699
290.906	218.51037
291.433	181.43691
291.961	192.41429
292.488	219.52364
293.015	237.53775
293.542	214.5192
294.069	186.44125
294.596	222.52584
295.122	241.54927
295.649	274.57549
296.175	206.47226
296.702	195.44964
297.228	209.47865
297.754	266.56263
298.28	215.46501
298.806	254.58555
299.332	215.45446
299.857	252.53698
300.383	265.63191
300.908	241.56521
301.433	247.57633
301.958	236.50879
302.483	299.71734
303.008	262.61073
303.533	188.46466
304.058	201.45293
304.582	268.60253
305.107	307.76581
305.631	245.52536
306.155	224.50506
306.679	280.62176
307.203	287.63107
307.727	274.62081
308.251	275.64342
308.775	209.47596
309.298	247.57067
309.822	254.6116
310.345	242.54743
310.868	258.5867
311.391	314.72644
311.914	292.69615
312.437	276.58838
312.96	321.71412
313.482	303.68079
314.005	269.64391
314.527	272.68478
315.049	281.67032
315.571	349.74221
316.093	371.86458
316.615	333.76136
317.137	300.60673
317.659	299.67704
318.18	291.66642
318.702	336.73368
319.223	365.68998
319.744	342.7202
320.265	300.69213
320.786	360.83647
321.307	362.84875
321.828	415.87218
322.348	385.84723
322.869	272.59998
323.389	275.48348
323.909	328.70742
324.43	382.84821
324.95	342.73729
325.47	379.87522
325.989	432.95801
326.509	326.67714
327.029	389.81286
327.548	361.76171
328.067	376.84564
328.587	401.93263
329.106	356.75231
329.625	371.89746
330.144	401.84647
330.662	404.86757
331.181	402.87405
331.7	384.83421
332.218	447.89305
332.736	378.81594
333.255	414.88981
333.773	446.973
334.291	393.90249
334.808	383.78435
335.326	445.92203
335.844	473.01619
336.361	433.01321
336.879	462.98441
337.396	436.95763
337.913	440.92288
338.43	552.12225
338.947	479.04191
339.464	494.95423
339.981	524.12958
340.497	543.21235
341.014	516.12848
341.53	565.15003
342.046	506.13404
342.562	535.20527
343.078	528.11532
343.594	541.17202
344.11	590.24487
344.626	586.33295
345.141	610.23981
345.657	549.0961
346.172	571.22395
346.687	602.22909
347.202	620.22408
347.717	599.27466
348.232	632.40754
348.747	608.23518
349.261	658.28039
349.776	618.27379
350.29	625.38073
350.805	616.33956
351.319	641.31624
351.833	635.27692
352.347	624.27004
352.861	651.33259
353.374	651.29651
353.888	628.3298
354.401	708.40203
354.915	688.34712
355.428	701.53138
355.941	700.42107
356.454	695.3432
356.967	716.47078
357.48	707.39515
357.993	729.55299
358.505	726.56164
359.018	726.51815
359.53	703.46513
360.042	682.2831
360.554	751.5542
361.066	727.52527
361.578	790.46194
362.09	740.51878
362.602	802.48345
363.113	751.45993
363.625	783.50707
364.136	762.41424
364.647	790.5632
365.158	853.66797
365.669	892.81299
366.18	778.51645
366.691	873.58654
367.201	849.68754
367.712	822.53869
368.222	912.74443
368.733	893.60492
369.243	855.53961
369.753	811.56254
370.263	873.71437
370.773	955.94687
371.282	935.81562
371.792	915.70763
372.301	926.85315
372.811	1002.14105
373.32	978.64481
373.829	1051.9977
374.338	1070.86166
374.847	1093.94831
375.356	1140.13285
375.865	1136.83312
376.373	1235.1053
376.882	1254.43867
377.39	1348.42108
377.898	1254.39042
378.407	1361.18324
378.915	1394.10814
379.423	1477.48686
379.93	1545.38796
380.438	1580.71223
380.946	1686.64074
381.453	1711.74852
381.96	1841.80702
382.468	1959.89962
382.975	2057.09936
383.482	2192.76227
383.989	2100.32969
384.495	2244.89159
385.002	2271.48958
385.509	2442.98055
386.015	2634.34949
386.521	2671.77323
387.028	2870.85151
387.534	2914.57156
388.04	3129.03014
388.546	3090.65756
389.051	3332.52507
389.557	3615.75404
390.063	3907.62734
390.568	4045.68639
391.073	4116.29967
391.578	4171.66359
392.084	4244.0646
392.589	4520.83753
393.093	4685.12997
393.598	5198.60354
394.103	5781.59305
394.607	6302.3565
395.112	6742.49009
395.616	7191.4237
396.12	7779.58358
396.624	8613.64501
397.128	9322.08217
397.632	10353.33472
398.136	11148.78466
398.639	12142.08092
399.143	13270.44318
399.646	15106.94891
400.15	16552.49216
400.653	18558.6768
401.156	20701.95536
401.659	23954.00597
402.162	29590.53203
402.664	38780.59593
403.167	54746.03797
403.67	59622.79091
404.172	55487.84425
404.674	37291.05854
405.176	4428.40989
405.678	533.47942
406.18	0
406.682	0
407.184	6962.89417
407.686	50953.82939
408.187	59237.6763
408.688	61091.12691
409.19	61923.45898
409.691	55955.58749
410.192	47415.51855
410.693	40745.45363
411.194	37218.94546
411.694	35168.44012
412.195	32688.75166
412.696	29478.39032
413.196	27455.65834
413.696	26787.88781
414.196	27045.58662
414.696	26638.50566
415.196	25636.37625
415.696	23114.63248
416.196	18604.48352
416.695	14406.0794
417.195	12311.15615
417.694	11622.40407
418.194	10965.56274
418.693	10312.2466
419.192	9969.90964
419.691	9744.2164
420.19	9540.63732
420.688	9338.1076
421.187	8912.23653
421.685	8351.24772
422.184	7584.50557
422.682	6683.94986
423.18	5504.50785
423.678	4921.77253
424.176	4654.95056
424.674	4284.90664
425.172	4027.46957
425.669	3838.93967
426.167	3640.58735
426.664	3326.62557
427.161	3034.70555
427.659	2857.16622
428.156	2753.40993
428.652	2469.28644
429.149	2439.06415
429.646	2262.53478
430.143	2196.94111
430.639	2060.81483
431.135	1902.90225
431.632	1751.48957
432.128	1803.75791
432.624	1532.70436
433.12	1556.37103
433.616	1573.22176
434.111	1476.44444
434.607	1379.34088
435.103	1351.90543
435.598	1321.86505
436.093	1256.10988
436.588	1152.9187
437.083	1175.94596
437.578	1046.8169
438.073	967.89743
438.568	1043.97384
439.062	1004.62743
439.557	896.66345
440.051	926.65204
440.546	847.56101
441.04	830.58734
441.534	895.84919
442.028	880.69772
442.522	832.63414
443.015	784.38592
443.509	847.69762
444.002	768.56639
444.496	717.26293
444.989	709.47046
445.482	744.5421
445.975	752.41852
446.468	680.21418
446.961	665.16992
447.454	626.17756
447.947	713.43993
448.439	691.43563
448.931	651.24
449.424	604.2895
449.916	583.20343
450.408	665.28881
450.9	609.26618
451.392	642.39794
451.884	584.12806
452.375	572.22109
452.867	600.14739
453.358	510.99506
453.849	584.04618
454.341	544.0592
454.832	546.00966
455.323	531.13319
455.814	552.08399
456.304	575.12898
456.795	549.06616
457.285	535.00976
457.776	471.91787
458.266	534.11224
458.756	514.06149
459.247	477.99451
459.737	559.1662
460.226	522.01532
460.716	446.94991
461.206	441.92641
461.695	494.0962
462.185	432.9113
462.674	473.94017
463.163	432.83366
463.653	471.86252
464.142	425.90617
464.63	421.91594
465.119	418.86977
465.608	393.80374
466.096	440.84421
466.585	333.6832
467.073	339.72565
467.561	461.99741
468.05	362.74722
468.538	429.95275
469.026	389.84202
469.513	379.70909
470.001	334.68262
470.489	356.75956
470.976	312.65414
471.463	348.79581
471.951	362.81983
472.438	340.72606
472.925	257.54776
473.412	279.6225
473.899	372.76993
474.385	300.67474
474.872	297.62998
475.359	283.6356
475.845	308.57524
476.331	257.50463
476.817	217.48658
477.303	258.5512
477.789	268.59338
478.275	254.58602
478.761	256.56634
479.247	263.53568
479.732	239.55877
480.218	220.53575
480.703	325.74905
481.188	188.37237
481.673	247.52416
482.158	269.52919
482.643	258.60779
483.128	176.3739
483.612	168.3667
484.097	257.58005
484.581	123.26592
485.066	232.52074
485.55	193.39042
486.034	273.54694
486.518	199.43814
487.002	169.39062
487.486	160.36931
487.969	197.45805
488.453	171.40903
488.936	128.27169
489.42	161.3351
489.903	183.43422
490.386	209.41717
490.869	151.30266
491.352	149.34179
491.835	146.27876
492.318	114.2463
492.8	122.23531
493.283	190.4589
493.765	144.33806
494.247	172.37289
494.73	161.33375
495.212	147.33396
495.694	150.3313
496.175	127.28724
496.657	200.45003
497.139	73.11453
497.62	129.29331
498.102	110.26237
498.583	105.248
499.064	170.36147
499.545	111.24039
500.026	89.19019
500.507	92.2015
500.988	84.19813
501.469	64.15347
501.949	40.09453
502.43	79.17962
502.91	99.19338
503.39	142.33649
503.87	128.28708
504.35	59.13208
504.83	75.15749
505.31	93.21701
505.79	69.15885
506.269	132.28983
506.749	76.16596
507.228	90.20227
507.707	115.24149
508.187	110.24772
508.666	63.14822
509.145	61.13712
509.623	103.2302
510.102	111.25524
510.581	91.20783
511.059	113.27381
511.538	93.23
512.016	94.21654
512.494	63.14585
512.972	92.21142
513.45	70.15822
513.928	61.14301
514.406	57.13583
514.884	97.24305
515.361	125.28824
515.839	39.08554
516.316	81.18566
516.793	67.16296
517.27	111.2583
517.747	74.18365
518.224	53.11748
518.701	107.22776
519.178	135.32551
519.654	27.06082
520.131	39.09251
520.607	71.16945
521.083	56.12415
521.56	42.09548
522.036	78.1647
522.512	77.18236
522.987	82.18965
523.463	29.06724
523.939	87.20461
524.414	108.23554
524.89	57.12939
525.365	79.17357
525.84	109.25495
526.315	38.08806
526.79	40.08642
527.265	31.06754
527.74	46.10829
528.215	50.11435
528.689	61.13205
529.164	30.06162
529.638	85.21098
530.112	108.2469
530.587	120.2467
531.061	76.17759
531.534	53.12314
532.008	39.09144
532.482	41.08891
532.956	57.14313
533.429	30.06858
533.903	60.12624
534.376	37.07876
534.849	83.1855
535.322	55.12536
535.795	56.13219
536.268	43.10093
536.741	26.06056
537.213	54.12091
537.686	-7.01657
538.158	31.06757
538.631	37.08644
539.103	47.10179
539.575	72.14308
540.047	75.15756
540.519	33.07573
540.991	38.08921
541.463	88.20571
541.934	101.22163
542.406	17.03961
542.877	49.10648
543.348	-21.04842
543.82	60.14158
544.291	56.12379
544.762	75.1708
545.233	95.23175
545.703	43.09249
546.174	99.22163
546.645	137.31842
547.115	133.30632
547.585	110.24509
548.056	126.29638
548.526	125.28156
548.996	89.20547
549.466	67.15665
549.935	182.41422
550.405	181.37756
550.875	104.23498
551.344	154.35418
551.814	151.32282
552.283	107.21983
552.752	141.31122
553.221	173.35365
553.69	159.33536
554.159	199.46927
554.628	148.31318
555.096	169.40641
555.565	123.26011
556.033	172.38004
556.502	198.44936
556.97	174.3603
557.438	139.3131
557.906	188.41904
558.374	166.35865
558.842	129.29449
559.31	190.39484
559.777	165.38016
560.245	168.36701
560.712	150.32214
561.18	183.37749
561.647	180.37539
562.114	221.4698
562.581	216.50153
563.048	156.3343
563.514	200.46475
563.981	167.35811
564.448	243.50689
564.914	184.4006
565.381	175.36797
565.847	254.54736
566.313	213.46069
566.779	310.64564
567.245	230.50203
567.711	276.6167
568.176	269.57358
568.642	230.54563
569.108	253.58034
569.573	254.54571
570.038	323.61956
570.504	302.62953
570.969	243.56722
571.434	305.61868
571.899	310.68235
572.363	284.59333
572.828	322.66525
573.293	334.69933
573.757	361.75736
574.222	415.84065
574.686	310.6419
575.15	317.69586
575.614	356.73846
576.078	329.70455
576.542	348.72413
577.006	368.75722
577.469	355.794
577.933	307.62388
578.396	327.72173
578.86	331.707
579.323	289.63654
579.786	308.60292
580.249	341.71004
580.712	301.67241
581.175	287.65647
581.637	354.74776
582.1	302.59985
582.563	245.4688
583.025	260.5867
583.487	286.52171
583.95	206.4149
584.412	290.54914
584.874	282.63088
585.336	272.59872
585.797	261.51684
586.259	207.44733
586.721	248.54177
587.182	229.48872
587.643	242.50783
588.105	241.53283
588.566	229.44519
589.027	230.52431
589.488	236.49611
589.949	207.46416
590.41	279.50133
590.87	202.42034
591.331	193.38057
591.791	197.41915
592.252	203.43436
592.712	215.4815
593.172	173.36552
593.632	245.47789
594.092	263.53763
594.552	210.41497
595.011	244.52355
595.471	235.48519
595.931	194.40189
596.39	239.5337
596.849	253.54204
597.308	219.43652
597.768	220.52472
598.227	316.69644
598.685	284.58464
599.144	269.57757
599.603	278.60447
600.062	281.5317
600.52	260.53476
600.978	298.65264
601.437	269.56187
601.895	376.70747
602.353	289.57524
602.811	341.67906
603.269	332.71727
603.727	360.77942
604.184	354.71857
604.642	360.79472
605.099	362.75125
605.557	398.85763
606.014	392.7452
606.471	392.89497
606.928	483.94305
607.385	500.09251
607.842	516.04083
608.299	522.05151
608.755	549.14379
609.212	592.1255
609.668	548.05131
610.125	568.17111
610.581	522.0462
611.037	631.20067
611.493	607.20594
611.949	598.23417
612.405	609.02481
612.861	592.15941
613.316	663.34617
613.772	630.21999
614.227	630.25957
614.683	689.20844
615.138	703.39179
615.593	563.10745
616.048	616.16553
616.503	709.45213
616.958	666.41528
617.412	683.34899
617.867	666.24312
618.321	645.06313
618.776	672.22337
619.23	655.3057
619.684	654.21103
620.138	648.22261
620.592	615.2622
621.046	614.20711
621.5	604.24489
621.954	612.14326
622.407	598.11209
622.861	558.14427
623.314	618.18131
623.768	608.20147
624.221	600.98329
624.674	600.14961
625.127	583.15926
625.58	559.04897
626.033	576.0472
626.485	587.19164
626.938	532.07955
627.39	543.08159
627.843	498.98456
628.295	512.01996
628.747	565.14638
629.199	565.10304
629.651	478.9459
630.103	538.06191
630.555	509.90488
631.006	510.0287
631.458	428.87194
631.909	477.93752
632.361	477.95254
632.812	490.98508
633.263	475.86677
633.714	464.83663
634.165	459.95104
634.616	453.93483
635.067	453.85175
635.518	483.98108
635.968	503.84055
636.419	489.89233
636.869	497.00909
637.319	521.0295
637.769	539.03077
638.219	546.09086
638.669	527.08765
639.119	520.08783
639.569	578.2035
640.019	574.11401
640.468	502.94135
640.918	649.30092
641.367	603.13449
641.816	664.22774
642.265	643.23779
642.714	674.30162
643.163	689.27819
643.612	699.41807
644.061	644.10421
644.51	704.32457
644.958	722.28603
645.406	718.4285
645.855	732.47599
646.303	768.44168
646.751	787.45457
647.199	717.30118
647.647	873.61143
648.095	800.4606
648.543	825.27604
648.99	882.68696
649.438	885.64503
649.885	936.85421
650.333	843.20758
650.78	924.80317
651.227	928.80243
651.674	929.65101
652.121	875.67234
652.568	893.73148
653.015	850.7009
653.461	914.7146
653.908	925.677
654.354	856.60245
654.801	879.64194
655.247	893.50509
655.693	899.90547
656.139	889.68767
656.585	907.72775
657.031	891.66604
657.477	918.54023
657.922	899.64381
658.368	890.74493
658.813	897.58577
659.259	865.67233
659.704	872.63005
660.149	888.63387
660.594	837.60114
661.039	914.64065
661.484	857.63946
661.929	864.59916
662.373	871.81402
662.818	908.82378
663.262	845.63127
663.707	835.71974
664.151	904.78991
664.595	851.65934
665.039	832.67481
665.483	895.86568
665.927	870.61509
666.371	896.65933
666.814	907.70937
667.258	918.74409
667.701	904.46476
668.145	922.81795
668.588	949.85158
669.031	922.73133
669.474	957.80466
669.917	969.62123
670.36	932.82653
670.803	1004.86899
671.245	965.5145
671.688	982.86137
672.13	929.60504
672.573	1019.04588
673.015	991.83973
673.457	1014.67692
673.899	993.85805
674.341	1047.93621
674.783	1025.91334
675.225	1041.97771
675.666	1045.9469
676.108	1081.73955
676.549	1073.91059
676.991	1116.78754
677.432	1066.49241
677.873	1079.86208
678.314	1062.92551
678.755	1099.05039
679.196	1117.91667
679.637	1081.9893
680.078	1136.96028
680.518	1131.90056
680.959	1106.99333
681.399	1095.05395
681.839	1182.13374
682.28	1186.20722
682.72	1154.92204
683.16	1188.22728
683.6	1189.95629
684.039	1172.70154
684.479	1203.19875
684.919	1211.05868
685.358	1221.29659
685.798	1213.39048
686.237	1263.20157
686.676	1312.13077
687.115	1305.1743
687.554	1365.26993
687.993	1266.91165
688.432	1344.16488
688.871	1360.12586
689.309	1446.47038
689.748	1369.88985
690.186	1387.27286
690.625	1452.38211
691.063	1477.4628
691.501	1513.57664
691.939	1515.61027
692.377	1456.47304
692.815	1570.55176
693.253	1534.43617
693.69	1499.14109
694.128	1611.63855
694.565	1601.52705
695.003	1599.77763
695.44	1645.48107
695.877	1654.52947
696.314	1684.18254
696.751	1729.40755
697.188	1791.54268
697.625	1828.47675
698.061	1770.68393
698.498	1802.72192
698.934	1800.66935
699.371	1797.64813
699.807	1867.69363
700.243	1941.86566
700.679	1944.53446
701.115	1994.68779
701.551	2020.77996
701.987	2032.48997
702.422	2017.77485
702.858	2098.79894
703.294	2102.56612
703.729	2157.03386
704.164	2177.9705
704.599	2175.51951
705.035	2213.61391
705.47	2196.06435
705.904	2253.76998
706.339	2347.72217
706.774	2413.82681
707.209	2367.75641
707.643	2382.98882
708.078	2462.06408
708.512	2505.37695
708.946	2533.96432
709.38	2462.88819
709.814	2514.7024
710.248	2638.0405
710.682	2668.04192
711.116	2677.08052
711.549	2722.45484
711.983	2696.77176
712.416	2753.86532
712.85	2817.33179
713.283	2834.95344
713.716	2953.28133
714.149	2944.90439
714.582	2900.65499
715.015	2966.24997
715.448	2970.24751
715.881	2927.35828
716.313	3118.91184
716.746	3092.94495
717.178	3130.00053
717.61	3123.39891
718.043	3156.19017
718.475	3170.0338
718.907	3206.23394
719.339	3174.65369
719.77	3261.01216
720.202	3252.33218
720.634	3386.1204
721.065	3381.84843
721.497	3382.12395
721.928	3378.17175
722.359	3421.10663
722.79	3399.93824
723.221	3475.18241
723.652	3468.36307
724.083	3403.50931
724.514	3420.51098
724.945	3505.78221
725.375	3509.72399
725.806	3506.04396
726.236	3530.35618
726.666	3548.73376
727.096	3524.9986
727.526	3630.32315
727.956	3642.49058
728.386	3613.91901
728.816	3614.29765
729.246	3704.00015
729.675	3714.10321
730.105	3680.9705
730.534	3717.64288
730.964	3709.10773
731.393	3771.88435
731.822	3739.32494
732.251	3768.28142
732.68	3825.44773
733.109	3823.99831
733.537	3839.80181
733.966	3912.95603
734.395	3883.41283
734.823	3948.20699
735.251	4001.73225
735.68	3924.99578
736.108	3870.1056
736.536	3934.57954
736.964	3849.47916
737.392	3956.95669
737.82	3862.69919
738.247	3949.61337
738.675	4042.50853
739.102	4073.07032
739.53	4036.22256
739.957	4020.18312
740.384	4116.71628
740.811	4157.08381
741.238	3999.74985
741.665	4153.4746
742.092	3926.58327
742.519	4016.01564
742.945	3998.6672
743.372	4009.95299
743.798	4003.21345
744.225	4016.57877
744.651	4010.97522
745.077	3926.00098
745.503	3975.74154
745.929	3975.64499
746.355	3874.83352
746.781	4021.891
747.207	3802.7197
747.632	3856.92949
748.058	3859.95042
748.483	3881.35027
748.908	3902.98265
749.334	3921.87684
749.759	3873.57522
750.184	3807.70408
750.609	3816.87437
751.033	3812.48802
751.458	3859.32392
751.883	3649.9923
752.307	3728.7717
752.732	3593.26281
753.156	3664.01986
753.58	3702.67813
754.005	3629.31519
754.429	3510.61578
754.853	3477.14739
755.277	3488.82921
755.7	3500.08804
756.124	3504.22278
756.548	3439.85986
756.971	3356.99049
757.394	3403.42223
757.818	3337.49717
758.241	3322.27689
758.664	3287.38143
759.087	3304.60733
759.51	3145.20147
759.933	3078.04896
760.356	3110.41224
760.778	3082.25959
761.201	3041.93004
761.623	2875.92713
762.046	2833.74234
762.468	2975.94175
762.89	2858.15225
763.312	2800.0331
763.734	2869.03603
764.156	2780.1898
764.578	2635.65828
765	2638.06897
765.421	2708.47954
765.843	2615.56467
766.264	2503.92732
766.686	2543.28702
767.107	2438.07421
767.528	2413.3274
767.949	2357.2457
768.37	2265.98276
768.791	2230.87867
769.212	2269.24498
769.632	2122.68567
770.053	2135.35864
770.473	2149.92567
770.894	2038.92468
771.314	1971.65862
771.734	1881.53943
772.154	1899.03967
772.575	1897.53343
772.994	1865.47189
773.414	1830.56123
773.834	1780.8454
774.254	1742.66108
774.673	1703.60456
775.093	1696.73407
775.512	1572.60321
775.931	1589.75008
776.351	1532.53371
776.77	1552.54324
777.189	1464.30036
777.607	1461.61362
778.026	1428.49392
778.445	1413.52481
778.864	1339.44457
779.282	1273.14033
779.701	1277.33215
780.119	1243.27552
780.537	1167.14983
780.955	1132.14899
781.373	1182.14131
781.791	1159.86989
782.209	1126.88854
782.627	1042.15774
783.045	1087.82634
783.462	993.95674
783.88	1000.03939
784.297	1003.95154
784.715	967.99539
785.132	907.70937
785.549	926.8523
785.966	835.67662
786.383	874.71594
786.8	786.44729
787.217	820.53041
787.633	755.54437
788.05	742.36406
788.466	725.35981
788.883	709.5208
789.299	631.24438
789.715	667.35122
790.131	641.32097
790.547	595.22329
790.963	651.34642
791.379	603.29431
791.795	616.14734
792.21	624.19452
792.626	538.07385
793.041	618.26523
793.457	528.10606
793.872	494.99221
794.287	557.15688
794.702	528.10021
795.117	414.89517
795.532	483.06486
795.947	406.83954
796.362	469.94699
796.776	437.84432
797.191	392.83745
797.605	426.88957
798.02	418.89763
798.434	418.78458
798.848	367.79271
799.262	412.91557
799.676	396.835
800.09	337.73197
800.504	331.71128
800.918	311.63374
801.331	332.77569
801.745	324.65076
802.158	267.60213
802.572	306.65629
802.985	297.62971
803.398	300.63648
803.811	284.65444
804.224	268.59858
804.637	218.46151
805.05	204.42658
805.462	239.52885
805.875	304.72975
806.288	248.54819
806.7	185.42743
807.112	193.4051
807.525	242.5443
807.937	217.49038
808.349	215.48923
808.761	156.34743
809.173	190.41455
809.584	173.38952
809.996	163.37001
810.408	193.46306
810.819	196.4202
811.231	162.40085
811.642	207.47083
812.053	175.38918
812.464	174.38269
812.875	166.39427
813.286	141.33637
813.697	86.18039
814.108	118.26367
814.519	176.34991
814.929	121.28368
815.34	138.30772
815.75	104.2473
816.16	73.16706
816.571	114.27763
816.981	115.24575
817.391	110.24488
817.801	135.31601
818.211	123.27172
818.62	65.14587
819.03	78.17609
819.44	125.30322
819.849	115.2713
820.259	101.24289
820.668	80.18686
821.077	78.1824
821.486	47.10452
821.895	56.12689
822.304	70.17587
822.713	85.18558
823.122	113.26451
823.531	80.17751
823.939	38.08743
824.348	116.2622
824.756	77.17968
825.164	95.22098
825.573	31.07367
825.981	84.19474
826.389	-13.03063
826.797	61.14402
827.205	49.10476
827.612	42.0966
828.02	119.26069
828.428	30.07202
828.835	51.12788
829.243	86.18915
829.65	35.08257
830.057	103.23504
830.464	75.17308
830.871	76.16828
831.278	-14.03177
831.685	7.01437
832.092	74.17033
832.499	51.10227
832.905	69.16493
833.312	49.10276
833.718	29.06778
834.124	70.14852
834.531	33.07803
834.937	39.09361
835.343	84.18871
835.749	78.16643
836.155	14.03483
836.561	-25.05735
836.966	26.05961
837.372	42.10041
837.777	-9.02117
838.183	-10.02023
838.588	33.07785
838.993	-9.02047
839.399	35.0801
839.804	31.0722
840.209	55.13352
840.613	65.13517
841.018	-7.01666
841.423	18.04328
841.828	32.07639
842.232	9.02064
842.637	10.02176
843.041	64.15761
843.445	-28.06633
843.849	19.04448
844.253	41.09001
844.657	43.10329
845.061	61.12838
845.465	70.16183
845.869	21.04536
846.272	9.02072
846.676	61.13825
847.079	48.11633
847.483	20.04694
847.886	20.04482
848.289	63.16239
848.692	14.03351
849.095	-1.00224
849.498	15.03511
849.901	-6.01276
850.304	60.13219
850.707	20.04812
851.109	-7.01645
851.512	57.13248
851.914	51.12404
852.316	20.04812
852.718	32.07959
853.121	20.04627
853.523	-25.05504
853.925	15.0374
854.326	38.09095
854.728	34.08283
855.13	0
855.531	68.15439
855.933	41.0916
856.334	9.02142
856.736	-39.08164
857.137	24.05223
857.538	9.02149
857.939	28.06584
858.34	22.04999
858.741	26.06445
859.142	14.03176
859.542	76.19389
859.943	52.12256
860.343	-16.03803
860.744	12.02775
861.144	-4.00923
861.544	26.05987
861.945	-5.01203
862.345	-13.0295
862.745	30.07029
863.145	26.05678
863.544	83.19892
863.944	-11.02438
864.344	-6.0139
864.743	80.18495
865.143	15.03658
865.542	14.03025
865.941	46.10812
866.34	35.07858
866.74	21.05375
867.139	-17.03889
867.537	20.04787
867.936	4.00913
868.335	48.11616
868.734	25.06131
869.132	32.07003
869.531	60.13474
869.929	29.06243
870.327	-3.00679
870.726	57.13238
871.124	8.01733
871.522	-4.00958
871.92	13.03017
872.318	47.10795
872.715	12.02785
873.113	44.10079
873.511	43.10097
873.908	36.08823
874.306	39.09172
874.703	11.02596
875.1	3.00723
875.497	4.00896
875.894	51.11962
876.291	19.04434
876.688	7.01713
877.085	48.10673
877.482	16.03748
877.878	12.02731
878.275	-2.00481
878.671	-21.04233
879.068	53.11894
879.464	36.0818
879.86	22.04957
880.256	-9.0207
880.652	-14.03387
881.048	0
881.444	-13.02869
881.84	-24.05784
882.236	49.11605
882.631	15.0348
883.027	28.06236
883.422	-14.03406
883.817	39.09375
884.213	1.00245
884.608	42.09795
885.003	40.09067
885.398	-22.05246
885.793	-18.04274
886.188	34.08079
886.582	16.038
886.977	60.13185
887.371	14.03344
887.766	1.00238
888.16	19.04482
888.554	-15.03467
888.949	-30.07054
889.343	25.05641
889.737	10.02596
890.131	23.05481
890.525	34.08178
890.918	71.16899
891.312	-45.10003
891.706	21.0529
892.099	26.06218
892.492	72.14188
892.886	-1.00229
893.279	43.10337
893.672	18.04361
894.065	5.01179
894.458	47.11075
894.851	6.0136
895.244	19.04607
895.637	44.09933
896.029	8.01844
896.422	2.00458
896.814	-7.01655
897.206	39.08806
897.599	-38.08715
897.991	34.07738
898.383	35.07677
898.775	-2.0042
899.167	-31.06931
899.559	24.05696
899.951	44.09616
900.342	-18.0427
900.734	7.01687
901.125	-46.11474
901.517	46.10647
901.908	5.01113
902.299	32.07389
902.69	12.0266
903.082	51.11507
903.473	18.04103
903.863	33.08053
904.254	-23.05002
904.645	-21.04877
905.036	64.1472
905.426	-45.09387
905.817	24.05533
906.207	12.02706
906.597	11.02424
906.987	11.02664
907.378	-6.01431
907.768	30.07573
908.158	2.00462
908.547	-4.00989
908.937	24.05792
909.327	10.02271
909.717	37.08739
910.106	31.06974
910.495	39.09208
910.885	-16.0378
911.274	11.02614
911.663	67.16094
912.052	48.1096
912.441	46.11136
912.83	25.05305
913.219	-1.00246
913.608	18.04142
913.997	-14.03335
914.385	26.05726
914.774	13.02961
915.162	-37.0831
915.55	52.1173
915.939	19.04561
916.327	66.15368
916.715	34.08271
917.103	23.05263
917.491	7.01606
917.878	10.0227
918.266	32.07831
918.654	75.18201
919.041	-10.02498
919.429	38.08411
919.816	18.04284
920.203	5.01144
920.591	28.06468
920.978	7.01608
921.365	-31.07756
921.752	43.09614
922.139	50.10047
922.525	-7.01585
922.912	19.04331
923.299	36.08462
923.685	16.03969
924.072	10.0212
924.458	15.03508
924.844	13.0303
925.231	13.02805
925.617	39.09535
926.003	8.01937
926.389	51.12218
926.774	71.16932
927.16	9.02096
927.546	18.04376
927.931	13.03059
928.317	-12.02535
928.702	20.04375
929.088	-1.00224
929.473	43.10321
929.858	54.12464
930.243	51.11507
930.628	-5.01144
931.013	54.12717
931.398	25.05278
931.783	64.1586
932.167	-27.06219
932.552	-35.08222
932.937	-38.0881
933.321	-11.02607
933.705	33.07939
934.09	34.07939
934.474	9.01998
934.858	7.01736
935.242	26.05721
935.626	6.0145
936.009	9.0228
936.393	45.10892
936.777	40.0976
937.16	-42.10332
937.544	39.08497
937.927	-9.02181
938.311	5.01137
938.694	19.04769
939.077	-18.04032
939.46	35.0808
939.843	30.05608
940.226	-3.00727
940.609	5.01066
940.991	2.00483
941.374	15.03426
941.757	37.08525
942.139	-14.02911
942.522	3.00654
942.904	70.15668
943.286	42.09926
943.668	8.01966
944.05	10.02319
944.432	20.04668
944.814	-24.05542
945.196	24.05582
945.578	21.0475
945.959	58.12628
946.341	-4.00905
946.722	40.08772
947.104	-1.00222
947.485	37.07972
947.866	15.0361
948.247	-10.02399
948.628	-2.00456
949.009	37.08979
949.39	-22.05082
949.771	28.05998
950.152	38.08796
950.532	45.10748
950.913	16.03571
951.293	12.0313
951.674	-13.0294
952.054	35.08183
952.434	-10.02328
952.814	-10.02194
953.194	51.12627
953.574	20.04548
953.954	30.06654
954.334	9.02131
954.714	-11.02546
955.093	21.04773
955.473	-48.11366
955.853	16.03948
956.232	28.07321
956.611	-31.06874
956.99	-19.04564
957.37	8.01931
957.749	29.06382
958.128	44.10547
958.506	15.03731
958.885	29.06855
959.264	23.0531
959.643	39.08237
960.021	12.0281
960.4	57.12112
960.778	23.05202
961.156	-2.00475
961.535	-16.03408
961.913	-18.03862
962.291	50.12263
962.669	-19.04599
963.047	-7.01673
963.424	23.05575
963.802	-46.10643
964.18	26.06142
964.557	-19.04027
964.935	-7.0155
965.312	35.08688
965.69	-3.00706
966.067	22.04977
966.444	35.08068
966.821	7.01699
967.198	22.04908
967.575	-8.01833
967.952	37.08112
968.329	19.04315
968.705	68.13002
969.082	13.03186
969.458	19.04341
969.835	11.02509
970.211	46.11136
970.587	36.08409
970.963	66.15821
971.339	22.05506
971.715	5.01157
972.091	7.01617
972.467	-23.05337
972.843	7.01641
973.219	34.07475
973.594	-1.0025
973.97	49.10653
974.345	4.00898
974.721	46.10296
975.096	-36.08164
975.471	61.13453
975.846	54.12171
976.221	4.00965
976.596	-43.09789
976.971	3.00699
977.346	-25.05382
977.72	10.02404
978.095	30.07353
978.469	53.11777
978.844	45.10567
979.218	16.03636
979.593	24.05385
979.967	34.07804
980.341	30.06357
980.715	37.08702
981.089	13.03031
981.463	16.03469
981.837	43.09919
982.21	77.16291
982.584	-26.05901
982.957	-11.02629
983.331	24.05292
983.704	51.11802
984.078	31.07114
984.451	-23.05287
984.824	14.03238
985.197	9.02045
985.57	9.02106
985.943	19.04301
986.316	52.11888
986.688	57.12692
987.061	23.0496
987.434	4.00993
987.806	25.05634
988.179	-12.0264
988.551	32.07568
988.923	43.0986
989.295	28.06545
989.667	38.08677
990.039	14.03278
990.411	67.14361
990.783	17.03617
991.155	-13.03001
991.527	4.00904
991.898	-13.03045
992.27	-21.04939
992.641	7.01646
993.012	74.16187
993.384	24.05352
993.755	-40.09683
994.126	32.07207
994.497	-10.02316
994.868	45.096
995.239	18.04118
995.61	-8.01901
995.98	62.1418
996.351	7.01651
996.722	52.11278
997.092	23.05155
997.462	-41.09186
997.833	37.08109
998.203	18.04057
998.573	45.10596
998.943	-9.01954
999.313	-25.05698
999.683	-12.02683
1000.053	36.07721
1000.423	38.08624
1000.792	10.02464
1001.162	65.15006
1001.531	48.11137
1001.901	8.01869
1002.27	48.09944
1002.639	79.18948
1003.009	33.07436
1003.378	10.02427
1003.747	-39.08662
1004.116	33.07427
1004.485	58.1296
1004.853	18.04307
1005.222	66.15742
1005.591	7.01541
1005.959	45.0952
1006.328	15.03121
1006.696	39.0886
1007.064	57.13437
1007.433	26.06147
1007.801	28.06378
1008.169	15.03543
1008.537	54.11021
1008.905	2.00439
1009.273	61.14016
1009.64	13.02928
1010.008	33.07305
1010.375	52.11711
1010.743	35.07285
1011.11	19.04218
1011.478	-13.03035
1011.845	-14.03035
1012.212	-4.00835
1012.579	32.07386
1012.946	17.03712
1013.313	9.01996
1013.68	31.06377
1014.047	54.12166
1014.414	56.12405
1014.78	67.15702
1015.147	20.04449
1015.513	10.02302
1015.88	12.02854
1016.246	22.05112
1016.612	-6.01267
1016.978	-3.0069
1017.344	36.08445
1017.71	-1.00224
1018.076	53.11527
1018.442	15.03631
1018.808	20.04716
1019.174	-36.08541
1019.539	31.06383
1019.905	13.0289
1020.27	8.01882
1020.636	48.10664
1021.001	10.02224
1021.366	67.15246
1021.731	24.0586
1022.096	20.04814
1022.461	10.02184
1022.826	46.10181
1023.191	10.02497
1023.556	41.08769
1023.92	22.05005
1024.285	22.05003
1024.649	4.00923
1025.014	57.13139
1025.378	25.05992
1025.742	0
1026.107	28.05775
1026.471	-12.02559
1026.835	-34.07907
1027.199	35.07926
1027.562	52.11259
1027.926	24.05471
1028.29	23.05508
1028.654	1.00212
1029.017	73.16732
1029.381	32.07177
1029.744	11.02675
1030.107	3.0065
1030.471	39.08652
1030.834	-14.02916
1031.197	14.031
1031.56	63.13923
1031.923	16.03911
1032.286	23.04985
1032.648	29.06412
1033.011	-49.10653
1033.374	41.08784
1033.736	23.05732
1034.099	42.09621
1034.461	32.07691
1034.823	-34.08004
1035.185	-14.03284
1035.548	-20.04585
1035.91	40.09005
1036.272	-23.04911
1036.634	-2.00454
1036.995	66.14492
1037.357	46.10474
1037.719	12.02733
1038.08	5.01088
1038.442	67.15061
1038.803	3.0067
1039.165	16.03818
1039.526	39.08799
1039.887	19.04287
1040.248	32.07574
1040.609	17.03936
1040.97	50.11371
1041.331	-21.04954
1041.692	1.00221
1042.053	18.03756
1042.413	6.01286
1042.774	8.01815
1043.134	39.08507
1043.495	13.03054
1043.855	23.05227
1044.215	-5.01167
1044.576	2.00453
1044.936	80.16907
1045.296	56.12957
1045.656	47.10747
1046.016	8.01782
1046.375	40.09145
1046.735	45.09562
1047.095	48.10429
1047.454	11.02134
1047.814	-5.0112
1048.173	6.01313
1048.533	27.0578
1048.892	27.06119
1049.251	28.06602
1049.61	-17.03906
1049.969	35.07742
1050.328	17.03338
1050.687	-1.00228
1051.046	46.10542
1051.405	-46.10728
1051.763	-28.06088
1052.122	66.15543
1052.48	11.02515
1052.839	-9.01992
1053.197	37.08109
1053.555	-55.1133
1053.914	30.06825
1054.272	9.0203
1054.63	-21.04821
1054.988	-1.00222
1055.345	-7.01374
1055.703	2.00446
1056.061	3.00733
1056.419	27.06646
1056.776	18.04062
1057.134	9.01935
1057.491	29.06794
1057.848	0
1058.206	-4.00879
1058.563	45.09224
1058.92	35.07369
1059.277	-42.0964
1059.634	23.04913
1059.991	62.13825
1060.348	33.06976
1060.704	1.00224
1061.061	25.05247
1061.418	7.01607
1061.774	84.19551
1062.131	79.20115
1062.487	-18.03916
1062.843	-21.04952
1063.199	26.06116
1063.555	34.07381
1063.911	35.0826
1064.267	13.02406
1064.623	10.02311
1064.979	-1.00215
1065.335	27.05895
1065.691	89.19867
1066.046	-28.05673
1066.402	-36.07671
1066.757	4.00956
1067.112	-16.03658
1067.468	40.0896
1067.823	18.04062
1068.178	60.13568
1068.533	13.02925
1068.888	-4.00885
1069.243	38.08827
1069.598	-19.04278
1069.952	21.0448
1070.307	3.00714
1070.662	21.04676
1071.016	41.08575
1071.371	-23.04872
1071.725	-11.02398
1072.079	11.02471
1072.434	8.01822
1072.788	31.06937
1073.142	61.141
1073.496	28.06197
1073.85	11.02369
1074.203	32.0721
1074.557	34.0864
1074.911	-5.01104
1075.265	-24.05161
1075.618	42.09606
1075.971	7.01548
1076.325	16.03843
1076.678	-33.07095
1077.031	-23.04855
1077.385	42.08564
1077.738	64.13306
1078.091	8.01724
1078.444	24.0509
1078.796	45.10393
1079.149	-10.02315
1079.502	5.01109
1079.855	72.15563
1080.207	21.04833
1080.56	5.01224
1080.912	-14.03155
1081.264	5.01128
1081.617	31.07088
1081.969	16.03889
1082.321	36.0822
1082.673	82.17421
1083.025	-18.03974
1083.377	-8.01556
1083.728	-17.03631
1084.08	63.14776
1084.432	-80.1795
1084.783	47.10309
1085.135	77.18264
1085.486	-5.0108
1085.838	37.08525
1086.189	13.02957
1086.54	10.02233
1086.891	28.06773
1087.242	-13.02957
1087.593	29.06524
1087.944	-4.00839
1088.295	11.02288
1088.646	65.14647
1088.996	-10.02263
1089.347	-9.02066
1089.698	26.05798
1090.048	1.00244
1090.398	49.10566
1090.749	17.03815
1091.099	21.05037
1091.449	8.01861
1091.799	12.02822
1092.149	39.09129
1092.499	22.0505
1092.849	23.05523
1093.199	10.02345
1093.548	4.00909
1093.898	14.0331
1094.248	15.0364
1094.597	-2.00493
1094.947	-23.05863
1095.296	30.069
1095.645	37.09026
1095.994	48.10783
1096.343	37.08854
1096.692	47.11806
1097.041	-48.12649
1097.39	4.00943
1097.739	76.18599
1098.088	-15.03792
1098.437	4.01006
1098.785	-29.07457
1099.134	0
1099.482	-22.05762
1099.83	5.01242
1100.179	39.09776
1100.527	4.01004
1100.875	-19.04804
1101.223	10.02551
1101.571	5.01332
1101.919	-41.10392
1102.267	8.02194
1102.615	-1.00322
1102.962	6.01925
1103.31	9.02889
1103.658	2.00641
