Data from N3 R7 sample 11_Subt2__5__16-58-34-903.txt Node

Date: Fri Sep 19 16:58:34 PDT 2025
User: uwsun
Spectrometer: HDX01956
Trigger mode: 0
Integration Time (sec): 5.000000E-1
Scans to average: 1
Nonlinearity correction enabled: true
Boxcar width: 0
Storing dark spectrum: false
XAxis mode: Wavelengths
Number of Pixels in Spectrum: 2068
>>>>>Begin Spectral Data<<<<<
194.03	73.20973
194.578	90.2897
195.127	84.26693
195.676	70.22261
196.225	82.21375
196.773	89.24522
197.321	165.44898
197.87	182.45692
198.418	226.56859
198.966	226.57896
199.513	227.56176
200.061	173.42908
200.609	177.45606
201.156	136.28741
201.704	200.48778
202.251	187.484
202.798	214.54226
203.345	214.51295
203.892	208.50805
204.438	213.49232
204.985	208.48066
205.532	274.7095
206.078	209.49801
206.624	219.52564
207.17	238.52982
207.716	204.47592
208.262	200.3776
208.808	207.5008
209.354	217.51112
209.899	200.48742
210.445	225.54701
210.99	202.47458
211.535	224.5063
212.08	241.53572
212.625	237.571
213.17	220.53695
213.715	194.42381
214.259	258.57815
214.804	163.3902
215.348	186.41149
215.892	212.49361
216.436	249.55465
216.98	182.38513
217.524	187.42861
218.068	194.4735
218.612	177.42903
219.155	189.42989
219.698	181.41336
220.242	218.52135
220.785	254.56731
221.328	201.485
221.871	211.51451
222.414	178.42309
222.956	184.43196
223.499	187.4048
224.041	153.33997
224.583	213.43483
225.126	241.51433
225.668	172.40616
226.21	188.45715
226.751	133.27904
227.293	165.36023
227.835	207.48377
228.376	195.42699
228.918	201.48812
229.459	226.54769
230	184.42199
230.541	188.41331
231.082	214.49846
231.622	212.46744
232.163	213.50111
232.704	181.43262
233.244	174.41756
233.784	172.40332
234.324	194.41537
234.864	168.3653
235.404	157.35726
235.944	190.42823
236.484	148.35436
237.023	166.38102
237.563	187.415
238.102	211.47682
238.641	192.47229
239.18	175.39821
239.719	246.59481
240.258	171.36732
240.797	193.44698
241.335	153.35772
241.874	266.48227
242.412	179.41291
242.95	188.43756
243.488	225.48976
244.026	201.44607
244.564	173.34033
245.102	161.34941
245.64	190.43872
246.177	198.42137
246.715	202.459
247.252	226.48786
247.789	119.20339
248.326	175.40159
248.863	210.43601
249.4	203.44694
249.936	198.3863
250.473	214.47896
251.009	250.54937
251.546	245.51378
252.082	189.40055
252.618	222.47553
253.154	220.50576
253.69	194.41699
254.226	172.39463
254.761	176.37406
255.297	205.43047
255.832	162.36841
256.367	209.46826
256.903	221.45772
257.438	200.44449
257.972	200.42137
258.507	213.47329
259.042	207.41797
259.576	198.40944
260.111	231.50496
260.645	253.5186
261.179	207.459
261.713	204.42998
262.247	243.53837
262.781	249.49654
263.315	173.41002
263.849	201.48372
264.382	227.49285
264.915	218.49214
265.449	186.43989
265.982	201.43101
266.515	264.61151
267.048	185.37733
267.58	223.45338
268.113	225.466
268.646	249.59149
269.178	247.52324
269.71	203.42006
270.243	195.4259
270.775	239.58234
271.307	190.43243
271.838	215.48348
272.37	245.57728
272.902	219.47832
273.433	206.42618
273.965	273.63799
274.496	174.41295
275.027	195.46305
275.558	206.47869
276.089	226.5446
276.62	193.47062
277.15	221.52013
277.681	215.43453
278.211	198.4621
278.741	228.48352
279.272	194.4256
279.802	251.59922
280.332	229.51644
280.861	244.55891
281.391	204.44056
281.921	196.44663
282.45	261.62881
282.98	233.58504
283.509	265.56162
284.038	184.39533
284.567	157.34697
285.096	243.56098
285.625	297.64317
286.153	220.49117
286.682	248.53351
287.21	235.53906
287.739	204.45846
288.267	228.53106
288.795	255.63889
289.323	240.5429
289.851	248.54864
290.378	231.49427
290.906	253.58824
291.433	252.60011
291.961	241.51455
292.488	267.63253
293.015	223.50743
293.542	251.60472
294.069	260.60797
294.596	291.68005
295.122	268.60747
295.649	274.57549
296.175	211.48323
296.702	237.5419
297.228	224.51146
297.754	274.57853
298.28	247.53056
298.806	246.56802
299.332	235.49456
299.857	268.56909
300.383	251.60014
300.908	270.62962
301.433	314.72298
301.958	215.46561
302.483	308.73766
303.008	266.61956
303.533	263.64105
304.058	305.67262
304.582	269.60465
305.107	277.69475
305.631	259.5537
306.155	309.68458
306.679	284.63011
307.203	315.68856
307.727	306.6888
308.251	240.56539
308.775	310.69151
309.298	290.66427
309.822	295.70478
310.345	282.6327
310.868	322.72273
311.391	315.72861
311.914	364.85577
312.437	290.61634
312.96	306.68287
313.482	305.685
314.005	289.68913
314.527	303.75857
315.049	327.77315
315.571	377.79686
316.093	365.8516
316.615	327.74855
317.137	328.6591
317.659	325.73201
318.18	387.86913
318.702	381.824
319.223	389.73104
319.744	386.80498
320.265	361.82271
320.786	339.79096
321.307	346.81378
321.828	372.78922
322.348	411.8995
322.869	333.72513
323.389	267.4704
323.909	387.82409
324.43	427.93924
324.95	426.9018
325.47	414.94936
325.989	443.98015
326.509	333.6906
327.029	413.85841
327.548	404.84439
328.067	411.91771
328.587	452.03853
329.106	403.84286
329.625	415.99554
330.144	392.82911
330.662	438.93368
331.181	539.13586
331.7	478.0157
332.218	531.0385
332.736	486.02286
333.255	481.01698
333.773	488.0532
334.291	460.04007
334.808	466.9364
335.326	492.00688
335.844	570.19945
336.361	540.2376
336.879	541.13109
337.396	518.11615
337.913	543.1112
338.43	631.26012
338.947	588.24987
339.464	571.08102
339.981	567.21118
340.497	557.24006
341.014	524.14407
341.53	630.26364
342.046	612.34212
342.562	587.30856
343.078	587.22417
343.594	635.34844
344.11	633.32317
344.626	643.44593
345.141	663.33147
345.657	670.30068
346.172	635.34259
346.687	657.32486
347.202	654.28105
347.717	691.44137
348.232	677.49385
348.747	672.34554
349.261	734.40279
349.776	673.37023
350.29	725.5685
350.805	711.51527
351.319	720.45242
351.833	705.39511
352.347	685.37508
352.861	743.48962
353.374	744.45008
353.888	754.55311
354.401	729.43661
354.915	833.57582
355.428	794.70071
355.941	806.59713
356.454	854.58848
356.967	775.57103
357.48	831.59271
357.993	819.71092
358.505	789.67437
359.018	802.64913
359.53	775.58962
360.042	782.43559
360.554	810.65439
361.066	881.78615
361.578	881.59382
362.09	834.67577
362.602	864.57372
363.113	820.56819
363.625	928.72468
364.136	844.53489
364.647	923.77018
365.158	990.87383
365.669	1001.9845
366.18	910.71881
366.691	986.74128
367.201	930.81403
367.712	902.65553
368.222	969.82822
368.733	1006.75642
369.243	968.69344
369.753	1009.85282
370.263	1016.92873
370.773	1051.09479
371.282	1074.01593
371.792	1073.92534
372.301	1129.15313
372.811	1135.35629
373.32	1123.8156
373.829	1135.11255
374.338	1219.03798
374.847	1275.16688
375.356	1303.34172
375.865	1367.0651
376.373	1342.22355
376.882	1444.68374
377.39	1485.57579
377.898	1463.65051
378.407	1518.33018
378.915	1585.26558
379.423	1737.72541
379.93	1770.56311
380.438	1914.00345
380.946	1924.81551
381.453	2004.96478
381.96	2054.94452
382.468	2192.02815
382.975	2400.27063
383.482	2414.82703
383.989	2461.52547
384.495	2576.97778
385.002	2711.52263
385.509	2857.02917
386.015	3064.27999
386.521	3161.72663
387.028	3300.78201
387.534	3310.48056
388.04	3578.92033
388.546	3551.52146
389.051	3771.35442
389.557	4058.56104
390.063	4423.364
390.568	4519.43846
391.073	4683.9862
391.578	4800.32036
392.084	4940.67299
392.589	5154.48617
393.093	5603.6406
393.598	5961.27494
394.103	6570.39108
394.607	7300.44109
395.112	7716.79459
395.616	8262.21889
396.12	8941.24502
396.624	9931.804
397.128	10658.36262
397.632	11900.76642
398.136	12861.08774
398.639	13714.43825
399.143	15118.72472
399.646	17211.82824
400.15	18857.06816
400.653	21036.62175
401.156	23815.94396
401.659	27499.98449
402.162	33697.65656
402.664	44914.56637
403.167	60210.99645
403.67	60591.19936
404.172	55487.84425
404.674	37291.05854
405.176	4428.40989
405.678	533.47942
406.18	0
406.682	0
407.184	6962.89417
407.686	50953.82939
408.187	59237.6763
408.688	61091.12691
409.19	61923.45898
409.691	62441.93235
410.192	54955.46306
410.693	47181.76822
411.194	42456.3999
411.694	40334.32751
412.195	37353.7158
412.696	33883.22154
413.196	31531.38862
413.696	30838.18715
414.196	31074.30669
414.696	30387.33693
415.196	29030.73921
415.696	26562.68336
416.196	21279.34385
416.695	16599.35727
417.195	14148.18704
417.694	13272.03818
418.194	12644.73722
418.693	11623.32935
419.192	11328.45336
419.691	11184.74596
420.19	10775.86601
420.688	10564.85708
421.187	10040.61054
421.685	9532.6313
422.184	8670.75889
422.682	7448.23486
423.18	6304.24218
423.678	5544.45291
424.176	5177.6602
424.674	4825.60132
425.172	4693.10864
425.669	4425.65669
426.167	4071.39048
426.664	3754.46641
427.161	3437.60299
427.659	3303.12568
428.156	3060.35643
428.652	2824.3605
429.149	2717.11607
429.646	2566.57601
430.143	2482.03563
430.639	2320.92176
431.135	2151.05334
431.632	2082.671
432.128	1993.88592
432.624	1845.00002
433.12	1812.56106
433.616	1717.31977
434.111	1614.57457
434.607	1576.53748
435.103	1558.05848
435.598	1539.02825
436.093	1420.2818
436.588	1354.13225
437.083	1329.10876
437.578	1212.01356
438.073	1174.19127
438.568	1194.17624
439.062	1114.75104
439.557	1060.88884
440.051	1054.81928
440.546	1023.80352
441.04	901.6939
441.534	969.96918
442.028	953.80675
442.522	924.77593
443.015	880.51733
443.509	914.80384
444.002	914.803
444.496	821.40744
444.989	880.75613
445.482	843.70903
445.975	838.54786
446.468	815.40534
446.961	786.33973
447.454	745.36101
447.947	804.5902
448.439	839.68621
448.931	749.39317
449.424	714.48841
449.916	702.41088
450.408	733.39783
450.9	719.4587
451.392	725.55114
451.884	662.25518
452.375	618.30631
452.867	680.27557
453.358	614.16684
453.849	664.16541
454.341	677.27712
454.832	666.19526
455.323	640.33398
455.814	590.14839
456.304	618.20128
456.795	568.09815
457.285	584.08924
457.776	581.10106
458.266	587.20845
458.756	564.1519
459.247	554.13349
459.737	570.1863
460.226	569.09457
460.716	619.267
461.206	559.14193
461.695	505.11809
462.185	592.20317
462.674	538.05147
463.163	490.93244
463.653	509.9232
464.142	503.05244
464.63	517.09992
465.119	436.90359
465.608	489.97832
466.096	459.87663
466.585	420.84475
467.073	444.9288
467.561	449.97394
468.05	441.89414
468.538	493.07832
469.026	488.03204
469.513	447.82228
470.001	469.92918
470.489	413.87027
470.976	396.81483
471.463	422.95062
471.951	405.90917
472.438	373.79083
472.925	343.71738
473.412	369.80794
473.899	356.73945
474.385	361.80176
474.872	326.68711
475.359	294.65881
475.845	325.60443
476.331	320.61899
476.817	331.72475
477.303	344.72122
477.789	299.65773
478.275	283.64915
478.761	297.65141
479.247	294.5946
479.732	318.7319
480.218	275.66278
480.703	306.70794
481.188	255.49716
481.673	267.56412
482.158	240.47537
482.643	308.7185
483.128	236.4948
483.612	233.50157
484.097	274.61627
484.581	191.40692
485.066	220.49503
485.55	274.54398
486.034	259.52057
486.518	228.49893
487.002	224.51207
487.486	218.49736
487.969	200.46475
488.453	214.50767
488.936	211.43975
489.42	215.4421
489.903	213.50247
490.386	244.48307
490.869	143.28715
491.352	190.43226
491.835	179.33903
492.318	170.36289
492.8	176.33506
493.283	226.54213
493.765	150.35173
494.247	163.35406
494.73	136.2835
495.212	205.46024
495.694	119.26453
496.175	143.32237
496.657	230.51435
497.139	94.14658
497.62	132.29994
498.102	184.43264
498.583	128.30097
499.064	175.3717
499.545	130.28039
500.026	138.29177
500.507	111.24213
500.988	119.27877
501.469	57.13687
501.949	42.09922
502.43	123.27717
502.91	122.237
503.39	107.25527
503.87	114.25642
504.35	133.2932
504.83	136.28174
505.31	114.26491
505.79	102.23328
506.269	70.15571
506.749	90.19595
507.228	119.26585
507.707	108.22714
508.187	145.3242
508.666	45.10624
509.145	112.24913
509.623	48.1085
510.102	100.23045
510.581	115.26137
511.059	125.3022
511.538	131.32171
512.016	148.33725
512.494	81.18685
512.972	130.29648
513.45	58.13142
513.928	96.22353
514.406	110.25945
514.884	122.30431
515.361	132.30395
515.839	66.14394
516.316	112.25512
516.793	80.1941
517.27	114.26512
517.747	57.1419
518.224	38.08449
518.701	147.31018
519.178	95.2308
519.654	34.07648
520.131	29.06892
520.607	69.16474
521.083	100.21966
521.56	60.1359
522.036	116.24289
522.512	107.25194
522.987	104.23948
523.463	130.2954
523.939	111.25983
524.414	84.18413
524.89	61.13836
525.365	94.20588
525.84	134.31188
526.315	85.19514
526.79	59.12696
527.265	53.11493
527.74	68.15939
528.215	128.28814
528.689	99.21257
529.164	34.06977
529.638	60.14961
530.112	109.24914
530.587	98.20247
531.061	79.18449
531.534	47.10933
532.008	76.17689
532.482	68.1466
532.956	91.22711
533.429	-26.06011
533.903	86.17991
534.376	106.22224
534.849	86.19209
535.322	70.15906
535.795	54.12752
536.268	90.20931
536.741	54.12509
537.213	85.18911
537.686	42.09849
538.158	53.11498
538.631	82.18988
539.103	45.0975
539.575	73.14503
540.047	121.25162
540.519	72.16394
540.991	51.11943
541.463	74.17346
541.934	66.14589
542.406	101.23141
542.877	71.15357
543.348	21.04802
543.82	104.2433
544.291	97.21258
544.762	93.21103
545.233	129.31269
545.703	78.1665
546.174	177.38986
546.645	124.28895
547.115	131.30183
547.585	145.32072
548.056	169.39419
548.526	117.26397
548.996	124.28428
549.466	99.23001
549.935	197.447
550.405	168.35146
550.875	127.2856
551.344	172.39416
551.814	124.26665
552.283	180.36371
552.752	143.31551
553.221	155.31815
553.69	226.46965
554.159	214.50317
554.628	160.33769
555.096	153.36905
555.565	214.44352
556.033	191.42035
556.502	157.35928
556.97	165.34235
557.438	212.47038
557.906	154.34567
558.374	175.37737
558.842	174.39361
559.31	165.3448
559.777	158.36455
560.245	156.34166
560.712	129.27829
561.18	147.30569
561.647	157.3291
562.114	178.38194
562.581	172.40285
563.048	142.30522
563.514	152.35656
563.981	158.33947
564.448	186.3929
564.914	209.45261
565.381	172.3619
565.847	117.25955
566.313	189.41088
566.779	227.48151
567.245	189.41612
567.711	200.4539
568.176	190.41208
568.642	189.45191
569.108	200.46365
569.573	140.30818
570.038	235.46034
570.504	260.54705
570.969	217.50913
571.434	192.39953
571.899	228.51051
572.363	211.44796
572.828	227.47898
573.293	239.51094
573.757	251.53938
574.222	278.5808
574.686	189.40196
575.15	202.45416
575.614	201.43138
576.078	200.44024
576.542	255.54161
577.006	297.6209
577.469	256.58428
577.933	187.39042
578.396	240.53936
578.86	231.5041
579.323	221.49371
579.786	197.39577
580.249	231.49277
580.712	190.43418
581.175	209.48557
581.637	310.66114
582.1	159.32636
582.563	186.36099
583.025	154.35503
583.487	160.30119
583.95	200.40338
584.412	195.37783
584.874	187.42655
585.336	144.32549
585.797	214.42844
586.259	120.26415
586.721	154.34312
587.182	169.36537
587.643	180.3829
588.105	172.38576
588.566	222.4323
589.027	206.47188
589.488	148.31716
589.949	166.37536
590.41	225.40991
590.87	161.33808
591.331	198.38997
591.791	133.28692
592.252	101.22088
592.712	146.33162
593.172	160.33902
593.632	137.27409
594.092	163.34077
594.552	185.36772
595.011	198.42907
595.471	157.32983
595.931	195.40387
596.39	202.45453
596.849	183.398
597.308	194.38894
597.768	142.34375
598.227	216.48603
598.685	224.46736
599.144	156.34311
599.603	181.40168
600.062	177.34344
600.52	203.42289
600.978	264.58233
601.437	248.52042
601.895	217.42428
602.353	182.37129
602.811	257.52179
603.269	276.60344
603.727	217.48418
604.184	237.49393
604.642	239.54097
605.099	247.52576
605.557	272.60199
606.014	293.57043
606.471	308.71511
606.928	363.72893
607.385	366.82383
607.842	432.8897
608.299	381.79367
608.755	354.77069
609.212	397.79168
609.668	354.712
610.125	411.87861
610.581	373.77459
611.037	408.81948
611.493	364.76517
611.949	385.83372
612.405	380.68022
612.861	374.77129
613.316	411.88355
613.772	466.93899
614.227	410.86262
614.683	460.85619
615.138	454.95224
615.593	410.83679
616.048	413.82129
616.503	448.97281
616.958	458.0166
617.412	449.93656
617.867	481.94003
618.321	390.68913
618.776	481.9191
619.23	469.97653
619.684	470.91135
620.138	435.86464
620.592	451.96118
621.046	446.91274
621.5	462.98398
621.954	462.89626
622.407	422.82022
622.861	397.84501
623.314	444.88561
623.768	460.94182
624.221	461.78472
624.674	398.80087
625.127	406.8418
625.58	338.66979
626.033	388.74012
626.485	377.80314
626.938	393.82413
627.39	423.86744
627.843	380.77205
628.295	441.89454
628.747	441.92151
629.199	451.90563
629.651	391.7895
630.103	495.98849
630.555	425.77198
631.006	465.94926
631.458	408.83498
631.909	416.82938
632.361	372.76096
632.812	396.81336
633.263	401.74543
633.714	385.7082
634.165	376.79353
634.616	434.89945
635.067	403.76705
635.518	401.82976
635.968	487.81737
636.419	397.7413
636.869	426.8805
637.319	459.9217
637.769	531.0174
638.219	466.94979
638.669	444.93497
639.119	467.99009
639.569	544.14114
640.019	479.9521
640.468	482.90829
640.918	522.07659
641.367	558.06125
641.816	576.08811
642.265	585.14162
642.714	599.17729
643.163	551.05682
643.612	549.15139
644.061	536.94673
644.51	605.16563
644.958	611.11914
645.406	590.20837
645.855	556.16584
646.303	604.17904
646.751	609.17504
647.199	631.16981
647.647	694.33774
648.095	687.28968
648.543	647.05226
648.99	662.33282
649.438	732.41179
649.885	726.5081
650.333	766.12328
650.78	795.59841
651.227	765.54297
651.674	837.52252
652.121	739.4584
652.568	774.54293
653.015	786.59589
653.461	828.5858
653.908	841.5569
654.354	788.49963
654.801	813.54316
655.247	834.42788
655.693	826.77842
656.139	839.61193
656.585	896.7113
657.031	908.69079
657.477	884.49675
657.922	954.7205
658.368	893.74959
658.813	876.557
659.259	926.76443
659.704	956.75046
660.149	955.72801
660.594	999.83717
661.039	1031.79596
661.484	1017.87128
661.929	1027.8247
662.373	1039.08229
662.818	1081.08419
663.262	1011.87507
663.707	1060.07234
664.151	1123.10971
664.595	1123.04898
665.039	1146.14096
665.483	1190.31832
665.927	1131.96556
666.371	1206.06276
666.814	1236.14359
667.258	1277.21678
667.701	1280.86077
668.145	1308.34776
668.588	1320.35132
669.031	1293.20939
669.474	1324.27528
669.917	1414.0856
670.36	1430.47793
670.803	1444.40022
671.245	1457.97299
671.688	1490.48126
672.13	1442.1608
672.573	1493.67656
673.015	1516.45509
673.457	1623.24905
673.899	1593.55006
674.341	1572.53523
674.783	1620.59005
675.225	1673.7019
675.666	1644.61994
676.108	1676.26118
676.549	1811.63225
676.991	1793.34479
677.432	1807.96848
677.873	1829.55258
678.314	1818.68519
678.755	1924.88519
679.196	1916.61697
679.637	1968.84816
680.078	1962.67609
680.518	1962.58741
680.959	1971.79979
681.399	2001.95056
681.839	2128.96012
682.28	2066.0413
682.72	2167.66588
683.16	2186.13764
683.6	2157.65313
684.039	2204.25857
684.479	2277.09481
684.919	2231.81413
685.358	2396.27738
685.798	2384.46688
686.237	2449.02543
686.676	2495.81358
687.115	2550.91208
687.554	2540.96554
687.993	2626.5103
688.432	2714.83575
688.871	2738.73691
689.309	2779.1943
689.748	2854.28574
690.186	2828.9535
690.625	2907.03057
691.063	2978.12717
691.501	3008.26351
691.939	3039.31865
692.377	3123.17412
692.815	3158.10763
693.253	3193.95526
693.69	3279.45376
694.128	3326.16473
694.565	3318.98428
695.003	3419.4191
695.44	3424.81042
695.877	3451.87434
696.314	3536.21099
696.751	3581.52525
697.188	3700.63662
697.625	3726.47861
698.061	3762.87704
698.498	3958.8187
698.934	3901.75572
699.371	4007.674
699.807	4106.62321
700.243	4099.83469
700.679	4080.30209
701.115	4201.44421
701.551	4249.54471
701.987	4399.99698
702.422	4381.46872
702.858	4520.36674
703.294	4631.94178
703.729	4690.59527
704.164	4711.4693
704.599	4774.7551
705.035	4856.8307
705.47	4939.472
705.904	5035.94029
706.339	5113.79236
706.774	5171.88523
707.209	5222.77505
707.643	5343.03019
708.078	5426.0609
708.512	5481.44851
708.946	5705.77096
709.38	5533.76845
709.814	5735.42868
710.248	5751.82751
710.682	5898.76319
711.116	5996.77167
711.549	5937.25435
711.983	6124.3659
712.416	6129.46937
712.85	6375.93148
713.283	6426.49909
713.716	6543.83083
714.149	6553.43688
714.582	6724.18925
715.015	6663.78026
715.448	6759.76943
715.881	6812.94544
716.313	6886.46243
716.746	7091.51845
717.178	7051.56345
717.61	7294.96014
718.043	7306.78616
718.475	7365.68041
718.907	7438.87035
719.339	7583.523
719.77	7672.82633
720.202	7861.16296
720.634	7839.02412
721.065	7906.9126
721.497	8037.18028
721.928	8038.20845
722.359	8207.336
722.79	8267.31641
723.221	8391.58004
723.652	8409.68699
724.083	8537.53214
724.514	8489.46002
724.945	8608.72161
725.375	8720.88444
725.806	8722.97338
726.236	8880.31843
726.666	8985.36068
727.096	9073.56606
727.526	9227.92486
727.956	9405.28396
728.386	9435.3295
728.816	9482.45047
729.246	9541.57988
729.675	9682.9249
730.105	9752.1173
730.534	9873.52107
730.964	9851.36703
731.393	10136.24815
731.822	10200.33646
732.251	10271.56501
732.68	10245.77847
733.109	10395.05372
733.537	10622.96576
733.966	10646.95952
734.395	10744.68729
734.823	10967.7991
735.251	10900.06822
735.68	11074.65124
736.108	10904.89111
736.536	11016.70347
736.964	11224.78042
737.392	11357.94017
737.82	11250.6935
738.247	11554.22463
738.675	11506.0419
739.102	11714.53613
739.53	11719.43799
739.957	11681.28776
740.384	11801.32372
740.811	11969.8243
741.238	12024.58188
741.665	11961.46901
742.092	11904.14839
742.519	11966.94779
742.945	11987.47288
743.372	12248.62235
743.798	12186.96253
744.225	12298.41431
744.651	12102.75201
745.077	12347.19464
745.503	12335.44065
745.929	12308.40969
746.355	12339.40014
746.781	12357.34423
747.207	12296.33966
747.632	12081.76578
748.058	12271.84524
748.483	12340.11565
748.908	12614.895
749.334	12366.47841
749.759	12402.16433
750.184	12417.1082
750.609	12346.42024
751.033	12396.3052
751.458	12448.8753
751.883	12231.65709
752.307	12304.3579
752.732	12327.89732
753.156	12266.82256
753.58	12200.87875
754.005	12181.973
754.429	12058.22331
754.853	11928.81044
755.277	12003.61957
755.7	11827.32401
756.124	11835.21651
756.548	11710.9881
756.971	11579.18295
757.394	11559.6547
757.818	11354.6478
758.241	11421.13751
758.664	11324.60869
759.087	11349.47023
759.51	11214.27553
759.933	11114.9705
760.356	11107.64943
760.778	10965.16344
761.201	10641.09623
761.623	10503.58519
762.046	10572.97963
762.468	10614.99226
762.89	10421.16359
763.312	10202.47919
763.734	10195.45531
764.156	9925.58347
764.578	9885.63262
765	9870.4502
765.421	9558.63221
765.843	9543.61243
766.264	9235.8792
766.686	9258.97141
767.107	9224.87144
767.528	9084.66417
767.949	8944.40249
768.37	8706.93428
768.791	8598.73404
769.212	8432.71147
769.632	8339.30561
770.053	8321.73958
770.473	8174.25323
770.894	7967.10786
771.314	7799.77807
771.734	7689.63368
772.154	7671.1308
772.575	7483.48702
772.994	7333.36451
773.414	7254.45276
773.834	7198.84693
774.254	7066.60889
774.673	6921.55355
775.093	6690.76498
775.512	6660.73818
775.931	6706.96361
776.351	6476.70972
776.77	6377.71224
777.189	6143.4705
777.607	6161.104
778.026	6025.97766
778.445	5979.10084
778.864	5745.22265
779.282	5611.74531
779.701	5647.18273
780.119	5429.25933
780.537	5336.23585
780.955	5277.39778
781.373	5140.26759
781.791	5184.60018
782.209	5011.84003
782.627	4883.05684
783.045	4794.91771
783.462	4725.73288
783.88	4541.07533
784.297	4537.77148
784.715	4394.17582
785.132	4281.57872
785.549	4243.98649
785.966	4011.98897
786.383	4053.88756
786.8	3897.47555
787.217	3798.63804
787.633	3685.12155
788.05	3621.53007
788.466	3524.64923
788.883	3490.40922
789.299	3430.82912
789.715	3381.03862
790.131	3165.14403
790.547	3153.07606
790.963	3078.18597
791.379	3024.33876
791.795	2893.63764
792.21	2823.77892
792.626	2775.88339
793.041	2686.09043
793.457	2632.09879
793.872	2643.85182
794.287	2656.09118
794.702	2439.03315
795.117	2356.057
795.532	2419.2527
795.947	2290.82603
796.362	2216.76144
796.776	2179.54454
797.191	2131.89126
797.605	2073.79972
798.02	1954.83955
798.434	1864.3054
798.848	1855.75466
799.262	1824.87905
799.676	1843.67954
800.09	1697.63313
800.504	1710.60092
800.918	1616.33698
801.331	1541.74202
801.745	1518.22586
802.158	1430.45846
802.572	1540.43333
802.985	1463.32048
803.398	1389.25231
803.811	1326.41651
804.224	1295.27767
804.637	1271.0747
805.05	1248.01038
805.462	1216.14092
805.875	1213.40049
806.288	1144.05339
806.7	1092.06284
807.112	1066.80794
807.525	1088.01932
807.937	983.87186
808.349	996.90536
808.761	916.71667
809.173	938.72088
809.584	875.68443
809.996	882.70728
810.408	840.76295
810.819	808.50201
811.231	824.78624
811.642	851.68053
812.053	834.59885
812.464	786.50451
812.875	788.64356
813.286	686.46225
813.697	689.25153
814.108	683.34583
814.519	654.15443
814.929	603.27762
815.34	582.17636
815.75	563.21768
816.16	560.15355
816.571	576.27845
816.981	547.05772
817.391	526.06784
817.801	537.15542
818.211	528.06557
818.62	471.96848
819.03	437.91396
819.44	496.1166
819.849	464.01798
820.259	482.07263
820.668	429.93295
821.077	405.886
821.486	372.77131
821.895	343.73167
822.304	368.8746
822.713	378.77394
823.122	352.78518
823.531	337.70764
823.939	350.75486
824.348	312.67695
824.756	330.73155
825.164	325.72152
825.573	274.62056
825.981	315.6967
826.389	271.60315
826.797	270.6115
827.205	299.60457
827.612	236.52166
828.02	267.5666
828.428	243.55964
828.835	215.52309
829.243	215.46004
829.65	231.52414
830.057	237.52617
830.464	255.56731
830.871	210.45196
831.278	215.46521
831.685	222.43374
832.092	229.51074
832.499	225.43303
832.905	201.46827
833.312	211.42664
833.718	153.34886
834.124	161.3348
834.531	162.37348
834.937	146.34329
835.343	183.40274
835.749	129.2722
836.155	146.3545
836.561	72.16195
836.966	176.39132
837.372	168.39194
837.777	128.29309
838.183	118.23175
838.588	180.41249
838.993	116.25717
839.399	82.18588
839.804	152.34553
840.209	127.30414
840.613	181.36665
841.018	80.18723
841.423	83.1971
841.828	86.20316
842.232	78.17638
842.637	95.20301
843.041	134.32573
843.445	103.23779
843.849	113.25963
844.253	95.20618
844.657	113.26782
845.061	103.21476
845.465	140.31915
845.869	85.18109
846.272	68.15471
846.676	90.20277
847.079	95.2282
847.483	125.28732
847.886	70.15525
848.289	104.26616
848.692	59.14
849.095	28.06223
849.498	92.2121
849.901	125.25831
850.304	57.12566
850.707	78.18562
851.109	44.10237
851.512	87.20101
851.914	115.27635
852.316	109.25784
852.718	69.17046
853.121	41.09447
853.523	53.11478
853.925	40.09927
854.326	63.15007
854.728	21.05129
855.13	62.15235
855.531	83.18788
855.933	50.1115
856.334	48.11339
856.736	40.08227
857.137	20.04356
857.538	50.11844
857.939	62.14482
858.34	61.13752
858.741	31.07678
859.142	22.04983
859.542	94.23905
859.943	73.17135
860.343	48.11269
860.744	95.21609
861.144	78.17703
861.544	59.13496
861.945	38.09071
862.345	-34.07748
862.745	48.11207
863.145	14.03065
863.544	88.2107
863.944	36.07901
864.344	0
864.743	103.23703
865.143	71.17133
865.542	9.01947
865.941	61.14296
866.34	94.20848
866.74	18.0461
867.139	36.08147
867.537	10.02398
867.936	64.14425
868.335	63.15202
868.734	44.10752
869.132	45.0982
869.531	68.15245
869.929	68.14516
870.327	63.14063
870.726	21.04912
871.124	28.06039
871.522	-17.04084
871.92	74.16965
872.318	33.076
872.715	69.15835
873.113	25.05749
873.511	37.08698
873.908	36.08823
874.306	16.0378
874.703	51.11943
875.1	77.18285
875.497	-20.04504
875.894	82.19116
876.291	46.10677
876.688	31.07554
877.085	44.09791
877.482	1.00235
877.878	23.05223
878.275	21.05025
878.671	-17.03423
879.068	82.18293
879.464	-33.07603
879.86	56.12529
880.256	-22.05074
880.652	-6.01449
881.048	17.03912
881.444	-1.0022
881.84	26.06206
882.236	47.11135
882.631	27.06248
883.027	-32.07215
883.422	-2.00485
883.817	37.08898
884.213	31.07546
884.608	-22.05195
885.003	24.05458
885.398	31.07316
885.793	29.06823
886.188	18.0429
886.582	-21.05023
886.977	34.07513
887.371	6.01436
887.766	0
888.16	51.11957
888.554	2.00461
888.949	-14.03282
889.343	21.04742
889.737	-6.01562
890.131	1.00239
890.525	23.05544
890.918	30.07197
891.312	13.02855
891.706	16.04034
892.099	25.0598
892.492	45.08924
892.886	2.00459
893.279	-5.01213
893.672	46.11085
894.065	11.0259
894.458	-3.00714
894.851	42.09451
895.244	39.09422
895.637	80.17928
896.029	22.05058
896.422	19.04339
896.814	-3.00709
897.206	36.08134
897.599	-2.00455
897.991	37.08416
898.383	-32.07118
898.775	37.07704
899.167	18.03984
899.559	57.13442
899.951	75.16284
900.342	-12.02844
900.734	32.07677
901.125	-12.02975
901.517	44.10189
901.908	47.1037
902.299	20.04629
902.69	36.07941
903.082	77.1728
903.473	64.14454
903.863	24.05867
904.254	-23.05002
904.645	-11.0255
905.036	40.09244
905.426	18.03702
905.817	22.05074
906.207	-4.00905
906.597	34.07456
906.987	-10.02432
907.378	9.02141
907.768	19.04805
908.158	9.02075
908.547	3.00741
908.937	-2.00485
909.327	9.02045
909.717	3.00713
910.106	15.03386
910.495	71.16659
910.885	-12.02833
911.274	19.04508
911.663	85.20348
912.052	18.04135
912.441	18.0438
912.83	12.02554
913.219	9.02209
913.608	28.0643
913.997	-34.08132
914.385	-6.0133
914.774	14.03188
915.162	-12.02681
915.55	53.11953
915.939	-5.01206
916.327	59.13757
916.715	1.00245
917.103	5.01148
917.491	5.01147
917.878	-40.09174
918.266	-42.10419
918.654	57.13879
919.041	1.00249
919.429	44.09726
919.816	11.02621
920.203	62.14026
920.591	24.05549
920.978	38.08677
921.365	14.03474
921.752	71.15783
922.139	69.13804
922.525	14.03157
922.912	14.03194
923.299	4.00946
923.685	11.02731
924.072	13.02754
924.458	41.09541
924.844	-4.00935
925.231	10.02159
925.617	39.09535
926.003	33.07954
926.389	57.1364
926.774	29.06971
927.16	23.05342
927.546	-30.07358
927.931	-13.03074
928.317	-37.07859
928.702	-35.07745
929.088	3.0067
929.473	2.00484
929.858	56.12921
930.243	32.07248
930.628	6.01369
931.013	42.09914
931.398	75.15659
931.783	33.08224
932.167	18.04108
932.552	9.02096
932.937	25.05723
933.321	-26.0618
933.705	36.08656
934.09	13.03048
934.474	-5.01113
934.858	48.11812
935.242	49.1073
935.626	-8.01938
936.009	-21.05349
936.393	53.12809
936.777	54.13141
937.16	-15.03672
937.544	50.10868
937.927	9.02173
938.311	48.10823
938.694	32.08014
939.077	-18.04032
939.46	78.17853
939.843	36.0672
940.226	-27.06569
940.609	51.10761
940.991	8.0193
941.374	4.00916
941.757	32.0738
942.139	0
942.522	-18.03939
942.904	9.0204
943.286	12.02852
943.668	-48.11917
944.05	39.08993
944.432	24.05597
944.814	0
945.196	3.00701
945.578	47.10574
945.959	7.01541
946.341	16.03605
946.722	68.14824
947.104	9.01998
947.485	16.03463
947.866	8.01928
948.247	40.09504
948.628	51.11497
949.009	37.08979
949.39	2.0046
949.771	56.11923
950.152	49.11317
950.532	59.14054
950.913	7.01565
951.293	15.03911
951.674	7.01577
952.054	14.03287
952.434	-3.00697
952.814	19.04143
953.194	55.13607
953.574	-37.08512
953.954	41.09073
954.334	67.1569
954.714	-10.02314
955.093	-7.016
955.473	-40.09457
955.853	24.05913
956.232	26.06801
956.611	-10.02208
956.99	51.12088
957.37	2.00483
957.749	-6.0133
958.128	52.12446
958.506	4.00997
958.885	16.03791
959.264	-2.00464
959.643	64.13442
960.021	-38.08984
960.4	38.08108
960.778	20.04526
961.156	4.00948
961.535	11.02329
961.913	14.02983
962.291	25.0616
962.669	8.01926
963.047	-30.072
963.424	21.05092
963.802	24.05476
964.18	29.06847
964.557	21.04412
964.935	17.03745
965.312	39.09673
965.69	41.0956
966.067	35.07897
966.444	48.11035
966.821	21.05085
967.198	4.00896
967.575	29.06596
967.952	2.00442
968.329	-11.02513
968.705	-15.02926
969.082	41.09994
969.458	-1.00229
969.835	26.05913
970.211	30.07284
970.587	32.0748
970.963	46.11069
971.339	28.06999
971.715	-20.04651
972.091	39.08954
972.467	-22.05104
972.843	-7.01646
973.219	6.01327
973.594	-14.03504
973.97	-15.03305
974.345	8.01794
974.721	37.08297
975.096	-2.0045
975.471	40.08861
975.846	33.0747
976.221	-25.06062
976.596	1.00226
976.971	60.13816
977.346	-22.04733
977.72	20.048
978.095	24.05889
978.469	27.06032
978.844	44.10334
979.218	8.01821
979.593	54.12042
979.967	79.1797
980.341	4.00852
980.715	52.12194
981.089	-7.01639
981.463	94.2004
981.837	24.05557
982.21	13.02789
982.584	11.02478
982.957	24.05698
983.331	65.14209
983.704	33.07664
984.078	4.00923
984.451	-18.04133
984.824	17.03929
985.197	-7.01595
985.57	-2.00469
985.943	-59.13567
986.316	59.13469
986.688	22.04934
987.061	10.02162
987.434	21.05199
987.806	15.03387
988.179	-11.0242
988.551	15.03559
988.923	4.00924
989.295	1.00235
989.667	29.06634
990.039	25.05841
990.411	34.0734
990.783	42.08888
991.155	12.02757
991.527	-15.03402
991.898	-7.01638
992.27	-16.03759
992.641	52.12117
993.012	48.10557
993.384	5.01119
993.755	7.0168
994.126	31.06983
994.497	24.05522
994.868	60.12758
995.239	26.05939
995.61	6.01422
995.98	21.04842
996.351	2.00472
996.722	-8.01757
997.092	-20.04523
997.462	23.05085
997.833	52.1136
998.203	17.03832
998.573	5.01186
998.943	19.04101
999.313	15.03391
999.683	-36.08087
1000.053	60.12802
1000.423	58.1311
1000.792	18.0443
1001.162	13.03032
1001.531	31.07217
1001.901	18.04198
1002.27	42.08712
1002.639	39.09425
1003.009	77.17195
1003.378	47.11329
1003.747	43.09388
1004.116	-12.02726
1004.485	53.11855
1004.853	16.0383
1005.222	76.18093
1005.591	18.03952
1005.959	13.0277
1006.328	-41.08636
1006.696	-16.03676
1007.064	21.04985
1007.433	16.0379
1007.801	39.08864
1008.169	-11.02611
1008.537	56.11424
1008.905	-7.01538
1009.273	50.11514
1009.64	-27.06132
1010.008	26.05764
1010.375	48.10819
1010.743	46.09551
1011.11	27.05985
1011.478	-24.05615
1011.845	-31.06745
1012.212	-15.03137
1012.579	18.04166
1012.946	0
1013.313	40.08813
1013.68	31.06377
1014.047	40.09038
1014.414	47.10431
1014.78	77.1801
1015.147	12.02674
1015.513	79.17933
1015.88	23.05458
1016.246	25.05806
1016.612	60.12485
1016.978	-1.0023
1017.344	64.14931
1017.71	-20.04495
1018.076	45.09804
1018.442	11.02664
1018.808	9.02127
1019.174	-37.0878
1019.539	-1.00207
1019.905	22.04881
1020.27	35.0819
1020.636	42.09342
1021.001	13.0289
1021.366	78.1771
1021.731	37.09013
1022.096	-3.00725
1022.461	-2.00438
1022.826	24.05336
1023.191	23.0573
1023.556	1.00216
1023.92	-5.01144
1024.285	67.15098
1024.649	-4.00925
1025.014	67.15413
1025.378	19.04559
1025.742	52.12046
1026.107	10.02071
1026.471	36.07598
1026.835	7.01615
1027.199	-27.06191
1027.562	13.02838
1027.926	18.04108
1028.29	9.02161
1028.654	16.03381
1029.017	82.18761
1029.381	14.03152
1029.744	47.11354
1030.107	6.013
1030.471	39.08652
1030.834	-8.01664
1031.197	4.00888
1031.56	60.13269
1031.923	-1.00245
1032.286	76.16287
1032.648	23.05092
1033.011	19.04071
1033.374	-9.01949
1033.736	-13.03261
1034.099	35.08029
1034.461	12.02895
1034.823	13.03032
1035.185	-24.05641
1035.548	-27.06199
1035.91	73.16322
1036.272	30.06332
1036.634	-5.01135
1036.995	66.14492
1037.357	-3.0069
1037.719	33.07485
1038.08	-47.10339
1038.442	84.18816
1038.803	-16.03587
1039.165	4.00957
1039.526	41.09247
1039.887	59.13203
1040.248	57.13426
1040.609	-4.0093
1040.97	20.04576
1041.331	-20.04717
1041.692	26.05714
1042.053	12.02507
1042.413	-13.02799
1042.774	-8.01821
1043.134	14.0307
1043.495	-1.00236
1043.855	-2.00457
1044.215	14.03256
1044.576	32.07207
1044.936	31.06622
1045.296	4.00935
1045.656	53.12104
1046.016	-23.05157
1046.375	42.09598
1046.735	37.07876
1047.095	-8.01759
1047.454	27.05219
1047.814	7.01564
1048.173	-3.00658
1048.533	10.02149
1048.892	16.03634
1049.251	18.04252
1049.61	-40.09233
1049.969	76.16666
1050.328	28.05484
1050.687	9.0205
1051.046	51.11676
1051.405	-11.02548
1051.763	15.03232
1052.122	23.05462
1052.48	1.00229
1052.839	-17.03768
1053.197	29.06366
1053.555	-55.1133
1053.914	7.016
1054.272	52.11624
1054.63	-9.02061
1054.988	-32.07156
1055.345	-22.04333
1055.703	35.07758
1056.061	-23.05644
1056.419	-8.01982
1056.776	21.04736
1057.134	36.07695
1057.491	16.03758
1057.848	4.00931
1058.206	27.05895
1058.563	86.17465
1058.92	47.0987
1059.277	0
1059.634	-8.0172
1059.991	86.19082
1060.348	1.00213
1060.704	-9.02023
1061.061	6.01265
1061.418	29.06628
1061.774	52.12179
1062.131	18.04633
1062.487	-17.03697
1062.843	36.08396
1063.199	31.07285
1063.555	36.07811
1063.911	-1.00238
1064.267	4.00742
1064.623	38.08733
1064.979	-55.11967
1065.335	23.05026
1065.691	55.12363
1066.046	1.00201
1066.402	33.06927
1066.757	45.10666
1067.112	-8.01826
1067.468	39.08738
1067.823	33.07424
1068.178	39.08857
1068.533	12.027
1068.888	-11.02437
1069.243	49.11358
1069.598	-37.08362
1069.952	44.09339
1070.307	32.07571
1070.662	17.03789
1071.016	25.05247
1071.371	26.05449
1071.725	-51.1121
1072.079	14.03143
1072.434	3.00684
1072.788	59.13127
1073.142	75.17287
1073.496	4.0089
1073.85	8.01724
1074.203	32.0721
1074.557	27.0687
1074.911	10.022
1075.265	32.06798
1075.618	40.09152
1075.971	19.0419
1076.325	18.04321
1076.678	-13.02783
1077.031	6.01259
1077.385	100.20122
1077.738	49.10221
1078.091	47.10044
1078.444	-2.00427
1078.796	74.16992
1079.149	-17.0394
1079.502	-18.04012
1079.855	38.08273
1080.207	45.10306
1080.56	-4.00981
1080.912	-30.06784
1081.264	10.02254
1081.617	17.03898
1081.969	59.14226
1082.321	31.07086
1082.673	37.07938
1083.025	-3.0066
1083.377	8.0155
1083.728	-51.10974
1084.08	39.0919
1084.432	-29.06439
1084.783	69.15064
1085.135	72.17095
1085.486	-10.02162
1085.838	22.05084
1086.189	-14.03202
1086.54	14.03123
1086.891	62.14902
1087.242	0
1087.593	12.02709
1087.944	20.04175
1088.295	54.11127
1088.646	38.0861
1088.996	-38.08649
1089.347	-4.00917
1089.698	1.00224
1090.048	40.09698
1090.398	38.08214
1090.749	19.04262
1091.099	-3.00723
1091.449	-10.02335
1091.799	8.01883
1092.149	20.04699
1092.499	47.10734
1092.849	32.07671
1093.199	1.00235
1093.548	66.14809
1093.898	15.03546
1094.248	5.01216
1094.597	34.08321
1094.947	22.05563
1095.296	-35.08154
1095.645	21.05138
1095.994	61.13667
1096.343	55.13116
1096.692	21.053
1097.041	1.00261
1097.39	-13.03074
1097.739	14.03466
1098.088	23.05776
1098.437	-8.02017
1098.785	1.00256
1099.134	-10.02495
1099.482	-37.09716
1099.83	22.0545
1100.179	33.08281
1100.527	-24.06054
1100.875	14.03519
1101.223	24.06108
1101.571	-11.02939
1101.919	-27.06826
1102.267	-11.03026
1102.615	23.07375
1102.962	2.00642
1103.31	15.04811
1103.658	-6.01925
