Data from N3 R7 sample 4_Subt2__3__17-00-57-402.txt Node

Date: Fri Sep 19 17:00:57 PDT 2025
User: uwsun
Spectrometer: HDX01956
Trigger mode: 0
Integration Time (sec): 5.000000E-1
Scans to average: 1
Nonlinearity correction enabled: true
Boxcar width: 0
Storing dark spectrum: false
XAxis mode: Wavelengths
Number of Pixels in Spectrum: 2068
>>>>>Begin Spectral Data<<<<<
194.03	50.14414
194.578	65.20984
195.127	64.20387
195.676	45.14354
196.225	66.17251
196.773	90.24793
197.321	99.27225
197.87	178.4472
198.418	203.51284
198.966	208.53453
199.513	177.44205
200.061	121.30296
200.609	170.43856
201.156	140.29561
201.704	159.39076
202.251	169.43878
202.798	150.38442
203.345	238.56787
203.892	132.32698
204.438	192.44563
204.985	202.46736
205.532	208.54475
206.078	211.50258
206.624	196.47249
207.17	200.44874
207.716	133.31461
208.262	173.32878
208.808	164.39999
209.354	154.36718
209.899	158.38808
210.445	229.55631
210.99	192.45197
211.535	182.41489
212.08	219.48904
212.625	151.36973
213.17	203.49704
213.715	200.43636
214.259	196.44482
214.804	171.40872
215.348	151.3365
215.892	169.39683
216.436	195.43923
216.98	149.31758
217.524	211.48129
218.068	206.50166
218.612	163.39614
219.155	202.45825
219.698	184.41996
220.242	156.3775
220.785	196.44302
221.328	225.54045
221.871	220.53555
222.414	159.37931
222.956	194.45455
223.499	201.4338
224.041	115.25755
224.583	201.41145
225.126	207.44503
225.668	190.44709
226.21	194.47121
226.751	139.29124
227.293	154.337
227.835	140.33149
228.376	174.38269
228.918	190.46236
229.459	191.46592
230	169.38876
230.541	127.28279
231.082	160.37665
231.622	181.40168
232.163	187.44217
232.704	158.37931
233.244	169.40595
233.784	200.4664
234.324	228.48458
234.864	153.33375
235.404	129.29521
235.944	176.39781
236.484	170.40532
237.023	202.4603
237.563	176.39148
238.102	185.42028
238.641	184.45328
239.18	191.43321
239.719	158.38837
240.258	155.3341
240.797	234.53752
241.335	132.30989
241.874	205.37745
242.412	198.45501
242.95	196.45546
243.488	172.37861
244.026	178.39692
244.564	207.40396
245.102	169.36615
245.64	166.38514
246.177	182.38867
246.715	163.37331
247.252	185.40287
247.789	145.2461
248.326	128.29651
248.863	142.2993
249.4	194.42793
249.936	185.36205
250.473	189.42519
251.009	222.49072
251.546	210.44379
252.082	239.50098
252.618	204.43867
253.154	177.41041
253.69	193.41493
254.226	149.34344
254.761	145.31026
255.297	201.42245
255.832	158.3596
256.367	162.36647
256.903	185.38625
257.438	158.35422
257.972	153.32568
258.507	180.4027
259.042	193.39096
259.576	152.31756
260.111	178.39346
260.645	190.39501
261.179	183.40781
261.713	144.30752
262.247	223.49612
262.781	201.4053
263.315	178.42146
263.849	170.41153
264.382	155.34169
264.915	221.4986
265.449	158.3757
265.982	190.40839
266.515	207.48491
267.048	212.42974
267.58	224.45531
268.113	195.40658
268.646	236.56202
269.178	168.36204
269.71	197.4082
270.243	211.45929
270.775	189.46482
271.307	139.31962
271.838	224.50279
272.37	194.46165
272.902	262.56702
273.433	143.30002
273.965	240.56451
274.496	172.40836
275.027	183.43556
275.558	197.45859
276.089	216.52149
276.62	156.38303
277.15	196.46354
277.681	150.30768
278.211	158.37165
278.741	153.32979
279.272	224.48831
279.802	201.48446
280.332	182.41439
280.861	232.53271
281.391	182.3949
281.921	167.38278
282.45	230.55738
282.98	251.62819
283.509	230.49117
284.038	180.38707
284.567	173.38105
285.096	254.58509
285.625	239.52399
286.153	175.39434
286.682	227.49054
287.21	209.48192
287.739	187.42173
288.267	218.50877
288.795	223.56195
289.323	225.51053
289.851	210.46827
290.378	233.49833
290.906	227.53051
291.433	250.59558
291.961	178.38524
292.488	233.55562
293.015	252.57004
293.542	206.50054
294.069	263.61463
294.596	265.62246
295.122	253.57522
295.649	274.57549
296.175	202.46346
296.702	211.48498
297.228	166.38346
297.754	256.54266
298.28	268.57306
298.806	251.57898
299.332	220.46452
299.857	261.55507
300.383	194.46891
300.908	228.53608
301.433	263.61173
301.958	205.4449
302.483	252.61
303.008	214.50356
303.533	193.47658
304.058	226.50665
304.582	251.56628
305.107	275.68998
305.631	228.4907
306.155	294.65338
306.679	288.63846
307.203	263.58122
307.727	256.58216
308.251	278.65006
308.775	228.51723
309.298	288.65995
309.822	273.65497
310.345	262.59025
310.868	303.68274
311.391	312.7221
311.914	274.6555
312.437	243.52174
312.96	284.63666
313.482	267.60434
314.005	281.67109
314.527	259.65358
315.049	298.70855
315.571	339.72251
316.093	315.74219
316.615	318.72927
317.137	333.66838
317.659	288.65359
318.18	320.72856
318.702	333.72759
319.223	272.52589
319.744	339.71435
320.265	301.6943
320.786	332.77569
321.307	366.85746
321.828	367.77947
322.348	381.83914
322.869	297.65169
323.389	319.55438
323.909	369.78884
324.43	353.78855
324.95	379.81056
325.47	373.86239
325.989	398.88887
326.509	355.73261
327.029	381.79755
327.548	395.82722
328.067	361.81441
328.587	396.92191
329.106	325.69147
329.625	387.93333
330.144	349.74512
330.662	419.89687
331.181	457.982
331.7	415.8956
332.218	456.90913
332.736	456.96783
333.255	424.90934
333.773	480.03767
334.291	421.96135
334.808	453.91301
335.326	427.8883
335.844	463.99874
336.361	482.11729
336.879	453.96712
337.396	462.0072
337.913	461.96244
338.43	535.09183
338.947	471.02621
339.464	494.95423
339.981	499.08135
340.497	491.10781
341.014	502.10104
341.53	554.13042
342.046	547.21576
342.562	503.14047
343.078	542.14144
343.594	563.21405
344.11	545.1611
344.626	589.33898
345.141	560.15097
345.657	536.07332
346.172	604.2856
346.687	627.27297
347.202	564.12793
347.717	637.34447
348.232	648.43844
348.747	634.28047
349.261	674.3066
349.776	605.25059
350.29	651.43044
350.805	645.39408
351.319	621.28085
351.833	619.24927
352.347	640.29792
352.861	620.27792
353.374	669.32685
353.888	638.34805
354.401	658.31807
354.915	692.35369
355.428	734.59238
355.941	707.43302
356.454	782.48026
356.967	732.49829
357.48	694.37363
357.993	689.4804
358.505	739.58521
359.018	690.45424
359.53	744.53661
360.042	738.36961
360.554	723.50553
361.066	754.57258
361.578	808.48862
362.09	797.61494
362.602	808.49234
363.113	751.45993
363.625	846.60396
364.136	837.52483
364.647	761.51592
365.158	879.70835
365.669	843.73235
366.18	806.5607
366.691	790.46558
367.201	836.66668
367.712	863.59929
368.222	886.70523
368.733	865.56561
369.243	843.52261
369.753	906.70623
370.263	920.78687
370.773	969.96918
371.282	989.89605
371.792	984.80546
372.301	1001.96884
372.811	1017.16614
373.32	1010.68408
373.829	1071.02454
374.338	1050.83636
374.847	1089.94315
375.356	1179.18497
375.865	1218.92096
376.373	1289.16621
376.882	1293.49159
377.39	1281.33948
377.898	1334.49452
378.407	1362.18424
378.915	1409.12158
379.423	1559.56816
379.93	1543.38622
380.438	1620.75206
380.946	1739.68356
381.453	1742.77464
381.96	1754.74065
382.468	1961.9009
382.975	2054.09747
383.482	2130.73816
383.989	2129.34905
384.495	2356.92885
385.002	2384.50915
385.509	2450.9825
386.015	2663.34768
386.521	2746.77431
387.028	2974.84297
387.534	2970.56299
388.04	3049.03998
388.546	3214.62941
389.051	3312.53126
389.557	3650.74089
390.063	3908.62688
390.568	3983.71569
391.073	4186.26289
391.578	4269.61333
392.084	4299.03438
392.589	4758.70257
393.093	4879.01991
393.598	5414.49503
394.103	5928.5366
394.607	6459.33201
395.112	6804.49086
395.616	7309.46651
396.12	7936.73231
396.624	8687.7711
397.128	9500.52761
397.632	10629.42579
398.136	11323.65222
398.639	12148.11802
399.143	13495.1818
399.646	15250.42166
400.15	16962.428
400.653	18898.30408
401.156	20764.8653
401.659	24481.40752
402.162	29938.15456
402.664	39554.38542
403.167	55973.26736
403.67	59770.48004
404.172	55487.84425
404.674	37291.05854
405.176	4428.40989
405.678	533.47942
406.18	0
406.682	0
407.184	6962.89417
407.686	50953.82939
408.187	59237.6763
408.688	61091.12691
409.19	61923.45898
409.691	57026.79647
410.192	48008.98325
410.693	41888.7758
411.194	37788.66965
411.694	35579.70949
412.195	33143.66483
412.696	29860.3951
413.196	27731.92194
413.696	26868.90644
414.196	27343.20787
414.696	26736.75289
415.196	25409.34433
415.696	22823.44272
416.196	18925.87234
416.695	14686.74068
417.195	12542.67041
417.694	11810.5416
418.194	11027.8711
418.693	10409.6198
419.192	10043.14764
419.691	9984.95582
420.19	9606.81588
420.688	9368.17789
421.187	8928.27381
421.685	8461.40701
422.184	7471.43518
422.682	6599.9427
423.18	5580.47338
423.678	4992.73318
424.176	4696.9267
424.674	4326.88323
425.172	4186.38858
425.669	3940.89641
426.167	3662.57852
426.664	3437.59039
427.161	3105.69261
427.659	2870.16654
428.156	2724.4126
428.652	2560.31322
429.149	2391.0501
429.646	2284.53971
430.143	2183.93545
430.639	2061.81533
431.135	1952.93651
431.632	1872.56542
432.128	1770.73279
432.624	1612.78794
433.12	1587.39682
433.616	1607.24636
434.111	1463.43136
434.607	1486.45172
435.103	1393.93938
435.598	1352.89067
436.093	1307.1658
436.588	1272.04929
437.083	1216.99155
437.578	1138.92948
438.073	1031.99282
438.568	1046.97809
439.062	1037.66561
439.557	898.66635
440.051	985.73093
440.546	916.65939
441.04	898.68949
441.534	976.98028
442.028	901.72958
442.522	860.67811
443.015	847.47308
443.509	880.75045
444.002	841.68713
444.496	755.31686
444.989	866.73375
445.482	788.6174
445.975	781.46288
446.468	747.3111
446.961	725.25576
447.454	684.26858
447.947	744.49197
448.439	788.60214
448.931	722.35184
449.424	674.41737
449.916	741.47603
450.408	648.2609
450.9	643.32688
451.392	637.38851
451.884	631.20533
452.375	635.33731
452.867	610.16373
453.358	543.04947
453.849	593.05988
454.341	598.14963
454.832	576.05729
455.323	597.25608
455.814	525.03742
456.304	586.14763
456.795	522.02014
457.285	546.0278
457.776	568.07979
458.266	575.18689
458.756	507.04864
459.247	547.12092
459.737	558.16437
460.226	535.03744
460.716	499.04866
461.206	459.96039
461.695	535.17724
462.185	477.99628
462.674	447.89387
463.163	487.92741
463.653	490.89302
464.142	466.98474
464.63	453.97885
465.119	449.92783
465.608	405.82603
466.096	427.82183
466.585	445.88988
467.073	371.78865
467.561	464.00131
468.05	397.81302
468.538	527.14456
469.026	439.94008
469.513	346.65262
470.001	381.77037
470.489	443.92733
470.976	402.82606
471.463	401.90721
471.951	355.80512
472.438	393.82959
472.925	254.54172
473.412	338.74491
473.899	379.78319
474.385	316.70839
474.872	321.67732
475.359	374.82424
475.845	340.62997
476.331	232.45823
476.817	272.60299
477.303	328.69011
477.789	297.65361
478.275	276.63398
478.761	282.62047
479.247	249.50878
479.732	273.63399
480.218	311.74442
480.703	312.72096
481.188	277.53723
481.673	268.56611
482.158	265.52182
482.643	267.62789
483.128	209.44081
483.612	280.59665
484.097	241.54572
484.581	192.40896
485.066	233.52288
485.55	172.34962
486.034	230.46538
486.518	224.49059
487.002	191.43954
487.486	212.48425
487.969	224.51805
488.453	224.53037
488.936	180.37773
489.42	215.4421
489.903	179.42506
490.386	212.42286
490.869	182.36218
491.352	163.37286
491.835	124.23802
492.318	171.36494
492.8	154.29474
493.283	229.54901
493.765	205.47552
494.247	138.30135
494.73	159.32975
495.212	146.33176
495.694	155.34198
496.175	119.26958
496.657	169.38269
497.139	70.10992
497.62	139.3154
498.102	166.39168
498.583	104.24568
499.064	177.37578
499.545	154.33044
500.026	125.26503
500.507	122.26551
500.988	124.2902
501.469	83.19831
501.949	76.17835
502.43	87.19749
502.91	127.24642
503.39	135.32033
503.87	153.34138
504.35	52.11658
504.83	101.21087
505.31	151.34833
505.79	102.23328
506.269	130.28556
506.749	78.17026
507.228	89.20006
507.707	110.23124
508.187	121.27188
508.666	47.11092
509.145	106.23608
509.623	66.14864
510.102	103.23722
510.581	137.30998
511.059	88.21423
511.538	103.25426
512.016	138.3151
512.494	63.14585
512.972	155.35171
513.45	90.2026
513.928	86.20064
514.406	137.32144
514.884	117.2921
515.361	120.27698
515.839	79.17182
516.316	106.24174
516.793	82.19888
517.27	92.21489
517.747	97.23971
518.224	109.23878
518.701	113.24022
519.178	124.29961
519.654	58.12982
520.131	68.16039
520.607	96.22801
521.083	83.18297
521.56	72.16268
522.036	112.23472
522.512	97.22884
522.987	76.17598
523.463	102.23309
523.939	86.20229
524.414	96.2099
524.89	55.1249
525.365	115.25075
525.84	119.27779
526.315	47.10872
526.79	81.17347
527.265	49.10634
527.74	51.11994
528.215	66.15046
528.689	120.25649
529.164	26.05345
529.638	99.2451
530.112	98.22449
530.587	136.27859
531.061	48.11278
531.534	68.15752
532.008	65.15162
532.482	41.08891
532.956	88.21974
533.429	1.0023
533.903	39.08244
534.376	48.10193
534.849	67.15024
535.322	77.17472
535.795	29.06881
536.268	76.17724
536.741	69.15936
537.213	101.22396
537.686	31.07285
538.158	61.13211
538.631	46.10728
539.103	62.13384
539.575	94.18584
540.047	73.15343
540.519	44.10075
540.991	51.11943
541.463	108.25147
541.934	86.18931
542.406	20.04657
542.877	54.11722
543.348	44.10014
543.82	101.23642
544.291	55.1216
544.762	51.11671
545.233	164.39491
545.703	109.23111
546.174	156.34512
546.645	90.21113
547.115	108.24998
547.585	110.24509
548.056	172.40095
548.526	115.25957
548.996	134.30659
549.466	105.24366
549.935	171.39006
550.405	180.37556
550.875	157.35089
551.344	163.37421
551.814	118.25407
552.283	128.26172
552.752	155.34112
553.221	150.30824
553.69	219.45581
554.159	172.40773
554.628	171.36003
555.096	138.33382
555.565	190.39589
556.033	240.52274
556.502	144.33039
556.97	166.34435
557.438	195.43419
557.906	184.41046
558.374	148.32099
558.842	175.39579
559.31	199.41271
559.777	193.44219
560.245	160.35013
560.712	128.2762
561.18	171.35369
561.647	169.35331
562.114	161.34673
562.581	200.46585
563.048	153.32809
563.514	154.36111
563.981	180.3849
564.448	191.40302
564.914	185.4027
565.381	190.39818
565.847	174.38141
566.313	199.4317
566.779	212.45116
567.245	180.39705
567.711	215.48645
568.176	245.52513
568.642	232.55016
569.108	183.42567
569.573	200.4347
570.038	271.52634
570.504	259.54506
570.969	201.47306
571.434	285.58076
571.899	227.50837
572.363	221.46817
572.828	264.55253
573.293	232.49673
573.757	216.46767
574.222	257.53943
574.686	247.51867
575.15	258.57339
575.614	253.53689
576.078	240.52385
576.542	258.54762
577.006	244.5161
577.469	250.57128
577.933	217.45004
578.396	238.53509
578.86	239.52067
579.323	178.40118
579.786	197.39577
580.249	235.50087
580.712	205.46704
581.175	233.53875
581.637	247.53399
582.1	191.38921
582.563	176.3424
583.025	215.48962
583.487	163.30661
583.95	183.37053
584.412	206.39809
584.874	117.27065
585.336	190.42543
585.797	155.31456
586.259	106.23402
586.721	202.44558
587.182	210.45002
587.643	183.38903
588.105	178.39872
588.566	162.31997
589.027	177.40781
589.488	132.28385
589.949	185.41671
590.41	186.34221
590.87	103.21906
591.331	157.31221
591.791	132.28483
592.252	97.21231
592.712	191.42987
593.172	141.3
593.632	177.35083
594.092	155.32462
594.552	170.33908
595.011	203.43943
595.471	167.35006
595.931	183.38004
596.39	193.43508
596.849	188.40844
597.308	195.39085
597.768	184.44189
598.227	188.42545
598.685	152.32221
599.144	220.47735
599.603	245.53646
600.062	144.28161
600.52	242.49975
600.978	269.59274
601.437	280.58342
601.895	246.47767
602.353	188.38301
602.811	255.51797
603.269	231.50987
603.727	279.61451
604.184	260.53909
604.642	256.57744
605.099	271.57383
605.557	267.59154
606.014	261.512
606.471	340.7844
606.928	396.78914
607.385	409.91249
607.842	388.807
608.299	358.74958
608.755	378.81874
609.212	453.8916
609.668	429.84794
610.125	446.9462
610.581	446.91109
611.037	440.87723
611.493	458.94282
611.949	490.03537
612.405	513.88696
612.861	485.97526
613.316	509.06924
613.772	536.06093
614.227	479.99247
614.683	555.00715
615.138	585.18973
615.593	507.01022
616.048	524.0134
616.503	523.1156
616.958	553.20366
617.412	525.07479
617.867	575.0971
618.321	530.90248
618.776	547.02691
619.23	542.1084
619.684	509.97779
620.138	504.98569
620.592	540.12675
621.046	521.04636
621.5	516.08421
621.954	550.04296
622.407	517.98216
622.861	442.93157
623.314	476.94239
623.768	461.94365
624.221	498.83927
624.674	465.92125
625.127	504.0203
625.58	484.9264
626.033	484.90177
626.485	464.96978
626.938	472.97251
627.39	461.93725
627.843	456.91039
628.295	466.93986
628.747	444.92716
629.199	487.9698
629.651	438.87486
630.103	445.89895
630.555	366.67477
631.006	453.92728
631.458	435.88479
631.909	446.88299
632.361	437.88076
632.812	447.90754
633.263	446.81982
633.714	461.83185
634.165	406.8512
634.616	457.94224
635.067	466.8734
635.518	489.99191
635.968	537.88904
636.419	475.86985
636.869	490.99825
637.319	576.12376
637.769	489.94797
638.219	573.13775
638.669	529.0913
639.119	571.18126
639.569	594.23248
640.019	616.18373
640.468	631.14422
640.918	631.27003
641.367	711.30271
641.816	690.26765
642.265	726.37006
642.714	729.38952
643.163	722.32855
643.612	802.5892
644.061	747.24608
644.51	810.48486
644.958	801.39803
645.406	869.66886
645.855	840.6522
646.303	927.67297
646.751	928.65561
647.199	926.59263
647.647	970.74765
648.095	980.70911
648.543	960.42733
648.99	1061.94268
649.438	1040.85978
649.885	1048.0209
650.333	1025.38683
650.78	1127.09348
651.227	1101.05009
651.674	1141.91847
652.121	1032.89846
652.568	1081.00183
653.015	1057.01353
653.461	1144.02515
653.908	1050.84405
654.354	1083.91556
654.801	1068.90313
655.247	1110.7628
655.693	1130.27382
656.139	1136.02755
656.585	1155.06845
657.031	1123.98139
657.477	1156.81637
657.922	1122.93808
658.368	1097.04564
658.813	1108.85318
659.259	1145.06619
659.704	1139.99096
660.149	1169.00078
660.594	1143.02598
661.039	1098.87944
661.484	1099.98118
661.929	1132.95748
662.373	1070.12929
662.818	1123.14372
663.262	1084.97445
663.707	1098.12763
664.151	1169.17174
664.595	1176.11749
665.039	1152.14903
665.483	1154.26711
665.927	1162.00198
666.371	1144.9898
666.814	1195.09452
667.258	1219.14789
667.701	1261.84362
668.145	1218.23573
668.588	1239.25231
669.031	1250.16002
669.474	1185.11047
669.917	1308.99082
670.36	1230.24208
670.803	1220.15022
671.245	1230.7864
671.688	1292.2659
672.13	1276.00508
672.573	1349.50601
673.015	1355.2913
673.457	1370.04821
673.899	1382.34161
674.341	1339.29815
674.783	1353.32353
675.225	1444.47873
675.666	1405.38782
676.108	1409.06245
676.549	1417.30316
676.991	1375.04408
677.432	1461.79862
677.873	1475.28403
678.314	1478.4024
678.755	1420.44375
679.196	1528.34158
679.637	1502.47831
680.078	1502.34577
680.518	1461.23988
680.959	1474.41181
681.399	1473.51211
681.839	1509.50289
682.28	1536.61675
682.72	1518.28268
683.16	1624.72663
683.6	1535.29004
684.039	1511.97294
684.479	1566.60734
684.919	1560.41068
685.358	1609.7456
685.798	1551.8191
686.237	1649.59177
686.676	1605.40001
687.115	1667.51169
687.554	1640.52832
687.993	1623.19913
688.432	1738.5007
688.871	1666.38231
689.309	1813.80408
689.748	1762.13976
690.186	1765.60026
690.625	1832.70133
691.063	1820.76081
691.501	1855.87982
691.939	1880.93673
692.377	1849.82104
692.815	1935.83787
693.253	1875.70042
693.69	1914.39856
694.128	1925.88927
694.565	2010.81852
695.003	2085.17728
695.44	2013.72016
695.877	2005.76496
696.314	2085.36023
696.751	2120.60693
697.188	2123.71885
697.625	2229.65243
698.061	2110.89407
698.498	2259.97654
698.934	2225.9016
699.371	2310.90868
699.807	2293.90112
700.243	2351.06737
700.679	2412.68977
701.115	2384.83423
701.551	2531.95763
701.987	2506.60296
702.422	2507.94901
702.858	2555.9383
703.294	2611.66807
703.729	2614.19002
704.164	2698.11629
704.599	2705.58525
705.035	2787.68015
705.47	2775.22606
705.904	2899.84508
706.339	2865.76055
706.774	3071.84203
707.209	2881.79357
707.643	3093.04229
708.078	3103.10479
708.512	3121.45696
708.946	3210.95202
709.38	3208.87807
709.814	3274.63058
710.248	3330.99676
710.682	3440.96568
711.116	3541.98008
711.549	3487.43154
711.983	3537.61372
712.416	3635.68605
712.85	3644.2282
713.283	3734.75052
713.716	3814.1023
714.149	3843.65337
714.582	3877.34427
715.015	3985.99481
715.448	3923.01913
715.881	3972.95839
716.313	4211.5085
716.746	4145.57581
717.178	4310.5606
717.61	4269.04456
718.043	4322.77776
718.475	4416.54933
718.907	4474.75557
719.339	4563.03288
719.77	4597.4437
720.202	4656.77733
720.634	4755.5087
721.065	4771.19385
721.497	4873.4447
721.928	4938.46076
722.359	4977.37687
722.79	5079.12541
723.221	5137.38671
723.652	5114.59993
724.083	5150.61809
724.514	5163.61925
724.945	5363.83658
725.375	5382.76619
725.806	5448.07528
726.236	5554.36819
726.666	5582.69345
727.096	5630.94156
727.526	5757.26084
727.956	5938.34183
728.386	5953.74997
728.816	5975.13107
729.246	6060.82424
729.675	6172.89179
730.105	6125.76424
730.534	6292.41921
730.964	6319.85007
731.393	6455.63022
731.822	6565.01074
732.251	6653.96326
732.68	6855.26398
733.109	6925.71533
733.537	6915.5575
733.966	7096.72744
734.395	7138.32009
734.823	7221.23301
735.251	7266.62698
735.68	7464.86008
736.108	7435.91227
736.536	7489.59421
736.964	7640.60069
737.392	7656.93237
737.82	7812.8521
738.247	7890.88918
738.675	7988.94636
739.102	8087.32949
739.53	8136.4464
739.957	8139.42327
740.384	8445.55599
740.811	8436.70293
741.238	8571.71831
741.665	8621.7342
742.092	8668.807
742.519	8628.89139
742.945	8850.1336
743.372	8927.33014
743.798	9098.68981
744.225	8921.24618
744.651	9009.47821
745.077	9133.70555
745.503	9181.77102
745.929	9339.1082
746.355	9433.32475
746.781	9405.26305
747.207	9458.38818
747.632	9539.57529
748.058	9533.56043
748.483	9607.81862
748.908	9897.50147
749.334	9791.22231
749.759	9873.52107
750.184	9880.51599
750.609	9991.80237
751.033	9992.92278
751.458	10009.03038
751.883	10049.96363
752.307	10126.25892
752.732	10056.92948
753.156	10149.2607
753.58	10272.78779
754.005	10162.23009
754.429	10008.97167
754.853	10117.1421
755.277	10192.48548
755.7	10152.26545
756.124	10230.47251
756.548	10133.28624
756.971	10257.65222
757.394	10067.94226
757.818	10131.11556
758.241	10065.96593
758.664	10058.92625
759.087	10078.22775
759.51	10048.93851
759.933	10005.8519
760.356	9956.63423
760.778	9968.6927
761.201	9774.2111
761.623	9763.18402
762.046	9645.90417
762.468	9597.73641
762.89	9562.63101
763.312	9355.14529
763.734	9362.16119
764.156	9257.94702
764.578	9209.82267
765	9238.89504
765.421	9120.74919
765.843	8924.46625
766.264	8816.06893
766.686	8817.19117
767.107	8577.7612
767.528	8640.97918
767.949	8517.788
768.37	8294.38731
768.791	8076.09902
769.212	7971.28458
769.632	7893.8228
770.053	7851.39061
770.473	7657.84161
770.894	7563.84745
771.314	7261.47402
771.734	7152.35827
772.154	7048.97037
772.575	7082.32071
772.994	7026.25432
773.414	6797.35789
773.834	6785.82204
774.254	6532.60549
774.673	6393.5868
775.093	6303.83846
775.512	6124.86166
775.931	6188.09154
776.351	5914.87999
776.77	5856.88459
777.189	5647.65302
777.607	5512.39911
778.026	5548.1945
778.445	5333.41767
778.864	5201.50878
779.282	4956.08905
779.701	4987.53977
780.119	4851.58126
780.537	4741.56951
780.955	4691.72801
781.373	4552.59899
781.791	4398.03859
782.209	4392.18925
782.627	4265.38043
783.045	4120.29218
783.462	4059.07662
783.88	3840.39486
784.297	3768.13347
784.715	3778.43896
785.132	3615.87837
785.549	3540.2642
785.966	3424.19516
786.383	3360.13418
786.8	3287.7059
787.217	3243.82586
787.633	3032.25523
788.05	2945.71375
788.466	2969.78507
788.883	2956.46273
789.299	2807.92856
789.715	2696.09376
790.131	2622.13884
790.547	2518.0585
790.963	2491.13872
791.379	2461.25854
791.795	2371.62287
792.21	2317.72854
792.626	2205.78206
793.041	2146.93544
793.457	2118.9348
793.872	2062.70146
794.287	2073.90256
794.702	2006.85318
795.117	1848.79242
795.532	1834.92123
795.947	1777.57263
796.362	1786.54569
796.776	1641.28161
797.191	1639.56855
797.605	1607.49055
798.02	1570.54328
798.434	1547.11903
798.848	1449.40924
799.262	1484.5653
799.676	1404.31043
800.09	1349.30069
800.504	1317.23147
800.918	1240.99847
801.331	1244.38043
801.745	1188.9153
802.158	1186.1692
802.572	1185.05962
802.985	1106.93158
803.398	1159.99958
803.811	1053.04943
804.224	1041.95187
804.637	941.67671
805.05	942.64783
805.462	899.71331
805.875	950.9957
806.288	876.68031
806.7	869.73135
807.112	816.47636
807.525	799.58951
807.937	758.52148
808.349	758.53268
808.761	665.32259
809.173	742.42769
809.584	718.4338
809.996	642.31325
810.408	606.33676
810.819	670.28769
811.231	608.37803
811.642	654.35052
812.053	619.24755
812.464	606.20983
812.875	615.33144
813.286	562.22975
813.697	510.96956
814.108	521.06514
814.519	525.95901
814.929	475.03407
815.34	493.01645
815.75	450.99833
816.16	400.85491
816.571	469.06368
816.981	389.78186
817.391	381.80038
817.801	450.98795
818.211	406.84368
818.62	340.71977
819.03	315.67661
819.44	350.81292
819.849	337.76058
820.259	346.79315
820.668	302.6745
821.077	308.68762
821.486	283.59845
821.895	226.49434
822.304	292.70414
822.713	263.55251
823.122	275.62321
823.531	283.60133
823.939	256.56327
824.348	283.61783
824.756	244.5506
825.164	262.58928
825.573	223.5103
825.981	264.59013
826.389	214.48192
826.797	222.50771
827.205	236.48408
827.612	200.44542
828.02	188.40583
828.428	151.35415
828.835	206.50204
829.243	196.42111
829.65	182.41707
830.057	217.48378
830.464	174.39361
830.871	181.39198
831.278	149.32695
831.685	175.34573
832.092	183.41203
832.499	130.25592
832.905	169.39621
833.312	148.30358
833.718	148.3378
834.124	112.23545
834.531	117.27215
834.937	128.30203
835.343	186.40909
835.749	73.15593
836.155	83.20391
836.561	78.17523
836.966	125.28087
837.372	85.20154
837.777	89.20539
838.183	23.04619
838.588	121.28057
838.993	88.19623
839.399	98.22142
839.804	111.25442
840.209	101.24307
840.613	133.27238
841.018	49.11537
841.423	63.15018
841.828	116.27244
842.232	73.16524
842.637	58.12494
843.041	106.25902
843.445	87.20149
843.849	42.09787
844.253	41.09001
844.657	75.17906
845.061	113.23509
845.465	136.31029
845.869	95.20196
846.272	83.18826
846.676	58.13153
847.079	105.25174
847.483	65.1512
847.886	57.12676
848.289	102.26113
848.692	49.1165
849.095	18.04009
849.498	42.09779
849.901	41.08632
850.304	59.13001
850.707	25.0601
851.109	25.05838
851.512	59.13708
851.914	79.19114
852.316	70.16684
852.718	39.09687
853.121	62.14225
853.523	67.14467
853.925	-3.0075
854.326	61.14536
854.728	50.12145
855.13	43.10603
855.531	54.12295
855.933	55.12252
856.334	51.12041
856.736	34.07003
857.137	59.12745
857.538	28.06661
857.939	29.06818
858.34	13.02959
858.741	52.12829
859.142	19.04306
859.542	90.22904
859.943	68.15977
860.343	52.12198
860.744	88.20045
861.144	54.12315
861.544	26.05987
861.945	13.03118
862.345	-29.06602
862.745	14.03291
863.145	21.04591
863.544	59.14205
863.944	80.17396
864.344	21.04839
864.743	46.10707
865.143	23.056
865.542	21.0453
865.941	58.13601
866.34	44.0986
866.74	35.08937
867.139	53.11953
867.537	11.02637
867.936	27.06132
868.335	61.14725
868.734	79.19178
869.132	89.19241
869.531	70.15687
869.929	20.04314
870.327	43.09638
870.726	26.06075
871.124	22.04751
871.522	15.03581
871.92	32.07398
872.318	94.21386
872.715	26.06018
873.113	6.01385
873.511	22.05187
873.908	41.10039
874.306	38.08939
874.703	57.13332
875.1	21.05041
875.497	-13.02923
875.894	22.05189
876.291	57.13201
876.688	26.06342
877.085	39.08688
877.482	34.07935
877.878	-33.07579
878.275	27.06454
878.671	-14.02817
879.068	18.04069
879.464	70.15797
879.86	53.11865
880.256	27.06166
880.652	-28.06791
881.048	1.00231
881.444	4.0088
881.84	-2.0048
882.236	74.17441
882.631	44.10148
883.027	-1.00224
883.422	26.06278
883.817	61.14603
884.213	-11.02698
884.608	70.16235
885.003	11.02508
885.398	-3.00713
885.793	-1.00237
886.188	32.07606
886.582	2.00476
886.977	69.15135
887.371	34.08091
887.766	45.10637
888.16	-4.00948
888.554	57.12986
888.949	-19.04458
889.343	-34.07764
889.737	52.13401
890.131	-3.00718
890.525	44.10563
890.918	59.14076
891.312	-66.14736
891.706	54.13523
892.099	23.05504
892.492	89.17467
892.886	-39.09015
893.279	17.04107
893.672	6.01457
894.065	27.06338
894.458	13.03084
894.851	27.06094
895.244	22.05332
895.637	47.10604
896.029	23.05287
896.422	45.10223
896.814	65.1515
897.206	-11.02509
897.599	-40.09178
897.991	80.18039
898.383	14.03084
898.775	-8.01683
899.167	50.10993
899.559	55.12975
899.951	7.01542
900.342	-6.0142
900.734	25.06005
901.125	-9.0223
901.517	1.00234
901.908	38.084
902.299	39.08993
902.69	15.03323
903.082	57.12845
903.473	36.08177
903.863	26.06353
904.254	16.03451
904.645	5.01155
905.036	31.07177
905.426	-17.03524
905.817	50.11468
906.207	-32.0728
906.597	1.00221
906.987	-3.00729
907.378	-37.08878
907.768	-2.00508
908.158	16.03683
908.547	54.13215
908.937	10.0242
909.327	21.04759
909.717	21.04975
910.106	42.09428
910.495	31.0733
910.885	-38.09015
911.274	59.13892
911.663	94.22464
912.052	29.06647
912.441	56.13531
912.83	36.07621
913.219	-5.0123
913.608	68.15489
913.997	-14.03335
914.385	12.0265
914.774	20.04548
915.162	-10.02234
915.55	2.00456
915.939	-13.03139
916.327	52.12141
916.715	30.07303
917.103	18.04123
917.491	19.04348
917.878	-46.10563
918.266	1.00246
918.654	81.19634
919.041	-25.06262
919.429	49.1082
919.816	22.05231
920.203	8.0183
920.591	18.04166
920.978	26.05951
921.365	-13.03242
921.752	27.06057
922.139	85.16942
922.525	-17.03857
922.912	59.13339
923.299	41.09627
923.685	28.06931
924.072	4.00849
924.458	55.12763
924.844	2.00467
925.231	-50.10932
925.617	72.17495
926.003	51.12251
926.389	52.12455
926.774	59.14102
927.16	23.05342
927.546	4.00975
927.931	13.03059
928.317	13.02731
928.702	42.09144
929.088	45.0997
929.473	32.07697
929.858	17.03953
930.243	44.09942
930.628	-15.03438
931.013	49.11551
931.398	35.07372
931.783	5.01252
932.167	-18.04138
932.552	-22.05155
932.937	7.01608
933.321	13.03067
933.705	55.13177
934.09	-11.02591
934.474	44.09698
934.858	16.03961
935.242	73.15904
935.626	4.00967
936.009	-19.04838
936.393	70.16863
936.777	27.06604
937.16	-36.08846
937.544	49.10653
937.927	12.02896
938.311	20.04535
938.694	8.02012
939.077	2.00446
939.46	63.14464
939.843	35.06535
940.226	-43.10494
940.609	2.00427
940.991	7.01689
941.374	-21.04831
941.757	39.08982
942.139	-16.03328
942.522	-14.03061
942.904	37.08338
943.286	16.038
943.668	71.17243
944.05	31.0716
944.432	23.05365
944.814	36.08214
945.196	-1.00234
945.578	-11.02504
945.959	93.20098
946.341	2.00452
946.722	48.10508
947.104	6.01333
947.485	19.0411
947.866	51.1219
948.247	33.07852
948.628	21.04763
949.009	36.08738
949.39	-2.0046
949.771	4.00861
950.152	41.09484
950.532	68.1617
950.913	-3.00672
951.293	9.02349
951.674	-10.0226
952.054	20.0469
952.434	-16.03728
952.814	-18.03956
953.194	63.15563
953.574	-19.04355
953.954	19.04224
954.334	36.08481
954.714	-15.03474
955.093	18.04094
955.473	-31.07316
955.853	40.09825
956.232	-8.02105
956.611	-12.0265
956.99	5.01196
957.37	25.06014
957.749	-7.01552
958.128	84.19982
958.506	32.07936
958.885	5.01187
959.264	22.0508
959.643	42.08864
960.021	17.03976
960.4	30.06412
960.778	11.02494
961.156	-6.01425
961.535	-23.04907
961.913	-44.09494
962.291	-7.01735
962.669	5.01205
963.047	-44.10587
963.424	21.05092
963.802	10.02288
964.18	33.07785
964.557	12.02526
964.935	75.16319
965.312	9.02245
965.69	42.09791
966.067	20.04526
966.444	51.11718
966.821	13.03152
967.198	9.02013
967.575	36.08177
967.952	22.04839
968.329	-17.03889
968.705	7.01358
969.082	52.1265
969.458	27.06159
969.835	39.08846
970.211	5.0122
970.587	39.09104
970.963	20.04836
971.339	7.01757
971.715	-28.06522
972.091	32.07357
972.467	-12.02779
972.843	-19.04477
973.219	36.07911
973.594	20.04974
973.97	5.01097
974.345	20.04475
974.721	43.0963
975.096	7.01574
975.471	44.09738
975.846	56.12617
976.221	-8.01934
976.596	13.02926
976.971	7.01629
977.346	21.04476
977.72	17.04082
978.095	4.00985
978.469	16.03583
978.844	9.02128
979.218	26.05896
979.593	29.065
979.967	56.12797
980.341	11.0234
980.715	-12.02849
981.089	-37.08712
981.463	67.14367
981.837	39.09004
982.21	11.02361
982.584	-21.04761
982.957	33.07821
983.331	62.13562
983.704	32.07433
984.078	10.02305
984.451	-39.08993
984.824	52.11936
985.197	-3.00683
985.57	-12.02819
985.943	30.06776
986.316	60.13695
986.688	34.07607
987.061	42.0902
987.434	30.07415
987.806	15.03387
988.179	1.00219
988.551	20.04741
988.923	53.12129
989.295	10.02346
989.667	84.19002
990.039	-7.01646
990.411	58.12456
990.783	8.01705
991.155	28.06412
991.527	18.04055
991.898	20.04655
992.27	9.02104
992.641	17.03989
993.012	81.17692
993.384	-34.07673
993.755	-16.03856
994.126	53.11885
994.497	-8.01852
994.868	53.11287
995.239	40.09111
995.61	-25.0596
995.98	56.12823
996.351	42.09837
996.722	11.02407
997.092	11.02472
997.462	2.00444
997.833	44.09629
998.203	40.08975
998.573	21.04968
998.943	-9.01954
999.313	30.06762
999.683	-29.06506
1000.053	14.03017
1000.423	57.12887
1000.792	1.00247
1001.162	11.02567
1001.531	39.09065
1001.901	0
1002.27	44.09123
1002.639	27.0654
1003.009	51.1145
1003.378	26.06292
1003.747	15.03294
1004.116	3.00679
1004.485	40.08971
1004.853	-21.05062
1005.222	45.10777
1005.591	11.02419
1005.959	39.08262
1006.328	10.02083
1006.696	38.08635
1007.064	-8.0191
1007.433	50.11766
1007.801	8.0183
1008.169	35.08235
1008.537	78.15833
1008.905	6.01315
1009.273	34.07854
1009.64	-18.0408
1010.008	-4.00892
1010.375	81.18133
1010.743	19.03969
1011.11	-29.06503
1011.478	12.02788
1011.845	41.08784
1012.212	12.02495
1012.579	19.04397
1012.946	24.05232
1013.313	40.08813
1013.68	4.00828
1014.047	36.08141
1014.414	16.03574
1014.78	32.07551
1015.147	0
1015.513	34.07789
1015.88	-10.02388
1016.246	84.19281
1016.612	63.13101
1016.978	-37.08566
1017.344	65.15162
1017.71	11.02456
1018.076	-1.0022
1018.442	12.02906
1018.808	-8.01896
1019.174	0
1019.539	31.06383
1019.905	43.09499
1020.27	19.0446
1020.636	54.11982
1021.001	28.06205
1021.366	55.12546
1021.731	38.09255
1022.096	-2.00483
1022.461	-11.02413
1022.826	15.03341
1023.191	16.03991
1023.556	-13.02813
1023.92	15.03417
1024.285	-4.00914
1024.649	12.02765
1025.014	54.12454
1025.378	54.1287
1025.742	4.00935
1026.107	32.06594
1026.471	-15.03201
1026.835	-49.1143
1027.199	26.05898
1027.562	36.07821
1027.926	29.06604
1028.29	30.07175
1028.654	5.01059
1029.017	52.11969
1029.381	45.10066
1029.744	28.06789
1030.107	-7.01521
1030.471	20.04454
1030.834	-47.09861
1031.197	23.05083
1031.56	55.12176
1031.923	19.04642
1032.286	56.12053
1032.648	45.09916
1033.011	0
1033.374	-9.01949
1033.736	-36.09068
1034.099	29.06661
1034.461	7.0169
1034.823	-27.06347
1035.185	-16.03755
1035.548	49.11078
1035.91	48.10788
1036.272	60.1258
1036.634	-7.01589
1036.995	10.02222
1037.357	-7.01611
1037.719	37.08385
1038.08	20.04338
1038.442	96.21451
1038.803	-8.01791
1039.165	-30.07221
1039.526	26.05882
1039.887	20.04511
1040.248	27.06397
1040.609	46.10588
1040.97	46.1047
1041.331	15.03514
1041.692	22.04839
1042.053	19.03963
1042.413	-27.0583
1042.774	-12.02733
1043.134	25.0547
1043.495	9.02116
1043.855	8.01824
1044.215	14.03256
1044.576	13.02939
1044.936	56.11897
1045.296	8.01869
1045.656	41.09386
1046.016	8.01782
1046.375	6.01381
1046.735	43.09141
1047.095	30.06543
1047.454	74.14142
1047.814	4.00894
1048.173	9.01968
1048.533	39.08327
1048.892	-38.08726
1049.251	6.01421
1049.61	0
1049.969	47.1037
1050.328	-40.0796
1050.687	14.03186
1051.046	28.0644
1051.405	-35.08145
1051.763	16.03447
1052.122	-13.03109
1052.48	20.04565
1052.839	0
1053.197	23.05056
1053.555	-29.05939
1053.914	28.06373
1054.272	45.10074
1054.63	17.03873
1054.988	-28.06257
1055.345	6.01174
1055.703	5.01115
1056.061	-23.05644
1056.419	9.02223
1056.776	0
1057.134	-11.02375
1057.491	-41.09736
1057.848	19.04411
1058.206	-8.0176
1058.563	41.08412
1058.92	29.06114
1059.277	29.06562
1059.634	12.02569
1059.991	78.17336
1060.348	37.07814
1060.704	27.06025
1061.061	33.06914
1061.418	18.04123
1061.774	83.19322
1062.131	26.06682
1062.487	10.02162
1062.843	14.03279
1063.199	56.13096
1063.555	60.12952
1063.911	17.04026
1064.267	-2.00371
1064.623	37.08505
1064.979	9.01932
1065.335	18.03937
1065.691	61.13695
1066.046	-10.02018
1066.402	20.0421
1066.757	20.04763
1067.112	-2.00456
1067.468	32.0718
1067.823	38.0854
1068.178	30.06825
1068.533	-1.00226
1068.888	30.0659
1069.243	55.12733
1069.598	4.00896
1069.952	49.10389
1070.307	54.12722
1070.662	-18.0404
1071.016	40.08368
1071.371	28.05865
1071.725	-37.08109
1072.079	39.08709
1072.434	10.02276
1072.788	51.11365
1073.142	90.20683
1073.496	0
1073.85	9.01939
1074.203	15.03391
1074.557	0
1074.911	13.02859
1075.265	13.02773
1075.618	45.10286
1075.971	2.00443
1076.325	35.08375
1076.678	-10.02139
1077.031	49.1018
1077.385	75.15179
1077.738	-16.03386
1078.091	63.13416
1078.444	-17.03638
1078.796	46.10622
1079.149	-26.06037
1079.502	19.04203
1079.855	49.10644
1080.207	60.137
1080.56	19.04639
1080.912	-18.0406
1081.264	46.10292
1081.617	13.02983
1081.969	30.07273
1082.321	73.16544
1082.673	30.06446
1083.025	9.01976
1083.377	-282.58419
1083.728	-23.04919
1084.08	44.10358
1084.432	-9.0199
1084.783	105.22749
1085.135	38.09081
1085.486	50.10673
1085.838	33.0761
1086.189	23.05221
1086.54	-1.00224
1086.891	70.16799
1087.242	13.02941
1087.593	30.06748
1087.944	22.0459
1088.295	3.00625
1088.646	15.03415
1088.996	-25.05675
1089.347	16.03655
1089.698	11.02461
1090.048	30.07287
1090.398	67.14392
1090.749	17.03815
1091.099	39.09322
1091.449	-3.00699
1091.799	32.07495
1092.149	45.10521
1092.499	21.04821
1092.849	42.10049
1093.199	-4.00941
1093.548	-5.01138
1093.898	21.04958
1094.248	9.02187
1094.597	5.0123
1094.947	8.02028
1095.296	-5.01158
1095.645	25.06112
1095.994	37.08331
1096.343	61.1453
1096.692	44.11059
1097.041	28.07284
1097.39	5.01178
1097.739	41.10099
1098.088	-18.04553
1098.437	-8.02017
1098.785	18.04591
1099.134	3.00747
1099.482	1.00261
1099.83	30.07421
1100.179	28.07032
1100.527	7.01756
1100.875	-32.08109
1101.223	25.06361
1101.571	-8.02137
1101.919	16.04014
1102.267	27.07383
1102.615	15.04814
1102.962	7.02245
1103.31	19.06091
1103.658	5.01602
