Data from N3 R7 sample 7_Subt2__5__16-54-56-410.txt Node

Date: Fri Sep 19 16:54:56 PDT 2025
User: uwsun
Spectrometer: HDX01956
Trigger mode: 0
Integration Time (sec): 5.000000E-1
Scans to average: 1
Nonlinearity correction enabled: true
Boxcar width: 0
Storing dark spectrum: false
XAxis mode: Wavelengths
Number of Pixels in Spectrum: 2068
>>>>>Begin Spectral Data<<<<<
194.03	53.15272
194.578	68.21945
195.127	57.18172
195.676	42.13402
196.225	61.15958
196.773	91.25065
197.321	108.29658
197.87	149.37629
198.418	198.50065
198.966	180.46484
199.513	167.41783
200.061	128.32008
200.609	173.44607
201.156	131.27715
201.704	119.29462
202.251	133.34745
202.798	143.36693
203.345	170.41091
203.892	137.33905
204.438	169.39404
204.985	139.32562
205.532	232.60511
206.078	159.38251
206.624	190.45855
207.17	150.34002
207.716	111.26369
208.262	191.3614
208.808	173.42123
209.354	140.33469
209.899	148.3642
210.445	172.42231
210.99	135.32132
211.535	182.41489
212.08	172.38782
212.625	200.48523
213.17	189.46396
213.715	170.37327
214.259	209.47307
214.804	145.3483
215.348	157.34944
215.892	160.37635
216.436	181.40886
216.98	177.37496
217.524	169.38876
218.068	184.44993
218.612	141.34409
219.155	180.41017
219.698	118.27291
220.242	168.40561
220.785	126.28886
221.328	198.47804
221.871	155.38191
222.414	139.33287
222.956	130.30841
223.499	181.39231
224.041	141.31409
224.583	149.3086
225.126	178.38507
225.668	156.36952
226.21	105.25929
226.751	94.19891
227.293	114.25158
227.835	140.33149
228.376	142.31441
228.918	174.42469
229.459	161.39494
230	119.27648
230.541	162.3581
231.082	123.29164
231.622	160.35663
232.163	179.42391
232.704	113.2736
233.244	137.33108
233.784	175.41011
234.324	194.41537
234.864	132.28922
235.404	141.32189
235.944	153.34745
236.484	155.37062
237.023	172.39432
237.563	129.28974
238.102	175.39837
238.641	159.3935
239.18	172.39162
239.719	150.36925
240.258	161.34658
240.797	167.38876
241.335	112.26397
241.874	156.29077
242.412	136.31641
242.95	153.35856
243.488	159.35095
244.026	153.34294
244.564	187.36666
245.102	176.38074
245.64	134.31287
246.177	150.32256
246.715	154.35333
247.252	113.24984
247.789	62.1076
248.326	109.25345
248.863	140.29522
249.4	259.56352
249.936	179.35081
250.473	150.34015
251.009	162.36259
251.546	175.37267
252.082	172.36588
252.618	199.42838
253.154	184.42605
253.69	110.24072
254.226	171.39242
254.761	140.29989
255.297	157.33317
255.832	134.30646
256.367	171.38612
256.903	152.31968
257.438	163.36505
257.972	134.28641
258.507	182.40701
259.042	124.25515
259.576	188.38964
260.111	178.39346
260.645	210.43465
261.179	161.36042
261.713	141.30131
262.247	192.4299
262.781	171.34719
263.315	173.41002
263.849	149.36212
264.382	133.29455
264.915	222.50076
265.449	133.31778
265.982	142.30838
266.515	175.41252
267.048	205.41622
267.58	137.284
268.113	189.3946
268.646	197.47266
269.178	141.30562
269.71	176.3664
270.243	212.46137
270.775	165.4076
271.307	131.30171
271.838	187.42293
272.37	145.3483
272.902	198.43438
273.433	152.31827
273.965	206.48775
274.496	163.38766
275.027	185.44015
275.558	167.39106
276.089	183.44458
276.62	148.36393
277.15	155.36949
277.681	102.21149
278.211	222.51566
278.741	161.34643
279.272	177.3897
279.802	198.4775
280.332	157.35928
280.861	206.47548
281.391	183.39699
281.921	145.33382
282.45	181.44268
282.98	186.47098
283.509	186.401
284.038	171.36843
284.567	162.35765
285.096	180.42076
285.625	230.50521
286.153	148.33535
286.682	173.37818
287.21	191.442
287.739	138.31434
288.267	207.48415
288.795	196.4963
289.323	208.47359
289.851	217.48317
290.378	197.42462
290.906	186.43819
291.433	176.42525
291.961	135.29486
292.488	211.50528
293.015	233.52911
293.542	226.54707
294.069	186.44125
294.596	219.51903
295.122	195.44856
295.649	292.61085
296.175	178.41036
296.702	171.39619
297.228	213.48742
297.754	185.39825
298.28	197.42772
298.806	268.6161
299.332	149.31951
299.857	221.4741
300.383	200.48287
300.908	207.4887
301.433	211.49582
301.958	180.39273
302.483	281.67647
303.008	202.47644
303.533	171.42397
304.058	256.57036
304.582	232.52545
305.107	214.54284
305.631	182.39558
306.155	223.50291
306.679	228.51177
307.203	216.48204
307.727	284.64216
308.251	249.58556
308.775	211.48032
309.298	245.56627
309.822	228.55171
310.345	245.55387
310.868	244.55644
311.391	246.57682
311.914	193.46887
312.437	214.46235
312.96	294.65772
313.482	316.7081
314.005	216.52228
314.527	253.63913
315.049	284.67708
315.571	291.62668
316.093	298.70446
316.615	300.69048
317.137	272.55364
317.659	252.57608
318.18	288.65995
318.702	288.63526
319.223	275.53131
319.744	323.68303
320.265	316.72672
320.786	316.74064
321.307	302.7164
321.828	322.69061
322.348	268.60426
322.869	232.51604
323.389	526.86432
323.909	301.65295
324.43	323.72602
324.95	335.72329
325.47	352.81724
325.989	376.84356
326.509	318.66171
327.029	314.66705
327.548	295.63147
328.067	346.78296
328.587	351.82442
329.106	335.7112
329.625	340.82729
330.144	361.76873
330.662	352.76438
331.181	371.81198
331.7	388.84219
332.218	413.83163
332.736	351.76205
333.255	392.84652
333.773	381.84265
334.291	395.90671
334.808	355.73162
335.326	479.98493
335.844	425.92425
336.361	442.03249
336.879	407.87759
337.396	409.90344
337.913	398.84253
338.43	495.0192
338.947	485.05364
339.464	443.86617
339.981	466.0168
340.497	453.02983
341.014	433.96522
341.53	524.07637
342.046	508.13806
342.562	531.19722
343.078	469.00325
343.594	505.10229
344.11	564.1967
344.626	517.19216
345.141	547.12749
345.657	525.05392
346.172	540.16512
346.687	535.10864
347.202	596.18322
347.717	577.23364
348.232	567.27954
348.747	595.2123
349.261	630.23396
349.776	576.19827
350.29	570.2735
350.805	601.31105
351.319	630.29682
351.833	590.19855
352.347	585.20108
352.861	601.24398
353.374	597.20369
353.888	591.26143
354.401	609.23356
354.915	627.24516
355.428	658.45037
355.941	664.35893
356.454	676.31235
356.967	670.3904
357.48	629.26367
357.993	676.45649
358.505	678.47329
359.018	676.42907
359.53	653.37587
360.042	620.18399
360.554	693.45258
361.066	733.53584
361.578	748.39855
362.09	705.45825
362.602	724.36494
363.113	648.29023
363.625	743.44367
364.136	768.42327
364.647	688.3935
365.158	738.48197
365.669	786.63577
366.18	737.45036
366.691	784.45659
367.201	764.54835
367.712	752.4317
368.222	782.5423
368.733	814.4922
369.243	793.45035
369.753	817.57186
370.263	802.60103
370.773	815.71382
371.282	889.74502
371.792	902.68872
372.301	861.74873
372.811	870.91317
373.32	843.4692
373.829	985.90197
374.338	964.72354
374.847	1014.84386
375.356	1037.99012
375.865	1099.79159
376.373	1109.95458
376.882	1144.28208
377.39	1226.26954
377.898	1152.24943
378.407	1196.00639
378.915	1268.98886
379.423	1384.38775
379.93	1407.26012
380.438	1466.59127
380.946	1566.53533
381.453	1625.67192
381.96	1719.71223
382.468	1781.77301
382.975	1978.0474
383.482	1991.67414
383.989	1943.21338
384.495	2043.80258
385.002	2154.46066
385.509	2225.91116
386.015	2467.35097
386.521	2534.76281
387.028	2713.85334
387.534	2674.59025
388.04	2846.04996
388.546	2956.68004
389.051	2999.60646
389.557	3309.84986
390.063	3584.76009
390.568	3615.86774
391.073	3707.49459
391.578	3881.80022
392.084	3938.2251
392.589	4165.03579
393.093	4403.28831
393.598	4864.78542
394.103	5390.77312
394.607	5828.49575
395.112	6282.54815
395.616	6574.34936
396.12	7174.20357
396.624	8069.88962
397.128	8519.51903
397.632	9550.7143
398.136	10370.42015
398.639	10959.77973
399.143	12104.53591
399.646	13870.31262
400.15	15353.04422
400.653	16882.03236
401.156	19097.11774
401.659	22289.08985
402.162	27224.59543
402.664	36013.87276
403.167	50788.68362
403.67	59245.27624
404.172	55487.84425
404.674	37291.05854
405.176	4428.40989
405.678	533.47942
406.18	0
406.682	0
407.184	6962.89417
407.686	50953.82939
408.187	59237.6763
408.688	61091.12691
409.19	61923.45898
409.691	51858.98854
410.192	44046.42328
410.693	38347.7864
411.194	34460.86041
411.694	32674.95249
412.195	30300.41231
412.696	27132.5203
413.196	25438.25505
413.696	24723.58534
414.196	24796.37322
414.696	24645.97067
415.196	23208.69083
415.696	21327.73661
416.196	17163.67759
416.695	13228.02547
417.195	11434.09049
417.694	10742.73063
418.194	10213.25068
418.693	9338.17117
419.192	9213.83364
419.691	9099.57811
420.19	8765.92173
420.688	8566.64502
421.187	8194.85907
421.685	7614.47696
422.184	6837.21663
422.682	5993.00631
423.18	5159.68054
423.678	4486.01902
424.176	4128.24215
424.674	3910.10636
425.172	3779.58486
425.669	3553.04305
426.167	3275.70909
426.664	3044.6921
427.161	2807.73032
427.659	2726.1575
428.156	2503.41818
428.652	2184.16524
429.149	2196.97719
429.646	2048.47006
430.143	2007.84672
430.639	1885.71508
431.135	1716.7574
431.632	1646.41453
432.128	1581.57192
432.624	1481.64822
433.12	1432.25996
433.616	1377.06186
434.111	1373.33686
434.607	1307.26078
435.103	1210.78093
435.598	1231.78622
436.093	1166.00572
436.588	1104.86256
437.083	1052.80044
437.578	1039.80803
438.073	898.79043
438.568	920.79281
439.062	893.49204
439.557	876.63431
440.051	875.58134
440.546	809.50499
441.04	728.42624
441.534	808.7017
442.028	780.54051
442.522	749.49959
443.015	745.33017
443.509	796.61401
444.002	722.48779
444.496	643.15419
444.989	751.54311
445.482	625.32949
445.975	706.34658
446.468	666.19342
446.961	647.14353
447.454	609.15029
447.947	640.31388
448.439	692.43739
448.931	581.12521
449.424	570.22575
449.916	601.23565
450.408	601.18234
450.9	568.19157
451.392	591.30064
451.884	517.01441
452.375	494.07209
452.867	561.08278
453.358	461.90991
453.849	542.98282
454.341	568.09972
454.832	496.93009
455.323	477.02963
455.814	492.98136
456.304	522.03751
456.795	426.85287
457.285	438.84767
457.776	479.93169
458.266	518.08268
458.756	477.99496
459.247	414.87525
459.737	480.01863
460.226	463.91472
460.716	437.93256
461.206	383.81486
461.695	453.0136
462.185	414.87678
462.674	377.76613
463.163	366.71748
463.653	449.82679
464.142	421.89842
464.63	404.88213
465.119	415.86411
465.608	363.74743
466.096	355.69509
466.585	331.6794
467.073	355.75727
467.561	416.90872
468.05	338.70144
468.538	392.87728
469.026	350.76392
469.513	332.62837
470.001	349.71084
470.489	327.70208
470.976	350.72764
471.463	387.87803
471.951	328.74797
472.438	280.60572
472.925	256.54574
473.412	249.55901
473.899	276.58352
474.385	298.67052
474.872	270.57609
475.359	235.533
475.845	258.48782
476.331	198.3942
476.817	251.55887
477.303	217.46773
477.789	263.58292
478.275	256.5904
478.761	254.56215
479.247	218.44858
479.732	256.59651
480.218	276.66507
480.703	309.71445
481.188	201.39691
481.673	214.4574
482.158	209.41697
482.643	197.4696
483.128	182.38614
483.612	120.26459
484.097	158.36382
484.581	151.3245
485.066	205.4627
485.55	154.31431
486.034	275.55069
486.518	171.3787
487.002	183.4218
487.486	176.40494
487.969	178.41543
488.453	195.4643
488.936	159.33521
489.42	156.32505
489.903	161.38364
490.386	208.41527
490.869	113.22848
491.352	173.39494
491.835	154.29346
492.318	137.29454
492.8	130.25026
493.283	134.32707
493.765	149.34946
494.247	118.25877
494.73	135.28148
495.212	151.34277
495.694	122.27103
496.175	94.21403
496.657	158.35859
497.139	106.16472
497.62	163.36805
498.102	146.34583
498.583	134.31471
499.064	156.33271
499.545	112.2425
500.026	128.27122
500.507	92.2015
500.988	136.31753
501.469	83.19831
501.949	86.20143
502.43	71.16169
502.91	145.28014
503.39	142.33649
503.87	139.31104
504.35	83.18489
504.83	104.21699
505.31	98.22845
505.79	109.24894
506.269	146.31963
506.749	70.15305
507.228	84.18902
507.707	124.25987
508.187	130.29157
508.666	41.09688
509.145	36.08134
509.623	58.13083
510.102	78.18054
510.581	107.24358
511.059	141.33985
511.538	108.26636
512.016	136.31066
512.494	99.22756
512.972	119.27199
513.45	102.22905
513.928	122.28261
514.406	158.36919
514.884	159.39393
515.361	201.45645
515.839	124.26711
516.316	108.24621
516.793	109.26302
517.27	138.31942
517.747	161.39318
518.224	121.26439
518.701	181.37907
519.178	182.43493
519.654	126.27806
520.131	113.2642
520.607	140.3297
521.083	137.2986
521.56	110.24661
522.036	141.2936
522.512	163.3796
522.987	127.2911
523.463	145.32848
523.939	123.28724
524.414	141.30536
524.89	83.18742
525.365	138.29943
525.84	195.44838
526.315	77.17706
526.79	94.20074
527.265	120.25649
527.74	51.11994
528.215	107.24191
528.689	143.30413
529.164	101.20413
529.638	104.25725
530.112	144.32681
530.587	138.28255
531.061	118.27345
531.534	114.26167
532.008	117.27011
532.482	52.11249
532.956	114.28332
533.429	30.06858
533.903	123.25521
534.376	146.3034
534.849	130.28772
535.322	121.27211
535.795	120.27974
536.268	152.34917
536.741	108.2475
537.213	115.25426
537.686	60.1402
538.158	129.27531
538.631	93.21488
539.103	105.22458
539.575	139.2719
540.047	113.2354
540.519	119.26838
540.991	123.28396
541.463	168.38654
541.934	174.37594
542.406	157.35566
542.877	202.42464
543.348	126.28201
543.82	202.46346
544.291	155.33553
544.762	128.28838
545.233	201.4806
545.703	176.3677
546.174	253.54836
546.645	217.49637
547.115	236.53233
547.585	261.56329
548.056	271.61938
548.526	219.48379
548.996	245.548
549.466	242.54631
549.935	303.67268
550.405	312.63187
550.875	268.58521
551.344	274.61501
551.814	256.53484
552.283	308.60406
552.752	332.70345
553.221	310.61402
553.69	340.68857
554.159	379.86233
554.628	360.72641
555.096	320.74737
555.565	381.76013
556.033	322.68912
556.502	307.68128
556.97	341.67969
557.438	382.81751
557.906	381.81519
558.374	359.74352
558.842	342.74709
559.31	382.75982
559.777	365.80727
560.245	387.80617
560.712	326.67352
561.18	389.76527
561.647	385.76632
562.114	376.77228
562.581	408.9112
563.048	356.72989
563.514	447.98776
563.981	417.84586
564.448	449.89371
564.914	436.89834
565.381	404.80658
565.847	415.86334
566.313	473.96602
566.779	487.97431
567.245	479.99026
567.711	505.07295
568.176	519.04473
568.642	474.06917
569.108	507.10152
569.573	512.037
570.038	558.00824
570.504	565.10722
570.969	498.10188
571.434	567.07971
571.899	539.1274
572.363	558.09322
572.828	518.02141
573.293	578.14316
573.757	591.17519
574.222	586.13897
574.686	569.10823
575.15	544.13511
575.614	611.19358
576.078	535.09282
576.542	562.11197
577.006	537.06118
577.469	536.15203
577.933	458.89869
578.396	565.18292
578.86	527.07597
579.323	492.03551
579.786	473.8898
580.249	494.99358
580.712	487.04407
581.175	456.00544
581.637	513.04401
582.1	444.85271
582.563	382.70675
583.025	404.88475
583.487	384.68313
583.95	381.73647
584.412	378.70039
584.874	349.76996
585.336	392.84108
585.797	385.74028
586.259	315.66495
586.721	309.6663
587.182	305.64017
587.643	345.70749
588.105	319.69376
588.566	363.68318
589.027	337.75157
589.488	359.73421
589.949	304.66803
590.41	301.53781
590.87	308.62577
591.331	277.53543
591.791	239.50386
592.252	241.51143
592.712	283.62489
593.172	282.58157
593.632	239.46685
594.092	273.55681
594.552	218.42997
595.011	283.60212
595.471	230.4754
595.931	249.50948
596.39	254.56543
596.849	232.49931
597.308	285.55935
597.768	230.54752
598.227	277.61548
598.685	259.53618
599.144	268.57554
599.603	293.63505
600.062	256.48736
600.52	285.58287
600.978	274.60312
601.437	277.57755
601.895	254.49226
602.353	292.5808
602.811	276.55794
603.269	282.61578
603.727	287.63107
604.184	230.48009
604.642	303.67688
605.099	285.60162
605.557	318.69702
606.014	307.5957
606.471	334.77148
606.928	394.78552
607.385	384.86115
607.842	422.87106
608.299	383.79748
608.755	377.81674
609.212	402.80072
609.668	404.80321
610.125	432.9193
610.581	399.82377
611.037	461.91461
611.493	387.8094
611.949	386.8357
612.405	465.8142
612.861	375.77318
613.316	428.91673
613.772	417.84973
614.227	402.84728
614.683	457.85124
615.138	478.99726
615.593	394.80706
616.048	456.89772
616.503	444.96494
616.958	397.89414
617.412	381.80673
617.867	420.83268
618.321	402.70811
618.776	476.91064
619.23	424.89168
619.684	362.72004
620.138	431.85749
620.592	397.85603
621.046	387.80259
621.5	412.88703
621.954	393.77496
622.407	419.81497
622.861	352.75657
623.314	411.82608
623.768	384.79974
624.221	418.71975
624.674	358.72702
625.127	367.76757
625.58	314.62573
626.033	364.69838
626.485	285.6193
626.938	347.73506
627.39	348.72574
627.843	298.61678
628.295	353.73044
628.747	365.77556
629.199	368.75312
629.651	333.68134
630.103	356.73385
630.555	328.61047
631.006	299.63339
631.458	239.50785
631.909	371.7474
632.361	251.52753
632.812	286.60201
633.263	263.50568
633.714	266.50393
634.165	213.46561
634.616	275.59019
635.067	234.4637
635.518	278.5911
635.968	349.60782
636.419	300.57363
636.869	281.59969
637.319	313.64971
637.769	324.65287
638.219	331.69535
638.669	312.67609
639.119	335.73072
639.569	380.82728
640.019	352.72038
640.468	293.57777
640.918	291.63233
641.367	350.70039
641.816	352.70243
642.265	378.77499
642.714	424.8689
643.163	322.65272
643.612	365.79784
644.061	349.64649
644.51	381.77461
644.958	420.80739
645.406	420.89454
645.855	397.863
646.303	421.85866
646.751	399.80972
647.199	372.7351
647.647	470.95576
648.095	435.86827
648.543	426.73667
648.99	455.96087
649.438	501.01908
649.885	481.05291
650.333	442.71327
650.78	491.05538
651.227	451.97619
651.674	489.9688
652.121	467.98145
652.568	455.97518
653.015	439.9628
653.461	468.9751
653.908	518.03529
654.354	448.92389
654.801	469.96568
655.247	494.9236
655.693	452.05011
656.139	511.05835
656.585	486.01927
657.031	495.01509
657.477	462.87231
657.922	495.99812
658.368	489.04837
658.813	432.85687
659.259	482.01621
659.704	484.9923
660.149	427.87723
660.594	451.94407
661.039	471.9423
661.484	461.96713
661.929	455.92884
662.373	474.07309
662.818	459.01608
663.262	441.93457
663.707	404.91343
664.151	436.95843
664.595	419.90152
665.039	428.94243
665.483	434.998
665.927	441.9068
666.371	423.87645
666.814	434.91351
667.258	470.99101
667.701	427.78548
668.145	444.97437
668.588	441.96474
669.031	442.92871
669.474	418.89299
669.917	441.84511
670.36	413.90922
670.803	458.96868
671.245	433.78491
671.688	481.02187
672.13	406.79966
672.573	471.06434
673.015	411.87366
673.457	460.8779
673.899	439.93439
674.341	433.92403
674.783	450.96009
675.225	426.93095
675.666	420.90425
676.108	452.85761
676.549	490.00278
676.991	407.78409
677.432	408.69202
677.873	414.8415
678.314	471.98288
678.755	459.99308
679.196	460.92861
679.637	427.91518
680.078	441.90231
680.518	373.75696
680.959	425.89988
681.399	391.86152
681.839	459.98247
682.28	456.00124
682.72	370.74967
683.16	451.99993
683.6	481.94761
684.039	430.76856
684.479	419.91817
684.919	448.91933
685.358	409.92342
685.798	368.86955
686.237	450.95343
686.676	431.87426
687.115	423.87645
687.554	430.89992
687.993	408.77525
688.432	491.98277
688.871	390.7826
689.309	483.03726
689.748	455.81472
690.186	413.86147
690.625	514.06244
691.063	457.97608
691.501	412.91025
691.939	407.90878
692.377	394.86176
692.815	441.94477
693.253	353.75137
693.69	417.79949
694.128	418.91308
694.565	405.86054
695.003	411.93852
695.44	376.78413
695.877	465.96261
696.314	418.77762
696.751	411.81617
697.188	392.80405
697.625	402.80184
698.061	385.82624
698.498	433.92323
698.934	312.67349
699.371	378.8002
699.807	388.81921
700.243	405.87964
700.679	421.83486
701.115	383.79287
701.551	431.90061
701.987	401.7807
702.422	368.77903
702.858	368.77597
703.294	381.75518
703.729	413.90502
704.164	405.8744
704.599	359.70226
705.035	339.68042
705.47	363.80587
705.904	371.76528
706.339	351.71492
706.774	355.73721
707.209	325.6704
707.643	344.74288
708.078	316.6941
708.512	397.90911
708.946	329.70394
709.38	354.7435
709.814	322.65302
710.248	298.64961
710.682	338.73023
711.116	317.69293
711.549	306.71636
711.983	367.7458
712.416	290.61097
712.85	343.77854
713.283	339.71875
713.716	357.80012
714.149	327.68937
714.582	378.74941
715.015	312.70201
715.448	239.54559
715.881	298.56594
716.313	378.79215
716.746	345.73211
717.178	270.58858
717.61	294.68099
718.043	294.65881
718.475	325.70501
718.907	255.5807
719.339	279.57112
719.77	302.65777
720.202	277.63844
720.634	290.64744
721.065	299.63699
721.497	319.7082
721.928	288.64829
722.359	271.6069
722.79	224.49266
723.221	259.58957
723.652	306.70878
724.083	248.50387
724.514	258.5237
724.945	224.48271
725.375	264.55864
725.806	209.47115
726.236	244.5728
726.666	284.6007
727.096	231.5152
727.526	233.54773
727.956	244.50253
728.386	204.45395
728.816	183.43255
729.246	260.58191
729.675	278.62988
730.105	225.50431
730.534	224.47794
730.964	226.51769
731.393	198.44279
731.822	247.58199
732.251	207.48927
732.68	247.51157
733.109	226.51269
733.537	211.4667
733.966	164.37643
734.395	219.45581
734.823	239.48059
735.251	224.49431
735.68	230.52431
736.108	183.42634
736.536	213.45793
736.964	190.40135
737.392	169.3886
737.82	196.42872
738.247	201.43603
738.675	186.401
739.102	249.57666
739.53	178.42569
739.957	146.34917
740.384	147.33152
740.811	229.53623
741.238	205.45532
741.665	187.40445
742.092	153.33318
742.519	187.4336
742.945	153.33926
743.372	214.48902
743.798	185.44049
744.225	172.37527
744.651	114.26659
745.077	165.38138
745.503	163.36415
745.929	171.37586
746.355	171.38407
746.781	135.31092
747.207	200.43673
747.632	182.41322
748.058	109.25194
748.483	169.3519
748.908	136.31491
749.334	117.26818
749.759	129.28092
750.184	144.31751
750.609	128.29074
751.033	120.25705
751.458	212.43446
751.883	134.30646
752.307	144.31924
752.732	130.30865
753.156	170.38785
753.58	161.34986
754.005	169.40178
754.429	88.18997
754.853	148.3427
755.277	155.34126
755.7	115.26592
756.124	154.36055
756.548	110.24509
756.971	147.33071
757.394	143.34415
757.818	106.25921
758.241	94.22309
758.664	121.28988
759.087	155.32548
759.51	122.2835
759.933	85.19389
760.356	108.25987
760.778	175.40578
761.201	82.18331
761.623	66.1476
762.046	80.17233
762.468	140.30947
762.89	112.25811
763.312	123.27706
763.734	126.28376
764.156	86.20064
764.578	112.23545
765	137.31048
765.421	102.24943
765.843	127.31465
766.264	112.24933
766.686	142.33571
767.107	127.29098
767.528	109.26322
767.949	80.19213
768.37	71.16339
768.791	90.20244
769.212	74.17921
769.632	40.0879
770.053	94.23515
770.473	75.17219
770.894	65.15138
771.314	57.12608
771.734	38.08291
772.154	72.17535
772.575	95.20398
772.994	58.12408
773.414	18.03997
773.834	74.17603
774.254	93.21205
774.673	49.11195
775.093	72.16963
775.512	78.18269
775.931	135.32391
776.351	13.03057
776.77	58.13484
777.189	57.12634
777.607	63.15329
778.026	86.2034
778.445	36.08718
778.864	82.19731
779.282	30.06764
779.701	44.10543
780.119	30.07175
780.537	57.13431
780.955	40.09618
781.373	49.11448
781.791	58.12295
782.209	62.13441
782.627	49.12397
783.045	26.05642
783.462	3.00729
783.88	18.0449
784.297	-1.00241
784.715	57.14159
785.132	41.09375
785.549	46.11077
785.966	36.08564
786.383	23.05424
786.8	50.10919
787.217	63.13976
787.633	2.00479
788.05	10.02179
788.466	30.06598
788.883	44.10796
789.299	21.0474
789.715	80.18399
790.131	12.02825
790.547	-3.00701
790.963	55.12905
791.379	28.0676
791.795	17.03642
792.21	33.07229
792.626	16.03586
793.041	-6.01403
793.457	19.04434
793.872	73.16086
794.287	68.15683
794.702	29.06722
795.117	-1.00235
795.532	67.16082
795.947	32.07171
796.362	37.08211
796.776	28.05941
797.191	2.00463
797.605	47.10639
798.02	22.05127
798.434	35.07191
798.848	-17.03973
799.262	56.13362
799.676	2.00458
800.09	1.00233
800.504	36.08227
800.918	-18.03942
801.331	18.04464
801.745	14.03013
802.158	37.08736
802.572	44.0997
802.985	9.02028
803.398	40.08968
803.811	60.14443
804.224	19.04462
804.637	-92.20795
805.05	10.02181
805.462	24.05549
805.875	47.11832
806.288	55.12647
806.7	-12.02881
807.112	12.02619
807.525	62.14459
807.937	2.00472
808.349	16.03787
808.761	-8.01842
809.173	-30.0685
809.584	63.14504
809.996	21.04904
810.408	-24.05995
810.819	29.06441
811.231	4.01018
811.642	57.13358
812.053	64.14561
812.464	79.17722
812.875	65.15738
813.286	-14.03439
813.697	10.02133
814.108	-9.02064
814.519	20.04121
814.929	48.11414
815.34	-14.0322
815.75	-2.00485
816.16	-37.08654
816.571	35.0865
816.981	-11.02415
817.391	-1.00228
817.801	44.10483
818.211	5.01132
818.62	-29.06634
819.03	32.07292
819.44	10.02478
819.849	34.08147
820.259	55.13342
820.668	66.15458
821.077	18.04259
821.486	-10.0225
821.895	-16.03678
822.304	17.04312
822.713	16.03544
823.122	41.09733
823.531	61.13588
823.939	37.08515
824.348	77.17543
824.756	-19.04517
825.164	6.0142
825.573	26.06185
825.981	27.0633
826.389	-26.06142
826.797	15.03573
827.205	15.0323
827.612	-6.01393
828.02	30.06695
828.428	-36.08751
828.835	-11.02789
829.243	13.02903
829.65	-16.03812
830.057	71.16307
830.464	23.05363
830.871	48.1069
831.278	3.00679
831.685	35.07142
832.092	45.10418
832.499	29.05845
832.905	33.07942
833.312	37.0778
833.718	15.03515
834.124	39.08331
834.531	15.03559
834.937	-15.03637
835.343	19.04325
835.749	69.14751
836.155	9.02241
836.561	-61.14094
836.966	5.01151
837.372	27.06473
837.777	-10.02353
838.183	-3.00606
838.588	40.09424
838.993	44.09901
839.399	-3.00692
839.804	-4.00938
840.209	16.03913
840.613	86.178
841.018	-29.06932
841.423	-23.05573
841.828	13.03114
842.232	-17.03919
842.637	-46.1013
843.041	72.17705
843.445	-16.03781
843.849	36.08399
844.253	-39.08706
844.657	40.09614
845.061	-13.0278
845.465	41.09533
845.869	26.0561
846.272	-14.03238
846.676	48.10907
847.079	43.10431
847.483	31.07259
847.886	5.01124
848.289	27.07003
848.692	19.04543
849.095	24.05339
849.498	2.00469
849.901	21.04441
850.304	29.06431
850.707	27.06488
851.109	-28.06607
851.512	40.09328
851.914	39.09507
852.316	28.06727
852.718	32.07959
853.121	19.04397
853.523	-58.12859
853.925	-3.0075
854.326	20.04803
854.728	-5.01227
855.13	21.05199
855.531	58.13196
855.933	39.08716
856.334	16.03803
856.736	-26.05427
857.137	-17.03732
857.538	4.00956
857.939	17.04006
858.34	18.04094
858.741	-4.00997
859.142	20.04532
859.542	71.18129
859.943	37.08746
860.343	7.01657
860.744	24.05538
861.144	68.15464
861.544	84.19118
861.945	12.02879
862.345	-2.00453
862.745	-12.02835
863.145	-2.00439
863.544	57.13729
863.944	9.01987
864.344	22.05068
864.743	60.13926
865.143	49.11873
865.542	1.00217
865.941	45.10579
866.34	71.15823
866.74	-8.02058
867.139	4.00911
867.537	-11.02648
867.936	38.0861
868.335	47.11376
868.734	68.16542
869.132	70.15195
869.531	46.10359
869.929	16.03454
870.327	7.01581
870.726	27.06308
871.124	28.06039
871.522	6.01435
871.92	44.10148
872.318	32.07372
872.715	-3.00698
873.113	20.04604
873.511	14.03306
873.908	-14.03463
874.306	18.04251
874.703	-28.06658
875.1	-25.06053
875.497	39.08677
875.894	36.08468
876.291	49.11367
876.688	20.04884
877.085	52.11552
877.482	-3.00705
877.878	45.10174
878.275	4.0096
878.671	-23.04638
879.068	30.06764
879.464	29.06599
879.86	52.11644
880.256	35.07981
880.652	-27.06547
881.048	-14.03242
881.444	3.0066
881.84	-22.053
882.236	31.07367
882.631	9.0209
883.027	-17.03821
883.422	-20.04871
883.817	21.05066
884.213	-15.03682
884.608	19.04451
885.003	35.07942
885.398	11.02606
885.793	-14.03321
886.188	-4.00957
886.582	-31.0743
886.977	22.04873
887.371	-6.01439
887.766	20.0475
888.16	35.08231
888.554	35.0801
888.949	33.07664
889.343	-17.03868
889.737	15.03891
890.131	29.06903
890.525	43.10325
890.918	5.01205
891.312	-37.08211
891.706	57.14267
892.099	23.05504
892.492	37.07351
892.886	-3.00688
893.279	17.04107
893.672	-24.0586
894.065	0
894.458	17.04029
894.851	12.02717
895.244	1.00243
895.637	11.025
896.029	-3.00693
896.422	13.02973
896.814	53.12382
897.206	12.02725
897.599	17.03856
897.991	30.06834
898.383	6.01324
898.775	-10.02104
899.167	32.07062
899.559	40.09464
899.951	15.03298
900.342	-7.01657
900.734	39.09343
901.125	11.02715
901.517	51.11793
901.908	27.05982
902.299	31.0716
902.69	56.12301
903.082	18.04089
903.473	31.07049
903.863	29.07082
904.254	-10.02169
904.645	14.03229
905.036	7.01628
905.426	9.01855
905.817	21.04844
906.207	-35.07968
906.597	15.03303
906.987	-10.02432
907.378	-7.0167
907.768	23.05813
908.158	38.08708
908.547	8.01974
908.937	23.05552
909.327	1.00228
909.717	34.08035
910.106	32.07198
910.495	57.13411
910.885	-3.00707
911.274	20.04745
911.663	36.08699
912.052	8.01841
912.441	86.20662
912.83	16.03402
913.219	-7.01723
913.608	2.00462
913.997	-14.03335
914.385	-26.05788
914.774	28.06357
915.162	4.00891
915.55	81.18163
915.939	7.01684
916.327	21.04933
916.715	16.03905
917.103	42.09575
917.491	-27.06236
917.878	19.04306
918.266	40.09774
918.654	34.08314
919.041	-31.07773
919.429	25.05548
919.816	-17.04073
920.203	67.15141
920.591	-39.09129
920.978	-4.00921
921.365	-27.06751
921.752	-24.0544
922.139	36.07257
922.525	-1.00226
922.912	41.09303
923.299	-36.0858
923.685	10.02484
924.072	-12.02556
924.458	30.06996
924.844	7.01633
925.231	-22.04782
925.617	41.10021
926.003	54.12964
926.389	19.0458
926.774	21.05056
927.16	11.02561
927.546	-10.02444
927.931	31.07268
928.317	22.04613
928.702	-24.05299
929.088	4.00894
929.473	-12.0291
929.858	32.07419
930.243	8.01821
930.628	20.04552
931.013	30.07098
931.398	1.00212
931.783	-4.01004
932.167	-46.10635
932.552	-1.00233
932.937	-9.02075
933.321	-11.02607
933.705	55.13177
934.09	-7.01648
934.474	39.08605
934.858	-5.01242
935.242	69.15045
935.626	2.00484
936.009	4.01014
936.393	64.15435
936.777	34.08305
937.16	-43.1058
937.544	16.03503
937.927	15.03618
938.311	40.09034
938.694	39.09755
939.077	-20.04482
939.46	57.13102
939.843	25.04679
940.226	3.00726
940.609	-14.02996
940.991	-19.04607
941.374	-14.03216
941.757	55.12627
942.139	-36.07521
942.522	0
942.904	36.08114
943.286	-43.10329
943.668	20.04904
944.05	58.13324
944.432	32.07451
944.814	6.01377
945.196	-12.02811
945.578	16.03622
945.959	-6.01324
946.341	3.00678
946.722	7.01546
947.104	-13.02899
947.485	6.01301
947.866	5.01206
948.247	14.03343
948.628	-18.04115
949.009	-53.13079
949.39	-34.07873
949.771	30.06423
950.152	-5.01167
950.532	62.1476
950.913	-4.00896
951.293	15.03911
951.674	-3.00677
952.054	-24.05676
952.434	-44.1031
952.814	-16.03515
953.194	51.12627
953.574	23.05227
953.954	11.02449
954.334	32.07545
954.714	11.02534
955.093	30.06806
955.473	-36.08504
955.853	3.00742
956.232	0
956.611	-29.06428
956.99	29.06903
957.37	-1.00242
957.749	25.05507
958.128	21.05056
958.506	50.12359
958.885	-1.00238
959.264	21.0485
959.643	55.11575
960.021	45.10468
960.4	47.10009
960.778	-10.02277
961.156	4.00948
961.535	-42.08997
961.913	-2.00428
962.291	35.08608
962.669	0
963.047	-46.11073
963.424	46.11102
963.802	-7.01607
964.18	51.1199
964.557	-22.04666
964.935	45.09854
965.312	35.08688
965.69	7.01643
966.067	-17.03876
966.444	58.13308
966.821	7.01699
967.198	-3.00673
967.575	4.00914
967.952	39.08547
968.329	17.03862
968.705	79.15065
969.082	39.0951
969.458	36.08197
969.835	4.00914
970.211	-24.05886
970.587	9.02113
970.963	51.1226
971.339	-2.00503
971.715	-16.03718
972.091	3.00694
972.467	-28.06504
972.843	14.03278
973.219	28.06164
973.594	-28.07025
973.97	26.0568
974.345	-28.06326
974.721	10.02255
975.096	-23.05202
975.471	55.12145
975.846	41.09266
976.221	15.0361
976.596	40.08953
976.971	46.10622
977.346	-9.01931
977.72	4.00963
978.095	46.1124
978.469	2.00449
978.844	18.04249
979.218	-37.08498
979.593	31.06946
979.967	48.10987
980.341	14.02977
980.715	8.01892
981.089	-32.07527
981.463	48.10335
981.837	4.0093
982.21	44.09376
982.584	18.04049
982.957	2.00477
983.331	19.04194
983.704	7.01634
984.078	-26.06035
984.451	-7.01604
984.824	62.14203
985.197	-3.00683
985.57	-6.01408
985.943	-13.02962
986.316	-2.00462
986.688	20.04488
987.061	-26.05666
987.434	25.06185
987.806	-23.05234
988.179	-2.00439
988.551	7.01664
988.923	-28.06512
989.295	34.07939
989.667	40.0913
990.039	28.06538
990.411	55.1182
990.783	40.08468
991.155	18.0413
991.527	7.01581
991.898	-30.07051
992.27	8.01871
992.641	27.06323
993.012	78.17047
993.384	33.07345
993.755	-18.04339
994.126	33.0743
994.497	-4.00925
994.868	41.08754
995.239	36.08207
995.61	-41.09804
995.98	19.04383
996.351	35.08209
996.722	14.03061
997.092	29.06492
997.462	15.03322
997.833	-14.03101
998.203	10.02258
998.573	34.08023
998.943	-42.09183
999.313	38.08551
999.683	10.02225
1000.053	60.12802
1000.423	13.02965
1000.792	8.01972
1001.162	51.11807
1001.531	78.1799
1001.901	-44.10386
1002.27	82.16858
1002.639	5.01216
1003.009	52.11672
1003.378	18.04362
1003.747	-11.02429
1004.116	35.07874
1004.485	22.04953
1004.853	59.14005
1005.222	35.08398
1005.591	30.06571
1005.959	26.05524
1006.328	-8.01673
1006.696	23.05242
1007.064	24.05694
1007.433	66.15483
1007.801	33.07509
1008.169	1.00237
1008.537	47.09608
1008.905	9.01971
1009.273	48.11057
1009.64	-6.01357
1010.008	27.05985
1010.375	38.08582
1010.743	-8.01681
1011.11	38.08403
1011.478	4.00931
1011.845	14.03017
1012.212	14.02909
1012.579	23.05318
1012.946	20.04364
1013.313	51.1121
1013.68	-1.00207
1014.047	18.04085
1014.414	21.04686
1014.78	53.12455
1015.147	0
1015.513	94.21273
1015.88	15.03565
1016.246	39.09033
1016.612	-20.04236
1016.978	15.03437
1017.344	68.15852
1017.71	-11.02468
1018.076	14.0307
1018.442	28.0676
1018.808	26.06123
1019.174	-2.00471
1019.539	49.10049
1019.905	74.16242
1020.27	48.11203
1020.636	59.13077
1021.001	31.06866
1021.366	31.07106
1021.731	28.06832
1022.096	2.00483
1022.461	-30.06607
1022.826	21.04672
1023.191	30.07464
1023.556	-10.02162
1023.92	-13.02979
1024.285	65.14653
1024.649	30.06889
1025.014	41.09481
1025.378	40.09559
1025.742	-6.01406
1026.107	1.00207
1026.471	-15.03201
1026.835	-37.0861
1027.199	17.03864
1027.562	31.06742
1027.926	27.06151
1028.29	3.00721
1028.654	10.02116
1029.017	35.08084
1029.381	13.02927
1029.744	-1.00244
1030.107	-45.09854
1030.471	-28.06298
1030.834	-9.01872
1031.197	-17.03789
1031.56	104.22787
1031.923	-4.00981
1032.286	8.0174
1032.648	39.08605
1033.011	0
1033.374	10.02157
1033.736	-29.07295
1034.099	31.07117
1034.461	11.02654
1034.823	-24.05639
1035.185	-6.01405
1035.548	-2.00457
1035.91	20.04521
1036.272	-13.0277
1036.634	21.0474
1036.995	54.11887
1037.357	13.0298
1037.719	1.00228
1038.08	12.02607
1038.442	82.18376
1038.803	-17.03812
1039.165	-25.06012
1039.526	-3.00683
1039.887	20.04511
1040.248	47.11092
1040.609	46.10588
1040.97	-12.02763
1041.331	-34.08041
1041.692	-6.01327
1042.053	17.03548
1042.413	11.02356
1042.774	-11.02505
1043.134	-6.01321
1043.495	-6.01415
1043.855	10.02279
1044.215	29.06724
1044.576	-14.03183
1044.936	46.09794
1045.296	17.03964
1045.656	-10.02313
1046.016	-5.01117
1046.375	6.01381
1046.735	32.06819
1047.095	23.05024
1047.454	-12.02341
1047.814	-10.02242
1048.173	-30.06615
1048.533	49.10439
1048.892	-1.00228
1049.251	44.10342
1049.61	-56.12967
1049.969	27.05982
1050.328	-70.14027
1050.687	10.02278
1051.046	73.16638
1051.405	-8.01852
1051.763	7.01511
1052.122	59.13914
1052.48	-7.01606
1052.839	-37.08235
1053.197	65.14161
1053.555	-39.08005
1053.914	-4.00916
1054.272	-6.01357
1054.63	-12.0275
1054.988	-16.03566
1055.345	1.00196
1055.703	-32.07192
1056.061	16.03898
1056.419	-6.01486
1056.776	25.05634
1057.134	-1.00215
1057.491	56.13049
1057.848	0
1058.206	11.0241
1058.563	51.1044
1058.92	-4.00849
1059.277	-8.01824
1059.634	-14.03014
1059.991	82.1821
1060.348	39.08233
1060.704	30.0669
1061.061	0
1061.418	-6.01381
1061.774	79.18405
1062.131	76.19362
1062.487	-39.08522
1062.843	33.077
1063.199	5.01181
1063.555	45.09746
1063.911	-17.04053
1064.267	-27.05046
1064.623	27.06219
1064.979	-46.0999
1065.335	9.01972
1065.691	76.1701
1066.046	2.00402
1066.402	-2.00423
1066.757	10.02386
1067.112	-2.00456
1067.468	15.03377
1067.823	18.04062
1068.178	37.08406
1068.533	-49.11164
1068.888	-26.05779
1069.243	36.08366
1069.598	-33.07452
1069.952	20.04267
1070.307	40.09449
1070.662	31.06888
1071.016	9.01896
1071.371	-4.00844
1071.725	-47.10322
1072.079	16.0359
1072.434	-27.06191
1072.788	56.12467
1073.142	26.06052
1073.496	8.01778
1073.85	16.03442
1074.203	8.01811
1074.557	15.03825
1074.911	4.00881
1075.265	-41.08849
1075.618	9.02072
1075.971	25.05507
1076.325	-17.04108
1076.678	-13.02783
1077.031	-37.07835
1077.385	73.14781
1077.738	66.13716
1078.091	1.00216
1078.444	2.00426
1078.796	13.03022
1079.149	-30.06972
1079.502	10.02216
1079.855	58.12574
1080.207	27.06206
1080.56	-14.03439
1080.912	-35.07923
1081.264	19.04275
1081.617	23.05268
1081.969	54.13033
1082.321	15.0344
1082.673	29.06232
1083.025	-18.03974
1083.377	-255.52506
1083.728	-8.01705
1084.08	30.07082
1084.432	-53.11826
1084.783	57.12476
1085.135	34.08132
1085.486	16.03441
1085.838	-9.02093
1086.189	-13.02973
1086.54	4.00894
1086.891	78.1869
1087.242	-1.00227
1087.593	5.0113
1087.944	4.00838
1088.295	11.02288
1088.646	28.06357
1088.996	-50.11408
1089.347	-20.04602
1089.698	19.04243
1090.048	22.05352
1090.398	53.11419
1090.749	21.04709
1091.099	4.00962
1091.449	-26.0609
1091.799	-18.04257
1092.149	51.1191
1092.499	-1.00231
1092.849	-18.04356
1093.199	15.03514
1093.548	7.0159
1093.898	36.08475
1094.248	26.06297
1094.597	19.04663
1094.947	-38.09712
1095.296	-27.06281
1095.645	-2.00491
1095.994	33.07436
1096.343	65.15471
1096.692	0
1097.041	-14.03668
1097.39	30.07035
1097.739	-12.02985
1098.088	2.00504
1098.437	-42.10655
1098.785	7.01789
1099.134	-1.00249
1099.482	-15.03924
1099.83	22.0545
1100.179	18.04529
1100.527	-4.01005
1100.875	0
1101.223	-7.01791
1101.571	6.01599
1101.919	-22.05557
1102.267	29.07927
1102.615	3.00964
1102.962	3.00963
1103.31	6.01926
1103.658	-3.00962
