Data from N3 R7 sample 10_Subt2__0__16-57-47-906.txt Node

Date: Fri Sep 19 16:57:47 PDT 2025
User: uwsun
Spectrometer: HDX01956
Trigger mode: 0
Integration Time (sec): 5.000000E-1
Scans to average: 1
Nonlinearity correction enabled: true
Boxcar width: 0
Storing dark spectrum: false
XAxis mode: Wavelengths
Number of Pixels in Spectrum: 2068
>>>>>Begin Spectral Data<<<<<
194.03	45.12982
194.578	74.23865
195.127	66.21019
195.676	47.14988
196.225	60.15699
196.773	97.26692
197.321	124.33964
197.87	134.33932
198.418	202.5104
198.966	222.56911
199.513	221.54752
200.061	145.36148
200.609	157.40594
201.156	185.38676
201.704	150.36925
202.251	180.46645
202.798	195.49579
203.345	215.51525
203.892	173.42532
204.438	168.39178
204.985	186.43171
205.532	231.60261
206.078	163.39183
206.624	173.41887
207.17	151.34221
207.716	120.28458
208.262	200.3776
208.808	185.44943
209.354	172.40867
209.899	190.46391
210.445	207.50495
210.99	133.31668
211.535	210.47601
212.08	234.52092
212.625	138.33871
213.17	208.5088
213.715	176.38595
214.259	237.53339
214.804	179.42719
215.348	198.43694
215.892	200.46677
216.436	232.5186
216.98	178.377
217.524	217.49438
218.068	211.51336
218.612	166.4032
219.155	205.46477
219.698	177.40456
220.242	211.50528
220.785	181.41036
221.328	180.43606
221.871	186.45567
222.414	116.27901
222.956	196.45905
223.499	197.42553
224.041	158.35072
224.583	163.33654
225.126	212.45529
225.668	154.36492
226.21	173.42186
226.751	145.30341
227.293	162.35391
227.835	143.3384
228.376	153.33799
228.918	168.41051
229.459	181.44235
230	161.37095
230.541	170.37515
231.082	188.44014
231.622	142.31769
232.163	149.35491
232.704	175.41876
233.244	131.31694
233.784	167.39198
234.324	185.39687
234.864	138.30199
235.404	145.33075
235.944	146.33202
236.484	130.31233
237.023	171.3921
237.563	184.4086
238.102	115.26497
238.641	193.47466
239.18	157.35856
239.719	197.48074
240.258	162.34866
240.797	207.47807
241.335	149.34864
241.874	204.3757
242.412	183.4218
242.95	190.44204
243.488	216.47107
244.026	164.36676
244.564	181.3554
245.102	208.44689
245.64	171.39635
246.177	200.42544
246.715	187.42621
247.252	146.32057
247.789	150.25424
248.326	167.38385
248.863	204.42412
249.4	220.48264
249.936	183.35831
250.473	167.37739
251.009	182.40567
251.546	189.40126
252.082	213.44905
252.618	210.45099
253.154	174.4037
253.69	185.39842
254.226	173.39685
254.761	155.33094
255.297	190.4003
255.832	148.33753
256.367	172.3883
256.903	213.44194
257.438	149.33466
257.972	147.31331
258.507	239.52818
259.042	125.25715
259.576	207.42719
260.111	188.4147
260.645	224.46217
261.179	159.35609
261.713	133.28471
262.247	196.4385
262.781	210.42257
263.315	177.41918
263.849	192.46285
264.382	196.42836
264.915	197.44664
265.449	175.41476
265.982	171.36906
266.515	161.38055
267.048	219.44322
267.58	162.33395
268.113	229.47386
268.646	186.4472
269.178	196.41984
269.71	202.41809
270.243	196.428
270.775	202.4956
271.307	173.3951
271.838	233.52202
272.37	196.46623
272.902	248.53833
273.433	206.42618
273.965	242.56899
274.496	154.36689
275.027	196.46533
275.558	197.45859
276.089	196.475
276.62	177.4329
277.15	192.45443
277.681	149.3057
278.211	176.41254
278.741	195.41652
279.272	218.47583
279.802	211.50759
280.332	231.52074
280.861	213.49095
281.391	157.34248
281.921	190.43348
282.45	283.67896
282.98	245.61384
283.509	173.37401
284.038	187.40151
284.567	195.42753
285.096	263.60473
285.625	242.53023
286.153	183.41169
286.682	182.39709
287.21	225.51715
287.739	185.41739
288.267	235.54661
288.795	249.62453
289.323	239.54075
289.851	236.52341
290.378	224.48002
290.906	176.41544
291.433	205.4926
291.961	161.34971
292.488	182.43825
293.015	268.60426
293.542	250.60243
294.069	262.61241
294.596	268.62913
295.122	250.56874
295.649	250.52786
296.175	175.40369
296.702	245.55929
297.228	230.52452
297.754	251.53265
298.28	188.40896
298.806	210.48837
299.332	228.48057
299.857	215.46183
300.383	233.55902
300.908	253.59196
301.433	279.64689
301.958	210.45527
302.483	252.61
303.008	240.56187
303.533	203.50035
304.058	228.51093
304.582	264.59402
305.107	234.59145
305.631	271.57785
306.155	283.63038
306.679	214.48173
307.203	270.59581
307.727	274.62081
308.251	266.62347
308.775	235.53235
309.298	239.55306
309.822	252.60701
310.345	305.68106
310.868	254.57808
311.391	261.61019
311.914	297.70739
312.437	249.53393
312.96	322.7162
313.482	296.66602
314.005	257.61659
314.527	289.72536
315.049	259.62045
315.571	306.65686
316.093	353.82555
316.615	326.74641
317.137	286.58027
317.659	309.69825
318.18	336.7625
318.702	363.7881
319.223	328.62566
319.744	328.69284
320.265	327.75036
320.786	315.73844
321.307	356.83567
321.828	356.75792
322.348	347.76971
322.869	299.6558
323.389	321.55756
323.909	359.76912
324.43	359.80096
324.95	405.86129
325.47	382.88162
325.989	412.91747
326.509	378.77604
327.029	356.74935
327.548	377.79267
328.067	390.8746
328.587	435.00278
329.106	354.74842
329.625	390.94003
330.144	368.78244
330.662	435.92789
331.181	425.91954
331.7	377.82023
332.218	509.00057
332.736	451.95826
333.255	391.84454
333.773	463.00448
334.291	442.00295
334.808	404.82343
335.326	463.95547
335.844	514.09471
336.361	485.12359
336.879	449.95941
337.396	465.01311
337.913	516.06229
338.43	480.99343
338.947	494.07118
339.464	513.98643
339.981	519.11998
340.497	539.20439
341.014	508.11282
341.53	546.11609
342.046	494.10982
342.562	565.26517
343.078	559.17292
343.594	538.16626
344.11	585.23565
344.626	570.3007
345.141	589.20278
345.657	594.17376
346.172	542.16895
346.687	602.22909
347.202	595.18151
347.717	635.34083
348.232	633.40947
348.747	631.27527
349.261	661.28532
349.776	659.34595
350.29	614.3595
350.805	637.37912
351.319	652.33554
351.833	660.31964
352.347	585.20108
352.861	735.47628
353.374	658.30835
353.888	649.36803
354.401	726.4317
354.915	711.38468
355.428	755.63068
355.941	737.4837
356.454	748.42752
356.967	717.47251
357.48	714.40668
357.993	743.57805
358.505	753.61041
359.018	745.55139
359.53	776.59131
360.042	755.39531
360.554	780.60384
361.066	714.50225
361.578	858.5612
362.09	778.58322
362.602	758.41728
363.113	754.46473
363.625	836.58882
364.136	867.56764
364.647	820.61129
365.158	861.68046
365.669	873.78198
366.18	864.65009
366.691	912.64124
367.201	829.65538
367.712	796.49947
368.222	926.76528
368.733	933.65985
369.243	873.56488
369.753	934.74703
370.263	948.82911
370.773	940.92276
371.282	981.8843
371.792	975.79294
372.301	1033.01517
372.811	1016.16447
373.32	998.66946
373.829	1049.99486
374.338	1125.92942
374.847	1087.94057
375.356	1181.18761
375.865	1303.00502
376.373	1235.1053
376.882	1287.48354
377.39	1307.37161
377.898	1411.58938
378.407	1342.16406
378.915	1452.15908
379.423	1589.59649
379.93	1567.40688
380.438	1671.80089
380.946	1790.72263
381.453	1785.80959
381.96	1907.85338
382.468	2003.92711
382.975	2138.14765
383.482	2223.77332
383.989	2285.44215
384.495	2349.92677
385.002	2440.5159
385.509	2497.99313
386.015	2771.33709
386.521	2888.76787
387.028	2995.84058
387.534	3143.52727
388.04	3213.01644
388.546	3310.60311
389.051	3419.49637
389.557	3658.73783
390.063	3977.59471
390.568	4083.66799
391.073	4262.22215
391.578	4298.59814
392.084	4492.92576
392.589	4729.71895
393.093	4962.97263
393.598	5508.45098
394.103	5981.51807
394.607	6591.32113
395.112	7047.51611
395.616	7487.55049
396.12	8162.98591
396.624	9005.37773
397.128	9655.94613
397.632	10797.13746
398.136	11661.44619
398.639	12356.42908
399.143	13922.67708
399.646	15610.22133
400.15	17456.58313
400.653	19234.95487
401.156	21556.35561
401.659	25151.6385
402.162	30793.72075
402.664	40813.09881
403.167	57566.24111
403.67	59949.86504
404.172	55487.84425
404.674	37291.05854
405.176	4428.40989
405.678	533.47942
406.18	0
406.682	0
407.184	6962.89417
407.686	50953.82939
408.187	59237.6763
408.688	61091.12691
409.19	61923.45898
409.691	59153.47728
410.192	49535.99612
410.693	42853.05591
411.194	38761.03681
411.694	36505.07822
412.195	34283.12728
412.696	30835.16382
413.196	28625.1
413.696	27808.39265
414.196	27871.4827
414.696	27401.01718
415.196	26090.34933
415.696	23979.94183
416.196	19308.16688
416.695	14943.25903
417.195	12888.06703
417.694	12109.44947
418.194	11444.06661
418.693	10668.67297
419.192	10334.16019
419.691	10109.36613
420.19	9774.29122
420.688	9559.64993
421.187	9070.6177
421.685	8675.75228
422.184	7744.62313
422.682	6725.95507
423.18	5717.41531
423.678	5127.65985
424.176	4693.9284
424.674	4392.84618
425.172	4216.3728
425.669	4012.86412
426.167	3774.53135
426.664	3412.59872
427.161	3170.67873
427.659	2916.1669
428.156	2735.41164
428.652	2513.30009
429.149	2446.06607
429.646	2327.54843
430.143	2271.97141
430.639	2024.79618
431.135	1966.94575
431.632	1795.51845
432.128	1761.72578
432.624	1599.77473
433.12	1654.44993
433.616	1588.23272
434.111	1536.50297
434.607	1394.357
435.103	1390.937
435.598	1373.90758
436.093	1284.14086
436.588	1182.95277
437.083	1214.98936
437.578	1129.9188
438.073	1070.0477
438.568	1059.99639
439.062	1028.65529
439.557	943.73051
440.051	1013.76729
440.546	935.68573
441.04	864.63894
441.534	912.8772
442.028	841.63749
442.522	871.69519
443.015	844.46901
443.509	817.64873
444.002	819.65126
444.496	744.30138
444.989	804.63248
445.482	735.52648
445.975	804.49753
446.468	735.29404
446.961	717.2445
447.454	675.25466
447.947	788.56433
448.439	762.55836
448.931	665.26241
449.424	641.35765
449.916	657.33397
450.408	721.3789
450.9	643.32688
451.392	666.44289
451.884	620.18743
452.375	583.24164
452.867	586.12435
453.358	589.12604
453.849	639.12877
454.341	632.2052
454.832	592.08235
455.323	553.1746
455.814	584.13831
456.304	535.06019
456.795	525.02529
457.285	483.92471
457.776	489.94887
458.266	506.06036
458.756	501.0376
459.247	521.0738
459.737	515.08472
460.226	505.98787
460.716	508.0655
461.206	424.89403
461.695	500.10816
462.185	475.99254
462.674	442.8849
463.163	464.88854
463.653	485.88503
464.142	412.88094
464.63	403.88014
465.119	427.88672
465.608	417.84818
466.096	448.8579
466.585	415.83565
467.073	407.85838
467.561	422.92065
468.05	382.78496
468.538	464.02097
469.026	418.89918
469.513	333.6301
470.001	353.71834
470.489	349.74576
470.976	402.82606
471.463	368.83815
471.951	331.75436
472.438	323.6923
472.925	291.61564
473.412	327.72234
473.899	333.69523
474.385	318.71258
474.872	308.65174
475.359	289.64827
475.845	327.60785
476.331	306.5939
476.817	224.50155
477.303	260.55523
477.789	259.57453
478.275	299.68364
478.761	257.56843
479.247	273.55478
479.732	258.60093
480.218	249.60308
480.703	303.70142
481.188	188.37237
481.673	232.49394
482.158	218.43402
482.643	227.53799
483.128	196.41457
483.612	199.43151
484.097	242.54787
484.581	166.35558
485.066	208.46918
485.55	196.39622
486.034	187.3821
486.518	208.45708
487.002	193.44396
487.486	176.40494
487.969	209.4848
488.453	205.48717
488.936	185.38779
489.42	200.41265
489.903	189.44794
490.386	247.48866
490.869	182.36218
491.352	129.2971
491.835	107.20623
492.318	147.31536
492.8	196.37132
493.283	152.36976
493.765	132.31062
494.247	152.33094
494.73	119.249
495.212	162.36692
495.694	105.23409
496.175	127.28724
496.657	237.52923
497.139	52.08208
497.62	163.36805
498.102	129.30657
498.583	71.1688
499.064	133.28508
499.545	142.30548
500.026	111.23607
500.507	88.1929
500.988	88.2074
501.469	50.12022
501.949	63.14822
502.43	106.23969
502.91	85.16658
503.39	116.27626
503.87	97.21894
504.35	104.23066
504.83	128.26564
505.31	103.23987
505.79	68.15658
506.269	94.20805
506.749	34.07491
507.228	72.16241
507.707	39.08327
508.187	43.09817
508.666	20.04745
509.145	49.11042
509.623	66.14864
510.102	68.15771
510.581	118.26802
511.059	120.29039
511.538	111.2736
512.016	100.23008
512.494	71.16411
512.972	85.19561
513.45	59.13366
513.928	80.18686
514.406	133.3123
514.884	113.28232
515.361	125.28824
515.839	46.10075
516.316	61.14038
516.793	75.18214
517.27	121.28101
517.747	85.21052
518.224	77.16982
518.701	72.15443
519.178	103.24986
519.654	31.06977
520.131	15.03574
520.607	80.1906
521.083	88.19379
521.56	41.09322
522.036	82.17299
522.512	79.18702
522.987	78.18054
523.463	98.22413
523.939	95.22307
524.414	72.15823
524.89	22.0503
525.365	128.27833
525.84	78.18355
526.315	15.03492
526.79	50.1078
527.265	58.12564
527.74	54.12692
528.215	72.16394
528.689	88.1894
529.164	21.04322
529.638	44.11003
530.112	95.21775
530.587	95.19641
531.061	63.14759
531.534	59.13692
532.008	94.21801
532.482	4.00874
532.956	86.21483
533.429	13.02982
533.903	18.03822
534.376	64.13543
534.849	112.24882
535.322	66.1501
535.795	92.21565
536.268	95.22072
536.741	61.14111
537.213	95.21092
537.686	58.13558
538.158	101.21686
538.631	51.11882
539.103	70.15085
539.575	74.14698
540.047	130.26979
540.519	75.17067
540.991	67.1564
541.463	125.29007
541.934	98.21518
542.406	45.10426
542.877	61.13222
543.348	49.11141
543.82	113.26389
544.291	84.1846
544.762	101.22881
545.233	137.33158
545.703	133.28052
546.174	148.32797
546.645	161.37243
547.115	136.31304
547.585	161.35492
548.056	161.37612
548.526	158.35349
548.996	155.35313
549.466	171.39163
549.935	211.4774
550.405	187.38956
550.875	205.45362
551.344	249.56177
551.814	150.32075
552.283	164.33259
552.752	225.48789
553.221	241.48506
553.69	254.52454
554.159	293.67827
554.628	261.53863
555.096	229.54441
555.565	223.46124
556.033	280.60468
556.502	254.56989
556.97	247.50309
557.438	268.58769
557.906	268.58744
558.374	263.5564
558.842	273.60508
559.31	250.51257
559.777	244.5533
560.245	265.56702
560.712	274.57269
561.18	221.45198
561.647	284.57859
562.114	272.57179
562.581	283.64837
563.048	278.58002
563.514	332.75129
563.981	316.65579
564.448	294.60632
564.914	342.71956
565.381	312.63621
565.847	314.66793
566.313	344.72313
566.779	396.80896
567.245	366.77582
567.711	395.86084
568.176	411.84931
568.642	407.93238
569.108	398.8863
569.573	361.7577
570.038	428.80018
570.504	469.94135
570.969	462.02974
571.434	478.93129
571.899	481.01876
572.363	464.93066
572.828	491.97595
573.293	472.95808
573.757	573.1441
574.222	568.10864
574.686	520.0244
575.15	591.22052
575.614	515.02857
576.078	538.09822
576.542	554.09816
577.006	584.14155
577.469	525.13101
577.933	487.94905
578.396	489.0407
578.86	538.09573
579.323	508.0655
579.786	539.99754
580.249	508.01668
580.712	440.95463
581.175	450.99543
581.637	538.08877
582.1	505.95562
582.563	419.76805
583.025	468.00909
583.487	438.76832
583.95	389.75049
584.412	438.79944
584.874	421.91477
585.336	400.85676
585.797	350.67865
586.259	359.75051
586.721	345.73817
587.182	385.7938
587.643	379.77124
588.105	331.71802
588.566	355.66944
589.027	382.84398
589.488	300.62175
589.949	350.76166
590.41	339.59977
590.87	309.62766
591.331	302.58026
591.791	264.55351
592.252	248.52548
592.712	317.69498
593.172	278.57384
593.632	256.49804
594.092	307.62132
594.552	307.59285
595.011	265.56603
595.471	298.60656
595.931	320.64421
596.39	283.6262
596.849	247.52988
597.308	364.70108
597.768	309.72437
598.227	323.71082
598.685	299.61344
599.144	264.56744
599.603	351.75133
600.062	303.57025
600.52	316.64173
600.978	345.74807
601.437	372.75924
601.895	362.68347
602.353	350.68676
602.811	333.66436
603.269	390.8321
603.727	353.76541
604.184	354.71857
604.642	371.81712
605.099	439.89537
605.557	388.83788
606.014	360.6897
606.471	466.04596
606.928	509.98769
607.385	469.03135
607.842	509.02833
608.299	498.00859
608.755	480.01509
609.212	531.02427
609.668	555.06297
610.125	534.10928
610.581	562.11613
611.037	601.1518
611.493	534.07868
611.949	583.2072
612.405	616.03464
612.861	587.15095
613.316	619.26928
613.772	583.14148
614.227	586.18338
614.683	645.14414
615.138	610.23361
615.593	595.16172
616.048	611.15746
616.503	625.30411
616.958	616.3231
617.412	628.25615
617.867	614.16061
618.321	626.03717
618.776	651.19136
619.23	638.27677
619.684	625.16558
620.138	598.1419
620.592	603.24088
621.046	560.11474
621.5	575.19273
621.954	638.18428
622.407	563.05597
622.861	577.17823
623.314	597.14688
623.768	626.2319
624.221	594.97507
624.674	509.99806
625.127	529.0649
625.58	514.97669
626.033	569.03628
626.485	538.10418
626.938	560.12923
627.39	537.07111
627.843	528.03482
628.295	515.02524
628.747	576.16581
629.199	586.13843
629.651	435.86948
630.103	495.98849
630.555	466.83765
631.006	468.95473
631.458	462.93393
631.909	511.9963
632.361	455.91325
632.812	508.01527
633.263	477.86998
633.714	464.83663
634.165	407.85311
634.616	510.03719
635.067	478.89324
635.518	440.9025
635.968	559.91987
636.419	532.96026
636.869	524.05748
637.319	531.04684
637.769	575.0902
638.219	526.05569
638.669	591.2025
639.119	565.17039
639.569	606.25406
640.019	642.22608
640.468	621.12891
640.918	672.33995
641.367	726.32523
641.816	732.33081
642.265	720.36071
642.714	742.40989
643.163	717.32099
643.612	757.51563
644.061	741.23808
644.51	850.5427
644.958	869.48996
645.406	875.67798
645.855	869.6977
646.303	930.67712
646.751	882.59199
647.199	929.59653
647.647	950.72025
648.095	916.62407
648.543	978.44632
648.99	1010.87275
649.438	1059.88463
649.885	1075.05976
650.333	1060.41814
650.78	1109.0691
651.227	1067.00324
651.674	1108.87944
652.121	1032.89846
652.568	1077.99774
653.015	1089.05866
653.461	1075.93781
653.908	1144.96056
654.354	1067.89499
654.801	1109.9556
655.247	1114.76716
655.693	1064.17306
656.139	1122.00965
656.585	1112.01305
657.031	1154.01867
657.477	1132.79074
657.922	1165.98978
658.368	1097.04564
658.813	1078.81755
659.259	1178.10818
659.704	1172.02998
660.149	1109.92923
660.594	1135.0159
661.039	1100.88187
661.484	1161.05907
661.929	1115.93664
662.373	1122.20618
662.818	1110.12546
663.262	1059.94095
663.707	1051.05905
664.151	1184.19155
664.595	1158.0945
665.039	1151.14769
665.483	1197.32815
665.927	1168.00917
666.371	1170.02009
666.814	1177.07251
667.258	1245.17914
667.701	1291.87056
668.145	1249.27513
668.588	1199.20129
669.031	1258.16932
669.474	1221.15477
669.917	1270.95426
670.36	1317.34896
670.803	1277.21794
671.245	1263.81613
671.688	1315.29264
672.13	1282.01111
672.573	1354.51224
673.015	1301.23141
673.457	1430.10052
673.899	1372.33079
674.341	1396.3604
674.783	1391.36515
675.225	1397.42744
675.666	1404.38675
676.108	1457.10237
676.549	1477.36149
676.991	1371.04053
677.432	1407.76405
677.873	1461.27133
678.314	1462.38675
678.755	1523.55106
679.196	1516.33115
679.637	1435.4105
680.078	1490.33489
680.518	1444.22458
680.959	1466.40392
681.399	1470.50896
681.839	1496.48997
682.28	1519.5993
682.72	1459.23156
683.16	1536.63901
683.6	1559.30959
684.039	1511.97294
684.479	1514.55574
684.919	1548.40027
685.358	1624.76037
685.798	1523.7874
686.237	1607.55536
686.676	1526.33439
687.115	1608.46408
687.554	1590.486
687.993	1583.17188
688.432	1644.432
688.871	1607.33875
689.309	1759.76191
689.748	1653.08205
690.186	1672.53049
690.625	1809.68531
691.063	1723.68626
691.501	1728.77843
691.939	1763.84399
692.377	1763.75566
692.815	1722.68391
693.253	1744.60988
693.69	1749.31191
694.128	1844.83215
694.565	1812.69384
695.003	1774.9439
695.44	1758.56567
695.877	1881.69266
696.314	1852.27108
696.751	1853.48305
697.188	1922.62199
697.625	1927.53093
698.061	1900.77475
698.498	1946.81915
698.934	1962.77384
699.371	1904.71866
699.807	2044.79598
700.243	1941.86566
700.679	1934.52946
701.115	2019.70042
701.551	1981.75879
701.987	1987.47138
702.422	2006.76899
702.858	2030.76577
703.294	1984.51781
703.729	2054.97876
704.164	2108.93712
704.599	2086.49091
705.035	2082.56929
705.47	2069.99824
705.904	2086.70682
706.339	2034.61638
706.774	2076.71495
707.209	2092.66804
707.643	2184.91702
708.078	2154.95228
708.512	2222.2566
708.946	2183.86199
709.38	2108.77439
709.814	2090.59735
710.248	2107.87978
710.682	2216.92666
711.116	2152.9308
711.549	2067.18408
711.983	2135.66338
712.416	2132.73898
712.85	2189.14492
713.283	2213.84365
713.716	2159.08382
714.149	2130.77481
714.582	2192.59458
715.015	2155.05728
715.448	2118.03592
715.881	2073.32521
716.313	2239.83989
716.746	2129.81846
717.178	2074.83804
717.61	2167.18273
718.043	2165.02655
718.475	2064.86176
718.907	2067.01103
719.339	2113.60433
719.77	2129.89032
720.202	2126.12028
720.634	2051.94642
721.065	2002.73193
721.497	2077.96275
721.928	1992.94495
722.359	2037.93483
722.79	2061.82788
723.221	1949.93968
723.652	2001.09139
724.083	1922.46683
724.514	1881.45114
724.945	1918.6667
725.375	1910.62528
725.806	1897.8214
726.236	1889.01503
726.666	1912.64146
727.096	1829.74949
727.526	1884.00779
727.956	1827.46181
728.386	1810.70526
728.816	1787.91194
729.246	1825.78391
729.675	1807.83335
730.105	1799.74211
730.534	1752.52426
730.964	1716.76048
731.393	1726.65633
731.822	1789.95215
732.251	1718.87026
732.68	1691.39696
733.109	1719.72608
733.537	1728.62711
733.966	1655.66809
734.395	1704.4014
734.823	1684.28987
735.251	1676.58745
735.68	1709.73914
736.108	1668.74999
736.536	1605.43148
736.964	1576.33438
737.392	1601.62925
737.82	1603.47568
738.247	1593.44298
738.675	1600.4174
739.102	1618.72963
739.53	1558.73636
739.957	1481.63071
740.384	1529.47838
740.811	1554.69125
741.238	1539.47671
741.665	1528.36758
742.092	1461.30546
742.519	1483.55347
742.945	1459.36009
743.372	1486.52566
743.798	1437.59144
744.225	1414.27847
744.651	1388.43002
745.077	1432.47362
745.503	1376.30517
745.929	1410.29616
746.355	1471.4248
746.781	1369.37356
747.207	1342.22476
747.632	1367.3564
748.058	1274.25859
748.483	1312.04435
748.908	1352.37162
749.334	1290.25767
749.759	1348.17989
750.184	1318.1931
750.609	1301.25035
751.033	1208.98276
751.458	1320.03554
751.883	1257.22202
752.307	1256.13957
752.732	1252.32241
753.156	1160.11406
753.58	1178.00606
754.005	1202.28224
754.429	1120.88456
754.853	1160.14168
755.277	1178.03612
755.7	1147.10342
756.124	1153.16517
756.548	1131.98624
756.971	1140.03993
757.394	1057.09512
757.818	1126.2213
758.241	991.94002
758.664	1064.08311
759.087	1091.82017
759.51	1042.97722
759.933	1027.89443
760.356	930.88344
760.778	1054.01313
761.201	925.70591
761.623	931.70844
762.046	936.64503
762.468	1018.83621
762.89	904.75076
763.312	843.61652
763.734	939.76029
764.156	880.72854
764.578	869.5218
765	850.64446
765.421	881.83648
765.843	868.85292
766.264	825.56294
766.686	789.62783
767.107	855.66952
767.528	801.67698
767.949	754.57467
768.37	717.43412
768.791	774.49436
769.212	749.57907
769.632	610.17782
770.053	703.56031
770.473	668.34862
770.894	661.35553
771.314	634.23127
771.734	596.14468
772.154	636.38193
772.575	593.1348
772.994	601.13294
773.414	584.14209
773.834	611.30023
774.254	553.14141
774.673	582.18443
775.093	571.21184
775.512	525.11939
775.931	545.20278
776.351	471.00623
776.77	495.04892
777.189	520.0393
777.607	497.10812
778.026	455.99872
778.445	415.93276
778.864	463.03091
779.282	380.79529
779.701	439.97212
780.119	335.75422
780.537	371.82054
780.955	347.78538
781.373	360.7894
781.791	373.73621
782.209	436.86966
782.627	358.85542
783.045	362.7291
783.462	292.67046
783.88	334.78496
784.297	275.62802
784.715	333.7852
785.132	331.71251
785.549	322.73459
785.966	276.62611
786.383	308.68591
786.8	349.71376
787.217	244.52084
787.633	245.55951
788.05	236.48955
788.466	263.55007
788.883	303.70753
789.299	251.53985
789.715	307.67391
790.131	212.47957
790.547	198.44407
790.963	240.54268
791.379	209.48729
791.795	218.44676
792.21	236.4948
792.626	191.41257
793.041	174.39249
793.457	143.32553
793.872	187.4022
794.287	182.4102
794.702	182.40903
795.117	99.22847
795.532	154.36351
795.947	133.29185
796.362	171.3689
796.776	99.20679
797.191	132.29788
797.605	153.33884
798.02	193.43455
798.434	136.27303
798.848	103.23504
799.262	157.36736
799.676	133.29664
800.09	140.31683
800.504	133.29799
800.918	116.24687
801.331	111.27058
801.745	141.29517
802.158	85.19881
802.572	100.22401
802.985	118.25997
803.398	83.18443
803.811	114.2716
804.224	121.27846
804.637	51.11191
805.05	123.26182
805.462	94.21429
805.875	104.25913
806.288	82.18754
806.7	125.29225
807.112	77.16576
807.525	114.26313
807.937	60.13993
808.349	35.08254
808.761	64.14525
809.173	38.08558
809.584	49.11313
809.996	45.10459
810.408	27.06682
810.819	89.19521
811.231	88.2207
811.642	114.26418
812.053	102.23027
812.464	104.2321
812.875	109.26173
813.286	45.10933
813.697	56.11824
814.108	25.05694
814.519	44.09017
814.929	35.08344
815.34	35.07971
815.75	58.13914
816.16	40.09215
816.571	61.15003
816.981	3.00657
817.391	17.03857
817.801	53.12605
818.211	111.24583
818.62	8.01816
819.03	36.08197
819.44	64.15703
819.849	86.20403
820.259	64.15499
820.668	90.20981
821.077	14.03315
821.486	34.07582
821.895	59.13361
822.304	27.06836
822.713	43.09471
823.122	80.18847
823.531	42.09393
823.939	55.12612
824.348	120.27102
824.756	58.13585
825.164	26.0613
825.573	1.00239
825.981	71.16502
826.389	25.05847
826.797	-3.00717
827.205	27.058
827.612	-16.03723
828.02	15.03358
828.428	17.04091
828.835	36.09051
829.243	29.06455
829.65	25.05909
830.057	53.12217
830.464	58.1343
830.871	9.02021
831.278	-8.01813
831.685	17.03483
832.092	67.15443
832.499	42.0844
832.905	79.18847
833.312	72.15022
833.718	7.01643
834.124	49.10444
834.531	42.09914
834.937	-13.03151
835.343	27.06137
835.749	37.07965
836.155	57.14071
836.561	-47.10829
836.966	5.01151
837.372	51.12172
837.777	-6.01411
838.183	-34.06917
838.588	16.03787
838.993	42.09455
839.399	0
839.804	30.06988
840.209	59.14312
840.613	56.11669
841.018	-5.0119
841.423	-19.046
841.828	3.0072
842.232	-7.0161
842.637	-54.11912
843.041	78.19159
843.445	-12.02834
843.849	54.12554
844.253	48.10522
844.657	25.06026
845.061	23.04881
845.465	37.0861
845.869	38.08179
846.272	23.0528
846.676	82.18505
847.079	49.11873
847.483	54.12588
847.886	44.09812
848.289	48.12405
848.692	79.18673
849.095	-35.07881
849.498	25.05841
849.901	43.0905
850.304	26.05769
850.707	-2.00483
851.109	-37.08746
851.512	49.11407
851.914	26.06353
852.316	86.20434
852.718	0
853.121	28.06468
853.523	11.02404
853.925	-44.11087
854.326	36.0862
854.728	-26.06405
855.13	10.02481
855.531	48.10943
855.933	-4.00902
856.334	14.03329
856.736	12.02484
857.137	26.05656
857.538	-4.00957
857.939	11.02595
858.34	37.08382
858.741	-16.03997
859.142	33.07458
859.542	89.22653
859.943	71.16672
860.343	-16.03803
860.744	37.08515
861.144	13.02989
861.544	28.06445
861.945	-8.01926
862.345	-6.0136
862.745	35.08193
863.145	27.05895
863.544	34.08225
863.944	16.03526
864.344	16.0369
864.743	70.16215
865.143	-2.00489
865.542	9.01947
865.941	67.15683
866.34	53.11855
866.74	20.0512
867.139	-13.02971
867.537	5.012
867.936	58.13089
868.335	96.23021
868.734	50.12204
869.132	64.13911
869.531	30.06778
869.929	42.09016
870.327	-4.00905
870.726	29.06772
871.124	25.05396
871.522	-19.04566
871.92	25.05788
872.318	32.07372
872.715	44.10148
873.113	13.02997
873.511	26.06125
873.908	29.07117
874.306	16.0378
874.703	16.03772
875.1	1.00241
875.497	22.04912
875.894	56.13121
876.291	65.1503
876.688	19.0464
877.085	16.03581
877.482	-17.04007
877.878	5.0114
878.275	18.0431
878.671	-4.00803
879.068	56.1256
879.464	49.11105
879.86	49.10979
880.256	31.07074
880.652	-30.07279
881.048	-46.10719
881.444	-18.03977
881.84	5.01198
882.236	5.01194
882.631	37.08546
883.027	11.02458
883.422	-3.00728
883.817	42.10091
884.213	22.05364
884.608	31.07245
885.003	48.10863
885.398	-3.00713
885.793	13.03068
886.188	15.03577
886.582	29.06871
886.977	20.04432
887.371	8.01913
887.766	4.00953
888.16	31.07296
888.554	2.00461
888.949	-3.00702
889.343	28.06314
889.737	43.11099
890.131	15.0358
890.525	8.01934
890.918	37.08864
891.312	-5.01102
891.706	30.07546
892.099	17.04073
892.492	56.11076
892.886	31.07066
893.279	41.0986
893.672	-10.02435
894.065	19.04467
894.458	-21.05014
894.851	19.04296
895.244	-16.03905
895.637	30.06792
896.029	10.02305
896.422	1.00229
896.814	20.04703
897.206	49.11042
897.599	-23.05259
897.991	5.01145
898.383	-6.01327
898.775	-20.04217
899.167	10.02217
899.559	-5.01193
899.951	14.03079
900.342	-29.06895
900.734	35.08391
901.125	-3.00742
901.517	25.05811
901.908	7.01557
902.299	23.05321
902.69	21.04647
903.082	34.07698
903.473	50.11325
903.863	58.14088
904.254	-19.04129
904.645	-10.02317
905.036	35.08096
905.426	-4.00827
905.817	25.05763
906.207	-7.01585
906.597	-25.05551
906.987	-37.09043
907.378	21.04983
907.768	17.04301
908.158	19.04371
908.547	-8.0198
908.937	33.07951
909.327	41.09254
909.717	2.00476
910.106	20.0451
910.495	53.12479
910.885	-10.0236
911.274	61.14357
911.663	61.1467
912.052	24.05507
912.441	28.06801
912.83	21.0446
913.219	29.0709
913.608	16.03683
913.997	-23.05489
914.385	15.03311
914.774	11.02506
915.162	-2.00446
915.55	30.06798
915.939	3.00722
916.327	32.07501
916.715	-17.04175
917.103	27.06174
917.491	20.04576
917.878	-45.10331
918.266	9.02212
918.654	65.15803
919.041	13.03234
919.429	28.0621
919.816	16.03809
920.203	28.06378
920.591	5.0116
920.978	18.04127
921.365	-15.03742
921.752	58.12928
922.139	68.13608
922.525	-1.00226
922.912	35.07952
923.299	5.01182
923.685	24.05945
924.072	3.00637
924.458	7.0164
924.844	-3.00701
925.231	-28.06094
925.617	43.10505
926.003	6.01454
926.389	25.06019
926.774	59.14102
927.16	-14.03275
927.546	-24.0588
927.931	65.15138
928.317	5.01052
928.702	29.06331
929.088	42.09311
929.473	7.01692
929.858	58.13377
930.243	10.02275
930.628	9.02053
931.013	39.09211
931.398	38.07999
931.783	35.08719
932.167	14.03198
932.552	-3.007
932.937	1.0023
933.321	16.03772
933.705	18.04343
934.09	-23.0543
934.474	16.03547
934.858	56.1376
935.242	44.09645
935.626	-28.06809
936.009	-24.06116
936.393	50.1209
936.777	83.20089
937.16	-3.00733
937.544	42.09144
937.927	2.00484
938.311	-3.00683
938.694	33.08263
939.077	-43.09682
939.46	66.15143
939.843	27.05051
940.226	-20.0486
940.609	5.01066
940.991	25.06012
941.374	-15.03446
941.757	13.0301
942.139	-20.04164
942.522	-6.0131
942.904	30.0677
943.286	4.00952
943.668	16.03926
944.05	18.04168
944.432	7.01638
944.814	21.04806
945.196	-11.02576
945.578	9.02041
945.959	49.10689
946.341	-3.00679
946.722	79.17182
947.104	0
947.485	16.03463
947.866	24.05766
948.247	23.05483
948.628	18.04085
949.009	24.05838
949.39	-42.09741
949.771	-2.00431
950.152	20.04646
950.532	60.14289
950.913	-18.04045
951.293	16.04171
951.674	6.01352
952.054	-35.08295
952.434	10.02318
952.814	-20.04397
953.194	34.08444
953.574	-29.06661
953.954	26.05771
954.334	32.07545
954.714	3.00692
955.093	-8.01829
955.473	-61.1448
955.853	30.07383
956.232	8.02099
956.611	-29.06428
956.99	-10.02398
957.37	5.01207
957.749	18.03971
958.128	67.1599
958.506	29.07196
958.885	-36.08616
959.264	-37.08644
959.643	81.16949
960.021	8.01874
960.4	51.10851
960.778	-32.07319
961.156	-7.01663
961.535	-37.07917
961.913	2.00427
962.291	31.0763
962.669	13.03128
963.047	-2.00477
963.424	34.08225
963.802	20.04567
964.18	18.04259
964.557	32.06706
964.935	-25.05555
965.312	4.00998
965.69	6.01409
966.067	17.0385
966.444	13.0301
966.821	-17.04146
967.198	-1.00224
967.575	-5.01145
967.952	54.11797
968.329	13.02956
968.705	16.03098
969.082	42.10236
969.458	10.02289
969.835	17.03873
970.211	36.08731
970.587	0
970.963	-6.01458
971.339	48.11956
971.715	-12.02786
972.091	9.02079
972.467	9.02075
972.843	3.00704
973.219	30.06601
973.594	22.0547
973.97	3.00659
974.345	-16.03606
974.721	35.07852
975.096	-32.07251
975.471	28.06218
975.846	42.0949
976.221	9.02168
976.596	18.04047
976.971	42.09706
977.346	19.04051
977.72	-5.01206
978.095	5.01231
978.469	53.11777
978.844	65.15203
979.218	9.02048
979.593	30.06723
979.967	99.22428
980.341	14.02977
980.715	6.0142
981.089	-20.04694
981.463	29.0627
981.837	39.09004
982.21	78.16498
982.584	8.01803
982.957	66.15543
983.331	16.03534
983.704	38.08817
984.078	-1.00231
984.451	-14.03212
984.824	27.06228
985.197	27.06112
985.57	-20.04706
985.943	-29.06628
986.316	52.11888
986.688	13.02921
987.061	-6.01302
987.434	0
987.806	5.01131
988.179	-23.05073
988.551	39.09211
988.923	12.02769
989.295	44.10253
989.667	22.0504
990.039	29.0677
990.411	34.0734
990.783	84.17612
991.155	30.06867
991.527	14.03157
991.898	2.00467
992.27	-10.02347
992.641	-4.00942
993.012	37.08157
993.384	7.01566
993.755	3.0072
994.126	49.10997
994.497	-4.00925
994.868	68.14434
995.239	50.11366
995.61	-21.05002
995.98	51.1169
996.351	36.08442
996.722	38.08266
997.092	45.10041
997.462	15.03322
997.833	-5.01105
998.203	22.04955
998.573	22.05203
998.943	-28.06104
999.313	0
999.683	-54.12176
1000.053	84.1783
1000.423	75.16894
1000.792	2.00494
1001.162	31.07205
1001.531	74.17081
1001.901	10.02336
1002.27	73.15038
1002.639	37.08945
1003.009	82.18293
1003.378	13.03154
1003.747	-16.03537
1004.116	-10.0227
1004.485	15.03382
1004.853	9.02157
1005.222	79.18796
1005.591	14.03077
1005.959	43.09101
1006.328	10.02083
1006.696	56.12679
1007.064	30.07109
1007.433	54.12697
1007.801	9.02058
1008.169	1.00237
1008.537	33.06767
1008.905	11.02408
1009.273	26.06016
1009.64	20.04499
1010.008	16.03555
1010.375	91.2033
1010.743	37.07698
1011.11	1.00223
1011.478	8.0186
1011.845	-24.05214
1012.212	-24.0503
1012.579	28.06468
1012.946	25.05449
1013.313	40.08813
1013.68	39.08009
1014.047	67.15055
1014.414	28.06239
1014.78	68.15933
1015.147	42.093
1015.513	64.14572
1015.88	-1.00238
1016.246	73.16793
1016.612	33.06908
1016.978	26.05944
1017.344	34.07979
1017.71	-19.04269
1018.076	24.05252
1018.442	7.01697
1018.808	28.06592
1019.174	-17.04018
1019.539	58.1187
1019.905	58.12773
1020.27	-3.00707
1020.636	58.12859
1021.001	40.08842
1021.366	38.08698
1021.731	51.1239
1022.096	31.07447
1022.461	-30.06607
1022.826	8.01785
1023.191	-2.00501
1023.556	-4.00864
1023.92	23.05232
1024.285	11.02507
1024.649	1.00231
1025.014	24.05568
1025.378	12.02883
1025.742	25.05822
1026.107	33.06798
1026.471	16.03392
1026.835	20.04602
1027.199	22.04995
1027.562	35.07606
1027.926	38.08638
1028.29	24.05746
1028.654	-10.02125
1029.017	46.10601
1029.381	5.01128
1029.744	41.09916
1030.107	17.03674
1030.471	47.10409
1030.834	-16.03334
1031.197	-14.03118
1031.56	72.15882
1031.923	-2.00491
1032.286	4.00871
1032.648	36.07948
1033.011	43.09165
1033.374	36.07721
1033.736	-6.01503
1034.099	41.09394
1034.461	42.10076
1034.823	-44.10378
1035.185	21.04893
1035.548	11.02506
1035.91	64.14336
1036.272	47.09883
1036.634	-27.06154
1036.995	55.12104
1037.357	28.06399
1037.719	-2.00457
1038.08	28.06063
1038.442	64.14395
1038.803	-12.02688
1039.165	17.04056
1039.526	32.0723
1039.887	23.05185
1040.248	76.17835
1040.609	27.06238
1040.97	14.03207
1041.331	-35.08279
1041.692	5.01104
1042.053	21.04379
1042.413	-23.04962
1042.774	19.04301
1043.134	30.06557
1043.495	-64.1526
1043.855	52.11749
1044.215	-11.02571
1044.576	39.0877
1044.936	10.02146
1045.296	-1.00234
1045.656	-17.03937
1046.016	36.07975
1046.375	72.16354
1046.735	89.1873
1047.095	23.05024
1047.454	62.11883
1047.814	12.02678
1048.173	-19.0418
1048.533	-6.01294
1048.892	-24.05496
1049.251	49.11506
1049.61	-36.08303
1049.969	42.09276
1050.328	-4.00789
1050.687	-27.06196
1051.046	38.08722
1051.405	-8.01852
1051.763	1.00216
1052.122	54.12747
1052.48	-28.06453
1052.839	6.01324
1053.197	36.07891
1053.555	-16.03267
1053.914	5.01143
1054.272	42.09408
1054.63	3.00685
1054.988	3.00666
1055.345	10.01955
1055.703	35.07758
1056.061	4.00977
1056.419	21.05174
1056.776	27.06082
1057.134	15.03221
1057.491	12.02821
1057.848	1.00233
1058.206	7.01535
1058.563	75.15269
1058.92	41.08621
1059.277	-10.02281
1059.634	-62.13487
1059.991	60.13385
1060.348	3.00638
1060.704	21.04692
1061.061	6.01265
1061.418	5.01148
1061.774	31.07291
1062.131	64.16339
1062.487	-2.00434
1062.843	31.07237
1063.199	37.08685
1063.555	35.07596
1063.911	-17.04053
1064.267	28.05162
1064.623	44.101
1064.979	-6.01292
1065.335	-5.01099
1065.691	29.06554
1066.046	-8.01614
1066.402	8.01688
1066.757	29.06895
1067.112	12.02728
1067.468	4.00903
1067.823	45.10099
1068.178	63.14237
1068.533	6.01352
1068.888	12.02646
1069.243	22.05127
1069.598	-23.05183
1069.952	40.08498
1070.307	24.05687
1070.662	38.08432
1071.016	23.0483
1071.371	-12.02536
1071.725	-22.04806
1072.079	22.0493
1072.434	-28.06422
1072.788	47.10483
1073.142	94.21585
1073.496	-8.01784
1073.85	-18.03901
1074.203	41.0922
1074.557	34.0864
1074.911	41.08963
1075.265	-19.04081
1075.618	32.07333
1075.971	36.07911
1076.325	3.00722
1076.678	5.01066
1077.031	-23.04855
1077.385	102.20515
1077.738	14.02943
1078.091	5.01078
1078.444	-30.06437
1078.796	22.05104
1079.149	7.01615
1079.502	21.04643
1079.855	34.07409
1080.207	38.08715
1080.56	35.08519
1080.912	-22.04967
1081.264	41.09182
1081.617	21.04812
1081.969	24.05825
1082.321	4.00919
1082.673	8.01727
1083.025	24.05252
1083.377	-271.56002
1083.728	-3.00639
1084.08	52.12222
1084.432	-18.03987
1084.783	91.19775
1085.135	28.06704
1085.486	59.1257
1085.838	20.04624
1086.189	19.04317
1086.54	25.05564
1086.891	36.08695
1087.242	-17.0387
1087.593	33.07418
1087.944	25.05213
1088.295	33.06832
1088.646	-7.01601
1088.996	-12.02717
1089.347	7.01602
1089.698	-8.01796
1090.048	8.01951
1090.398	39.08428
1090.749	31.06937
1091.099	64.15224
1091.449	-18.04209
1091.799	35.08193
1092.149	36.08432
1092.499	22.0505
1092.849	16.03847
1093.199	28.06543
1093.548	31.07006
1093.898	21.04958
1094.248	15.0364
1094.597	16.03929
1094.947	19.04807
1095.296	-18.0418
1095.645	32.07814
1095.994	53.11894
1096.343	84.19921
1096.692	43.10809
1097.041	5.01306
1097.39	20.04699
1097.739	1.00248
1098.088	12.03019
1098.437	0
1098.785	23.05861
1099.134	-10.02495
1099.482	-17.04449
1099.83	6.01491
1100.179	34.0853
1100.527	5.01255
1100.875	-12.0303
1101.223	76.19163
1101.571	-21.0562
1101.919	-5.01259
1102.267	35.09558
1102.615	10.03211
1102.962	6.01925
1103.31	17.05451
1103.658	3.00961
