Data from N3 R7 sample 9_Subt2__4__16-56-49-908.txt Node

Date: Fri Sep 19 16:56:49 PDT 2025
User: uwsun
Spectrometer: HDX01956
Trigger mode: 0
Integration Time (sec): 5.000000E-1
Scans to average: 1
Nonlinearity correction enabled: true
Boxcar width: 0
Storing dark spectrum: false
XAxis mode: Wavelengths
Number of Pixels in Spectrum: 2068
>>>>>Begin Spectral Data<<<<<
194.03	46.13269
194.578	45.14561
195.127	50.15954
195.676	47.14988
196.225	52.13624
196.773	59.16333
197.321	109.29927
197.87	124.31456
198.418	186.47132
198.966	127.33099
199.513	165.41297
200.061	131.32741
200.609	132.34278
201.156	120.25449
201.704	157.38598
202.251	116.30392
202.798	142.36443
203.345	180.43426
203.892	141.3487
204.438	163.3805
204.985	172.40032
205.532	190.49914
206.078	146.3521
206.624	157.38127
207.17	177.39901
207.716	124.29384
208.262	97.18776
208.808	182.4424
209.354	133.31838
209.899	158.38808
210.445	134.33133
210.99	142.33753
211.535	176.4017
212.08	110.25117
212.625	98.24232
213.17	141.34921
213.715	168.36903
214.259	174.39666
214.804	149.35764
215.348	132.29532
215.892	134.3168
216.436	160.36298
216.98	115.24692
217.524	133.30815
218.068	162.39776
218.612	127.31073
219.155	140.3216
219.698	169.38689
220.242	143.34689
220.785	132.30225
221.328	137.33458
221.871	145.35793
222.414	112.2696
222.956	117.27827
223.499	136.29761
224.041	131.29242
224.583	134.27847
225.126	181.39131
225.668	126.30019
226.21	146.35782
226.751	59.12581
227.293	108.23863
227.835	144.3407
228.376	137.30366
228.918	127.31269
229.459	145.35675
230	149.34412
230.541	157.34741
231.082	145.34234
231.622	153.34152
232.163	185.43761
232.704	116.28071
233.244	124.3004
233.784	131.30964
234.324	165.3555
234.864	121.26574
235.404	136.31079
235.944	140.31877
236.484	131.31467
237.023	140.32302
237.563	136.30502
238.102	173.39398
238.641	183.4509
239.18	139.3186
239.719	158.38837
240.258	179.38384
240.797	175.40674
241.335	110.25935
241.874	170.31576
242.412	152.35252
242.95	154.36083
243.488	166.36587
244.026	163.3646
244.564	196.38349
245.102	177.38283
245.64	148.3446
246.177	111.2407
246.715	151.34666
247.252	129.28426
247.789	152.25749
248.326	118.27388
248.863	104.22104
249.4	197.43428
249.936	179.35081
250.473	155.35113
251.009	151.33873
251.546	155.33151
252.082	175.37202
252.618	163.3536
253.154	150.34967
253.69	119.25991
254.226	99.23047
254.761	128.27489
255.297	127.27128
255.832	143.32645
256.367	129.29378
256.903	147.3095
257.438	104.23575
257.972	95.20477
258.507	167.37462
259.042	99.20486
259.576	182.37771
260.111	98.22025
260.645	143.30042
261.179	123.27751
261.713	101.2177
262.247	145.32781
262.781	166.33742
263.315	151.3594
263.849	164.39745
264.382	155.34169
264.915	220.49645
265.449	160.38031
265.982	151.32729
266.515	173.40796
267.048	212.42974
267.58	163.33593
268.113	147.30977
268.646	195.46804
269.178	159.34331
269.71	156.32621
270.243	203.44263
270.775	140.34743
271.307	148.33971
271.838	167.37924
272.37	179.42719
272.902	229.4991
273.433	167.34851
273.965	197.46726
274.496	137.32746
275.027	164.39177
275.558	125.29512
276.089	165.4022
276.62	138.33996
277.15	151.36023
277.681	131.26986
278.211	162.38076
278.741	201.42878
279.272	166.36633
279.802	152.36976
280.332	156.35706
280.861	180.41762
281.391	102.22509
281.921	115.26634
282.45	195.47568
282.98	195.49298
283.509	182.39271
284.038	127.27621
284.567	154.34056
285.096	225.52129
285.625	184.40809
286.153	126.28677
286.682	146.32098
287.21	193.44645
287.739	132.30104
288.267	183.43003
288.795	175.44479
289.323	193.44077
289.851	128.29027
290.378	195.42049
290.906	199.46763
291.433	199.47873
291.961	177.38315
292.488	167.40328
293.015	207.47255
293.542	168.41112
294.069	185.43897
294.596	205.48717
295.122	174.40194
295.649	228.48373
296.175	163.37691
296.702	128.29909
297.228	196.45005
297.754	187.40238
298.28	133.29271
298.806	209.48614
299.332	177.37725
299.857	183.3958
300.383	196.47357
300.908	219.51583
301.433	239.55855
301.958	209.45319
302.483	221.53809
303.008	229.53728
303.533	184.45511
304.058	234.52372
304.582	265.59615
305.107	201.51104
305.631	229.49275
306.155	286.63666
306.679	247.55225
307.203	216.48204
307.727	259.58862
308.251	254.59674
308.775	181.41453
309.298	192.44845
309.822	195.47479
310.345	240.54312
310.868	227.51945
311.391	287.66755
311.914	237.571
312.437	208.44997
312.96	255.57507
313.482	230.52452
314.005	202.48972
314.527	239.60527
315.049	217.524
315.571	333.71065
316.093	278.65973
316.615	264.612
317.137	228.46873
317.659	248.56739
318.18	282.64698
318.702	320.70111
319.223	269.52046
319.744	324.685
320.265	256.5958
320.786	289.68094
321.307	317.7498
321.828	308.66258
322.348	302.67618
322.869	250.55399
323.389	525.86291
323.909	333.71743
324.43	291.65839
324.95	345.74328
325.47	336.78257
325.989	331.74948
326.509	349.7212
327.029	334.70645
327.548	373.78495
328.067	314.71519
328.587	407.94546
329.106	336.71316
329.625	294.72154
330.144	318.6835
330.662	324.70778
331.181	369.80794
331.7	355.77598
332.218	404.81519
332.736	380.8199
333.255	323.70783
333.773	399.87914
334.291	402.92148
334.808	343.7088
335.326	402.84095
335.844	393.86048
336.361	405.95491
336.879	397.85786
337.396	382.84857
337.913	383.81344
338.43	460.95631
338.947	440.96682
339.464	384.76131
339.981	427.94122
340.497	453.02983
341.014	398.89364
341.53	476.99001
342.046	472.06508
342.562	463.05812
343.078	447.96258
343.594	501.09446
344.11	510.09465
344.626	524.20664
345.141	534.10385
345.657	487.98785
346.172	497.08205
346.687	522.08479
347.202	518.04678
347.717	504.09429
348.232	542.22927
348.747	497.03481
349.261	598.18002
349.776	466.99465
350.29	576.28533
350.805	565.24179
351.319	626.28973
351.833	530.09116
352.347	497.04032
352.861	581.20788
353.374	608.22282
353.888	506.09958
354.401	588.19666
354.915	603.20411
355.428	637.41019
355.941	595.23648
356.454	649.26794
356.967	662.37623
357.48	631.26711
357.993	687.47673
358.505	626.37516
359.018	683.44168
359.53	697.45454
360.042	628.19698
360.554	681.43117
361.066	640.36822
361.578	732.37398
362.09	683.41962
362.602	704.33366
363.113	635.26812
363.625	757.46602
364.136	703.32366
364.647	663.35045
365.158	722.45513
365.669	793.64779
366.18	663.32718
366.691	744.39586
367.201	729.48911
367.712	722.38448
368.222	827.61401
368.733	778.43898
369.243	767.41188
369.753	758.47881
370.263	791.58306
370.773	810.70517
371.282	846.67728
371.792	859.62509
372.301	874.76993
372.811	853.88243
373.32	889.53085
373.829	932.82223
374.338	935.68401
374.847	964.77488
375.356	983.91077
375.865	1057.74302
376.373	1075.91121
376.882	1085.19359
377.39	1151.16985
377.898	1181.29046
378.407	1151.95528
378.915	1240.96034
379.423	1325.32102
379.93	1308.15858
380.438	1426.54619
380.946	1446.41796
381.453	1554.60405
381.96	1605.61275
382.468	1751.7492
382.975	1909.99879
383.482	1897.62279
383.989	1904.18143
384.495	2039.80051
385.002	2098.44359
385.509	2165.88622
386.015	2406.34756
386.521	2455.75165
387.028	2616.84746
387.534	2612.59004
388.04	2754.04698
388.546	2798.69511
389.051	2917.61881
389.557	3147.88496
390.063	3440.80812
390.568	3439.92445
391.073	3718.48989
391.578	3736.86014
392.084	3882.25266
392.589	3955.14593
393.093	4314.33695
393.598	4699.87865
394.103	5092.93112
394.607	5579.60065
395.112	6059.61148
395.616	6347.377
396.12	7009.14846
396.624	7673.51417
397.128	8234.12533
397.632	9282.01284
398.136	10078.36228
398.639	10617.30769
399.143	11777.65566
399.646	13391.33864
400.15	14807.46631
400.653	16511.57301
401.156	18379.2641
401.659	21271.29219
402.162	25874.4866
402.664	34399.83029
403.167	48765.1166
403.67	59066.34885
404.172	55487.84425
404.674	37291.05854
405.176	4428.40989
405.678	533.47942
406.18	0
406.682	0
407.184	6962.89417
407.686	50953.82939
408.187	59237.6763
408.688	61091.12691
409.19	61923.45898
409.691	50512.79897
410.192	42148.07198
410.693	37019.58203
411.194	33327.6237
411.694	31295.58661
412.195	28964.31512
412.696	26215.98124
413.196	24512.77347
413.696	23818.93665
414.196	24052.09053
414.696	23725.04606
415.196	22471.05527
415.696	20266.3734
416.196	16428.75261
416.695	12746.45255
417.195	10731.79096
417.694	10343.95738
418.194	9773.6585
418.693	9149.70864
419.192	8782.94596
419.691	8708.8144
420.19	8436.38957
420.688	8338.33091
421.187	7899.44774
421.685	7403.3429
422.184	6783.2106
422.682	5892.03396
423.18	4916.81343
423.678	4272.13801
424.176	4046.28461
424.674	3835.14347
425.172	3639.64256
425.669	3405.08454
426.167	3250.71554
426.664	2915.71034
427.161	2673.73216
427.659	2445.10314
428.156	2383.40959
428.652	2209.17821
429.149	2065.91275
429.646	2070.47815
430.143	1940.80688
430.639	1826.67619
431.135	1658.70651
431.632	1631.4031
432.128	1525.51861
432.624	1448.6107
433.12	1408.23699
433.616	1339.02723
434.111	1304.25972
434.607	1171.09721
435.103	1212.78281
435.598	1193.75092
436.093	1131.96453
436.588	1084.83858
437.083	1024.76546
437.578	939.67658
438.073	862.73288
438.568	874.72158
439.062	884.48059
439.557	789.50335
440.051	763.41786
440.546	787.47197
441.04	695.37208
441.534	762.62089
442.028	699.40646
442.522	683.38809
443.015	720.29371
443.509	796.61401
444.002	660.37876
444.496	608.10103
444.989	679.41756
445.482	645.36614
445.975	666.28245
446.468	641.1559
446.961	590.05804
447.454	586.11299
447.947	644.32092
448.439	629.32466
448.931	537.05076
449.424	519.12811
449.916	560.16183
450.408	612.20091
450.9	544.14717
451.392	545.21081
451.884	528.03335
452.375	487.05844
452.867	553.06935
453.358	473.93097
453.849	499.91473
454.341	507.99742
454.832	478.90031
455.323	486.04708
455.814	473.94762
456.304	431.87626
456.795	434.86728
457.285	472.90605
457.776	412.81415
458.266	472.99829
458.756	417.8814
459.247	412.8714
459.737	442.94752
460.226	418.83453
460.716	443.94414
461.206	339.72816
461.695	434.97685
462.185	364.77933
462.674	335.6873
463.163	335.66152
463.653	398.74224
464.142	350.75842
464.63	400.87414
465.119	364.76652
465.608	381.78132
466.096	337.66266
466.585	303.62586
467.073	331.70975
467.561	366.80796
468.05	312.65125
468.538	372.83596
469.026	332.7274
469.513	307.5846
470.001	237.49503
470.489	325.69809
470.976	306.64241
471.463	312.71867
471.951	274.63165
472.438	317.68032
472.925	238.50936
473.412	223.50332
473.899	295.62109
474.385	251.57021
474.872	263.56201
475.359	227.51569
475.845	248.47006
476.331	234.46197
476.817	225.50368
477.303	242.51881
477.789	240.53449
478.275	179.41916
478.761	234.52005
479.247	176.36558
479.732	279.64715
480.218	190.4653
480.703	266.6203
481.188	190.37616
481.673	177.38135
482.158	230.45663
482.643	207.49249
483.128	138.2956
483.612	191.41487
484.097	179.41044
484.581	132.28483
485.066	168.38205
485.55	137.2807
486.034	181.37034
486.518	173.38297
487.002	142.32998
487.486	145.33569
487.969	174.40641
488.453	167.39977
488.936	136.28817
489.42	150.31297
489.903	221.52054
490.386	210.41906
490.869	129.25988
491.352	127.29261
491.835	91.17606
492.318	137.29454
492.8	112.21654
493.283	173.41918
493.765	117.27612
494.247	120.26304
494.73	109.22859
495.212	125.28525
495.694	117.2602
496.175	101.22964
496.657	160.36298
497.139	121.1872
497.62	99.22646
498.102	92.2202
498.583	49.11699
499.064	121.26003
499.545	86.18724
500.026	125.26503
500.507	80.17566
500.988	46.1093
501.469	-5.01215
501.949	90.21063
502.43	37.08484
502.91	77.15119
503.39	74.17766
503.87	93.21008
504.35	48.1077
504.83	97.2027
505.31	89.20784
505.79	56.12926
506.269	72.16009
506.749	52.11413
507.228	67.15129
507.707	84.1776
508.187	30.06867
508.666	29.06868
509.145	54.12156
509.623	26.05903
510.102	36.08402
510.581	61.14016
511.059	117.28329
511.538	39.0974
512.016	77.17798
512.494	40.09303
512.972	92.21142
513.45	67.15154
513.928	41.0965
514.406	107.25252
514.884	56.14135
515.361	71.16548
515.839	99.2144
516.316	48.11075
516.793	66.16056
517.27	75.17577
517.747	103.25426
518.224	40.0889
518.701	68.14597
519.178	78.1901
519.654	26.05858
520.131	41.09721
520.607	70.16709
521.083	30.06687
521.56	40.09097
522.036	30.06401
522.512	64.15195
522.987	84.1942
523.463	92.21066
523.939	71.1675
524.414	65.14305
524.89	46.10465
525.365	49.10834
525.84	64.15101
526.315	-20.04688
526.79	37.07999
527.265	46.0999
527.74	31.07319
528.215	74.16842
528.689	133.28348
529.164	71.14448
529.638	13.03269
530.112	66.15216
530.587	56.11679
531.061	103.2394
531.534	33.07697
532.008	46.1077
532.482	37.0803
532.956	72.18031
533.429	-15.0346
533.903	42.08872
534.376	39.08298
534.849	54.12141
535.322	81.18365
535.795	96.22485
536.268	79.18413
536.741	62.14339
537.213	100.22179
537.686	33.07752
538.158	53.11498
538.631	39.09108
539.103	30.06521
539.575	95.18777
540.047	70.14722
540.519	77.17515
540.991	98.22737
541.463	112.26058
541.934	68.15025
542.406	74.17047
542.877	64.13863
543.348	36.08207
543.82	93.21804
544.291	67.14776
544.762	81.18424
545.233	111.26997
545.703	88.18744
546.174	136.30213
546.645	135.3139
547.115	113.26129
547.585	168.36981
548.056	176.40995
548.526	228.50272
548.996	135.30881
549.466	133.30693
549.935	203.46005
550.405	139.29266
550.875	164.366
551.344	162.37199
551.814	139.29794
552.283	228.45562
552.752	176.38563
553.221	169.34579
553.69	239.49522
554.159	267.62128
554.628	170.358
555.096	185.44353
555.565	209.43364
556.033	208.45612
556.502	209.47326
556.97	197.40582
557.438	234.51681
557.906	233.51449
558.374	188.40427
558.842	202.45434
559.31	174.36288
559.777	226.51436
560.245	191.41523
560.712	146.31382
561.18	183.37749
561.647	202.41921
562.114	237.50206
562.581	285.65268
563.048	234.49299
563.514	212.49146
563.981	154.33116
564.448	259.53834
564.914	227.4897
565.381	235.48759
565.847	213.46305
566.313	223.48128
566.779	291.60863
567.245	242.52687
567.711	245.55094
568.176	265.56554
568.642	248.58628
569.108	266.60857
569.573	234.50491
570.038	251.48982
570.504	275.57669
570.969	243.56722
571.434	299.60734
571.899	345.75381
572.363	278.58157
572.828	321.66334
573.293	312.65645
573.757	274.58589
574.222	342.70435
574.686	305.63225
575.15	283.62567
575.614	250.53087
576.078	243.53006
576.542	317.66418
577.006	345.71357
577.469	348.77947
577.933	256.52629
578.396	304.6742
578.86	283.61076
579.323	273.60332
579.786	290.5701
580.249	309.64799
580.712	283.63455
581.175	249.57391
581.637	262.5646
582.1	258.51772
582.563	161.31434
583.025	249.56314
583.487	160.30119
583.95	211.42449
584.412	259.49415
584.874	245.55229
585.336	208.464
585.797	222.44363
586.259	156.3408
586.721	182.40315
587.182	229.48872
587.643	216.45587
588.105	199.44383
588.566	192.37655
589.027	250.56759
589.488	152.32545
589.949	169.38191
590.41	217.39613
590.87	122.25839
591.331	169.33513
591.791	131.28273
592.252	137.29733
592.712	171.38643
593.172	177.37365
593.632	158.31456
594.092	179.37289
594.552	173.34483
595.011	148.32414
595.471	154.32374
595.931	169.35206
596.39	179.40468
596.849	169.36865
597.308	184.36974
597.768	182.43725
598.227	190.42981
598.685	174.36707
599.144	168.36857
599.603	231.5073
600.062	192.37121
600.52	233.48214
600.978	235.52151
601.437	263.55007
601.895	247.4795
602.353	237.47745
602.811	218.44655
603.269	258.56624
603.727	243.53927
604.184	213.44629
604.642	254.57316
605.099	266.56386
605.557	271.5999
606.014	299.58128
606.471	331.76501
606.928	410.81438
607.385	347.78411
607.842	422.87106
608.299	383.79748
608.755	416.89372
609.212	425.842
609.668	404.80321
610.125	432.9193
610.581	437.89453
611.037	438.87364
611.493	411.85502
611.949	430.9222
612.405	515.88994
612.861	479.96452
613.316	508.06738
613.772	522.03655
614.227	513.05302
614.683	545.99305
615.138	536.10205
615.593	429.87179
616.048	565.08216
616.503	508.08707
616.958	535.16886
617.412	517.06029
617.867	552.059
618.321	533.90686
618.776	486.92753
619.23	563.14596
619.684	484.93536
620.138	545.05385
620.592	510.07111
621.046	513.03216
621.5	506.0655
621.954	550.04296
622.407	547.02994
622.861	436.92014
623.314	537.04629
623.768	489.99462
624.221	541.90112
624.674	435.86786
625.127	427.88118
625.58	424.82332
626.033	436.822
626.485	404.85561
626.938	443.91871
627.39	446.90985
627.843	418.84189
628.295	468.94346
628.747	434.90829
629.199	432.87129
629.651	438.87486
630.103	459.92425
630.555	421.76549
631.006	409.84555
631.458	396.81263
631.909	453.89538
632.361	409.82964
632.812	416.85058
633.263	387.72191
633.714	382.70321
634.165	329.70151
634.616	433.89757
635.067	449.84506
635.518	385.79951
635.968	488.81883
636.419	410.76311
636.869	407.84481
637.319	443.89285
637.769	505.97525
638.219	466.94979
638.669	462.96902
639.119	546.13576
639.569	525.10582
640.019	560.09041
640.468	519.96915
640.918	612.2371
641.367	611.14731
641.816	603.1317
642.265	617.19506
642.714	677.30648
643.163	594.12767
643.612	657.3455
644.061	675.14791
644.51	797.46575
644.958	731.29907
645.406	749.47954
645.855	736.4827
646.303	840.54924
646.751	795.46645
647.199	766.37303
647.647	864.59836
648.095	819.4882
648.543	893.35421
648.99	902.71696
649.438	914.68685
649.885	900.79774
650.333	855.22026
650.78	942.83053
651.227	922.79331
651.674	930.65236
652.121	899.70834
652.568	928.78448
653.015	870.73294
653.461	923.72769
653.908	977.74818
654.354	879.63628
654.801	896.66675
655.247	974.60609
655.693	900.90718
656.139	888.68618
656.585	936.77059
657.031	954.75644
657.477	916.5377
657.922	973.74637
658.368	1002.91317
658.813	869.54732
659.259	879.69376
659.704	899.66945
660.149	883.62668
660.594	902.69869
661.039	868.57624
661.484	893.69363
661.929	900.65102
662.373	908.87566
662.818	925.85072
663.262	875.67717
663.707	843.73313
664.151	935.83801
664.595	906.74378
665.039	876.74571
665.483	951.95797
665.927	899.65704
666.371	945.72897
666.814	920.72841
667.258	964.81123
667.701	947.51619
668.145	913.80397
668.588	955.86067
669.031	927.7386
669.474	964.81478
669.917	980.63478
670.36	959.86759
670.803	1003.86758
671.245	1029.58563
671.688	991.87436
672.13	954.63744
672.573	1047.08873
673.015	990.83832
673.457	996.65521
673.899	1043.92784
674.341	1017.89464
674.783	993.8681
675.225	1118.08337
675.666	1044.94552
676.108	1164.83006
676.549	1105.95155
676.991	1127.79963
677.432	1102.52554
677.873	1090.87565
678.314	1051.91082
678.755	1144.111
679.196	1154.96092
679.637	1102.01609
680.078	1078.88844
680.518	1146.91805
680.959	1089.97109
681.399	1104.06632
681.839	1168.11586
682.28	1141.14676
682.72	1160.92891
683.16	1170.20309
683.6	1215.98494
684.039	1178.70715
684.479	1179.16769
684.919	1182.02475
685.358	1242.32426
685.798	1149.29787
686.237	1256.19332
686.676	1274.09059
687.115	1293.16123
687.554	1244.136
687.993	1242.88854
688.432	1343.16386
688.871	1283.04916
689.309	1418.44029
689.748	1352.8763
690.186	1361.24598
690.625	1376.30393
691.063	1407.38996
691.501	1433.49162
691.939	1422.50925
692.377	1509.52744
692.815	1482.4665
693.253	1454.36047
693.69	1520.15733
694.128	1577.60658
694.565	1495.42957
695.003	1549.72539
695.44	1545.39764
695.877	1497.39239
696.314	1597.12834
696.751	1620.33136
697.188	1648.44093
697.625	1660.36774
698.061	1671.60578
698.498	1711.65205
698.934	1685.58271
699.371	1726.59638
699.807	1755.61644
700.243	1702.68892
700.679	1790.44929
701.115	1807.57852
701.551	1826.66328
701.987	1851.40631
702.422	1912.71518
702.858	1922.70605
703.294	1915.48493
703.729	1970.92749
704.164	1919.82754
704.599	1893.40987
705.035	1995.53302
705.47	2060.99306
705.904	2050.69062
706.339	2103.64553
706.774	2068.71133
707.209	2131.68374
707.643	2160.90644
708.078	2143.94704
708.512	2152.21784
708.946	2133.84049
709.38	2222.82041
709.814	2274.65747
710.248	2253.9432
710.682	2307.96087
711.116	2288.98754
711.549	2230.2803
711.983	2280.71089
712.416	2339.80884
712.85	2362.22325
713.283	2359.89174
713.716	2363.17481
714.149	2368.85622
714.582	2384.64101
715.015	2443.17536
715.448	2367.14784
715.881	2433.39057
716.313	2457.90157
716.746	2418.91728
717.178	2422.96934
717.61	2524.33342
718.043	2457.13989
718.475	2429.00372
718.907	2412.1675
719.339	2486.69698
719.77	2443.00323
720.202	2499.28096
720.634	2497.12759
721.065	2440.8938
721.497	2460.11986
721.928	2457.15661
722.359	2478.11846
722.79	2473.97748
723.221	2438.17797
723.652	2347.28223
724.083	2397.61948
724.514	2319.61057
724.945	2348.84888
725.375	2401.8181
725.806	2347.0479
726.236	2322.27745
726.666	2333.81905
727.096	2400.03448
727.526	2396.30423
727.956	2349.66566
728.386	2261.95012
728.816	2277.23097
729.246	2273.03628
729.675	2314.12973
730.105	2272.0085
730.534	2242.77213
730.964	2234.09749
731.393	2202.94368
731.822	2236.25805
732.251	2257.24508
732.68	2233.66305
733.109	2232.05016
733.537	2196.90321
733.966	2164.01476
734.395	2216.65226
734.823	2143.50804
735.251	2121.87181
735.68	2155.04037
736.108	2023.02221
736.536	2149.7606
736.964	2056.62781
737.392	2025.95276
737.82	2042.77009
738.247	2036.73699
738.675	2047.70339
739.102	2087.09395
739.53	1982.10995
739.957	1976.07758
740.384	1950.80447
740.811	2057.10843
741.238	2012.82667
741.665	1986.68711
742.092	1960.67159
742.519	1963.96636
742.945	1890.70328
743.372	1879.86914
743.798	1880.01979
744.225	1816.60839
744.651	1799.82225
745.077	1836.84421
745.503	1825.69811
745.929	1711.56059
746.355	1737.6603
746.781	1759.7462
747.207	1763.59727
747.632	1701.68048
748.058	1595.5992
748.483	1761.40192
748.908	1686.70721
749.334	1654.62713
749.759	1611.41913
750.184	1624.48307
750.609	1617.56996
751.033	1573.32778
751.458	1670.32184
751.883	1567.55319
752.307	1577.46194
752.732	1475.58782
753.156	1464.46814
753.58	1459.30228
754.005	1388.51853
754.429	1411.19039
754.853	1434.47058
755.277	1407.28806
755.7	1361.36457
756.124	1401.47393
756.548	1321.20591
756.971	1331.26741
757.394	1320.45861
757.818	1265.4155
758.241	1210.24648
758.664	1265.36107
759.087	1278.02439
759.51	1216.2098
759.933	1177.08971
760.356	1199.27928
760.778	1243.26757
761.201	1081.91696
761.623	1074.90107
762.046	1002.73108
762.468	1123.97214
762.89	1102.03326
763.312	1045.90756
763.734	1054.92064
764.156	1015.93103
764.578	990.67952
765	1005.87316
765.421	926.91116
765.843	979.03835
766.264	958.75677
766.686	943.87895
767.107	952.81668
767.528	923.88073
767.949	898.81609
768.37	833.62189
768.791	851.61306
769.212	845.74425
769.632	730.36954
770.053	797.73464
770.473	817.59371
770.894	757.51912
771.314	751.41836
771.734	685.28781
772.154	738.56912
772.575	739.365
772.994	709.30165
773.414	687.31123
773.834	671.40951
774.254	658.32658
774.673	673.34164
775.093	637.33271
775.512	551.16831
775.931	645.39408
776.351	497.05592
776.77	553.15724
777.189	524.04634
777.607	546.20525
778.026	535.15259
778.445	550.19991
778.864	489.08306
779.282	487.99507
779.701	496.08329
780.119	392.87222
780.537	438.95514
780.955	448.99307
781.373	427.92307
781.791	477.91852
782.209	505.99115
782.627	444.04123
783.045	409.81485
783.462	364.82369
783.88	410.94923
784.297	343.77254
784.715	371.86832
785.132	321.69247
785.549	359.81287
785.966	342.7654
786.383	384.84167
786.8	321.66066
787.217	303.6385
787.633	236.53994
788.05	300.61341
788.466	267.55794
788.883	287.67228
789.299	260.55812
789.715	322.7046
790.131	245.55049
790.547	210.46982
790.963	245.55342
791.379	262.60447
791.795	192.39579
792.21	240.50274
792.626	185.40013
793.041	222.49584
793.457	171.38706
793.872	243.51634
794.287	306.67214
794.702	241.53505
795.117	157.35812
795.532	164.38636
795.947	144.31525
796.362	185.3979
796.776	141.29177
797.191	135.30446
797.605	186.40909
798.02	136.30978
798.434	145.2905
798.848	148.33466
799.262	209.48403
799.676	165.36557
800.09	115.26158
800.504	124.27834
800.918	89.19052
801.331	77.18889
801.745	98.20711
802.158	101.23549
802.572	107.23934
802.985	87.19292
803.398	115.25384
803.811	122.29021
804.224	72.16732
804.637	8.01771
805.05	159.3358
805.462	152.34245
805.875	99.2469
806.288	117.2657
806.7	112.26253
807.112	104.22258
807.525	94.21784
807.937	49.11452
808.349	60.14081
808.761	5.01148
809.173	56.12565
809.584	115.262
809.996	36.08382
810.408	45.111
810.819	82.18013
811.231	83.20834
811.642	121.28001
812.053	61.13886
812.464	125.27776
812.875	139.33186
813.286	24.05854
813.697	57.12033
814.108	71.16019
814.519	71.14462
814.929	36.0858
815.34	38.08649
815.75	67.16045
816.16	7.01623
816.571	44.10856
816.981	43.09332
817.391	52.11715
817.801	73.17295
818.211	134.29534
818.62	55.12369
819.03	39.08875
819.44	34.08388
819.849	45.1076
820.259	84.20266
820.668	49.11515
821.077	36.08488
821.486	31.06917
821.895	36.0819
822.304	70.17587
822.713	15.03323
823.122	91.21393
823.531	65.14467
823.939	36.08286
824.348	50.11454
824.756	14.03307
825.164	24.05661
825.573	-1.00239
825.981	23.05397
826.389	-10.02355
826.797	59.13935
827.205	28.06013
827.612	63.14429
828.02	2.00449
828.428	13.03131
828.835	7.01769
829.243	31.06897
829.65	52.12227
830.057	76.17438
830.464	74.17081
830.871	46.10249
831.278	-22.05001
831.685	43.08758
832.092	38.0881
832.499	38.07643
832.905	78.18612
833.312	33.06945
833.718	34.07939
834.124	14.03007
834.531	33.07803
834.937	-12.02908
835.343	50.11311
835.749	35.07538
836.155	-5.01248
836.561	-32.07351
836.966	35.0801
837.372	7.01685
837.777	2.0047
838.183	-30.06098
838.588	41.09657
838.993	-16.03645
839.399	-20.04627
839.804	53.1229
840.209	25.06103
840.613	69.14336
841.018	-45.10789
841.423	-1.00241
841.828	9.02158
842.232	22.05032
842.637	-42.09241
843.041	15.03727
843.445	-4.00943
843.849	-2.0047
844.253	-23.05117
844.657	2.00484
845.061	45.09504
845.465	69.15955
845.869	42.09032
846.272	13.02991
846.676	63.14272
847.079	11.02684
847.483	58.1351
847.886	-30.06792
848.289	25.06487
848.692	26.06209
849.095	-22.0494
849.498	5.01173
849.901	-10.02129
850.304	20.04443
850.707	11.02651
851.109	-16.03767
851.512	53.12329
851.914	26.06353
852.316	0
852.718	15.03742
853.121	14.03243
853.523	9.01967
853.925	-31.07793
854.326	80.18994
854.728	2.0049
855.13	19.04706
855.531	57.12971
855.933	27.06049
856.334	53.12508
856.736	-27.05637
857.137	0
857.538	-48.11585
857.939	57.13327
858.34	-4.00914
858.741	36.08908
859.142	-17.03881
859.542	89.22653
859.943	40.09449
860.343	34.08004
860.744	43.09884
861.144	34.07785
861.544	21.04841
861.945	-35.08471
862.345	-35.07977
862.745	-12.02835
863.145	22.04808
863.544	53.12775
863.944	9.01987
864.344	5.01156
864.743	60.13926
865.143	23.056
865.542	-68.1495
865.941	58.13601
866.34	51.11413
866.74	2.00514
867.139	49.1106
867.537	-2.00481
867.936	45.10182
868.335	71.17107
868.734	66.16062
869.132	56.12193
869.531	44.09913
869.929	-4.00867
870.327	23.05177
870.726	4.00939
871.124	19.04106
871.522	-9.02159
871.92	20.04635
872.318	48.11022
872.715	54.1243
873.113	7.01615
873.511	-12.02848
873.908	44.10768
874.306	-3.00711
874.703	19.04477
875.1	-36.08735
875.497	10.02238
875.894	27.06362
876.291	41.09526
876.688	-22.05414
877.085	25.05585
877.482	-26.0614
877.878	12.02731
878.275	22.05264
878.671	-13.02615
879.068	43.0967
879.464	40.09082
879.86	50.112
880.256	-6.01379
880.652	-17.04115
881.048	-11.02546
881.444	10.02197
881.84	2.0048
882.236	-6.01436
882.631	41.09462
883.027	7.01566
883.422	11.02663
883.817	6.01451
884.213	60.14525
884.608	2.0047
885.003	5.01141
885.398	4.00949
885.793	-11.02608
886.188	52.12313
886.582	25.05928
886.977	43.09483
887.371	9.02152
887.766	17.0404
888.16	31.07296
888.554	-18.04163
888.949	4.00934
889.343	13.0294
889.737	32.08276
890.131	44.10443
890.525	27.06503
890.918	29.06958
891.312	-14.03092
891.706	65.16246
892.099	6.0144
892.492	37.07351
892.886	-13.02989
893.279	14.03384
893.672	19.04602
894.065	-1.00236
894.458	-11.02621
894.851	47.10565
895.244	32.07741
895.637	27.06117
896.029	6.01384
896.422	7.01603
896.814	18.04234
897.206	-9.02052
897.599	-41.09409
897.991	19.04338
898.383	-9.01992
898.775	-5.01051
899.167	57.12513
899.559	13.03092
899.951	-9.01989
900.342	8.01888
900.734	25.06005
901.125	43.10552
901.517	4.00934
901.908	2.00445
902.299	29.06701
902.69	56.12301
903.082	50.11283
903.473	-3.00687
903.863	27.06596
904.254	22.04739
904.645	-10.02317
905.036	3.00698
905.426	-23.04774
905.817	40.09192
906.207	-35.07968
906.597	30.06584
906.987	-14.03407
907.378	-16.03824
907.768	29.07321
908.158	53.12109
908.547	19.0468
908.937	-7.01699
909.327	8.01818
909.717	6.01426
910.106	3.00679
910.495	60.14108
910.885	-7.01651
911.274	23.05453
911.663	71.17042
912.052	22.0505
912.441	63.15202
912.83	16.03402
913.219	-19.04687
913.608	26.05973
913.997	-9.02142
914.385	-9.01997
914.774	15.03415
915.162	-3.00669
915.55	48.10836
915.939	8.01924
916.327	22.05167
916.715	46.11165
917.103	54.12281
917.491	-3.0069
917.878	-28.06406
918.266	15.03682
918.654	42.10255
919.041	-51.12834
919.429	47.10383
919.816	19.04521
920.203	15.03426
920.591	11.0255
920.978	37.0845
921.365	9.02236
921.752	53.11826
922.139	39.07857
922.525	-15.03402
922.912	-6.01374
923.299	23.0542
923.685	5.01243
924.072	9.01908
924.458	38.08848
924.844	13.0303
925.231	-21.04563
925.617	32.07834
926.003	34.08194
926.389	22.053
926.774	39.09358
927.16	55.12693
927.546	27.06552
927.931	47.10985
928.317	25.05238
928.702	9.01973
929.088	-10.02241
929.473	36.08653
929.858	45.10406
930.243	39.08821
930.628	-7.01602
931.013	73.17128
931.398	38.07999
931.783	22.05494
932.167	-8.01836
932.552	13.03025
932.937	0
933.321	19.04477
933.705	52.12465
934.09	16.03749
934.474	25.05532
934.858	6.01488
935.242	49.1073
935.626	23.0554
936.009	-7.01779
936.393	37.08969
936.777	51.12418
937.16	-22.05392
937.544	34.07415
937.927	2.00484
938.311	24.05438
938.694	15.03768
939.077	-5.01117
939.46	32.07392
939.843	35.06535
940.226	-16.03885
940.609	3.0064
940.991	4.00966
941.374	-44.10168
941.757	40.09211
942.139	4.00828
942.522	15.0326
942.904	53.11904
943.286	42.09926
943.668	18.04415
944.05	57.13097
944.432	36.08376
944.814	2.00459
945.196	25.05813
945.578	74.16556
945.959	21.04608
946.341	10.02256
946.722	30.06593
947.104	-3.00668
947.485	-5.01087
947.866	22.05288
948.247	26.06194
948.628	25.05666
949.009	17.04141
949.39	1.0023
949.771	2.00431
950.152	48.11088
950.532	57.13583
950.913	-5.01121
951.293	17.04431
951.674	-18.04075
952.054	16.03755
952.434	2.00464
952.814	-48.10615
953.194	51.12627
953.574	12.02733
953.954	15.03337
954.334	-1.00237
954.714	26.05973
955.093	15.03413
955.473	-13.03057
955.853	22.05422
956.232	-3.00789
956.611	14.03075
956.99	50.11853
957.37	61.14575
957.749	7.01548
958.128	35.08404
958.506	19.04723
958.885	-1.00238
959.264	16.03699
959.643	47.09909
960.021	-2.0047
960.4	55.11692
960.778	17.0385
961.156	-8.01901
961.535	-47.10079
961.913	11.02346
962.291	3.00742
962.669	-34.08252
963.047	-5.01194
963.424	21.05092
963.802	-51.11812
964.18	37.08722
964.557	18.03784
964.935	42.09203
965.312	40.0992
965.69	6.01409
966.067	26.05877
966.444	30.06922
966.821	-17.04146
967.198	-23.05179
967.575	21.04784
967.952	38.0833
968.329	29.06572
968.705	12.02326
969.082	25.06112
969.458	24.05478
969.835	-14.0321
970.211	-12.02937
970.587	52.12108
970.963	33.0796
971.339	-16.04031
971.715	-61.14301
972.091	28.06442
972.467	-24.05571
972.843	-6.0141
973.219	40.08783
973.594	25.06212
973.97	13.02848
974.345	13.02913
974.721	-6.01357
975.096	-13.02934
975.471	24.05334
975.846	28.06344
976.221	25.06005
976.596	15.03375
976.971	37.08559
977.346	30.06382
977.72	-4.00964
978.095	66.16068
978.469	28.06254
978.844	44.10334
979.218	32.07248
979.593	49.10938
979.967	20.04604
980.341	-18.03854
980.715	16.03778
981.089	-5.0117
981.463	60.12886
981.837	12.02785
982.21	31.06625
982.584	-79.18122
982.957	-10.0239
983.331	45.09879
983.704	-5.0117
984.078	-30.06969
984.451	-26.0598
984.824	6.0139
985.197	-14.03195
985.57	7.01639
985.943	16.03624
986.316	65.14821
986.688	-22.04979
987.061	5.01082
987.434	6.0149
987.806	44.09877
988.179	-7.01539
988.551	-23.05498
988.923	-43.1003
989.295	65.15084
989.667	24.05496
990.039	-4.0094
990.411	32.06911
990.783	-4.00855
991.155	41.09364
991.527	-5.01132
991.898	8.01866
992.27	28.06522
992.641	13.03053
993.012	65.14245
993.384	8.0179
993.755	-6.01443
994.126	6.01358
994.497	-43.10026
994.868	44.09388
995.239	32.07301
995.61	-18.04285
995.98	53.12143
996.351	25.05875
996.722	19.0415
997.092	11.02472
997.462	12.02659
997.833	48.10495
998.203	-19.04315
998.573	4.00949
998.943	-12.02607
999.313	15.03391
999.683	-56.12632
1000.053	52.11115
1000.423	-12.02751
1000.792	29.07122
1001.162	0
1001.531	53.12285
1001.901	-51.12055
1002.27	8.01672
1002.639	14.03399
1003.009	47.10561
1003.378	33.07975
1003.747	37.08088
1004.116	-9.02043
1004.485	39.08749
1004.853	22.0526
1005.222	61.14564
1005.591	8.0176
1005.959	64.13484
1006.328	-26.05459
1006.696	3.00687
1007.064	15.03565
1007.433	60.14092
1007.801	53.12012
1008.169	-26.0619
1008.537	42.08596
1008.905	21.04587
1009.273	33.07625
1009.64	-29.06588
1010.008	10.02224
1010.375	72.16148
1010.743	26.05422
1011.11	27.05985
1011.478	17.03945
1011.845	-6.01299
1012.212	-11.02299
1012.579	10.02318
1012.946	16.03494
1013.313	52.11427
1013.68	10.02067
1014.047	42.09486
1014.414	48.1065
1014.78	27.06377
1015.147	-32.07195
1015.513	91.20607
1015.88	-13.03106
1016.246	37.08573
1016.612	10.02104
1016.978	4.00919
1017.344	15.03533
1017.71	-10.02243
1018.076	50.10882
1018.442	4.0097
1018.808	-1.00237
1019.174	-33.07824
1019.539	27.05565
1019.905	13.0289
1020.27	-8.01888
1020.636	11.02463
1021.001	21.04661
1021.366	31.07106
1021.731	52.12631
1022.096	23.05533
1022.461	-29.06385
1022.826	33.07324
1023.191	12.02995
1023.556	7.01508
1023.92	-4.00915
1024.285	-6.01372
1024.649	22.0506
1025.014	0
1025.378	41.09796
1025.742	1.00234
1026.107	-10.0208
1026.471	-22.04702
1026.835	9.02075
1027.199	-5.01141
1027.562	45.09758
1027.926	2.00458
1028.29	10.02401
1028.654	22.04643
1029.017	31.07165
1029.381	12.02702
1029.744	49.11833
1030.107	6.013
1030.471	-35.07884
1030.834	-24.0501
1031.197	16.03541
1031.56	69.1523
1031.923	-35.08637
1032.286	31.06708
1032.648	28.06192
1033.011	24.05137
1033.374	14.03017
1033.736	-30.07548
1034.099	11.02536
1034.461	37.08885
1034.823	-55.13
1035.185	-42.09907
1035.548	-24.05507
1035.91	84.18739
1036.272	38.08006
1036.634	10.02262
1036.995	42.09269
1037.357	-4.0092
1037.719	15.03415
1038.08	-33.07238
1038.442	48.10832
1038.803	-4.00895
1039.165	27.06429
1039.526	6.01363
1039.887	18.04062
1040.248	58.13659
1040.609	24.05549
1040.97	-12.02763
1041.331	-17.04007
1041.692	53.11581
1042.053	-19.03997
1042.413	-40.08661
1042.774	45.10132
1043.134	-13.02867
1043.495	-8.01887
1043.855	-8.0183
1044.215	-24.05623
1044.576	20.04515
1044.936	58.12316
1045.296	23.05356
1045.656	26.0597
1046.016	9.02005
1046.375	49.11182
1046.735	64.13543
1047.095	57.1236
1047.454	13.02521
1047.814	-46.10389
1048.173	21.04581
1048.533	11.02363
1048.892	-11.02512
1049.251	28.06602
1049.61	-26.05985
1049.969	16.03553
1050.328	7.01378
1050.687	43.09729
1051.046	45.10315
1051.405	-32.07442
1051.763	8.01726
1052.122	28.06643
1052.48	28.06381
1052.839	-5.01105
1053.197	35.07674
1053.555	-42.08627
1053.914	11.02512
1054.272	19.04276
1054.63	-46.10614
1054.988	22.04865
1055.345	1.00196
1055.703	24.05332
1056.061	-3.00733
1056.419	36.08846
1056.776	10.0226
1057.134	1.00215
1057.491	-6.01415
1057.848	25.05797
1058.206	-11.02421
1058.563	18.03712
1058.92	-9.01913
1059.277	-34.07792
1059.634	11.02356
1059.991	30.06734
1060.348	15.03183
1060.704	-11.02474
1061.061	-24.05092
1061.418	14.0321
1061.774	86.20009
1062.131	53.13557
1062.487	-37.08081
1062.843	6.01408
1063.199	43.10081
1063.555	30.06518
1063.911	30.07087
1064.267	-17.03169
1064.623	26.05989
1064.979	-22.04753
1065.335	-36.07965
1065.691	54.12141
1066.046	-8.01614
1066.402	28.05884
1066.757	66.15579
1067.112	-2.00456
1067.468	10.02254
1067.823	23.05185
1068.178	12.0274
1068.533	-5.01129
1068.888	-6.01328
1069.243	35.08135
1069.598	-39.08817
1069.952	6.01284
1070.307	50.11789
1070.662	0
1071.016	-4.00845
1071.371	-20.04234
1071.725	-27.05905
1072.079	-21.04748
1072.434	-6.0137
1072.788	54.12027
1073.142	52.12041
1073.496	22.04875
1073.85	9.01939
1074.203	-9.02045
1074.557	20.05095
1074.911	-8.01767
1075.265	14.02986
1075.618	40.09152
1075.971	11.0243
1076.325	15.03603
1076.678	12.02555
1077.031	6.01259
1077.385	55.11182
1077.738	20.04199
1078.091	22.04727
1078.444	2.00426
1078.796	21.04873
1079.149	-18.04173
1079.502	7.01552
1079.855	26.05675
1080.207	3.00693
1080.56	-35.0863
1080.912	-37.08379
1081.264	5.01128
1081.617	21.04812
1081.969	88.21102
1082.321	30.06858
1082.673	7.01511
1083.025	-39.08648
1083.377	-277.57319
1083.728	-36.07721
1084.08	26.06142
1084.432	-53.11826
1084.783	88.19135
1085.135	31.07418
1085.486	19.04083
1085.838	17.03933
1086.189	-17.0389
1086.54	15.03346
1086.891	34.08215
1087.242	-30.06847
1087.593	-7.01586
1087.944	11.02301
1088.295	-14.02929
1088.646	17.03868
1088.996	-26.05903
1089.347	7.01602
1089.698	5.0112
1090.048	11.02681
1090.398	65.13969
1090.749	52.11586
1091.099	6.01443
1091.449	-14.03271
1091.799	46.10745
1092.149	28.06568
1092.499	19.04364
1092.849	48.11471
1093.199	48.11172
1093.548	72.16135
1093.898	19.04488
1094.248	12.02914
1094.597	13.03194
1094.947	-18.04584
1095.296	-14.03248
1095.645	9.02207
1095.994	-13.02957
1096.343	46.10989
1096.692	-2.00507
1097.041	3.00784
1097.39	14.03293
1097.739	55.13512
1098.088	9.02266
1098.437	-5.0126
1098.785	-14.03591
1099.134	-1.00249
1099.482	-33.08659
1099.83	35.0865
1100.179	-4.0101
1100.527	-18.04535
1100.875	-25.06327
1101.223	34.08637
1101.571	7.01865
1101.919	-31.07843
1102.267	61.16589
1102.615	15.04814
1102.962	6.01925
1103.31	17.05451
1103.658	-4.01283
