Data from N2 R2  sample 11_Subt2__0__15-12-09-820.txt Node

Date: Wed Aug 27 15:12:09 PDT 2025
User: uwsun
Spectrometer: HDX01956
Trigger mode: 0
Integration Time (sec): 5.000000E-1
Scans to average: 1
Nonlinearity correction enabled: true
Boxcar width: 0
Storing dark spectrum: false
XAxis mode: Wavelengths
Number of Pixels in Spectrum: 2068
>>>>>Begin Spectral Data<<<<<
194.03	205.58036
194.578	203.6468
195.127	216.67776
195.676	207.65203
196.225	212.56294
196.773	206.56942
197.321	331.89617
197.87	435.07991
198.418	439.10132
198.966	465.17333
199.513	486.17926
200.061	447.10935
200.609	440.11864
201.156	465.99445
201.704	472.16105
202.251	432.10676
202.798	449.14256
203.345	458.09624
203.892	440.07186
204.438	461.06832
204.985	474.09047
205.532	438.1155
206.078	502.18984
206.624	513.22039
207.17	498.11425
207.716	486.15497
208.262	455.87278
208.808	497.18725
209.354	470.11603
209.899	501.2073
210.445	477.14461
210.99	467.09164
211.535	484.09843
212.08	532.19191
212.625	495.18562
213.17	454.09738
213.715	471.02751
214.259	485.08222
214.804	515.21812
215.348	509.11713
215.892	499.14465
216.436	454.01146
216.98	485.03486
217.524	492.11436
218.068	489.16545
218.612	532.27799
219.155	493.11187
219.698	413.95257
220.242	431.02739
220.785	405.92222
221.328	456.09476
221.871	408.98563
222.414	437.05284
222.956	412.96858
223.499	383.84814
224.041	402.92444
224.583	399.83301
225.126	437.94388
225.668	440.04066
226.21	425.03159
226.751	408.8822
227.293	449.98928
227.835	358.85476
228.376	473.05409
228.918	465.12169
229.459	453.09393
230	400.918
230.541	478.06503
231.082	448.05308
231.622	456.02892
232.163	410.97176
232.704	437.05205
233.244	384.91612
233.784	446.04104
234.324	381.82682
234.864	405.89647
235.404	397.91057
235.944	416.95165
236.484	422.00493
237.023	446.02186
237.563	434.97485
238.102	371.84311
238.641	397.96972
239.18	389.89473
239.719	453.09557
240.258	413.90159
240.797	488.1272
241.335	446.04593
241.874	436.82442
242.412	414.96304
242.95	408.95993
243.488	516.1337
244.026	437.97293
244.564	402.80407
245.102	465.01954
245.64	455.05522
246.177	448.96577
246.715	419.96641
247.252	419.92784
247.789	420.75145
248.326	487.13313
248.863	426.91205
249.4	458.98817
249.936	506.00986
250.473	476.06626
251.009	464.03293
251.546	515.09898
252.082	449.9403
252.618	478.03334
253.154	439.01724
253.69	507.09591
254.226	393.89851
254.761	488.0532
255.297	490.0417
255.832	424.96449
256.367	527.18819
256.903	511.07487
257.438	452.00824
257.972	474.02817
258.507	510.13176
259.042	456.94208
259.576	519.07207
260.111	438.97616
260.645	462.95533
261.179	458.02165
261.713	458.9869
262.247	467.03425
262.781	454.91397
263.315	428.0052
263.849	488.16639
264.382	437.96406
264.915	530.19424
265.449	477.1255
265.982	484.05035
266.515	498.15671
267.048	446.90241
267.58	467.97064
268.113	474.99243
268.646	514.20895
269.178	547.17596
269.71	478.98398
270.243	488.06174
270.775	516.24841
271.307	492.11887
271.838	526.16926
272.37	465.0912
272.902	490.06656
273.433	507.05895
273.965	508.17161
274.496	461.08685
275.027	519.22665
275.558	531.2206
276.089	508.20223
276.62	482.16254
277.15	531.23711
277.681	508.05189
278.211	538.24582
278.741	506.07298
279.272	515.12225
279.802	531.25795
280.332	543.22083
280.861	506.15865
281.391	510.10499
281.921	483.09505
282.45	488.16683
282.98	516.27177
283.509	554.18209
284.038	460.00665
284.567	562.21733
285.096	522.1896
285.625	477.02612
286.153	543.20536
286.682	545.19325
287.21	579.30347
287.739	548.22277
288.267	529.21551
288.795	547.35295
289.323	551.21655
289.851	569.23801
290.378	607.28891
290.906	618.41318
291.433	552.29089
291.961	636.35204
292.488	553.27832
293.015	622.3595
293.542	608.44139
294.069	593.3736
294.596	621.41806
295.122	603.3415
295.649	557.14762
296.175	635.43375
296.702	597.34459
297.228	610.37082
297.754	566.19416
298.28	595.27108
298.806	535.20036
299.332	644.33816
299.857	612.28345
300.383	626.45154
300.908	685.55051
301.433	619.39078
301.958	619.34695
302.483	664.53972
303.008	628.409
303.533	661.58965
304.058	653.39996
304.582	651.44062
305.107	666.60138
305.631	660.37694
306.155	672.45034
306.679	649.41051
307.203	692.47059
307.727	712.55575
308.251	620.39843
308.775	638.40273
309.298	670.4904
309.822	700.60468
310.345	686.47742
310.868	728.57064
311.391	687.52414
311.914	711.63804
312.437	705.44263
312.96	740.57269
313.482	709.52798
314.005	766.74763
314.527	716.70082
315.049	749.69683
315.571	713.44651
316.093	765.69309
316.615	727.57551
317.137	747.45559
317.659	759.62465
318.18	757.62454
318.702	817.70674
319.223	749.38213
319.744	818.63377
320.265	798.72104
320.786	863.88786
321.307	890.94244
321.828	838.65135
322.348	783.62266
322.869	923.90284
323.389	874.27767
323.909	932.84885
324.43	876.81193
324.95	871.74417
325.47	911.94936
325.989	900.83009
326.509	943.80425
327.029	997.91233
327.548	886.72646
328.067	984.03475
328.587	1021.10059
329.106	1031.00178
329.625	1032.26007
330.144	994.91525
330.662	1028.00492
331.181	1020.9795
331.7	972.9086
332.218	1050.87578
332.736	1089.06265
333.255	1081.0822
333.773	1088.09322
334.291	1076.17882
334.808	1075.94963
335.326	1138.0655
335.844	1119.12784
336.361	1208.45317
336.879	1280.3628
337.396	1171.25921
337.913	1270.33035
338.43	1201.12372
338.947	1261.35935
339.464	1258.11783
339.981	1278.3591
340.497	1239.39979
341.014	1354.53822
341.53	1297.24576
342.046	1338.50325
342.562	1297.47557
343.078	1323.38022
343.594	1410.53162
344.11	1412.48253
344.626	1388.63258
345.141	1363.29748
345.657	1430.31089
346.172	1483.63023
346.687	1469.46532
347.202	1513.46724
347.717	1448.52376
348.232	1545.81377
348.747	1546.53891
349.261	1544.38017
349.776	1544.60952
350.29	1538.7667
350.805	1659.89452
351.319	1640.64
351.833	1603.56766
352.347	1648.68263
352.861	1599.63602
353.374	1626.55306
353.888	1637.67561
354.401	1687.6612
354.915	1716.66679
355.428	1693.89456
355.941	1719.68456
356.454	1736.52233
356.967	1746.72956
357.48	1713.59562
357.993	1801.92207
358.505	1841.9679
359.018	1909.02184
359.53	1850.82834
360.042	1934.64042
360.554	1931.89842
361.066	1877.97464
361.578	1925.56165
362.09	1890.86355
362.602	1878.53611
363.113	1969.79689
363.625	1910.62361
364.136	2005.61524
364.647	2018.81941
365.158	2098.88449
365.669	2093.00935
366.18	2069.87698
366.691	2040.61203
367.201	2075.91811
367.712	2137.82936
368.222	2036.70698
368.733	2106.55503
369.243	2239.68943
369.753	2250.79389
370.263	2351.08347
370.773	2328.23573
371.282	2346.97578
371.792	2378.8568
372.301	2508.13034
372.811	2575.46399
373.32	2491.56905
373.829	2526.88099
374.338	2685.65026
374.847	2745.77432
375.356	2731.86712
375.865	2917.34461
376.373	3065.54272
376.882	3126.10694
377.39	3166.82277
377.898	3208.96235
378.407	3393.42616
378.915	3518.96748
379.423	3679.32843
379.93	3799.00865
380.438	3919.32667
380.946	4236.84166
381.453	4370.93552
381.96	4415.68138
382.468	4718.40706
382.975	5151.28651
383.482	5316.87591
383.989	5383.45489
384.495	5656.7278
385.002	5764.18708
385.509	6121.46447
386.015	6576.01159
386.521	6832.30738
387.028	7156.50365
387.534	7302.54986
388.04	7591.95333
388.546	7800.20035
389.051	8089.7338
389.557	8905.57983
390.063	9542.95346
390.568	10072.59371
391.073	10365.70476
391.578	10684.07777
392.084	11065.98723
392.589	11227.07103
393.093	12029.08933
393.598	13074.59701
394.103	14246.07189
394.607	15717.37425
395.112	17006.95987
395.616	18067.85514
396.12	19619.10879
396.624	21459.13922
397.128	23402.50265
397.632	25956.81529
398.136	28357.45756
398.639	29485.12328
399.143	32755.81821
399.646	36813.56434
400.15	40907.92753
400.653	44621.17182
401.156	49807.01276
401.659	54864.39826
402.162	53578.65983
402.664	47275.14456
403.167	32260.27245
403.67	3851.94142
404.172	0
404.674	0
405.176	0
405.678	0
406.18	0
406.682	0
407.184	0
407.686	12367.42319
408.187	34596.90747
408.688	44563.94194
409.19	48906.19284
409.691	51236.67962
410.192	52883.26968
410.693	53713.23343
411.194	54189.54801
411.694	54767.79104
412.195	55625.98899
412.696	55971.27715
413.196	55815.15953
413.696	55802.1488
414.196	55740.09561
414.696	56340.4775
415.196	57067.59327
415.696	58258.21704
416.196	48770.39184
416.695	37544.24773
417.195	31268.63107
417.694	29654.68234
418.194	28083.97668
418.693	26137.43927
419.192	25088.44035
419.691	24622.64212
420.19	24244.25228
420.688	23658.30236
421.187	22596.97474
421.685	21293.6479
422.184	19452.00225
422.682	16937.32714
423.18	14332.29623
423.678	12606.08072
424.176	11815.7188
424.674	11222.51297
425.172	10648.5093
425.669	9995.0215
426.167	9405.99314
426.664	8516.52031
427.161	7701.09272
427.659	7291.83909
428.156	6732.17558
428.652	6458.89487
429.149	6064.71635
429.646	5814.44938
430.143	5472.97014
430.639	5222.07234
431.135	4977.59665
431.632	4602.45192
432.128	4371.69593
432.624	4082.42299
433.12	4014.75609
433.616	3771.74772
434.111	3649.36438
434.607	3523.42825
435.103	3509.8288
435.598	3385.72659
436.093	3177.45214
436.588	2985.29025
437.083	2920.46242
437.578	2679.39481
438.073	2616.99638
438.568	2539.85141
439.062	2523.28003
439.557	2339.64398
440.051	2320.57407
440.546	2216.58677
441.04	2191.7694
441.534	2136.93067
442.028	2057.66899
442.522	2051.71059
443.015	1991.39482
443.509	2041.83713
444.002	1947.75989
444.496	1836.27932
444.989	1907.72051
445.482	1882.78125
445.975	1885.48263
446.468	1880.34835
446.961	1715.13814
447.454	1749.43896
447.947	1672.46061
448.439	1682.5653
448.931	1666.27666
449.424	1613.62443
449.916	1641.52621
450.408	1575.23855
450.9	1436.30771
451.392	1537.56495
451.884	1488.23975
452.375	1482.45846
452.867	1411.08302
453.358	1426.1621
453.849	1378.969
454.341	1345.03036
454.832	1337.9569
455.323	1401.36319
455.814	1393.15721
456.304	1359.14447
456.795	1347.14846
457.285	1280.96975
457.776	1269.99101
458.266	1272.16812
458.756	1275.21097
459.247	1163.04882
459.737	1202.13373
460.226	1226.98911
460.716	1166.05253
461.206	1191.10705
461.695	1141.15409
462.185	1131.00463
462.674	1109.90593
463.163	1060.78999
463.653	1156.78715
464.142	1075.97922
464.63	1015.9077
465.119	1013.81091
465.608	978.77825
466.096	1027.74016
466.585	1035.85129
467.073	994.85764
467.561	952.81142
468.05	991.80513
468.538	960.86909
469.026	886.69544
469.513	897.50202
470.001	982.82344
470.489	983.89357
470.976	810.51842
471.463	847.73199
471.951	807.65384
472.438	776.52687
472.925	839.64984
473.412	774.58221
473.899	755.45518
474.385	796.64045
474.872	746.46775
475.359	758.58443
475.845	723.28748
476.331	707.31817
476.817	649.36204
477.303	685.37066
477.789	656.37161
478.275	630.36772
478.761	621.32269
479.247	603.17569
479.732	652.42514
480.218	597.35937
480.703	580.27186
481.188	519.98836
481.673	539.104
482.158	585.13297
482.643	577.30426
483.128	594.21877
483.612	534.12013
484.097	568.24081
484.581	486.01029
485.066	529.16401
485.55	486.97299
486.034	439.88195
486.518	412.88399
487.002	544.22183
487.486	448.00918
487.969	481.07018
488.453	403.93432
488.936	421.88206
489.42	442.90783
489.903	428.98421
490.386	415.64074
490.869	415.83488
491.352	347.78347
491.835	400.77042
492.318	402.85621
492.8	439.86161
493.283	359.85207
493.765	373.86239
494.247	357.782
494.73	363.74878
495.212	306.68936
495.694	365.80525
496.175	317.71662
496.657	334.74442
497.139	300.50521
497.62	302.68869
498.102	368.86854
498.583	291.69709
499.064	259.55034
499.545	259.56951
500.026	314.67403
500.507	290.6461
500.988	316.74411
501.469	249.60104
501.949	236.55489
502.43	262.60303
502.91	263.53105
503.39	249.59536
503.87	281.63473
504.35	257.57792
504.83	251.5345
505.31	262.60784
505.79	300.68882
506.269	224.50444
506.749	223.49447
507.228	203.46435
507.707	264.55986
508.187	244.55712
508.666	167.39641
509.145	188.42909
509.623	243.55606
510.102	211.49466
510.581	208.47894
511.059	201.49196
511.538	192.47646
512.016	272.63029
512.494	287.67307
512.972	196.44897
513.45	196.44663
513.928	224.52873
514.406	243.57457
514.884	200.49831
515.361	135.31402
515.839	196.43759
516.316	185.43592
516.793	226.55201
517.27	166.39108
517.747	197.49413
518.224	151.3411
518.701	191.41682
519.178	146.35423
519.654	186.42846
520.131	129.31304
520.607	145.34962
521.083	135.30558
521.56	110.25552
522.036	145.31415
522.512	124.29701
522.987	145.33954
523.463	168.39178
523.939	138.32815
524.414	154.34993
524.89	208.48334
525.365	131.29036
525.84	142.33298
526.315	170.40128
526.79	144.31725
527.265	191.42881
527.74	87.20882
528.215	222.51811
528.689	99.21806
529.164	179.384
529.638	151.37903
530.112	153.35519
530.587	155.33237
531.061	158.37599
531.534	196.46462
532.008	194.45757
532.482	113.25412
532.956	110.27507
533.429	154.36224
533.903	122.26483
534.376	161.35447
534.849	130.29396
535.322	113.2642
535.795	116.27721
536.268	129.30669
536.741	133.31108
537.213	140.31709
537.686	119.28498
538.158	121.27132
538.631	76.18051
539.103	115.25883
539.575	87.18035
540.047	140.30636
540.519	100.23403
540.991	95.2269
541.463	121.28723
541.934	71.16065
542.406	84.19682
542.877	92.20371
543.348	39.09126
543.82	112.26817
544.291	113.2562
544.762	108.25345
545.233	170.41168
545.703	102.22425
546.174	161.36606
546.645	165.38698
547.115	169.39884
547.585	142.31599
548.056	100.2366
548.526	165.3788
548.996	189.43702
549.466	124.29372
549.935	167.38707
550.405	233.49272
550.875	192.43928
551.344	168.38916
551.814	204.45395
552.283	233.48257
552.752	171.38265
553.221	233.48862
553.69	213.45102
554.159	280.65422
554.628	244.52807
555.096	213.5157
555.565	261.56643
556.033	227.51088
556.502	257.59613
556.97	135.29024
557.438	98.2271
557.906	166.38193
558.374	161.36087
558.842	121.28423
559.31	153.33672
559.777	95.22699
560.245	85.19428
560.712	95.21583
561.18	116.25449
561.647	133.29012
562.114	100.22972
562.581	110.26177
563.048	139.31425
563.514	112.27011
563.981	112.25316
564.448	105.23147
564.914	152.34062
565.381	100.22262
565.847	131.29773
566.313	162.37035
566.779	158.35174
567.245	135.30483
567.711	154.36027
568.176	107.23509
568.642	154.37224
569.108	166.39366
569.573	186.41819
570.038	170.34807
570.504	183.39885
570.969	130.30996
571.434	165.34847
571.899	219.49792
572.363	189.41088
572.828	203.4368
573.293	288.62648
573.757	233.5061
574.222	251.53567
574.686	256.54669
575.15	256.57791
575.614	286.61843
576.078	223.49303
576.542	243.51972
577.006	284.59701
577.469	244.55195
577.933	264.5606
578.396	262.58179
578.86	264.58258
579.323	336.74733
579.786	256.51822
580.249	285.60796
580.712	238.5421
581.175	249.5778
581.637	274.58386
582.1	259.52273
582.563	240.48494
583.025	252.57376
583.487	280.53928
583.95	264.53956
584.412	215.42515
584.874	261.59557
585.336	254.56684
585.797	190.39184
586.259	257.56654
586.721	184.41386
587.182	201.44068
587.643	156.33502
588.105	149.3315
588.566	208.40832
589.027	201.45663
589.488	144.31139
589.949	198.45137
590.41	194.36537
590.87	117.25013
591.331	198.40375
591.791	157.34552
592.252	96.21035
592.712	144.32363
593.172	148.31743
593.632	126.2581
594.092	145.30596
594.552	72.14769
595.011	146.3199
595.471	135.28774
595.931	145.30556
596.39	177.40358
596.849	125.27729
597.308	117.23668
597.768	168.40699
598.227	153.34533
598.685	149.32103
599.144	179.39758
599.603	187.41603
600.062	185.37372
600.52	202.42502
600.978	136.30765
601.437	196.41966
601.895	147.29273
602.353	144.29978
602.811	246.51258
603.269	164.36676
603.727	219.48965
604.184	173.37113
604.642	185.42097
605.099	280.60701
605.557	273.61138
606.014	290.57602
606.471	295.67938
606.928	260.5186
607.385	307.68977
607.842	403.838
608.299	408.85388
608.755	301.65991
609.212	371.75462
609.668	340.68826
610.125	385.82731
610.581	396.82363
611.037	416.83747
611.493	343.73072
611.949	316.69147
612.405	453.82955
612.861	375.78534
613.316	387.84306
613.772	369.75568
614.227	282.603
614.683	365.70554
615.138	398.84253
615.593	417.88024
616.048	474.96433
616.503	376.81614
616.958	406.90524
617.412	410.87211
617.867	425.85697
618.321	497.92163
618.776	359.71956
619.23	352.7494
619.684	405.83241
620.138	379.77757
620.592	356.77932
621.046	357.75129
621.5	405.89049
621.954	340.69645
622.407	401.80337
622.861	367.81644
623.314	301.62982
623.768	333.71188
624.221	305.55708
624.674	319.67398
625.127	286.61525
625.58	311.64008
626.033	314.62777
626.485	325.72362
626.938	286.6253
627.39	274.59654
627.843	263.56298
628.295	283.60291
628.747	307.67703
629.199	294.61994
629.651	263.56687
630.103	246.53217
630.555	268.54276
631.006	260.57063
631.458	245.54981
631.909	229.4919
632.361	211.4704
632.812	213.47073
633.263	163.33729
633.714	267.5473
634.165	165.37895
634.616	176.39895
635.067	206.42885
635.518	231.5201
635.968	221.42267
636.419	201.41667
636.869	196.43741
637.319	253.56963
637.769	155.33438
638.219	185.42335
638.669	157.36
639.119	100.23358
639.569	158.36832
640.019	163.35963
640.468	184.39635
640.918	135.31018
641.367	134.29497
641.816	157.33448
642.265	156.34512
642.714	182.40298
643.163	151.33455
643.612	129.30362
644.061	116.24031
644.51	173.38217
644.958	196.41966
645.406	146.33887
645.855	238.56199
646.303	206.46258
646.751	166.36786
647.199	139.3054
647.647	166.36893
648.095	135.30234
648.543	246.48999
648.99	183.42483
649.438	117.26408
649.885	99.2369
650.333	175.33469
650.78	132.31243
651.227	182.43027
651.674	195.43401
652.121	199.46909
652.568	173.41034
653.015	235.5696
653.461	137.31792
653.908	175.39337
654.354	211.48672
654.801	209.48384
655.247	155.32907
655.693	117.29612
656.139	184.43533
656.585	126.29915
657.031	175.40578
657.477	181.38796
657.922	157.35841
658.368	181.4384
658.813	149.34015
659.259	150.35393
659.704	101.23466
660.149	171.39304
660.594	171.3987
661.039	93.21068
661.484	136.31891
661.929	152.34791
662.373	124.31109
662.818	107.26287
663.262	140.33329
663.707	124.30896
664.151	178.4213
664.595	174.41756
665.039	130.3179
665.483	209.52365
665.927	97.2251
666.371	131.30724
666.814	143.3384
667.258	116.27499
667.701	145.31066
668.145	139.34136
668.588	144.34977
669.031	166.3894
669.474	158.3757
669.917	150.32783
670.36	142.3484
670.803	138.33067
671.245	211.44601
671.688	148.35368
672.13	139.31707
672.573	158.39324
673.015	137.32633
673.457	152.33375
673.899	150.35901
674.341	144.34373
674.783	130.31209
675.225	143.35131
675.666	163.39228
676.108	114.24588
676.549	129.30255
676.991	148.32866
677.432	197.40637
677.873	170.39082
678.314	143.33958
678.755	150.36557
679.196	140.32623
679.637	145.35253
680.078	99.23374
680.518	110.25612
680.959	101.23966
681.399	108.26743
681.839	132.32087
682.28	135.33435
682.72	136.31616
683.16	196.48284
683.6	127.28876
684.039	87.1839
684.479	108.26596
684.919	131.30904
685.358	110.27686
685.798	122.32224
686.237	156.37422
686.676	64.14796
687.115	116.27392
687.554	143.34115
687.993	114.25494
688.432	141.32344
688.871	134.30745
689.309	147.3527
689.748	128.27217
690.186	158.37613
690.625	111.2641
691.063	128.31044
691.501	132.3277
691.939	144.36191
692.377	155.38022
692.815	125.30163
693.253	77.18609
693.69	94.21074
694.128	150.3668
694.565	117.28051
695.003	140.353
695.44	131.3124
695.877	104.2473
696.314	124.26998
696.751	135.3062
697.188	108.24889
697.625	128.29133
698.061	146.35356
698.498	173.41587
698.934	157.37684
699.371	117.27837
699.807	149.35341
700.243	88.21279
700.679	143.32474
701.115	120.27908
701.551	107.25243
701.987	155.34999
702.422	115.27635
702.858	142.34051
703.294	107.24112
703.729	121.29561
704.164	111.26704
704.599	93.20965
705.035	114.25862
705.47	106.25757
705.904	144.33978
706.339	124.28849
706.774	99.23591
707.209	99.23355
707.643	76.1846
708.078	113.27484
708.512	109.27439
708.946	88.21143
709.38	119.28444
709.814	162.37482
710.248	153.37379
710.682	143.34258
711.116	128.31266
711.549	175.45075
711.983	101.23725
712.416	96.22907
712.85	123.30808
713.283	97.23052
713.716	137.33893
714.149	87.20779
714.582	138.31396
715.015	120.29845
715.448	110.27805
715.881	123.26524
716.313	61.14307
716.746	132.31291
717.178	123.29792
717.61	109.27528
718.043	119.2958
718.475	158.37916
718.907	93.23294
719.339	134.30917
719.77	106.2539
720.202	140.3535
720.634	133.32614
721.065	170.40439
721.497	160.39212
721.928	146.36007
722.359	118.29016
722.79	150.36202
723.221	133.33181
723.652	149.37804
724.083	128.29392
724.514	105.24193
724.945	113.26782
725.375	140.33136
725.806	77.19043
726.236	111.28133
726.666	137.32733
727.096	157.38712
727.526	149.37817
727.956	140.32392
728.386	205.50081
728.816	177.45321
729.246	149.36225
729.675	124.30503
730.105	191.46644
730.534	157.36779
730.964	164.40936
731.393	140.34248
731.822	117.29506
732.251	162.41007
732.68	159.36897
733.109	166.4121
733.537	161.38893
733.966	146.361
734.395	141.32694
734.823	164.36903
735.251	164.39356
735.68	214.52445
736.108	172.43321
736.536	213.50189
736.964	123.28769
737.392	184.45561
737.82	124.29304
738.247	177.42371
738.675	148.34704
739.102	205.51215
739.53	129.3273
739.957	124.31701
740.384	151.36698
740.811	154.38649
741.238	146.35356
741.665	117.27323
742.092	188.44342
742.519	182.45132
742.945	137.32871
743.372	173.42595
743.798	171.436
744.225	155.37076
744.651	139.34765
745.077	155.38416
745.503	188.45732
745.929	183.43656
746.355	156.37337
746.781	210.51236
747.207	100.23733
747.632	151.37
748.058	137.33769
748.483	191.44042
748.908	150.37116
749.334	207.50495
749.759	196.46282
750.184	148.35219
750.609	130.31612
751.033	117.27151
751.458	181.40018
751.883	145.35227
752.307	174.41199
752.732	194.48704
753.156	161.39786
753.58	161.37849
754.005	104.26289
754.429	125.29603
754.853	149.37118
755.277	148.34637
755.7	174.42612
756.124	159.39278
756.548	148.35382
756.971	201.48519
757.394	179.45463
757.818	133.34151
758.241	124.31467
758.664	168.42586
759.087	124.28142
759.51	129.31879
759.933	106.25467
760.356	99.2519
760.778	194.48055
761.201	166.40169
761.623	159.38338
762.046	125.29294
762.468	93.22348
762.89	95.23184
763.312	64.15656
763.734	127.30646
764.156	148.36514
764.578	116.26636
765	150.36721
765.421	178.45776
765.843	84.22053
766.264	128.30448
766.686	104.25941
767.107	95.23348
767.528	113.28843
767.949	73.18515
768.37	97.24094
768.791	115.27865
769.212	116.29583
769.632	86.20403
770.053	112.29474
770.473	100.24436
770.894	63.15683
771.314	88.20861
771.734	85.20162
772.154	113.28995
772.575	98.22728
772.994	43.09998
773.414	72.17377
773.834	27.06756
774.254	71.17713
774.673	46.11299
775.093	47.117
775.512	78.1959
775.931	97.24751
776.351	29.07316
776.77	91.22678
777.189	47.1138
777.607	41.10495
778.026	48.12021
778.445	8.02029
778.864	24.06168
779.282	96.23397
779.701	39.09948
780.119	64.16356
780.537	39.09927
780.955	56.14312
781.373	32.07988
781.791	22.05052
782.209	19.04397
782.627	22.05831
783.045	82.1907
783.462	60.15339
783.88	80.20882
784.297	90.2288
784.715	49.12753
785.132	67.1632
785.549	69.17507
785.966	8.02037
786.383	86.21241
786.8	22.05137
787.217	44.10559
787.633	67.17048
788.05	64.15013
788.466	46.10964
788.883	29.07473
789.299	39.09489
789.715	53.13136
790.131	63.15848
790.547	-34.08591
790.963	26.06556
791.379	50.12693
791.795	-3.00693
792.21	39.09304
792.626	-4.00963
793.041	40.10006
793.457	7.01752
793.872	-14.03351
794.287	50.12345
794.702	27.06677
795.117	59.14954
795.532	16.04076
795.947	15.03651
796.362	-3.00718
796.776	23.05367
797.191	76.18875
797.605	22.05328
798.02	29.07209
798.434	28.06319
798.848	59.14719
799.262	15.0381
799.676	27.06609
800.09	49.11998
800.504	19.04694
800.918	43.10156
801.331	-13.03422
801.745	-18.0419
802.158	16.04068
802.572	2.00486
802.985	72.17463
803.398	48.11585
803.811	21.05377
804.224	21.05254
804.637	31.07495
805.05	49.11533
805.462	46.11503
805.875	14.03707
806.288	-5.01223
806.7	6.0153
807.112	16.03778
807.525	5.01246
807.937	-3.00757
808.349	-3.00755
808.761	15.03696
809.173	34.08345
809.584	3.00739
809.996	39.09737
810.408	-2.00527
810.819	37.08939
811.231	17.04535
811.642	100.24608
812.053	99.23988
812.464	123.29366
812.875	130.33153
813.286	35.09022
813.697	47.1076
814.108	-10.02464
814.519	7.01575
814.929	-1.00255
815.34	3.00736
815.75	14.03599
816.16	-6.01512
816.571	77.20068
816.981	-32.07612
817.391	33.08077
817.801	21.05279
818.211	2.00481
818.62	60.14656
819.03	56.13821
819.44	20.05229
819.849	13.03325
820.259	6.01536
820.668	12.03
821.077	16.04063
821.486	23.05636
821.895	11.0272
822.304	-19.05083
822.713	54.12841
823.122	-5.01259
823.531	-22.0528
823.939	8.01979
824.348	29.07106
824.756	14.03538
825.164	-1.00252
825.573	43.10891
825.981	15.03703
826.389	45.11377
826.797	67.17
827.205	36.08465
827.612	28.06923
828.02	-5.01208
828.428	-8.02056
828.835	14.03703
829.243	35.08372
829.65	-29.07348
830.057	-24.0588
830.464	11.02702
830.871	20.04785
831.278	41.09965
831.685	38.08603
832.092	30.07429
832.499	12.0268
832.905	60.1515
833.312	57.1306
833.718	11.02749
834.124	-5.01153
834.531	32.081
834.937	-5.01294
835.343	65.15732
835.749	52.12141
836.155	42.11072
836.561	-61.15257
836.966	17.04175
837.372	51.13068
837.777	-18.04553
838.183	40.09023
838.588	35.08783
838.993	5.01216
839.399	29.07259
839.804	3.00747
840.209	45.11555
840.613	1.00227
841.018	26.06631
841.423	2.00518
841.828	4.0102
842.232	21.05194
842.637	52.12332
843.041	4.01039
843.445	-9.02294
843.849	-1.00251
844.253	23.05493
844.657	28.07148
845.061	-17.03919
845.465	35.08624
845.869	46.10783
846.272	25.06201
846.676	-37.08918
847.079	28.07224
847.483	5.01249
847.886	38.09248
848.289	28.07527
848.692	-22.05617
849.095	9.02189
849.498	42.10518
849.901	10.02325
850.304	24.05736
850.707	0
851.109	-17.04303
851.512	18.04513
851.914	59.1524
852.316	15.03832
852.718	31.08256
853.121	11.02751
853.523	107.25536
853.925	-24.06395
854.326	56.1414
854.728	12.03119
855.13	-20.05235
855.531	11.027
855.933	59.1421
856.334	-16.04049
856.736	50.11559
857.137	25.05923
857.538	-6.01546
857.939	8.02027
858.34	53.12949
858.741	1.00264
859.142	47.11286
859.542	24.06369
859.943	94.23523
860.343	14.03553
860.744	26.0637
861.144	24.059
861.544	24.05939
861.945	4.01034
862.345	11.02711
862.745	12.02995
863.145	19.04531
863.544	18.04591
863.944	54.12959
864.344	5.01244
864.743	30.07421
865.143	17.04432
865.542	39.09197
865.941	-15.0375
866.34	30.07169
866.74	1.0027
867.139	-29.07085
867.537	15.03852
867.936	28.06796
868.335	23.05869
868.734	13.03359
869.132	17.03997
869.531	6.01438
869.929	65.15126
870.327	15.03677
870.726	-6.01499
871.124	-9.02115
871.522	6.01534
871.92	32.07965
872.318	-10.0246
872.715	-16.03955
873.113	-15.03721
873.511	-67.16764
873.908	-23.05902
874.306	10.02532
874.703	16.04021
875.1	18.04582
875.497	6.01457
875.894	33.08248
876.291	6.01467
876.688	-11.02873
877.085	7.01692
877.482	19.048
877.878	8.01965
878.275	-23.05916
878.671	-11.02437
879.068	19.04618
879.464	47.11483
879.86	-11.02669
880.256	10.02478
880.652	36.09281
881.048	-7.0175
881.444	-10.02393
881.84	13.03346
882.236	2.00506
882.631	0
883.027	22.05302
883.422	46.1188
883.817	35.08981
884.213	-5.01302
884.608	-2.00505
885.003	50.12272
885.398	-33.08444
885.793	-6.0153
886.188	34.08604
886.582	49.12547
886.977	48.11489
887.371	-47.11912
887.766	-17.0431
888.16	18.04537
888.554	5.01226
888.949	-12.03029
889.343	-15.03712
889.737	-8.02169
890.131	5.0127
890.525	41.10598
890.918	0
891.312	-9.02169
891.706	7.01843
892.099	23.05858
892.492	-22.04816
892.886	4.01004
893.279	32.08279
893.672	17.04379
894.065	1.00252
894.458	-4.0101
894.851	32.07764
895.244	22.05692
895.637	18.04366
896.029	97.23795
896.422	15.03696
896.814	25.06327
897.206	-8.01945
897.599	17.04193
897.991	11.02703
898.383	-16.03821
898.775	19.04345
899.167	8.01915
899.559	3.00759
899.951	14.03353
900.342	58.14771
900.734	-17.04338
901.125	62.16371
901.517	6.0148
901.908	-32.07741
902.299	56.13953
902.69	45.10699
903.082	-20.04842
903.473	24.05865
903.863	-7.01792
904.254	-2.00469
904.645	-48.11982
905.036	-11.02723
905.426	32.0738
905.817	34.08432
906.207	30.0729
906.597	-3.00715
906.987	-25.06464
907.378	-7.01784
907.768	5.01334
908.158	12.02954
908.547	38.09987
908.937	-21.05392
909.327	24.05847
909.717	-7.01777
910.106	19.04664
910.495	-10.02509
910.885	60.15226
911.274	40.10061
911.663	15.03805
912.052	1.00247
912.441	35.09003
912.83	46.10732
913.219	0
913.608	-61.15047
913.997	8.02044
914.385	42.10133
914.774	-1.00246
915.162	19.04619
915.55	-13.03158
915.939	-25.0642
916.327	-49.1226
916.715	42.10903
917.103	48.11786
917.491	26.06464
917.878	27.06724
918.266	-30.07836
918.654	-23.05945
919.041	-11.029
919.429	-21.05008
919.816	22.05609
920.203	1.00245
920.591	2.00498
920.978	14.03448
921.365	-6.0159
921.752	-7.01687
922.139	-16.03528
922.525	39.09638
922.912	-3.00737
923.299	67.16879
923.685	-22.05782
924.072	68.15633
924.458	30.07489
924.844	30.07559
925.231	-5.01188
925.617	2.00522
926.003	-5.01287
926.389	-39.09962
926.774	17.04339
927.16	51.12691
927.546	11.02838
927.931	41.10325
928.317	17.03959
928.702	5.01186
929.088	34.08246
929.473	32.08193
929.858	15.03733
930.243	2.00487
930.628	17.04223
931.013	21.05251
931.398	-21.04829
931.783	-35.09212
932.167	-7.0172
932.552	-18.04509
932.937	17.0423
933.321	-9.02305
933.705	10.02538
934.09	16.03978
934.474	41.098
934.858	7.01811
935.242	-39.09219
935.626	38.0979
936.009	40.1069
936.393	-26.06659
936.777	-16.04108
937.16	9.02367
937.544	-42.09976
937.927	-19.04877
938.311	44.1072
938.694	28.07344
939.077	20.04869
939.46	-4.00981
939.843	8.01687
940.226	58.14943
940.609	70.16318
940.991	35.08997
941.374	-38.09451
941.757	16.03998
942.139	-37.08477
942.522	-9.02134
942.904	21.05056
943.286	15.03818
943.668	20.05237
944.05	45.11198
944.432	51.12756
944.814	52.12961
945.196	0
945.578	19.04649
945.959	13.03085
946.341	40.09691
946.722	13.03055
947.104	36.08593
947.485	63.1488
947.866	19.04858
948.247	1.00256
948.628	20.04911
949.009	26.06722
949.39	18.04478
949.771	43.10054
950.152	-6.01497
950.532	-10.02522
950.913	33.08104
951.293	15.04104
951.674	9.02196
952.054	3.00751
952.434	11.02741
952.814	-38.09029
953.194	-3.00779
953.574	14.03439
953.954	-7.01693
954.334	11.02761
954.714	2.00496
955.093	13.03169
955.473	-10.02533
955.853	-8.02074
956.232	-1.00273
956.611	-20.04816
956.99	-68.17232
957.37	4.01024
957.749	24.05757
958.128	-21.05336
958.506	8.02097
958.885	6.01527
959.264	13.03254
959.643	57.13133
960.021	-9.02247
960.4	-34.0786
960.778	10.0245
961.156	40.10115
961.535	-14.03309
961.913	32.07548
962.291	18.0469
962.669	-32.08098
963.047	3.00774
963.424	6.01542
963.802	-11.02732
964.18	53.13309
964.557	18.04206
964.935	14.0332
965.312	37.09732
965.69	10.02521
966.067	4.00983
966.444	0
966.821	-9.02319
967.198	-12.02907
967.575	-5.01231
967.952	-12.02821
968.329	18.04408
968.705	41.08974
969.082	68.17586
969.458	1.00244
969.835	-21.05121
970.211	-3.0078
970.587	7.01752
970.963	9.02319
971.339	-2.00527
971.715	-5.01262
972.091	12.02986
972.467	-9.02261
972.843	34.08567
973.219	11.02635
973.594	-5.01325
973.97	24.05742
974.345	37.08949
974.721	18.04379
975.096	15.0368
975.471	-54.12801
975.846	13.03167
976.221	41.10572
976.596	20.04867
976.971	-23.05694
977.346	15.0351
977.72	-47.12031
978.095	19.04892
978.469	-3.00721
978.844	-21.05288
979.218	0
979.593	10.02384
979.967	65.15904
980.341	47.10941
980.715	9.02271
981.089	39.09836
981.463	46.1066
981.837	-11.02739
982.21	-32.07375
982.584	29.07088
982.957	16.04036
983.331	28.06643
983.704	32.07956
984.078	-4.00994
984.451	-21.05188
984.824	35.08697
985.197	9.02205
985.57	11.02773
985.943	7.0172
986.316	28.06878
986.688	8.01942
987.061	38.08998
987.434	14.03647
987.806	-14.03407
988.179	47.11294
988.551	9.02301
988.923	-25.06174
989.295	65.16222
989.667	10.02466
990.039	6.01504
990.411	22.05114
990.783	-6.01378
991.155	50.12259
991.527	20.04847
991.898	-32.08086
992.27	43.10759
992.641	22.05527
993.012	8.01902
993.384	23.05546
993.755	28.07176
994.126	13.03148
994.497	14.03502
994.868	-43.10058
995.239	-5.01227
995.61	13.03323
995.98	-7.01736
996.351	-31.07882
996.722	-18.04285
997.092	-55.13327
997.462	34.0815
997.833	-6.01424
998.203	42.1016
998.573	-14.03525
998.943	61.14424
999.313	-47.1138
999.683	-14.03403
1000.053	3.00696
1000.423	-38.09331
1000.792	21.05518
1001.162	-6.01496
1001.531	-16.04
1001.901	-13.03268
1002.27	24.05454
1002.639	-36.09336
1003.009	-9.02176
1003.378	-8.02055
1003.747	-11.02641
1004.116	-4.00974
1004.485	5.01196
1004.853	-13.03316
1005.222	31.07865
1005.591	12.02875
1005.959	46.10723
1006.328	2.00461
1006.696	-12.02921
1007.064	-2.00511
1007.433	-29.07277
1007.801	-47.11572
1008.169	22.05623
1008.537	4.00888
1008.905	-11.02618
1009.273	4.00997
1009.64	-16.03914
1010.008	41.09834
1010.375	3.00713
1010.743	74.17013
1011.11	1.00241
1011.478	-6.01489
1011.845	23.05428
1012.212	35.08068
1012.579	19.04687
1012.946	73.17349
1013.313	-17.04048
1013.68	5.01131
1014.047	42.10236
1014.414	10.02397
1014.78	-19.04768
1015.147	35.0842
1015.513	26.06313
1015.88	61.15466
1016.246	18.04454
1016.612	18.04163
1016.978	1.00249
1017.344	9.02239
1017.71	-19.04597
1018.076	-19.04519
1018.442	54.1381
1018.808	39.098
1019.174	-3.00764
1019.539	21.04794
1019.905	-26.06221
1020.27	-27.06792
1020.636	-27.0653
1021.001	47.11363
1021.366	-48.11686
1021.731	6.01552
1022.096	-47.12001
1022.461	-16.03789
1022.826	9.02174
1023.191	28.07349
1023.556	29.06847
1023.92	-18.04443
1024.285	8.01957
1024.649	-8.01969
1025.014	13.03216
1025.378	3.00765
1025.742	-10.02514
1026.107	-17.039
1026.471	-33.07758
1026.835	-25.06228
1027.199	16.03913
1027.562	66.15452
1027.926	14.03418
1028.29	27.0695
1028.654	18.04201
1029.017	-31.07678
1029.381	6.01477
1029.744	45.11555
1030.107	-4.00944
1030.471	7.01688
1030.834	21.04804
1031.197	13.03113
1031.56	3.00711
1031.923	-26.06794
1032.286	-46.10837
1032.648	95.22629
1033.011	97.22501
1033.374	3.00704
1033.736	-3.00802
1034.099	30.07413
1034.461	22.05676
1034.823	-18.04552
1035.185	47.1187
1035.548	7.01724
1035.91	46.11132
1036.272	8.0185
1036.634	-5.01222
1036.995	-3.00707
1037.357	28.06847
1037.719	1.00244
1038.08	-50.11944
1038.442	-6.01441
1038.803	30.07287
1039.165	20.05048
1039.526	16.03876
1039.887	22.05314
1040.248	0
1040.609	-6.01486
1040.97	69.17052
1041.331	-16.04069
1041.692	7.01666
1042.053	16.03661
1042.413	6.01404
1042.774	-16.03926
1043.134	7.0166
1043.495	0
1043.855	31.07523
1044.215	-47.11755
1044.576	5.01222
1044.936	5.01139
1045.296	27.06731
1045.656	10.02471
1046.016	5.01217
1046.375	8.01981
1046.735	19.04414
1047.095	5.01188
1047.454	-28.05985
1047.814	-49.11851
1048.173	7.01662
1048.533	13.03018
1048.892	20.04907
1049.251	18.04514
1049.61	-1.0025
1049.969	-12.02841
1050.328	-1.0022
1050.687	20.04914
1051.046	-9.02209
1051.405	-2.00502
1051.763	19.04427
1052.122	59.1489
1052.48	33.08062
1052.839	-18.04308
1053.197	-21.0497
1053.555	-4.00899
1053.914	3.00741
1054.272	1.00242
1054.63	30.07451
1054.988	-47.11371
1055.345	-1.0022
1055.703	-15.03613
1056.061	-10.02597
1056.419	-9.02353
1056.776	-23.05598
1057.134	31.07259
1057.491	0
1057.848	11.02755
1058.206	19.04515
1058.563	34.0761
1058.92	21.04858
1059.277	-25.06185
1059.634	72.16983
1059.991	-18.04295
1060.348	15.03492
1060.704	-13.03154
1061.061	-59.13589
1061.418	-10.02474
1061.774	34.08444
1062.131	-23.06146
1062.487	-15.03547
1062.843	18.04516
1063.199	-22.0551
1063.555	-53.12547
1063.911	35.08902
1064.267	37.07725
1064.623	7.01726
1064.979	-14.03287
1065.335	-28.0665
1065.691	-14.0335
1066.046	-22.04881
1066.402	32.07389
1066.757	-50.12702
1067.112	-38.09306
1067.468	-7.01686
1067.823	29.07014
1068.178	-13.03165
1068.533	5.01213
1068.888	22.05306
1069.243	0
1069.598	21.05161
1069.952	-17.03961
1070.307	-3.00757
1070.662	34.08191
1071.016	-8.01846
1071.371	18.04135
1071.725	10.02398
1072.079	-38.09196
1072.434	-9.0222
1072.788	50.121
1073.142	8.01974
1073.496	73.17715
1073.85	-21.04922
1074.203	-34.08259
1074.557	10.02679
1074.911	-20.04796
1075.265	27.06295
1075.618	44.10748
1075.971	40.0957
1076.325	7.01802
1076.678	65.15221
1077.031	14.03235
1077.385	44.0982
1077.738	16.03718
1078.091	16.03755
1078.444	29.06796
1078.796	-11.02729
1079.149	-44.11063
1079.502	29.06969
1079.855	24.05687
1080.207	-8.01976
1080.56	27.07056
1080.912	-11.02714
1081.264	4.00974
1081.617	19.04726
1081.969	25.06404
1082.321	38.09393
1082.673	28.06576
1083.025	4.00952
1083.377	19.04095
1083.728	2.00472
1084.08	20.05057
1084.432	37.09036
1084.783	-10.02343
1085.135	-7.01778
1085.486	14.03284
1085.838	18.04465
1086.189	50.12186
1086.54	-17.04076
1086.891	45.11507
1087.242	33.08044
1087.593	5.01207
1087.944	22.05096
1088.295	2.00455
1088.646	6.01467
1088.996	4.00984
1089.347	16.03949
1089.698	4.00973
1090.048	-5.01302
1090.398	-18.04231
1090.749	-12.0289
1091.099	-6.01533
1091.449	-6.015
1091.799	41.10369
1092.149	29.07274
1092.499	-44.10804
1092.849	4.01024
1093.199	16.03982
1093.548	-16.03885
1093.898	31.07854
1094.248	-21.05409
1094.597	-23.06019
1094.947	-30.08083
1095.296	32.07968
1095.645	-3.00782
1095.994	40.09723
1096.343	22.05551
1096.692	43.11432
1097.041	-6.01647
1097.39	13.03271
1097.739	-5.01297
1098.088	26.0696
1098.437	-8.02129
1098.785	27.07324
1099.134	31.08217
1099.482	-13.03585
1099.83	-21.05505
1100.179	2.00527
1100.527	40.10686
1100.875	-27.07236
1101.223	9.02385
1101.571	30.0834
1101.919	-5.01331
1102.267	-16.04534
1102.615	8.02573
1102.962	8.02572
1103.31	4.01288
1103.658	9.02894
