Data from N2 R2  sample 1_Subt2__3__15-56-18-757.txt Node

Date: Wed Aug 27 15:56:18 PDT 2025
User: uwsun
Spectrometer: HDX01956
Trigger mode: 0
Integration Time (sec): 5.000000E-1
Scans to average: 1
Nonlinearity correction enabled: true
Boxcar width: 0
Storing dark spectrum: false
XAxis mode: Wavelengths
Number of Pixels in Spectrum: 2068
>>>>>Begin Spectral Data<<<<<
194.03	316.87939
194.578	367.14267
195.127	347.06769
195.676	360.10906
196.225	327.8515
196.773	359.96816
197.321	527.3784
197.87	742.73962
198.418	793.86317
198.966	750.79658
199.513	763.75578
200.061	745.74903
200.609	733.7675
201.156	739.485
201.704	771.7925
202.251	723.75845
202.798	828.96609
203.345	784.76069
203.892	728.67888
204.438	770.6762
204.985	802.72524
205.532	783.87313
206.078	786.76158
206.624	801.80072
207.17	828.72783
207.716	824.83165
208.262	704.26814
208.808	810.81984
209.354	775.73301
209.899	816.84977
210.445	783.77029
210.99	799.74708
211.535	800.70031
212.08	816.72232
212.625	834.86918
213.17	809.82538
213.715	805.6334
214.259	714.5187
214.804	832.84791
215.348	763.5861
215.892	798.72177
216.436	821.69164
216.98	783.56414
217.524	777.65891
218.068	757.71218
218.612	844.90783
219.155	753.60902
219.698	741.59496
220.242	725.6318
220.785	671.44354
221.328	689.58166
221.871	676.54778
222.414	746.6931
222.956	705.56022
223.499	716.47343
224.041	740.58428
224.583	701.36388
225.126	714.44887
225.668	732.63447
226.21	726.66365
226.751	677.37776
227.293	666.39869
227.835	680.52078
228.376	691.47133
228.918	749.71054
229.459	712.63611
230	648.41102
230.541	723.5302
231.082	748.65647
231.622	763.61494
232.163	724.60928
232.704	676.55458
233.244	673.51407
233.784	655.46693
234.324	655.33656
234.864	672.40262
235.404	645.40359
235.944	645.40537
236.484	697.57322
237.023	753.62011
237.563	736.54858
238.102	624.34318
238.641	728.66557
239.18	711.52771
239.719	736.6859
240.258	713.45573
240.797	765.67059
241.335	744.64419
241.874	712.25443
242.412	709.55082
242.95	766.67383
243.488	718.51133
244.026	790.62807
244.564	719.3313
245.102	762.5675
245.64	719.58131
246.177	671.37545
246.715	724.566
247.252	753.54931
247.789	660.10693
248.326	756.66656
248.863	740.47506
249.4	736.49154
249.936	741.39944
250.473	758.6005
251.009	759.58757
251.546	771.55508
252.082	746.45811
252.618	709.45802
253.154	720.57656
253.69	716.47937
254.226	722.53906
254.761	774.56935
255.297	739.48705
255.832	699.49933
256.367	755.62373
256.903	784.55131
257.438	768.60252
257.972	777.57795
258.507	746.57514
259.042	732.4172
259.576	752.47333
260.111	736.53704
260.645	754.45568
261.179	739.55388
261.713	797.59067
262.247	817.67887
262.781	709.34217
263.315	813.76724
263.849	785.7705
264.382	811.64708
264.915	868.82176
265.449	846.85416
265.982	820.65365
266.515	784.71895
267.048	706.34202
267.58	782.50983
268.113	784.52744
268.646	778.73651
269.178	827.67198
269.71	786.50451
270.243	823.66465
270.775	817.86512
271.307	802.71048
271.838	764.6153
272.37	866.87414
272.902	860.72648
273.433	850.64211
273.965	824.78169
274.496	830.81756
275.027	827.8387
275.558	803.74623
276.089	824.83165
276.62	826.86336
277.15	850.85669
277.681	809.5639
278.211	821.79521
278.741	829.6355
279.272	899.80113
279.802	852.89391
280.332	850.79178
280.861	869.84586
281.391	858.72246
281.921	820.73303
282.45	821.83891
282.98	885.03137
283.509	864.72098
284.038	822.663
284.567	861.74715
285.096	925.93762
285.625	845.67568
286.153	837.74547
286.682	926.86595
287.21	886.87016
287.739	889.84498
288.267	908.92915
288.795	924.12558
289.323	889.82532
289.851	836.71679
290.378	949.86644
290.906	973.06517
291.433	884.9334
291.961	937.86267
292.488	852.85323
293.015	905.8607
293.542	907.02473
294.069	988.10838
294.596	934.99901
295.122	971.9965
295.649	922.74576
296.175	965.03133
296.702	947.98112
297.228	1007.07822
297.754	947.83285
298.28	995.94328
298.806	975.99126
299.332	1027.9539
299.857	1030.96293
300.383	990.12901
300.908	1018.14724
301.433	985.04633
301.958	1068.10273
302.483	1035.22255
303.008	999.06995
303.533	1079.38722
304.058	1020.01366
304.582	1053.13459
305.107	1019.28423
305.631	1086.05247
306.155	1102.15969
306.679	1053.09201
307.203	1105.13768
307.727	1094.19724
308.251	1031.12972
308.775	1133.23253
309.298	1106.23764
309.822	1088.29904
310.345	1145.22364
310.868	1141.24414
311.391	1107.24119
311.914	1175.45556
312.437	1144.10995
312.96	1177.26433
313.482	1163.26295
314.005	1211.51421
314.527	1206.5927
315.049	1199.4673
315.571	1208.17643
316.093	1207.42512
316.615	1216.36128
317.137	1206.09683
317.659	1210.33851
318.18	1283.44291
318.702	1329.46388
319.223	1341.11585
319.744	1381.40326
320.265	1348.56638
320.786	1330.6233
321.307	1333.63716
321.828	1328.31965
322.348	1358.45646
322.869	1459.64988
323.389	1430.74807
323.909	1438.52062
324.43	1435.60089
324.95	1437.50645
325.47	1510.81646
325.989	1505.64483
326.509	1571.55976
327.029	1597.62982
327.548	1548.55199
328.067	1623.88575
328.587	1523.78601
329.106	1671.76325
329.625	1656.15481
330.144	1634.67581
330.662	1632.73869
331.181	1667.74757
331.7	1652.73529
332.218	1714.55524
332.736	1800.8375
333.255	1694.79628
333.773	1754.85055
334.291	1766.02496
334.808	1783.67144
335.326	1859.78044
335.844	1907.95657
336.361	1855.22461
336.879	2011.0608
337.396	1916.05783
337.913	2003.0254
338.43	2024.84921
338.947	2043.11396
339.464	2064.75414
339.981	2075.09955
340.497	2055.23264
341.014	2092.23713
341.53	2101.90243
342.046	2087.21173
342.562	2183.31027
343.078	2174.10102
343.594	2254.2161
344.11	2200.11219
344.626	2238.40423
345.141	2314.95733
345.657	2277.85877
346.172	2379.29544
346.687	2334.05138
347.202	2394.00828
347.717	2429.20834
348.232	2441.49385
348.747	2454.08485
349.261	2498.85971
349.776	2559.22189
350.29	2537.46956
350.805	2597.48813
351.319	2689.15318
351.833	2577.07664
352.347	2651.201
352.861	2640.19692
353.374	2711.04166
353.888	2637.20302
354.401	2706.12613
354.915	2831.10744
355.428	2878.4911
355.941	2870.13147
356.454	2858.86813
356.967	2845.16584
357.48	2817.00376
357.993	2912.38829
358.505	2938.4087
359.018	2989.41243
359.53	2987.19405
360.042	3107.83133
360.554	3042.2107
361.066	3095.37551
361.578	3042.73723
362.09	3029.20173
362.602	3058.73456
363.113	3127.02306
363.625	3061.83399
364.136	3260.71052
364.647	3208.00238
365.158	3300.01656
365.669	3339.18794
366.18	3330.01999
366.691	3315.66842
367.201	3365.06575
367.712	3440.87762
368.222	3441.76937
368.733	3530.47861
369.243	3540.59979
369.753	3589.71903
370.263	3761.00354
370.773	3795.21289
371.282	3746.86434
371.792	3936.60852
372.301	3995.90562
372.811	4029.30991
373.32	4062.1381
373.829	4174.48316
374.338	4362.06947
374.847	4527.13309
375.356	4575.22306
375.865	4801.47886
376.373	4933.66883
376.882	5074.25793
377.39	5121.90964
377.898	5295.98418
378.407	5605.30818
378.915	5806.83378
379.423	5985.18744
379.93	6239.89709
380.438	6517.19065
380.946	6817.96486
381.453	7036.13623
381.96	7345.13349
382.468	7817.46861
382.975	8340.15982
383.482	8568.50539
383.989	8843.05451
384.495	9071.59178
385.002	9620.49047
385.509	10006.55
386.015	10668.42585
386.521	11317.31246
387.028	11716.80791
387.534	12058.8532
388.04	12466.75384
388.546	12645.9905
389.051	13190.20963
389.557	14598.8727
390.063	15489.03047
390.568	16265.24659
391.073	16560.51227
391.578	17234.3654
392.084	17798.92028
392.589	18090.50657
393.093	19484.82831
393.598	21496.20044
394.103	23285.86559
394.607	25876.64257
395.112	27797.18182
395.616	29496.60794
396.12	31864.00356
396.624	35281.82871
397.128	38103.6168
397.632	41923.78969
398.136	46396.7668
398.639	48948.82461
399.143	53239.90395
399.646	57899.62777
400.15	58255.47576
400.653	57879.39077
401.156	57173.58385
401.659	56177.40201
402.162	53821.55638
402.664	47275.14456
403.167	32260.27245
403.67	3851.94142
404.172	0
404.674	0
405.176	0
405.678	0
406.18	0
406.682	0
407.184	0
407.686	12367.42319
408.187	34596.90747
408.688	44563.94194
409.19	48906.19284
409.691	51236.67962
410.192	52883.26968
410.693	53713.23343
411.194	54189.54801
411.694	54767.79104
412.195	55625.98899
412.696	55971.27715
413.196	55815.15953
413.696	55802.1488
414.196	55740.09561
414.696	56340.4775
415.196	57067.59327
415.696	58258.21704
416.196	59666.45207
416.695	59728.23827
417.195	50084.37034
417.694	47208.35211
418.194	44852.27348
418.693	41706.4047
419.192	40389.15126
419.691	39813.9585
420.19	38921.52319
420.688	38120.95544
421.187	36588.69928
421.685	34452.96021
422.184	31040.0014
422.682	27258.51147
423.18	23175.67894
423.678	20525.80413
424.176	19262.89558
424.674	18014.76437
425.172	17116.67181
425.669	16243.9551
426.167	14875.10744
426.664	13860.93475
427.161	12626.85173
427.659	11637.26671
428.156	10862.11226
428.652	10304.25133
429.149	9794.61457
429.646	9337.39359
430.143	9002.39535
430.639	8434.27846
431.135	8017.80759
431.632	7529.19789
432.128	6976.95847
432.624	6667.33248
433.12	6415.77078
433.616	6146.67607
434.111	6000.20484
434.607	5790.28574
435.103	5679.73822
435.598	5470.65918
436.093	5281.41367
436.588	4945.3537
437.083	4813.61066
437.578	4482.68237
438.073	4283.5607
438.568	4139.45972
439.062	3937.83224
439.557	3975.31239
440.051	3783.31518
440.546	3683.41145
441.04	3578.71782
441.534	3495.00499
442.028	3436.70207
442.522	3340.7939
443.015	3371.37011
443.509	3316.98729
444.002	3184.9792
444.496	3115.37946
444.989	3111.96894
445.482	3050.08834
445.975	3075.64869
446.468	3059.46265
446.961	2870.31568
447.454	2948.72262
447.947	2854.84547
448.439	2773.9937
448.931	2757.57849
449.424	2734.17189
449.916	2714.98182
450.408	2660.62026
450.9	2506.90278
451.392	2578.16764
451.884	2538.72365
452.375	2448.05624
452.867	2414.56648
453.358	2453.67619
453.849	2403.42725
454.341	2336.56366
454.832	2286.44721
455.323	2317.99796
455.814	2290.68279
456.304	2311.71921
456.795	2252.72762
457.285	2234.54115
457.776	2154.5697
458.266	2157.85104
458.756	2160.91579
459.247	2021.80164
459.737	2129.91804
460.226	2068.60632
460.716	2034.80855
461.206	1950.79933
461.695	1955.98351
462.185	1899.72391
462.674	1911.6125
463.163	1845.48175
463.653	1863.31453
464.142	1825.74987
464.63	1813.76052
465.119	1769.56868
465.608	1764.59018
466.096	1674.35846
466.585	1609.46491
467.073	1615.56676
467.561	1606.58189
468.05	1602.47913
468.538	1601.65234
469.026	1516.46875
469.513	1427.05352
470.001	1608.53316
470.489	1524.5617
470.976	1406.2566
471.463	1382.48744
471.951	1359.44154
472.438	1385.34107
472.925	1326.31252
473.412	1329.37894
473.899	1310.19397
474.385	1277.34966
474.872	1280.20628
475.359	1251.33142
475.845	1208.88764
476.331	1202.97178
476.817	1139.13359
477.303	1094.98468
477.789	1145.13646
478.275	1052.0789
478.761	1105.10724
479.247	1008.77931
479.732	1074.13826
480.218	994.08104
480.703	1005.00663
481.188	914.57361
481.673	983.81401
482.158	994.73996
482.643	906.91156
483.128	1010.88018
483.612	915.75987
484.097	931.87903
484.581	842.61344
485.066	890.81138
485.55	869.58485
486.034	802.47533
486.518	766.51635
487.002	904.88154
487.486	845.75048
487.969	798.66003
488.453	698.52129
488.936	708.38765
489.42	729.39893
489.903	742.59677
490.386	746.04037
490.869	667.26252
491.352	654.3819
491.835	669.20404
492.318	684.36581
492.8	690.27274
493.283	657.46719
493.765	655.42718
494.247	664.35832
494.73	596.1634
495.212	542.15995
495.694	617.2874
496.175	579.23685
496.657	548.16523
497.139	558.87417
497.62	517.12567
498.102	568.28623
498.583	590.33016
499.064	504.01192
499.545	556.14427
500.026	557.13115
500.507	508.07863
500.988	539.21182
501.469	513.17399
501.949	466.04424
502.43	487.06831
502.91	428.83149
503.39	431.99447
503.87	437.95559
504.35	442.95611
504.83	485.9802
505.31	432.96837
505.79	445.99196
506.269	448.96246
506.749	376.8071
507.228	409.89664
507.707	416.85289
508.187	412.90873
508.666	411.92945
509.145	398.86977
509.623	384.85372
510.102	381.86337
510.581	409.90381
511.059	382.90332
511.538	378.90595
512.016	424.95278
512.494	397.91094
512.972	378.8341
513.45	370.81338
513.928	401.91385
514.406	430.97972
514.884	379.91336
515.361	313.70239
515.839	337.73041
516.316	368.83612
516.793	378.89698
517.27	341.77589
517.747	353.86036
518.224	339.73631
518.701	307.65346
519.178	291.68672
519.654	327.73199
520.131	339.79002
520.607	314.73278
521.083	304.66437
521.56	308.68733
522.036	330.68668
522.512	294.68126
522.987	300.6811
523.463	317.7175
523.939	272.63004
524.414	339.74132
524.89	332.75251
525.365	250.54036
525.84	272.62154
526.315	276.63804
526.79	302.64324
527.265	322.70341
527.74	250.58138
528.215	363.8236
528.689	304.64074
529.164	276.57969
529.638	283.69339
530.112	230.52579
530.587	328.67704
531.061	284.6594
531.534	338.77916
532.008	258.60093
532.482	264.57526
532.956	246.59996
533.429	257.59235
533.903	240.50786
534.376	304.64919
534.849	222.49256
535.322	295.66499
535.795	259.60195
536.268	253.58708
536.741	246.56259
537.213	234.51984
537.686	244.57034
538.158	240.52496
538.631	237.54539
539.103	249.54499
539.575	225.45202
540.047	257.54847
540.519	226.51581
540.991	236.5484
541.463	247.57203
541.934	243.53051
542.406	218.49736
542.877	250.53527
543.348	179.40731
543.82	231.54049
544.291	216.47945
544.762	293.66264
545.233	237.56667
545.703	271.57458
546.174	312.68762
546.645	281.64404
547.115	282.65087
547.585	247.53764
548.056	267.61122
548.526	362.79813
548.996	316.71218
549.466	321.73128
549.935	289.6536
550.405	381.77955
550.875	360.79572
551.344	313.70412
551.814	407.86742
552.283	398.79386
552.752	395.84295
553.221	393.795
553.69	415.83988
554.159	441.99767
554.628	430.89355
555.096	463.06576
555.565	449.93531
556.033	422.91168
556.502	454.00979
556.97	310.64133
557.438	343.75609
557.906	333.74051
558.374	301.65518
558.842	322.72659
559.31	325.68937
559.777	306.70147
560.245	287.62921
560.712	274.59983
561.18	325.68154
561.647	310.65081
562.114	359.78174
562.581	297.68125
563.048	357.77111
563.514	285.66473
563.981	367.78626
564.448	300.63426
564.914	353.75823
565.381	317.67387
565.847	396.85149
566.313	450.96883
566.779	481.99884
567.245	364.78337
567.711	459.0072
568.176	441.90067
568.642	461.0472
569.108	496.09882
569.573	504.05709
570.038	565.05191
570.504	539.08407
570.969	504.11286
571.434	583.1167
571.899	651.34822
572.363	616.2156
572.828	676.30486
573.293	713.40899
573.757	705.37558
574.222	772.45987
574.686	723.38607
575.15	746.5132
575.614	762.47818
576.078	780.52179
576.542	745.41869
577.006	803.49381
577.469	775.56101
577.933	804.50493
578.396	808.58843
578.86	808.57799
579.323	868.71535
579.786	844.4783
580.249	824.55079
580.712	793.60097
581.175	810.66783
581.637	768.45938
582.1	710.28355
582.563	777.37601
583.025	727.49374
583.487	808.35885
583.95	738.34514
584.412	744.28841
584.874	739.52115
585.336	666.3575
585.797	650.20061
586.259	663.33514
586.721	646.31309
587.182	660.30501
587.643	605.17178
588.105	573.16052
588.566	593.05715
589.027	610.26855
589.488	507.00928
589.949	557.1754
590.41	526.91017
590.87	482.94891
591.331	518.9795
591.791	532.0766
592.252	477.96094
592.712	448.9438
593.172	461.92187
593.632	410.78588
594.092	445.87709
594.552	380.72521
595.011	448.91891
595.471	436.86844
595.931	422.83508
596.39	484.03294
596.849	452.93423
597.308	353.67547
597.768	409.9456
598.227	367.79203
598.685	442.89227
599.144	387.8223
599.603	403.85629
600.062	418.79928
600.52	324.66338
600.978	418.89106
601.437	366.7548
601.895	300.57613
602.353	353.70066
602.811	387.78107
603.269	445.93728
603.727	419.89803
604.184	426.86392
604.642	404.8784
605.099	450.9401
605.557	430.93174
606.014	416.80201
606.471	434.97165
606.928	404.77887
607.385	501.07876
607.842	597.18604
608.299	634.25879
608.755	509.06501
609.212	557.08327
609.668	506.98538
610.125	533.10695
610.581	535.0765
611.037	538.05098
611.493	483.99763
611.949	433.92403
612.405	513.92525
612.861	521.05406
613.316	500.06115
613.772	461.92443
614.227	444.91606
614.683	478.89899
615.138	489.0127
615.593	508.04907
616.048	520.04507
616.503	402.86774
616.958	486.06365
617.412	481.00543
617.867	520.02392
618.321	545.99858
618.776	496.96269
619.23	456.94884
619.684	500.00387
620.138	471.94623
620.592	469.00022
621.046	479.98094
621.5	460.99971
621.954	483.95736
622.407	478.94059
622.861	487.0544
623.314	461.93041
623.768	463.9619
624.221	393.70186
624.674	432.8901
625.127	410.85844
625.58	419.84138
626.033	397.77843
626.485	441.95822
626.938	417.88642
627.39	430.90509
627.843	360.75443
628.295	391.81342
628.747	392.84905
629.199	387.79936
629.651	449.92907
630.103	392.82149
630.555	426.83155
631.006	402.85584
631.458	380.82904
631.909	394.81619
632.361	338.73367
632.812	321.69336
633.263	384.75526
633.714	416.82398
634.165	330.73277
634.616	314.69174
635.067	325.65865
635.518	327.72173
635.968	405.74013
636.419	293.59488
636.869	288.63048
637.319	379.83123
637.769	308.64261
638.219	356.78655
638.669	263.5902
639.119	292.65621
639.569	324.7305
640.019	276.59451
640.468	289.60846
640.918	279.6225
641.367	282.60143
641.816	247.51592
642.265	277.5973
642.714	271.58888
643.163	264.57111
643.612	285.65033
644.061	219.44322
644.51	263.57004
644.958	338.70144
645.406	294.66233
645.855	284.66461
646.303	302.66475
646.751	301.64822
647.199	229.49359
647.647	295.63802
648.095	266.57961
648.543	298.58638
648.99	316.71421
649.438	248.54475
649.885	254.58975
650.333	270.50451
650.78	272.62629
651.227	273.63399
651.674	244.53754
652.121	285.66054
652.568	234.54847
653.015	301.72049
653.461	241.54772
653.908	261.57632
654.354	253.57871
654.801	314.71172
655.247	204.42847
655.693	231.57271
656.139	288.66763
656.585	262.60568
657.031	217.49897
657.477	227.48172
657.922	271.6044
658.368	258.61581
658.813	264.58867
659.259	225.52315
659.704	216.49041
660.149	245.55478
660.594	239.54977
661.039	202.44745
661.484	231.53158
661.929	219.49449
662.373	252.61756
662.818	193.46658
663.262	197.46383
663.707	212.51974
664.151	187.44183
664.595	235.55738
665.039	205.49428
665.483	201.50434
665.927	212.48074
666.371	200.46273
666.814	231.53731
667.258	192.44845
667.701	233.4897
668.145	236.56912
668.588	190.45751
669.031	197.45932
669.474	186.43989
669.917	235.50435
670.36	165.4031
670.803	204.48265
671.245	219.4621
671.688	187.44354
672.13	239.53414
672.573	204.50347
673.015	144.34254
673.457	220.47613
673.899	171.40763
674.341	219.51522
674.783	222.5236
675.225	191.46505
675.666	186.44567
676.108	142.30443
676.549	195.45143
676.991	198.43511
677.432	252.51339
677.873	195.44605
678.314	155.36722
678.755	222.53375
679.196	193.44503
679.637	232.55482
680.078	190.44064
680.518	181.41553
680.959	96.22801
681.399	202.49156
681.839	182.43825
682.28	208.50824
682.72	184.42369
683.16	187.46143
683.6	186.41784
684.039	108.22724
684.479	173.42091
684.919	194.45206
685.358	183.45455
685.798	235.60885
686.237	185.44134
686.676	171.38691
687.115	207.48016
687.554	203.4787
687.993	185.40766
688.432	218.49234
688.871	145.33195
689.309	199.47273
689.748	195.40857
690.186	237.55561
690.625	181.42484
691.063	192.46005
691.501	175.43103
691.939	181.45187
692.377	214.5192
692.815	163.39049
693.253	173.4105
693.69	186.40909
694.128	218.52632
694.565	158.37584
695.003	144.36282
695.44	200.47062
695.877	199.46453
696.314	198.4243
696.751	177.39803
697.188	141.3228
697.625	129.29354
698.061	174.41915
698.498	210.50126
698.934	194.46236
699.371	150.35462
699.807	219.51241
700.243	194.4597
700.679	193.43383
701.115	186.42692
701.551	136.31903
701.987	235.52195
702.422	169.40193
702.858	184.43769
703.294	161.35879
703.729	178.43024
704.164	149.35587
704.599	230.50394
705.035	151.33999
705.47	135.32625
705.904	168.39456
706.339	182.41858
706.774	203.47405
707.209	177.41123
707.643	131.31491
708.078	119.2891
708.512	134.33581
708.946	187.4408
709.38	202.47514
709.814	231.52712
710.248	163.39748
710.682	190.45109
711.116	180.4354
711.549	187.48065
711.983	155.36026
712.416	205.47891
712.85	189.46774
713.283	150.35283
713.716	167.41087
714.149	141.33328
714.582	176.39733
715.015	175.43087
715.448	198.49261
715.881	181.38544
716.313	145.33449
716.746	146.34516
717.178	175.41972
717.61	162.40525
718.043	173.42579
718.475	160.38382
718.907	153.37907
719.339	169.3872
719.77	158.37469
720.202	177.44397
720.634	193.46799
721.065	202.47754
721.497	193.4701
721.928	187.45769
722.359	156.3809
722.79	178.42732
723.221	162.40202
723.652	169.42725
724.083	166.37827
724.514	196.44338
724.945	157.36894
725.375	187.43857
725.806	90.22205
726.236	116.29374
726.666	180.42653
727.096	168.41341
727.526	107.2736
727.956	181.41536
728.386	175.42992
728.816	192.49032
729.246	130.31719
729.675	131.32183
730.105	157.38584
730.534	154.36097
730.964	131.32895
731.393	146.35675
731.822	96.24301
732.251	163.41253
732.68	140.3261
733.109	172.42652
733.537	155.37486
733.966	120.29813
734.395	133.30888
734.823	169.37989
735.251	136.32811
735.68	138.34297
736.108	161.40631
736.536	176.41769
736.964	129.30137
737.392	154.38343
737.82	110.26066
738.247	166.39821
738.675	123.28983
739.102	155.39075
739.53	140.35451
739.957	122.31201
740.384	122.29811
740.811	144.36204
741.238	90.22025
741.665	122.28462
742.092	148.35179
742.519	110.27637
742.945	91.22025
743.372	91.22744
743.798	139.35641
744.225	126.30307
744.651	126.31588
745.077	129.32124
745.503	160.39125
745.929	149.35777
746.355	88.21335
746.781	166.40834
747.207	105.24896
747.632	109.26917
748.058	96.23842
748.483	66.15598
748.908	130.32285
749.334	122.30232
749.759	142.33883
750.184	87.20946
750.609	85.20844
751.033	113.26244
751.458	57.12929
751.883	81.19914
752.307	113.27071
752.732	115.29281
753.156	114.28415
753.58	89.21216
754.005	84.21309
754.429	126.29834
754.853	96.24145
755.277	80.18972
755.7	92.22873
756.124	76.1906
756.548	120.28842
756.971	105.25805
757.394	71.18378
757.818	61.1586
758.241	86.21971
758.664	123.31429
759.087	77.17642
759.51	32.08049
759.933	67.16216
760.356	68.17397
760.778	146.36483
761.201	118.28812
761.623	76.18613
762.046	57.13536
762.468	102.24469
762.89	75.18371
763.312	93.22628
763.734	51.12483
764.156	104.25866
764.578	105.24164
765	118.29059
765.421	115.299
765.843	84.22053
766.264	34.08234
766.686	66.16576
767.107	91.22381
767.528	62.15968
767.949	9.02309
768.37	53.13271
768.791	71.17346
769.212	71.1825
769.632	57.13598
770.053	50.13296
770.473	40.09883
770.894	67.16667
771.314	60.143
771.734	67.15947
772.154	68.17586
772.575	75.17473
772.994	23.05369
773.414	78.18804
773.834	18.04511
774.254	90.22376
774.673	17.04198
775.093	0
775.512	45.11369
775.931	75.19211
776.351	66.1654
776.77	97.24147
777.189	26.0632
777.607	-4.01032
778.026	37.09284
778.445	-17.0433
778.864	39.09997
779.282	90.21959
779.701	32.08172
780.119	50.1281
780.537	42.10685
780.955	67.1709
781.373	52.12933
781.791	34.07789
782.209	32.07386
782.627	27.0715
783.045	46.10774
783.462	36.09242
783.88	14.03696
784.297	35.08984
784.715	41.10686
785.132	17.0418
785.549	87.22003
785.966	41.10381
786.383	-13.03269
786.8	5.01171
787.217	33.07936
787.633	20.05131
788.05	50.11761
788.466	87.20572
788.883	4.01035
789.299	30.07312
789.715	80.1973
790.131	63.15848
790.547	-23.058
790.963	54.13548
791.379	29.07389
791.795	29.06658
792.21	68.16132
792.626	11.02641
793.041	54.13475
793.457	18.04496
793.872	-11.02631
794.287	93.2278
794.702	11.02728
795.117	102.25654
795.532	26.06612
795.947	73.17575
796.362	-10.02398
796.776	14.03273
797.191	60.14945
797.605	26.06292
798.02	57.14097
798.434	58.13008
798.848	61.15213
799.262	11.02796
799.676	11.027
800.09	11.02712
800.504	13.03215
800.918	64.15055
801.331	27.07059
801.745	6.0139
802.158	28.07103
802.572	-13.03165
802.985	14.03432
803.398	27.06542
803.811	-9.02317
804.224	57.14169
804.637	-45.11035
805.05	44.10366
805.462	74.18411
805.875	42.11068
806.288	-12.0294
806.7	20.05088
807.112	37.08702
807.525	21.05218
807.937	-12.03034
808.349	-29.07335
808.761	-1.00247
809.173	44.1078
809.584	-3.0074
809.996	24.06008
810.408	54.141
810.819	53.12765
811.231	82.21638
811.642	102.25091
812.053	158.37859
812.464	146.34703
812.875	187.47208
813.286	104.26485
813.697	52.11893
814.108	21.05144
814.519	23.05157
814.929	21.05328
815.34	6.01472
815.75	15.03856
816.16	33.08257
816.571	26.06835
816.981	-16.03794
817.391	48.11716
817.801	18.04527
818.211	-6.01444
818.62	35.08589
819.03	62.15285
819.44	58.15067
819.849	45.11446
820.259	21.05362
820.668	34.08466
821.077	6.01526
821.486	55.13397
821.895	42.10328
822.304	-5.01335
822.713	-2.00481
823.122	-27.06824
823.531	8.01909
823.939	-19.04723
824.348	46.11236
824.756	47.11806
825.164	31.07782
825.573	8.02039
825.981	-13.03226
826.389	58.1463
826.797	55.13985
827.205	6.01419
827.612	22.05446
828.02	5.01206
828.428	5.01282
828.835	10.02647
829.243	19.04559
829.65	15.03771
830.057	4.00975
830.464	-30.07426
830.871	-2.00481
831.278	0
831.685	68.15301
832.092	42.10377
832.499	29.06455
832.905	17.04326
833.312	64.14643
833.718	10.025
834.124	17.03904
834.531	0
834.937	30.07716
835.343	39.09486
835.749	55.12834
836.155	41.1081
836.561	-13.03223
836.966	44.10752
837.372	63.16109
837.777	30.07524
838.183	54.12146
838.588	45.11272
838.993	5.01216
839.399	32.08005
839.804	14.03478
840.209	48.12319
840.613	26.05879
841.018	24.06123
841.423	12.031
841.828	2.0051
842.232	2.00496
842.637	5.01197
843.041	-2.0052
843.445	42.10609
843.849	-5.01258
844.253	-7.01681
844.657	33.08417
845.061	-13.02994
845.465	21.05188
845.869	59.13795
846.272	18.0447
846.676	-47.1135
847.079	19.04909
847.483	-4.01001
847.886	49.119
848.289	37.09932
848.692	-41.10502
849.095	6.0146
849.498	14.03524
849.901	-18.04208
850.304	-20.0482
850.707	19.04855
851.109	19.04778
851.512	33.08251
851.914	55.14216
852.316	35.08909
852.718	82.21652
853.121	2.00501
853.523	91.21784
853.925	30.07922
854.326	-27.06919
854.728	12.03119
855.13	23.05976
855.531	25.06121
855.933	43.10388
856.334	-32.08121
856.736	48.11102
857.137	3.00714
857.538	58.14776
857.939	44.11079
858.34	39.09553
858.741	70.18259
859.142	10.02418
859.542	27.07162
859.943	47.11862
860.343	27.06836
860.744	-2.00493
861.144	13.03202
861.544	27.06677
861.945	4.01034
862.345	29.07125
862.745	-5.01252
863.145	19.04531
863.544	6.01533
863.944	37.08908
864.344	-4.00997
864.743	50.12322
865.143	36.09355
865.542	25.05912
865.941	24.05958
866.34	-15.03616
866.74	14.03771
867.139	-11.02678
867.537	3.00772
867.936	0
868.335	10.02557
868.734	23.05933
869.132	39.09129
869.531	-34.08209
869.929	34.0796
870.327	54.13141
870.726	10.02491
871.124	-4.00939
871.522	3.00767
871.92	6.015
872.318	-19.04682
872.715	-49.12185
873.113	42.10309
873.511	-49.1222
873.908	-29.07449
874.306	33.08322
874.703	28.07022
875.1	0
875.497	38.09171
875.894	-4.01006
876.291	-28.0689
876.688	9.02342
877.085	9.02174
877.482	33.08316
877.878	39.09525
878.275	-11.02824
878.671	-45.10041
879.068	22.05344
879.464	45.10998
879.86	18.04344
880.256	-5.01242
880.652	58.14896
881.048	2.00499
881.444	-8.01914
881.84	14.03603
882.236	12.03032
882.631	17.04192
883.027	0
883.422	42.10854
883.817	1.00258
884.213	7.01819
884.608	25.06285
885.003	3.00743
885.398	18.04565
885.793	14.03557
886.188	27.06841
886.582	52.13308
886.977	24.05771
887.371	-51.12935
887.766	-25.06348
888.16	40.10043
888.554	-16.03939
888.949	-11.02776
889.343	58.14162
889.737	-2.00542
890.131	29.07337
890.525	50.12904
890.918	11.02804
891.312	13.0312
891.706	14.03682
892.099	17.04335
892.492	37.07999
892.886	50.12445
893.279	36.09307
893.672	13.03351
894.065	11.02771
894.458	-17.04301
894.851	18.04379
895.244	17.04402
895.637	9.02187
896.029	14.03487
896.422	33.08104
896.814	45.11349
897.206	-11.02675
897.599	31.07627
897.991	22.05396
898.383	-12.02863
898.775	-2.00459
899.167	37.0881
899.559	-7.01774
899.951	15.03592
900.342	65.16533
900.734	-13.03315
901.125	40.10601
901.517	-18.04461
901.908	-1.0024
902.299	59.14693
902.69	33.07864
903.082	-4.00965
903.473	32.07808
903.863	-4.01023
904.254	0
904.645	-16.03971
905.036	-31.07703
905.426	22.05084
905.817	26.06457
906.207	-6.01468
906.597	18.04272
906.987	-18.04649
907.378	23.05829
907.768	6.01601
908.158	26.06384
908.547	61.15969
908.937	-12.03077
909.327	28.06817
909.717	24.0606
910.106	27.06619
910.495	19.04742
910.885	5.01281
911.274	-1.00253
911.663	0
912.052	7.01728
912.441	47.12064
912.83	74.17169
913.219	30.07812
913.608	-8.01954
913.997	16.04082
914.385	69.16562
914.774	16.03929
915.162	2.00488
915.55	6.01452
915.939	-10.02561
916.327	-8.01987
916.715	39.1013
917.103	27.06655
917.491	34.08441
917.878	43.10677
918.266	-11.02864
918.654	-10.02579
919.041	4.01052
919.429	-52.12474
919.816	-11.02821
920.203	40.09749
920.591	9.02236
920.978	40.09803
921.365	8.02115
921.752	-15.0362
922.139	21.04595
922.525	85.20828
922.912	13.03184
923.299	68.17128
923.685	-3.00786
924.072	-19.04444
924.458	-2.00502
924.844	11.02781
925.231	-2.00475
925.617	41.10631
926.003	30.07678
926.389	6.0152
926.774	7.0179
927.16	19.04756
927.546	-9.0233
927.931	50.12571
928.317	7.01633
928.702	-4.00951
929.088	26.06315
929.473	37.09464
929.858	8.01993
930.243	-21.05136
930.628	18.0447
931.013	11.02755
931.398	5.01144
931.783	-37.09742
932.167	5.01226
932.552	-20.05012
932.937	50.12368
933.321	35.08896
933.705	-1.00254
934.09	14.03482
934.474	31.07424
934.858	2.00518
935.242	-28.06604
935.626	14.03622
936.009	2.00538
936.393	14.0356
936.777	-23.05912
937.16	27.0708
937.544	-1.00236
937.927	-18.0462
938.311	40.09753
938.694	13.03418
939.077	8.01952
939.46	8.01959
939.843	45.09412
940.226	11.02857
940.609	59.13784
940.991	-19.0493
941.374	4.00987
941.757	30.07478
942.139	-14.03193
942.522	-14.03323
942.904	12.02894
943.286	0
943.668	26.06801
944.05	31.07734
944.432	53.13251
944.814	86.21304
945.196	0
945.578	4.00981
945.959	29.0686
946.341	25.06074
946.722	-31.07347
947.104	10.02399
947.485	36.08547
947.866	12.03072
948.247	-4.01024
948.628	24.05889
949.009	-13.03384
949.39	28.06954
949.771	-36.08547
950.152	-4.00997
950.532	-15.03787
950.913	72.17554
951.293	-5.01372
951.674	4.00977
952.054	14.03497
952.434	-24.06019
952.814	-19.04498
953.194	-15.03905
953.574	-8.01973
953.954	40.09588
954.334	47.11721
954.714	-32.07979
955.093	-38.09351
955.473	10.02524
955.853	-43.11215
956.232	-26.07129
956.611	22.05256
956.99	-35.08817
957.37	11.02814
957.749	29.0695
958.128	-11.0279
958.506	26.06796
958.885	4.01018
959.264	14.03504
959.643	43.09935
960.021	0
960.4	2.00459
960.778	30.07323
961.156	12.0305
961.535	-14.03309
961.913	32.07548
962.291	11.0287
962.669	-54.13718
963.047	20.05142
963.424	1.00257
963.802	-14.03479
964.18	27.06812
964.557	33.07688
964.935	-17.04056
965.312	47.12342
965.69	-9.02277
966.067	-11.02711
966.444	30.07396
966.821	-16.04128
967.198	29.06971
967.575	-21.05184
967.952	-8.01879
968.329	9.02208
968.705	21.04616
969.082	29.0755
969.458	-20.04894
969.835	7.01698
970.211	18.04665
970.587	-4.01003
970.963	-7.01809
971.339	-10.02639
971.715	20.05025
972.091	6.01494
972.467	18.045
972.843	9.02278
973.219	55.13066
973.594	12.03171
973.97	58.13787
974.345	6.0146
974.721	7.01706
975.096	-10.02464
975.471	-37.08742
975.846	30.07284
976.221	30.0775
976.596	3.00732
976.971	-1.00247
977.346	15.0351
977.72	-14.03563
978.095	2.00517
978.469	15.03592
978.844	21.05249
979.218	-2.00492
979.593	-15.03594
979.967	21.0518
980.341	60.13932
980.715	2.00505
981.089	40.10086
981.463	-5.0117
981.837	21.05199
982.21	-15.03445
982.584	23.05628
982.957	-3.00759
983.331	24.05698
983.704	48.11899
984.078	21.05194
984.451	-9.02218
984.824	41.10177
985.197	28.06834
985.57	8.02018
985.943	3.00738
986.316	17.04184
986.688	17.04119
987.061	54.12747
987.434	-10.02616
987.806	-30.07323
988.179	53.12722
988.551	3.00768
988.923	-34.0841
989.295	49.12265
989.667	41.10054
990.039	41.1021
990.411	-8.01871
990.783	-13.02989
991.155	23.05667
991.527	11.0267
991.898	1.00251
992.27	33.08272
992.641	36.09022
993.012	35.08279
993.384	33.07942
993.755	9.02314
994.126	-23.05607
994.497	13.03253
994.868	14.03238
995.239	9.02203
995.61	36.09165
995.98	53.13002
996.351	20.05039
996.722	31.07311
997.092	11.02632
997.462	31.07435
997.833	-5.01186
998.203	5.01218
998.573	14.03507
998.943	54.12786
999.313	-32.07726
999.683	2.00485
1000.053	-4.0093
1000.423	4.00975
1000.792	44.11517
1001.162	-1.00249
1001.531	32.0793
1001.901	11.02753
1002.27	52.11749
1002.639	-1.00258
1003.009	39.09343
1003.378	-40.10334
1003.747	12.02869
1004.116	-33.08077
1004.485	-20.04805
1004.853	27.06838
1005.222	20.05084
1005.591	14.03353
1005.959	48.11185
1006.328	27.06186
1006.696	1.00243
1007.064	22.05597
1007.433	-3.00749
1007.801	-6.01466
1008.169	77.19488
1008.537	13.0288
1008.905	17.04025
1009.273	22.05466
1009.64	-27.06619
1010.008	28.06732
1010.375	-24.05731
1010.743	34.07879
1011.11	15.03605
1011.478	-15.03729
1011.845	8.01894
1012.212	33.0761
1012.579	-4.00991
1012.946	10.02405
1013.313	19.04493
1013.68	28.06303
1014.047	25.06112
1014.414	-19.0458
1014.78	-2.005
1015.147	14.03382
1015.513	9.02192
1015.88	46.11694
1016.246	0
1016.612	41.09439
1016.978	55.13542
1017.344	4.00996
1017.71	17.04085
1018.076	-2.00474
1018.442	9.0232
1018.808	-15.03806
1019.174	-17.04342
1019.539	38.08645
1019.905	-19.0454
1020.27	-27.06792
1020.636	-16.03862
1021.001	25.06069
1021.366	-19.046
1021.731	-9.02334
1022.096	-16.04063
1022.461	-60.14328
1022.826	23.05542
1023.191	37.09696
1023.556	-9.02141
1023.92	-15.037
1024.285	23.05611
1024.649	-26.06422
1025.014	-11.02733
1025.378	17.04326
1025.742	14.03505
1026.107	45.10194
1026.471	-20.0469
1026.835	-8.01987
1027.199	15.03669
1027.562	18.04254
1027.926	-11.02698
1028.29	51.13073
1028.654	15.03503
1029.017	-24.05937
1029.381	61.14864
1029.744	38.0977
1030.107	-5.0118
1030.471	-13.03146
1030.834	21.04804
1031.197	3.0072
1031.56	19.04491
1031.923	34.08793
1032.286	-14.03278
1032.648	23.05554
1033.011	52.1217
1033.374	10.02344
1033.736	3.00802
1034.099	47.11577
1034.461	66.16897
1034.823	7.01762
1035.185	14.03557
1035.548	64.15592
1035.91	26.06315
1036.272	40.09189
1036.634	-2.00489
1036.995	-6.01415
1037.357	-4.00984
1037.719	8.01947
1038.08	-10.02371
1038.442	15.03588
1038.803	23.05594
1039.165	-40.10205
1039.526	10.02425
1039.887	8.01937
1040.248	16.04036
1040.609	-1.00247
1040.97	66.16319
1041.331	-18.04579
1041.692	12.02854
1042.053	0
1042.413	-9.02113
1042.774	11.02685
1043.134	-3.00713
1043.495	14.03528
1043.855	-13.03181
1044.215	9.02228
1044.576	61.14748
1044.936	-15.0343
1045.296	28.06979
1045.656	19.04687
1046.016	67.16119
1046.375	41.10091
1046.735	59.136
1047.095	26.06154
1047.454	12.02543
1047.814	-52.12584
1048.173	9.02136
1048.533	15.03481
1048.892	2.00492
1049.251	9.02261
1049.61	-14.03502
1049.969	-28.0665
1050.328	2.0044
1050.687	6.01478
1051.046	11.02689
1051.405	18.04503
1051.763	-1.00234
1052.122	55.1389
1052.48	4.00983
1052.839	7.01667
1053.197	-40.09501
1053.555	-32.07236
1053.914	6.01481
1054.272	42.10076
1054.63	27.06709
1054.988	-14.03366
1055.345	23.05041
1055.703	-39.09436
1056.061	-17.0442
1056.419	25.06498
1056.776	5.01211
1057.134	27.06328
1057.491	-18.04547
1057.848	25.06246
1058.206	19.04515
1058.563	-37.08403
1058.92	36.08303
1059.277	-10.02467
1059.634	44.10435
1059.991	-8.01905
1060.348	41.09496
1060.704	3.00726
1061.061	-33.07561
1061.418	38.0932
1061.774	-2.005
1062.131	19.05041
1062.487	5.01178
1062.843	-10.02521
1063.199	11.02738
1063.555	-8.01877
1063.911	55.1394
1064.267	27.0565
1064.623	-2.00494
1064.979	-25.05882
1065.335	-40.09523
1065.691	-54.13018
1066.046	-18.03991
1066.402	68.1559
1066.757	4.01006
1067.112	-32.07828
1067.468	-47.11406
1067.823	27.06533
1068.178	-17.04143
1068.533	12.02908
1068.888	14.03382
1069.243	24.05954
1069.598	35.0858
1069.952	-30.07007
1070.307	5.0126
1070.662	11.02661
1071.016	-17.03929
1071.371	-24.0556
1071.725	63.14955
1072.079	-6.01443
1072.434	12.02949
1072.788	69.16638
1073.142	10.02466
1073.496	72.17476
1073.85	-14.03277
1074.203	-19.04602
1074.557	42.11191
1074.911	2.00478
1075.265	27.06295
1075.618	14.03439
1075.971	34.08144
1076.325	31.07946
1076.678	46.10812
1077.031	2.00463
1077.385	40.08934
1077.738	75.17225
1078.091	41.09575
1078.444	-1.00236
1078.796	24.05917
1079.149	-1.00249
1079.502	13.03133
1079.855	0
1080.207	-27.06692
1080.56	48.12499
1080.912	53.12924
1081.264	0
1081.617	33.08188
1081.969	22.05638
1082.321	22.05454
1082.673	14.03297
1083.025	-41.09838
1083.377	-235.53408
1083.728	25.05868
1084.08	51.12825
1084.432	45.10974
1084.783	14.03265
1085.135	5.01267
1085.486	21.0492
1085.838	9.02236
1086.189	-2.00492
1086.54	-34.08178
1086.891	-13.03358
1087.242	26.06346
1087.593	24.05773
1087.944	61.14021
1088.295	9.02044
1088.646	-10.02453
1088.996	-12.02961
1089.347	-5.01239
1089.698	32.07747
1090.048	-10.02607
1090.398	15.03503
1090.749	-6.01443
1091.099	-13.03325
1091.449	9.02244
1091.799	42.10621
1092.149	16.04023
1092.499	-54.13284
1092.849	-17.0437
1093.199	-11.02751
1093.548	5.01209
1093.898	16.04065
1094.248	5.01282
1094.597	-42.11027
1094.947	-2.00536
1095.296	1.0025
1095.645	8.02081
1095.994	62.15009
1096.343	15.0379
1096.692	8.02139
1097.041	31.0846
1097.39	26.06528
1097.739	-6.01557
1098.088	26.0696
1098.437	-12.03196
1098.785	40.10827
1099.134	30.07954
1099.482	12.03296
1099.83	4.01044
1100.179	-10.02639
1100.527	67.17819
1100.875	-4.01068
1101.223	-21.05593
1101.571	18.05013
1101.919	-2.00532
1102.267	11.03104
1102.615	4.01287
1102.962	3.00965
1103.31	9.02896
1103.658	-2.00644
