Data from N2 R2  sample 11_Subt2__5__15-12-14-818.txt Node

Date: Wed Aug 27 15:12:14 PDT 2025
User: uwsun
Spectrometer: HDX01956
Trigger mode: 0
Integration Time (sec): 5.000000E-1
Scans to average: 1
Nonlinearity correction enabled: true
Boxcar width: 0
Storing dark spectrum: false
XAxis mode: Wavelengths
Number of Pixels in Spectrum: 2068
>>>>>Begin Spectral Data<<<<<
194.03	537.43962
194.578	526.60524
195.127	520.5647
195.676	499.51017
196.225	496.25144
196.773	531.38887
197.321	635.63056
197.87	810.87393
198.418	852.97885
198.966	812.92221
199.513	797.82164
200.061	800.8581
200.609	826.95684
201.156	808.59812
201.704	821.89001
202.251	805.92794
202.798	875.05699
203.345	808.80572
203.892	779.77836
204.438	800.73051
204.985	868.84094
205.532	866.037
206.078	899.96828
206.624	872.93197
207.17	825.7227
207.716	889.94965
208.262	763.35397
208.808	826.84974
209.354	862.8932
209.899	907.01643
210.445	816.83258
210.99	817.7797
211.535	868.81776
212.08	840.76372
212.625	874.94281
213.17	817.84044
213.715	834.68115
214.259	843.74323
214.804	879.93336
215.348	866.7593
215.892	846.80671
216.436	850.74008
216.98	859.68605
217.524	817.72932
218.068	832.85326
218.612	822.86638
219.155	814.71659
219.698	829.75092
220.242	746.6719
220.785	773.62686
221.328	818.82957
221.871	742.67654
222.414	766.73149
222.956	707.564
223.499	748.52831
224.041	792.67673
224.583	748.43925
225.126	720.45907
225.668	750.66848
226.21	750.71042
226.751	758.51449
227.293	840.69713
227.835	750.65333
228.376	783.63421
228.918	843.88897
229.459	798.80238
230	750.59811
230.541	830.71594
231.082	808.76714
231.622	821.71586
232.163	808.76491
232.704	828.84662
233.244	772.70185
233.784	712.57605
234.324	743.48619
234.864	729.50257
235.404	769.62977
235.944	790.66886
236.484	782.73468
237.023	801.70576
237.563	795.65121
238.102	733.54125
238.641	774.75454
239.18	763.62127
239.719	772.75566
240.258	778.56527
240.797	858.83709
241.335	766.6851
241.874	772.33915
242.412	799.71474
242.95	842.81056
243.488	877.78207
244.026	775.60249
244.564	797.44741
245.102	821.66665
245.64	814.75482
246.177	773.54842
246.715	798.699
247.252	772.58168
247.789	797.28758
248.326	804.75469
248.863	777.53565
249.4	778.56168
249.936	805.4968
250.473	805.68239
251.009	801.65999
251.546	820.6355
252.082	815.56725
252.618	801.61345
253.154	821.75972
253.69	824.66173
254.226	758.6033
254.761	825.65348
255.297	892.73241
255.832	777.63887
256.367	818.73558
256.903	828.62169
257.438	817.6864
257.972	864.72018
258.507	843.74245
259.042	813.54391
259.576	805.55764
260.111	835.70588
260.645	836.58266
261.179	812.68019
261.713	870.70727
262.247	835.70896
262.781	834.53125
263.315	776.69997
263.849	844.88076
264.382	863.73211
264.915	885.85053
265.449	836.83608
265.982	918.81005
266.515	903.93057
267.048	823.52048
267.58	848.61166
268.113	875.66831
268.646	876.91591
269.178	902.7926
269.71	860.61708
270.243	869.73936
270.775	876.97615
271.307	858.80787
271.838	818.70921
272.37	887.91103
272.902	850.7103
273.433	850.64211
273.965	825.78348
274.496	852.85714
275.027	855.88998
275.558	881.88433
276.089	850.87932
276.62	860.92667
277.15	921.98177
277.681	847.62264
278.211	846.84017
278.741	882.71866
279.272	926.84376
279.802	919.01283
280.332	890.85976
280.861	857.82509
281.391	891.77523
281.921	826.74344
282.45	951.07166
282.98	885.03137
283.509	934.83045
284.038	911.80589
284.567	923.84671
285.096	890.87861
285.625	886.74035
286.153	895.8426
286.682	913.84519
287.21	921.92924
287.739	934.91908
288.267	897.91031
288.795	977.22395
289.323	946.91761
289.851	920.85385
290.378	958.88019
290.906	965.05171
291.433	992.11875
291.961	930.85174
292.488	916.96553
293.015	945.9256
293.542	959.11809
294.069	955.05235
294.596	983.0801
295.122	975.00132
295.649	957.79673
296.175	992.07594
296.702	948.98277
297.228	931.95534
297.754	925.79958
298.28	959.88878
298.806	985.00558
299.332	1069.01191
299.857	990.9048
300.383	1015.17118
300.908	999.11584
301.433	998.06742
301.958	1026.03968
302.483	1004.17019
303.008	976.03254
303.533	1048.33346
304.058	998.98177
304.582	1080.17602
305.107	1055.34761
305.631	1025.96706
306.155	1097.15239
306.679	1098.1589
307.203	1049.05609
307.727	1075.1684
308.251	993.06845
308.775	1060.12397
309.298	1056.16058
309.822	1110.33437
310.345	1091.1456
310.868	1057.1194
311.391	1065.17657
311.914	1123.37357
312.437	1093.04116
312.96	1140.21234
313.482	1108.18368
314.005	1142.40696
314.527	1136.47855
315.049	1159.40616
315.571	1169.12677
316.093	1159.35406
316.615	1155.27491
317.137	1177.06176
317.659	1149.25252
318.18	1214.34959
318.702	1210.30856
319.223	1206.97618
319.744	1237.23283
320.265	1184.34246
320.786	1252.51395
321.307	1313.60955
321.828	1251.22849
322.348	1277.35666
322.869	1337.50198
323.389	1331.6825
323.909	1304.36436
324.43	1293.4265
324.95	1317.36819
325.47	1330.58922
325.989	1344.45925
326.509	1416.4047
327.029	1380.40591
327.548	1409.41
328.067	1460.70293
328.587	1400.63878
329.106	1437.52604
329.625	1408.84175
330.144	1478.52269
330.662	1475.57844
331.181	1469.55056
331.7	1484.56799
332.218	1509.38459
332.736	1534.59805
333.255	1530.63696
333.773	1583.69235
334.291	1567.8241
334.808	1595.52035
335.326	1623.59416
335.844	1610.70586
336.361	1676.04703
336.879	1693.81214
337.396	1710.88451
337.913	1759.84377
338.43	1747.66648
338.947	1775.91289
339.464	1728.55186
339.981	1719.83405
340.497	1792.02471
341.014	1813.02545
341.53	1817.72958
342.046	1801.9964
342.562	1896.1102
343.078	1877.9161
343.594	1886.98824
344.11	1951.96693
344.626	1890.15949
345.141	1896.75376
345.657	1919.69417
346.172	1987.08175
346.687	1942.85774
347.202	2029.85552
347.717	2033.0213
348.232	2071.28944
348.747	2051.91947
349.261	2062.72285
349.776	2073.02541
350.29	2158.29348
350.805	2212.325
351.319	2124.97663
351.833	2176.95119
352.347	2209.06283
352.861	2222.0669
353.374	2226.92687
353.888	2161.04339
354.401	2289.02488
354.915	2328.01535
355.428	2284.31975
355.941	2319.03206
356.454	2254.78754
356.967	2341.06988
357.48	2292.91448
357.993	2354.26279
358.505	2368.28484
359.018	2482.32884
359.53	2435.12512
360.042	2506.84022
360.554	2461.14941
361.066	2414.27582
361.578	2475.7446
362.09	2444.1361
362.602	2485.74607
363.113	2532.01265
363.625	2549.84224
364.136	2692.78039
364.647	2634.02251
365.158	2675.05594
365.669	2659.20898
366.18	2665.06363
366.691	2666.75573
367.201	2619.10334
367.712	2758.97289
368.222	2706.87732
368.733	2662.65449
369.243	2851.75699
369.753	2839.87798
370.263	2990.17706
370.773	3034.37046
371.282	3001.04911
371.792	3077.88675
372.301	3086.17049
372.811	3226.52621
373.32	3211.49285
373.829	3198.85794
374.338	3336.54104
374.847	3476.63789
375.356	3501.73702
375.865	3623.1115
376.373	3827.27125
376.882	3882.8881
377.39	3895.57325
377.898	4032.67317
378.407	4294.00239
378.915	4410.49996
379.423	4534.88315
379.93	4640.54854
380.438	4889.79585
380.946	5020.40334
381.453	5355.39817
381.96	5487.11877
382.468	5735.92881
382.975	6233.91077
383.482	6396.62839
383.989	6598.12363
384.495	6876.70428
385.002	6919.38931
385.509	7532.02033
386.015	7988.50986
386.521	8172.80173
387.028	8618.70962
387.534	8824.3625
388.04	9115.94873
388.546	9365.93934
389.051	9729.50028
389.557	10443.3522
390.063	11368.06677
390.568	11862.3244
391.073	12035.87203
391.578	12555.37537
392.084	12956.86941
392.589	13131.01423
393.093	14221.73164
393.598	15492.36448
394.103	16952.83471
394.607	18657.87022
395.112	19981.88146
395.616	21090.44603
396.12	22760.19243
396.624	25307.93247
397.128	27440.43369
397.632	30403.30976
398.136	33044.55759
398.639	34756.18554
399.143	38149.77944
399.646	43055.93023
400.15	47551.24661
400.653	52074.15042
401.156	55969.58803
401.659	55791.19793
402.162	53821.55638
402.664	47275.14456
403.167	32260.27245
403.67	3851.94142
404.172	0
404.674	0
405.176	0
405.678	0
406.18	0
406.682	0
407.184	0
407.686	12367.42319
408.187	34596.90747
408.688	44563.94194
409.19	48906.19284
409.691	51236.67962
410.192	52883.26968
410.693	53713.23343
411.194	54189.54801
411.694	54767.79104
412.195	55625.98899
412.696	55971.27715
413.196	55815.15953
413.696	55802.1488
414.196	55740.09561
414.696	56340.4775
415.196	57067.59327
415.696	58258.21704
416.196	56823.15004
416.695	43849.47328
417.195	36710.28388
417.694	34621.27614
418.194	32849.5355
418.693	30683.64109
419.192	29512.03106
419.691	29098.39224
420.19	28280.12789
420.688	27543.44105
421.187	26502.62887
421.685	24851.59664
422.184	22720.18098
422.682	19857.30396
423.18	17008.16121
423.678	15051.90314
424.176	13918.48085
424.674	13075.23997
425.172	12456.97584
425.669	11800.42223
426.167	11116.56871
426.664	10031.27693
427.161	9268.37293
427.659	8610.59179
428.156	8076.64481
428.652	7692.39493
429.149	7283.96083
429.646	7094.65377
430.143	6662.77833
430.639	6290.75465
431.135	6008.14749
431.632	5640.94298
432.128	5291.19743
432.624	5073.87483
433.12	4734.35246
433.616	4683.24321
434.111	4638.84832
434.607	4351.02434
435.103	4298.41363
435.598	4206.29999
436.093	3950.14065
436.588	3753.00604
437.083	3619.24553
437.578	3423.21718
438.073	3315.95195
438.568	3235.81285
439.062	3079.19413
439.557	3002.65468
440.051	3014.57371
440.546	2829.64396
441.04	2746.87412
441.534	2613.08057
442.028	2616.81315
442.522	2613.86652
443.015	2571.51198
443.509	2553.01656
444.002	2536.98391
444.496	2354.43704
444.989	2390.93242
445.482	2404.02954
445.975	2395.66083
446.468	2356.49535
446.961	2248.32283
447.454	2281.68042
447.947	2262.77091
448.439	2180.86451
448.931	2137.50435
449.424	2213.03015
449.916	2090.81694
450.408	2043.50302
450.9	1938.6934
451.392	2017.94441
451.884	2033.58968
452.375	1902.80626
452.867	1866.39316
453.358	1848.46735
453.849	1929.30805
454.341	1860.39815
454.832	1816.28672
455.323	1814.73064
455.814	1814.4796
456.304	1780.48374
456.795	1778.50278
457.285	1686.29707
457.776	1719.36017
458.266	1703.57876
458.756	1708.63439
459.247	1631.53398
459.737	1602.55812
460.226	1611.34036
460.716	1583.49269
461.206	1497.44365
461.695	1583.67374
462.185	1553.46034
462.674	1535.34624
463.163	1483.22486
463.653	1471.07064
464.142	1417.38906
464.63	1428.41613
465.119	1388.24629
465.608	1449.32681
466.096	1391.13036
466.585	1375.24809
467.073	1317.26738
467.561	1311.27967
468.05	1335.22337
468.538	1311.3418
469.026	1277.21562
469.513	1267.9126
470.001	1294.21876
470.489	1315.33339
470.976	1155.98422
471.463	1241.31273
471.951	1079.07537
472.438	1144.05758
472.925	1166.11756
473.412	1149.15027
473.899	1096.94213
474.385	1083.08806
474.872	1044.91196
475.359	1055.06012
475.845	1019.67826
476.331	1017.75289
476.817	996.93195
477.303	1006.86532
477.789	989.91698
478.275	906.85232
478.761	966.90481
479.247	887.61448
479.732	882.83491
480.218	889.90553
480.703	885.8171
481.188	809.43133
481.673	881.66678
482.158	886.59434
482.643	809.74292
483.128	822.60082
483.612	806.59044
484.097	823.70183
484.581	777.51199
485.066	792.64753
485.55	728.37451
486.034	710.33588
486.518	687.38481
487.002	739.59405
487.486	721.5346
487.969	666.42571
488.453	682.4914
488.936	644.28106
489.42	687.33152
489.903	665.4545
490.386	629.91072
490.869	618.18359
491.352	581.24702
491.835	615.12195
492.318	639.2891
492.8	608.14419
493.283	618.39108
493.765	557.23853
494.247	578.20511
494.73	540.06787
495.212	587.24422
495.694	561.18489
496.175	498.08216
496.657	584.23219
497.139	564.88204
497.62	526.14311
498.102	595.34008
498.583	534.21747
499.064	449.91452
499.545	525.08788
500.026	565.14534
500.507	525.11067
500.988	573.27942
501.469	459.06157
501.949	520.15255
502.43	481.05646
502.91	447.86447
503.39	470.07393
503.87	537.1475
504.35	414.90091
504.83	437.89291
505.31	405.9129
505.79	434.96965
506.269	446.95857
506.749	390.83462
507.228	411.90064
507.707	367.76077
508.187	412.90873
508.666	347.79496
509.145	377.82754
509.623	432.95084
510.102	343.78328
510.581	378.84073
511.059	405.95343
511.538	390.93257
512.016	428.96098
512.494	435.99051
512.972	356.78918
513.45	403.87977
513.928	395.90127
514.406	346.80173
514.884	379.91336
515.361	364.80825
515.839	384.82392
516.316	372.84452
516.793	358.8528
517.27	384.8661
517.747	389.9417
518.224	339.73631
518.701	369.77483
519.178	317.74429
519.654	307.69006
520.131	316.73977
520.607	313.73059
521.083	338.73336
521.56	282.6327
522.036	313.65377
522.512	315.72688
522.987	286.65116
523.463	345.77641
523.939	274.63442
524.414	327.7169
524.89	348.78621
525.365	260.56077
525.84	291.66241
526.315	317.72683
526.79	313.66508
527.265	364.78808
527.74	328.75099
528.215	350.7962
528.689	263.55933
529.164	318.66171
529.638	295.72118
530.112	308.69301
530.587	358.73399
531.061	269.62643
531.534	337.77701
532.008	282.65372
532.482	224.49224
532.956	266.6463
533.429	276.63373
533.903	275.57746
534.376	277.595
534.849	243.5368
535.322	239.54493
535.795	253.58871
536.268	251.58267
536.741	200.46163
537.213	248.54933
537.686	210.49415
538.158	238.52081
538.631	253.58034
539.103	241.52837
539.575	307.60509
540.047	288.61049
540.519	227.51799
540.991	272.62754
541.463	251.58083
541.934	208.45747
542.406	191.43813
542.877	219.47204
543.348	187.42483
543.82	265.6159
544.291	209.46459
544.762	251.57252
545.233	235.5621
545.703	286.6044
546.174	275.61078
546.645	246.56779
547.115	312.7158
547.585	263.57052
548.056	245.56334
548.526	291.65115
548.996	285.64639
549.466	328.74616
549.935	353.7879
550.405	308.64061
550.875	325.72362
551.344	336.75229
551.814	322.69895
552.283	316.64231
552.752	303.65953
553.221	330.67719
553.69	305.63282
554.159	360.82788
554.628	369.77722
555.096	394.92123
555.565	380.80373
556.033	361.79009
556.502	365.82847
556.97	298.61816
557.438	322.71293
557.906	257.58053
558.374	272.5957
558.842	244.55936
559.31	257.55323
559.777	230.5353
560.245	174.39057
560.712	229.50609
561.18	267.56709
561.647	195.41977
562.114	261.58017
562.581	187.4384
563.048	225.49974
563.514	254.59604
563.981	277.60499
564.448	220.47328
564.914	205.45437
565.381	249.53716
565.847	264.58379
566.313	266.59534
566.779	281.60957
567.245	186.41561
567.711	262.5999
568.176	219.46981
568.642	238.56613
569.108	248.57878
569.573	236.52515
570.038	258.51772
570.504	337.71045
570.969	237.55344
571.434	245.50833
571.899	332.73752
572.363	309.65457
572.828	330.69065
573.293	373.79669
573.757	315.67224
574.222	365.75967
574.686	331.69535
575.15	369.81373
575.614	403.84957
576.078	353.75921
576.542	318.66907
577.006	318.66347
577.469	329.73131
577.933	355.73886
578.396	379.82108
578.86	361.78042
579.323	392.86173
579.786	384.75454
580.249	363.76122
580.712	308.69159
581.175	395.89
581.637	336.70632
582.1	287.57552
582.563	372.7289
583.025	367.8161
583.487	339.64366
583.95	350.70136
584.412	333.64028
584.874	350.78427
585.336	314.69203
585.797	348.69219
586.259	307.66965
586.721	319.69759
587.182	301.64599
587.643	264.55375
588.105	248.54039
588.566	246.47858
589.027	237.53448
589.488	224.47608
589.949	280.6277
590.41	261.48346
590.87	238.49547
591.331	279.55844
591.791	231.50047
592.252	215.45924
592.712	217.48037
593.172	249.5224
593.632	213.42772
594.092	232.48018
594.552	153.30809
595.011	216.46627
595.471	239.49788
595.931	210.4362
596.39	252.56586
596.849	225.48872
597.308	154.30889
597.768	282.66845
598.227	268.59066
598.685	241.50897
599.144	279.60678
599.603	263.57587
600.062	265.5255
600.52	229.47896
600.978	262.57744
601.437	295.61809
601.895	248.48225
602.353	279.56336
602.811	298.61374
603.269	278.60704
603.727	305.6698
604.184	302.62981
604.642	287.63955
605.099	380.80619
605.557	350.77136
606.014	315.62203
606.471	328.75039
606.928	337.66016
607.385	381.84301
607.842	497.01001
608.299	467.96459
608.755	408.87427
609.212	470.93443
609.668	398.79497
610.125	449.95152
610.581	501.01584
611.037	460.91667
611.493	408.8569
611.949	404.86757
612.405	454.83117
612.861	442.91193
613.316	420.90853
613.772	414.8392
614.227	403.83912
614.683	428.81484
615.138	451.94365
615.593	446.93546
616.048	462.94249
616.503	401.86576
616.958	417.92764
617.412	498.03713
617.867	472.94146
618.321	490.91023
618.776	417.82461
619.23	395.83308
619.684	513.02694
620.138	446.90117
620.592	415.89714
621.046	361.75904
621.5	430.94048
621.954	383.7769
622.407	396.79427
622.861	409.90193
623.314	422.85933
623.768	401.84462
624.221	354.63857
624.674	341.71699
625.127	298.63941
625.58	312.64199
626.033	312.62406
626.485	352.77934
626.938	391.83586
627.39	338.72586
627.843	309.65486
628.295	291.61887
628.747	305.6729
629.199	324.67869
629.651	325.69117
630.103	316.67335
630.555	296.59562
631.006	285.6222
631.458	280.62382
631.909	269.57283
632.361	276.60701
632.812	238.52323
633.263	203.4163
633.714	306.6217
634.165	222.50403
634.616	214.48133
635.067	246.50756
635.518	286.63666
635.968	223.42629
636.419	258.52801
636.869	194.43313
637.319	310.6898
637.769	210.44769
638.219	270.60727
638.669	200.45464
639.119	195.44695
639.569	211.48672
640.019	218.47543
640.468	238.50671
640.918	207.46874
641.367	218.4714
641.816	143.30558
642.265	214.4677
642.714	231.50624
643.163	211.46163
643.612	200.4642
644.061	194.39487
644.51	243.52894
644.958	229.48681
645.406	172.39716
645.855	242.57099
646.303	265.58784
646.751	215.47157
647.199	231.49769
647.647	212.46666
648.095	209.46092
648.543	297.58455
648.99	254.58135
649.438	191.42458
649.885	226.52765
650.333	312.57693
650.78	266.61321
651.227	261.60756
651.674	253.55632
652.121	232.54336
652.568	290.67226
653.015	252.60885
653.461	192.44069
653.908	249.5512
654.354	254.58088
654.801	272.62179
655.247	215.45048
655.693	242.59877
656.139	273.63474
656.585	274.6319
657.031	236.54059
657.477	246.51987
657.922	221.49799
658.368	241.57711
658.813	236.52929
659.259	230.53424
659.704	196.44681
660.149	236.53538
660.594	241.55415
661.039	243.53366
661.484	233.53597
661.929	267.59696
662.373	235.57772
662.818	235.56361
663.262	235.5492
663.707	232.56666
664.151	221.51871
664.595	253.59798
665.039	209.50354
665.483	281.69486
665.927	205.46553
666.371	262.59869
666.814	247.57271
667.258	235.54424
667.701	260.54319
668.145	258.61958
668.588	224.5359
669.031	278.63781
669.474	232.54378
669.917	227.48802
670.36	206.49941
670.803	305.70745
671.245	335.68885
671.688	247.57905
672.13	254.5659
672.573	272.66286
673.015	295.68128
673.457	278.59419
673.899	297.6908
674.341	294.68153
674.783	259.60647
675.225	296.7065
675.666	276.64993
676.108	218.45969
676.549	293.66507
676.991	302.64911
677.432	337.67328
677.873	275.6189
678.314	249.57917
678.755	308.72838
679.196	306.68964
679.637	281.66569
680.078	279.63561
680.518	298.66804
680.959	224.51887
681.399	250.60288
681.839	277.65495
682.28	252.61069
682.72	313.7021
683.16	259.6306
683.6	280.61684
684.039	296.59699
684.479	293.69679
684.919	254.58485
685.358	270.65995
685.798	325.82885
686.237	274.64246
686.676	238.53114
687.115	280.64008
687.554	307.70927
687.993	266.57617
688.432	260.58215
688.871	315.69641
689.309	329.76189
689.748	288.59101
690.186	321.74013
690.625	297.68125
691.063	298.69955
691.501	327.78271
691.939	315.76719
692.377	321.76307
692.815	275.64468
693.253	236.55316
693.69	288.61982
694.128	279.6658
694.565	276.64159
695.003	287.70449
695.44	279.64638
695.877	296.67774
696.314	295.61891
696.751	295.6473
697.188	268.59783
697.625	303.66513
698.061	318.74503
698.498	324.75641
698.934	322.74849
699.371	272.62779
699.807	312.71666
700.243	279.65022
700.679	271.5994
701.115	285.64114
701.551	305.69174
701.987	327.71237
702.422	323.74533
702.858	297.69107
703.294	273.59423
703.729	293.69278
704.164	285.6629
704.599	298.64355
705.035	288.63021
705.47	246.582
705.904	349.79055
706.339	333.74266
706.774	349.79152
707.209	312.70546
707.643	295.68696
708.078	276.65069
708.512	330.79756
708.946	285.65897
709.38	351.80154
709.814	320.71706
710.248	317.75067
710.682	336.77517
711.116	345.80843
711.549	373.92735
711.983	328.73619
712.416	324.73915
712.85	324.78188
713.283	319.72555
713.716	323.77166
714.149	322.73429
714.582	345.75189
715.015	337.80479
715.448	336.81481
715.881	277.57755
716.313	316.70402
716.746	321.73305
717.178	318.74182
717.61	339.82069
718.043	352.83755
718.475	291.68058
718.907	327.7842
719.339	304.67757
719.77	289.66795
720.202	352.85488
720.634	345.81254
721.065	319.73698
721.497	388.9104
721.928	368.87023
722.359	285.67908
722.79	333.77574
723.221	346.8296
723.652	338.82857
724.083	369.80624
724.514	287.63717
724.945	309.70451
725.375	336.76498
725.806	331.78018
726.236	306.74848
726.666	375.85496
727.096	358.84986
727.526	361.88149
727.956	371.81883
728.386	367.86937
728.816	365.9035
729.246	285.67517
729.675	296.70487
730.105	336.79826
730.534	352.79297
730.964	356.85746
731.393	372.87049
731.822	309.7523
732.251	368.89707
732.68	375.83285
733.109	363.86852
733.537	334.78036
733.966	311.74556
734.395	331.7385
734.823	381.81907
735.251	346.80141
735.68	370.88037
736.108	340.83038
736.536	383.87249
736.964	329.73829
737.392	348.83566
737.82	276.63296
738.247	362.8358
738.675	316.71654
739.102	362.8785
739.53	354.86199
739.957	317.78271
740.384	372.8664
740.811	362.87422
741.238	358.83216
741.665	312.70058
742.092	337.77175
742.519	368.88132
742.945	326.7539
743.372	377.89305
743.798	345.85245
744.225	373.85486
744.651	358.85966
745.077	328.78705
745.503	385.90178
745.929	333.77146
746.355	299.696
746.781	337.80264
747.207	276.63271
747.632	315.74824
748.058	318.75754
748.483	355.79171
748.908	318.76248
749.334	385.90777
749.759	338.77606
750.184	347.79401
750.609	285.67282
751.033	305.68134
751.458	284.61437
751.883	321.75397
752.307	332.76198
752.732	317.77811
753.156	299.72007
753.58	319.72672
754.005	306.74542
754.429	326.74191
754.853	340.81738
755.277	262.59942
755.7	293.70161
756.124	288.6945
756.548	318.7354
756.971	325.76604
757.394	293.72904
757.818	270.67658
758.241	353.85907
758.664	318.78446
759.087	301.65851
759.51	258.62241
759.933	213.5013
760.356	256.63317
760.778	326.7879
761.201	316.74295
761.623	290.68183
762.046	251.57368
762.468	276.64007
762.89	246.58335
763.312	262.61721
763.734	239.56446
764.156	259.62588
764.578	222.49891
765	285.68012
765.421	251.63724
765.843	231.59125
766.264	203.47591
766.686	208.50899
767.107	219.52584
767.528	234.58449
767.949	196.48621
768.37	222.53881
768.791	249.58807
769.212	215.53869
769.632	186.43273
770.053	241.62029
770.473	212.50719
770.894	168.4102
771.314	178.41461
771.734	173.40336
772.154	184.46625
772.575	207.46969
772.994	146.33256
773.414	191.45058
773.834	118.29038
774.254	223.54093
774.673	173.41492
775.093	136.33306
775.512	193.47466
775.931	161.40616
776.351	158.38938
776.77	151.37219
777.189	188.44307
777.607	110.27815
778.026	143.35196
778.445	80.20027
778.864	110.27845
779.282	167.4016
779.701	122.30662
780.119	136.34316
780.537	109.274
780.955	123.31063
781.373	111.2731
781.791	85.19272
782.209	81.18514
782.627	111.28978
783.045	128.29498
783.462	69.17612
783.88	143.36923
784.297	150.37726
784.715	107.27571
785.132	106.25631
785.549	114.28693
785.966	86.21599
786.383	65.16116
786.8	58.13446
787.217	38.0913
787.633	100.25296
788.05	90.21005
788.466	105.24742
788.883	79.20179
789.299	71.17172
789.715	111.27219
790.131	122.30365
790.547	39.09726
790.963	92.22923
791.379	108.27134
791.795	61.13915
792.21	116.27265
792.626	120.28216
793.041	74.18398
793.457	52.1291
793.872	44.10415
794.287	94.23021
794.702	63.15478
795.117	113.28365
795.532	86.21638
795.947	77.18524
796.362	81.19087
796.776	85.19592
797.191	105.25939
797.605	73.17509
798.02	80.19701
798.434	62.13894
798.848	81.20127
799.262	65.16363
799.676	51.12427
800.09	28.06883
800.504	91.22183
800.918	54.12727
801.331	69.17909
801.745	-1.00232
802.158	91.22826
802.572	15.03633
802.985	79.19135
803.398	74.17772
803.811	59.15007
804.224	59.14661
804.637	38.09175
805.05	23.05441
805.462	130.32014
805.875	47.12375
806.288	-4.00979
806.7	16.04073
807.112	66.15434
807.525	44.10888
807.937	85.21121
808.349	2.00503
808.761	26.06393
809.173	43.10537
809.584	8.0197
809.996	73.18113
810.408	45.11768
810.819	75.17988
811.231	80.21117
811.642	111.2726
812.053	153.36696
812.464	141.33547
812.875	160.40587
813.286	76.1945
813.697	40.0917
814.108	-9.02217
814.519	6.0135
814.929	42.10617
815.34	8.01961
815.75	22.05648
816.16	27.06763
816.571	73.19039
816.981	46.10778
817.391	22.05396
817.801	23.0578
818.211	18.04313
818.62	67.16345
819.03	31.07686
819.44	48.12491
819.849	27.06889
820.259	11.02814
820.668	13.03249
821.077	63.15865
821.486	65.15803
821.895	37.09107
822.304	12.03194
822.713	20.04787
823.122	24.0601
823.531	34.08072
823.939	18.04444
824.348	34.08324
824.756	37.09311
825.164	35.08779
825.573	37.09381
825.981	27.0665
826.389	78.19604
826.797	52.13229
827.205	48.1126
827.612	1.00248
828.02	50.11958
828.428	35.08928
828.835	15.03967
829.243	38.09085
829.65	6.01511
830.057	6.01462
830.464	19.04661
830.871	44.10479
831.278	66.15965
831.685	59.13301
832.092	53.13069
832.499	35.0778
832.905	13.0331
833.312	17.03926
833.718	7.01751
834.124	20.04591
834.531	19.04821
834.937	27.06948
835.343	44.10692
835.749	30.07035
836.155	60.15768
836.561	-13.03223
836.966	32.07837
837.372	39.10014
837.777	36.09019
838.183	27.06107
838.588	10.02521
838.993	30.07262
839.399	75.18616
839.804	35.08662
840.209	39.10025
840.613	15.034
841.018	48.12194
841.423	14.03616
841.828	1.00255
842.232	45.1108
842.637	57.13505
843.041	-2.0052
843.445	26.06586
843.849	22.05508
844.253	21.05018
844.657	39.09937
845.061	12.0275
845.465	30.07399
845.869	20.04712
846.272	28.06941
846.676	-55.13302
847.079	66.16915
847.483	19.04733
847.886	62.1502
848.289	48.12861
848.692	-2.00509
849.095	77.18489
849.498	53.13247
849.901	31.07177
850.304	-16.03853
850.707	51.12958
851.109	54.13494
851.512	51.1271
851.914	83.2135
852.316	52.13196
852.718	67.17736
853.121	62.15364
853.523	108.2577
853.925	20.0529
854.326	60.1514
854.728	44.11375
855.13	2.00522
855.531	47.11461
855.933	35.08468
856.334	6.01512
856.736	57.13159
857.137	36.08511
857.538	80.20301
857.939	65.16304
858.34	48.11738
858.741	3.00791
859.142	49.11761
859.542	35.09271
859.943	49.12362
860.343	22.05575
860.744	42.10259
861.144	26.06389
861.544	62.15235
861.945	51.13082
862.345	11.02711
862.745	40.09934
863.145	-7.01678
863.544	39.09909
863.944	76.18162
864.344	5.01244
864.743	28.06928
865.143	24.0625
865.542	49.11533
865.941	22.05464
866.34	21.05027
866.74	24.06454
867.139	-8.01947
867.537	32.08193
867.936	8.01949
868.335	7.01791
868.734	23.05933
869.132	35.08199
869.531	11.02633
869.929	52.12132
870.327	23.0563
870.726	6.01496
871.124	4.00938
871.522	-20.05137
871.92	38.09448
872.318	-1.00246
872.715	36.08813
873.113	2.00495
873.511	-20.04962
873.908	-15.03844
874.306	47.11823
874.703	17.04272
875.1	9.02295
875.497	16.03878
875.894	24.06008
876.291	-30.07385
876.688	7.01823
877.085	16.0386
877.482	11.02783
877.878	44.10736
878.275	20.05106
878.671	1.00221
879.068	49.11842
879.464	87.21097
879.86	-2.00485
880.256	44.10836
880.652	33.08512
881.048	10.02493
881.444	33.07834
881.84	33.08465
882.236	22.05549
882.631	3.00742
883.027	30.07219
883.422	17.04412
883.817	17.04376
884.213	14.03633
884.608	32.08034
885.003	46.11299
885.398	7.01779
885.793	-19.04855
886.188	45.11365
886.582	22.0566
886.977	38.09112
887.371	-27.06819
887.766	11.02775
888.16	12.03028
888.554	-3.00737
888.949	27.06768
889.343	27.06631
889.737	2.00541
890.131	12.03045
890.525	50.12904
890.918	52.13159
891.312	7.01682
891.706	3.0079
892.099	20.05097
892.492	-10.02184
892.886	57.14169
893.279	18.04668
893.672	36.09242
894.065	8.02016
894.458	-11.0278
894.851	-4.00977
895.244	52.13383
895.637	-8.0195
896.029	57.14086
896.422	10.02466
896.814	22.05571
897.206	23.05558
897.599	44.108
897.991	18.04418
898.383	22.05215
898.775	13.02976
899.167	56.13286
899.559	5.01265
899.951	70.16588
900.342	46.1174
900.734	7.01779
901.125	67.17677
901.517	-9.02227
901.908	47.112
902.299	35.08754
902.69	43.10227
903.082	-13.03143
903.473	28.06837
903.863	2.00511
904.254	12.02807
904.645	24.05913
905.036	9.0222
905.426	27.06233
905.817	78.19187
906.207	38.0922
906.597	6.01427
906.987	-50.12984
907.378	36.09103
907.768	24.06384
908.158	69.16807
908.547	19.05009
908.937	-24.06166
909.327	4.00978
909.717	49.12318
910.106	74.17981
910.495	12.02999
910.885	66.16731
911.274	7.01771
911.663	11.02792
912.052	68.16598
912.441	53.1359
912.83	32.07486
913.219	12.03134
913.608	-21.05142
913.997	43.10918
914.385	46.1109
914.774	24.05884
915.162	10.02435
915.55	50.12004
915.939	29.07376
916.327	-10.02484
916.715	40.10388
917.103	32.07881
917.491	-7.01751
917.878	59.14607
918.266	37.09554
918.654	39.09972
919.041	-7.01844
919.429	-30.07167
919.816	8.02045
920.203	36.08781
920.591	5.01243
920.978	44.10776
921.365	31.08162
921.752	-2.00481
922.139	23.0503
922.525	87.2131
922.912	-9.02214
923.299	79.19859
923.685	-19.04991
924.072	51.11765
924.458	7.01755
924.844	26.06556
925.231	32.07548
925.617	38.09858
926.003	46.1174
926.389	0
926.774	29.07387
927.16	22.05504
927.546	-18.04668
927.931	50.12571
928.317	9.02099
928.702	14.03316
929.088	2.00488
929.473	25.06408
929.858	39.09663
930.243	4.00974
930.628	22.0546
931.013	19.04752
931.398	-7.01605
931.783	-2.00523
932.167	-13.03197
932.552	-13.03254
932.937	34.08435
933.321	46.11669
933.705	13.03297
934.09	-14.035
934.474	13.03124
934.858	-4.01037
935.242	9.02108
935.626	5.01296
936.009	-11.02964
936.393	25.06345
936.777	-9.02308
937.16	27.0708
937.544	-33.07824
937.927	-3.00768
938.311	21.05138
938.694	-22.05819
939.077	20.04869
939.46	1.00245
939.843	48.10033
940.226	0
940.609	51.11933
940.991	30.07718
941.374	-5.01236
941.757	49.12171
942.139	2.00455
942.522	14.03305
942.904	0
943.286	-14.03582
943.668	22.05758
944.05	91.22455
944.432	40.10025
944.814	57.14195
945.196	34.0849
945.578	34.08296
945.959	37.08739
946.341	4.00976
946.722	-9.02124
947.104	5.01201
947.485	35.08312
947.866	65.16486
948.247	15.03826
948.628	57.139
949.009	7.01816
949.39	25.06212
949.771	33.07731
950.152	30.07434
950.532	5.01258
950.913	19.04678
951.293	24.06557
951.674	17.04143
952.054	10.025
952.434	28.06956
952.814	-1.00236
953.194	-32.08356
953.574	10.02458
953.954	-8.01935
954.334	17.04263
954.714	5.01238
955.093	23.05596
955.473	3.00758
955.853	8.02068
956.232	-8.02187
956.611	12.02872
956.99	-93.23671
957.37	8.02047
957.749	37.08854
958.128	-42.10711
958.506	19.04972
958.885	20.05077
959.264	1.00251
959.643	59.13589
960.021	33.08176
960.4	-9.0207
960.778	-6.01474
961.156	32.08103
961.535	10.02352
961.913	32.07548
962.291	13.0339
962.669	-80.20417
963.047	21.05398
963.424	10.02568
963.802	-6.01489
964.18	52.1306
964.557	47.1092
964.935	20.04738
965.312	44.1156
965.69	30.07537
966.067	45.10978
966.444	28.06906
966.821	-21.05422
967.198	-3.00726
967.575	8.01964
967.952	43.09998
968.329	35.08545
968.705	86.18645
969.082	61.15795
969.458	-11.02687
969.835	-9.0219
970.211	-2.0052
970.587	20.04994
970.963	-15.03881
971.339	33.08645
971.715	-5.01262
972.091	14.03482
972.467	-4.01004
972.843	32.08066
973.219	26.06211
973.594	31.08165
973.97	55.13081
974.345	10.02431
974.721	14.03408
975.096	32.07825
975.471	-39.09219
975.846	29.07043
976.221	64.16437
976.596	16.03897
976.971	-19.04701
977.346	18.04209
977.72	-7.01779
978.095	2.00517
978.469	39.09297
978.844	19.04751
979.218	0
979.593	4.00955
979.967	35.08611
980.341	17.03981
980.715	-18.04565
981.089	47.11836
981.463	15.03497
981.837	31.07661
982.21	-12.02754
982.584	1.00246
982.957	-10.02534
983.331	20.04752
983.704	15.03741
984.078	1.00248
984.451	-6.01478
984.824	37.09191
985.197	-18.04431
985.57	73.18199
985.943	-6.01478
986.316	50.12232
986.688	40.0965
987.061	34.08057
987.434	-6.01568
987.806	8.01939
988.179	39.09386
988.551	47.11938
988.923	-9.02216
989.295	59.14741
989.667	22.05414
990.039	12.03004
990.411	-18.04218
990.783	-24.05531
991.155	20.04931
991.527	-19.04639
991.898	-17.04284
992.27	49.12247
992.641	25.06278
993.012	32.07574
993.384	23.05546
993.755	-10.0258
994.126	-4.00972
994.497	51.12673
994.868	33.07603
995.239	44.107
995.61	14.03578
995.98	11.02719
996.351	11.02776
996.722	56.13142
997.092	-7.01681
997.462	-13.03144
997.833	-7.01662
998.203	-3.00732
998.573	-25.06307
998.943	30.07136
999.313	-9.02164
999.683	-27.06579
1000.053	0
1000.423	20.04858
1000.792	38.09956
1001.162	9.02237
1001.531	19.0472
1001.901	18.045
1002.27	10.02279
1002.639	28.07181
1003.009	26.06244
1003.378	26.0664
1003.747	41.09748
1004.116	24.05812
1004.485	25.05955
1004.853	6.01525
1005.222	22.05591
1005.591	38.0906
1005.959	75.17384
1006.328	20.04589
1006.696	-23.05611
1007.064	30.07621
1007.433	-13.03253
1007.801	14.03408
1008.169	57.14478
1008.537	7.01553
1008.905	-3.00713
1009.273	44.10888
1009.64	33.07999
1010.008	23.05535
1010.375	-47.11273
1010.743	64.14743
1011.11	33.07903
1011.478	-9.02235
1011.845	52.12203
1012.212	41.09439
1012.579	27.0665
1012.946	64.15236
1013.313	-2.00475
1013.68	13.02935
1014.047	59.14334
1014.414	18.04308
1014.78	-11.02756
1015.147	-15.03643
1015.513	-8.01955
1015.88	25.06379
1016.246	16.03961
1016.612	37.08525
1016.978	-1.00249
1017.344	4.00996
1017.71	-19.04597
1018.076	1.00237
1018.442	-6.01551
1018.808	13.03282
1019.174	0
1019.539	36.08194
1019.905	-11.02624
1020.27	1.0025
1020.636	50.11917
1021.001	48.11602
1021.366	-37.08989
1021.731	53.136
1022.096	-47.12001
1022.461	-7.01655
1022.826	75.17893
1023.191	17.0447
1023.556	22.05201
1023.92	17.04169
1024.285	18.04395
1024.649	-1.00246
1025.014	30.07399
1025.378	32.08121
1025.742	27.06743
1026.107	8.01826
1026.471	-18.04219
1026.835	11.02722
1027.199	10.02448
1027.562	52.12208
1027.926	36.08754
1028.29	46.11802
1028.654	24.05595
1029.017	6.01476
1029.381	45.10998
1029.744	13.03357
1030.107	-25.05925
1030.471	-23.05577
1030.834	-2.0046
1031.197	-41.0992
1031.56	-25.0596
1031.923	15.03892
1032.286	35.08116
1032.648	33.07954
1033.011	36.08452
1033.374	-13.03061
1033.736	50.13256
1034.099	30.07413
1034.461	30.07729
1034.823	7.01762
1035.185	46.1162
1035.548	51.12455
1035.91	49.11851
1036.272	39.08961
1036.634	4.00976
1036.995	-12.02834
1037.357	14.03432
1037.719	-36.08833
1038.08	-1.00237
1038.442	39.09286
1038.803	34.08252
1039.165	-23.0585
1039.526	9.02183
1039.887	57.13676
1040.248	11.02777
1040.609	-12.02975
1040.97	42.10431
1041.331	-14.03559
1041.692	-18.04305
1042.053	-6.01379
1042.413	32.07451
1042.774	8.01954
1043.134	-27.06444
1043.495	-11.02784
1043.855	32.07764
1044.215	14.03463
1044.576	45.10912
1044.936	-30.06881
1045.296	45.11182
1045.656	35.08608
1046.016	28.06786
1046.375	45.11068
1046.735	45.10401
1047.095	24.05683
1047.454	10.0212
1047.814	-34.082
1048.173	10.02373
1048.533	2.00465
1048.892	26.06372
1049.251	-15.03784
1049.61	32.07939
1049.969	0
1050.328	19.04162
1050.687	8.0197
1051.046	19.04639
1051.405	27.06743
1051.763	-14.03283
1052.122	36.09123
1052.48	23.0563
1052.839	31.0735
1053.197	-41.0974
1053.555	-17.03832
1053.914	55.13457
1054.272	12.02895
1054.63	26.06462
1054.988	-32.0772
1055.345	16.03512
1055.703	5.012
1056.061	-15.03899
1056.419	-1.00261
1056.776	-4.0097
1057.134	40.0935
1057.491	12.03015
1057.848	-22.05543
1058.206	6.01429
1058.563	14.03146
1058.92	30.06927
1059.277	10.02458
1059.634	20.04765
1059.991	-61.14675
1060.348	48.11102
1060.704	-6.01454
1061.061	-50.11495
1061.418	24.05902
1061.774	22.05476
1062.131	-6.01599
1062.487	-27.06399
1062.843	8.02011
1063.199	2.00499
1063.555	39.09068
1063.911	19.04846
1064.267	66.13691
1064.623	-2.00494
1064.979	-27.06355
1065.335	0
1065.691	-12.0287
1066.046	-3.00663
1066.402	-11.02562
1066.757	-10.02522
1067.112	-26.06353
1067.468	-5.01204
1067.823	49.11806
1068.178	32.07726
1068.533	-10.02434
1068.888	43.10329
1069.243	23.05707
1069.598	-2.00494
1069.952	23.05316
1070.307	1.00252
1070.662	28.06753
1071.016	17.03903
1071.371	-11.02542
1071.725	37.08827
1072.079	-30.07249
1072.434	-6.01479
1072.788	62.1497
1073.142	20.04924
1073.496	71.17236
1073.85	24.05575
1074.203	-42.10217
1074.557	39.10397
1074.911	9.02146
1075.265	26.06063
1075.618	52.12683
1075.971	10.02406
1076.325	54.13786
1076.678	20.04725
1077.031	38.0874
1077.385	55.12247
1077.738	97.2218
1078.091	24.05623
1078.444	10.02352
1078.796	7.01731
1079.149	20.04971
1079.502	18.04335
1079.855	23.05451
1080.207	16.03934
1080.56	21.05494
1080.912	31.07591
1081.264	46.11111
1081.617	49.12123
1081.969	28.07168
1082.321	8.01988
1082.673	25.05875
1083.025	-19.0454
1083.377	-239.54361
1083.728	43.10058
1084.08	32.08075
1084.432	47.11457
1084.783	24.05586
1085.135	24.06062
1085.486	21.0492
1085.838	-19.04745
1086.189	20.04902
1086.54	4.00955
1086.891	17.04368
1087.242	13.03181
1087.593	1.00242
1087.944	40.09233
1088.295	-1.00228
1088.646	1.00245
1088.996	27.06614
1089.347	-10.0248
1089.698	29.07024
1090.048	17.04411
1090.398	-7.01642
1090.749	12.02877
1091.099	11.02802
1091.449	-27.06775
1091.799	40.10118
1092.149	26.06525
1092.499	-39.09567
1092.849	4.01024
1093.199	-12.03002
1093.548	7.01692
1093.898	41.10369
1094.248	-10.02571
1094.597	-5.01304
1094.947	31.08269
1095.296	26.06481
1095.645	-13.03394
1095.994	55.13332
1096.343	2.00506
1096.692	-11.02951
1097.041	-6.01647
1097.39	17.04275
1097.739	6.01554
1098.088	37.09886
1098.437	1.00266
1098.785	18.0489
1099.134	27.07162
1099.482	-9.02481
1099.83	-52.13703
1100.179	-6.01582
1100.527	57.15185
1100.875	-22.05891
1101.223	38.10021
1101.571	40.11103
1101.919	5.01328
1102.267	9.0254
1102.615	2.00644
1102.962	-3.00966
1103.31	8.02575
1103.658	5.01609
