Data from N2 R2  sample 3_Subt2__5__15-45-06-773.txt Node

Date: Wed Aug 27 15:45:06 PDT 2025
User: uwsun
Spectrometer: HDX01956
Trigger mode: 0
Integration Time (sec): 5.000000E-1
Scans to average: 1
Nonlinearity correction enabled: true
Boxcar width: 0
Storing dark spectrum: false
XAxis mode: Wavelengths
Number of Pixels in Spectrum: 2068
>>>>>Begin Spectral Data<<<<<
194.03	261.73258
194.578	265.83794
195.127	260.81129
195.676	255.7984
196.225	273.71749
196.773	277.75705
197.321	393.05072
197.87	555.34816
198.418	598.45785
198.966	575.42278
199.513	562.34452
200.061	570.38334
200.609	571.41854
201.156	543.13979
201.704	604.45003
202.251	513.296
202.798	623.53713
203.345	621.44079
203.892	531.27196
204.438	554.26059
204.985	624.39314
205.532	580.44065
206.078	624.44462
206.624	645.49593
207.17	586.28773
207.716	618.43185
208.262	567.05668
208.808	601.40752
209.354	623.43632
209.899	628.4774
210.445	604.41483
210.99	624.41433
211.535	586.30283
212.08	629.38147
212.625	636.48288
213.17	641.49543
213.715	663.3884
214.259	605.317
214.804	606.40845
215.348	645.37565
215.892	620.38819
216.436	609.31394
216.98	617.27942
217.524	627.38169
218.068	535.26402
218.612	620.46478
219.155	593.3105
219.698	525.18175
220.242	563.30867
220.785	591.29302
221.328	574.34763
221.871	515.21671
222.414	555.30779
222.956	563.28238
223.499	536.14709
224.041	562.24888
224.583	552.11154
225.126	540.13872
225.668	557.28809
226.21	503.20344
226.751	555.16041
227.293	546.17658
227.835	507.17371
228.376	509.12603
228.918	559.32487
229.459	518.23584
230	467.05528
230.541	568.24237
231.082	554.27582
231.622	545.2078
232.163	536.23726
232.704	575.34867
233.244	501.16621
233.784	496.14661
234.324	521.09498
234.864	531.14249
235.404	473.06626
235.944	554.23006
236.484	535.24693
237.023	509.15175
237.563	564.23102
238.102	485.07463
238.641	576.35759
239.18	541.20439
239.719	586.38225
240.258	542.14895
240.797	589.33357
241.335	535.23323
241.874	535.98717
242.412	550.2429
242.95	554.26415
243.488	573.24409
244.026	545.18422
244.564	583.11563
245.102	608.29356
245.64	585.32236
246.177	549.15595
246.715	588.30836
247.252	564.20919
247.789	559.96448
248.326	552.26817
248.863	545.13494
249.4	566.19102
249.936	588.15156
250.473	618.34448
251.009	583.26637
251.546	648.34349
252.082	569.15819
252.618	595.25461
253.154	569.28511
253.69	622.31191
254.226	507.13046
254.761	552.17527
255.297	586.22019
255.832	539.19547
256.367	587.30748
256.903	591.22161
257.438	558.2179
257.972	617.29822
258.507	643.38798
259.042	588.1771
259.576	596.21021
260.111	589.26965
260.645	619.23325
261.179	600.29975
261.713	589.23161
262.247	623.33557
262.781	575.12366
263.315	552.26565
263.849	664.53426
264.382	620.31341
264.915	667.46133
265.449	585.35184
265.982	616.29981
266.515	631.42761
267.048	539.06564
267.58	561.13981
268.113	670.34029
268.646	659.50671
269.178	649.36504
269.71	625.24234
270.243	656.37706
270.775	637.50642
271.307	612.35845
271.838	597.30781
272.37	610.39152
272.902	658.38187
273.433	639.29619
273.965	623.40435
274.496	652.48084
275.027	686.56943
275.558	706.56665
276.089	647.49051
276.62	633.48368
277.15	644.46738
277.681	658.31746
278.211	667.50546
278.741	618.27893
279.272	676.42346
279.802	665.53505
280.332	682.49015
280.861	691.52413
281.391	666.39562
281.921	580.28947
282.45	665.53687
282.98	649.56078
283.509	665.38523
284.038	634.33725
284.567	625.33583
285.096	683.50647
285.625	616.28616
286.153	682.47068
286.682	720.51887
287.21	691.52032
287.739	686.48753
288.267	685.52537
288.795	740.76591
289.323	682.46503
289.851	671.4287
290.378	748.54005
290.906	767.70174
291.433	717.62299
291.961	723.5082
292.488	655.48376
293.015	735.56849
293.542	712.65433
294.069	818.81081
294.596	729.62877
295.122	789.68818
295.649	712.41654
296.175	778.70579
296.702	779.68972
297.228	739.61717
297.754	749.51757
298.28	752.55245
298.806	746.60195
299.332	806.61498
299.857	781.57744
300.383	807.80459
300.908	802.77243
301.433	774.6842
301.958	827.72079
302.483	756.72134
303.008	756.65197
303.533	826.92451
304.058	787.63894
304.582	814.74058
305.107	810.89462
305.631	809.63257
306.155	834.73805
306.679	817.71276
307.203	823.69956
307.727	859.81907
308.251	794.72775
308.775	834.7588
309.298	900.90718
309.822	892.96646
310.345	879.8153
310.868	888.85067
311.391	918.93943
311.914	911.01365
312.437	855.69081
312.96	866.79043
313.482	882.83085
314.005	980.13803
314.527	917.09232
315.049	949.0612
315.571	915.77167
316.093	922.97417
316.615	965.98593
317.137	1012.84951
317.659	986.00626
318.18	972.99005
318.702	1055.08727
319.223	1016.75163
319.744	1039.97008
320.265	1078.18486
320.786	1081.25498
321.307	1046.20637
321.828	1112.05075
322.348	1056.0548
322.869	1136.22959
323.389	1317.67262
323.909	1167.18833
324.43	1084.13729
324.95	1160.16825
325.47	1132.3059
325.989	1157.21515
326.509	1197.15052
327.029	1194.1817
327.548	1196.1602
328.067	1246.42765
328.587	1183.34644
329.106	1249.3014
329.625	1285.6656
330.144	1236.24402
330.662	1284.35495
331.181	1296.35099
331.7	1263.31111
332.218	1371.25019
332.736	1344.39058
333.255	1403.49792
333.773	1335.41896
334.291	1385.60979
334.808	1408.34127
335.326	1428.40578
335.844	1464.55579
336.361	1492.83719
336.879	1532.65432
337.396	1566.74197
337.913	1565.66436
338.43	1560.50869
338.947	1590.73958
339.464	1581.43569
339.981	1590.71224
340.497	1634.87357
341.014	1656.87951
341.53	1638.58825
342.046	1660.86549
342.562	1683.91992
343.078	1740.80728
343.594	1751.87785
344.11	1795.85118
344.626	1790.07124
345.141	1794.68418
345.657	1775.60107
346.172	1812.94904
346.687	1830.78107
347.202	1893.77354
347.717	1920.94717
348.232	1951.2006
348.747	1925.84333
349.261	1900.63783
349.776	1993.97723
350.29	2058.22922
350.805	2041.21753
351.319	2097.96259
351.833	2071.8997
352.347	2027.96643
352.861	2121.01715
353.374	2071.85636
353.888	2021.96637
354.401	2126.95357
354.915	2156.94574
355.428	2172.25982
355.941	2177.97428
356.454	2205.77075
356.967	2243.0317
357.48	2270.90683
357.993	2335.25484
358.505	2272.24246
359.018	2373.28892
359.53	2370.10423
360.042	2410.82211
360.554	2341.11005
361.066	2388.26608
361.578	2418.73502
362.09	2458.14018
362.602	2373.726
363.113	2443.99316
363.625	2395.81473
364.136	2599.77552
364.647	2471.99367
365.158	2566.04027
365.669	2668.21042
366.18	2542.04434
366.691	2592.75162
367.201	2589.09825
367.712	2696.96948
368.222	2621.87157
368.733	2686.65456
369.243	2804.75955
369.753	2834.87814
370.263	2854.17779
370.773	2898.36844
371.282	2997.04941
371.792	3015.89499
372.301	3057.17299
372.811	3191.52905
373.32	3138.51193
373.829	3233.85043
374.338	3436.50793
374.847	3463.64232
375.356	3517.73158
375.865	3743.05591
376.373	3837.26649
376.882	3905.87823
377.39	3952.54663
377.898	4033.67269
378.407	4406.93936
378.915	4359.5289
379.423	4700.7889
379.93	4764.47881
380.438	5046.70899
380.946	5162.32929
381.453	5497.3321
381.96	5718.0288
382.468	6107.8347
382.975	6416.89576
383.482	6670.66039
383.989	6830.14128
384.495	7093.79754
385.002	7316.68135
385.509	7670.15892
386.015	8256.01293
386.521	8600.65557
387.028	8964.56608
387.534	9265.66836
388.04	9694.78956
388.546	9850.69613
389.051	10258.76279
389.557	11079.65713
390.063	12182.60765
390.568	12763.89404
391.073	13089.2505
391.578	13403.51948
392.084	13889.4717
392.589	14345.00198
393.093	15450.28787
393.598	16551.5558
394.103	18227.2435
394.607	20013.39421
395.112	21540.51842
395.616	22738.03168
396.12	24839.99903
396.624	27303.15206
397.128	29513.16664
397.632	32695.28665
398.136	35653.69626
398.639	37507.61878
399.143	41514.19633
399.646	47111.55608
400.15	51683.5993
400.653	56104.36204
401.156	56551.18466
401.659	56177.40201
402.162	53821.55638
402.664	47275.14456
403.167	32260.27245
403.67	3851.94142
404.172	0
404.674	0
405.176	0
405.678	0
406.18	0
406.682	0
407.184	0
407.686	12367.42319
408.187	34596.90747
408.688	44563.94194
409.19	48906.19284
409.691	51236.67962
410.192	52883.26968
410.693	53713.23343
411.194	54189.54801
411.694	54767.79104
412.195	55625.98899
412.696	55971.27715
413.196	55815.15953
413.696	55802.1488
414.196	55740.09561
414.696	56340.4775
415.196	57067.59327
415.696	58258.21704
416.196	59666.45207
416.695	46630.45997
417.195	39504.07651
417.694	36857.44522
418.194	34983.60618
418.693	32821.28244
419.192	31676.95376
419.691	31326.36931
420.19	30532.49028
420.688	29714.2243
421.187	28804.00401
421.685	26743.67634
422.184	24537.09117
422.682	21278.96285
423.18	18231.6931
423.678	16048.57178
424.176	14823.8546
424.674	13912.94906
425.172	13227.2186
425.669	12509.3376
426.167	11791.65062
426.664	10650.06674
427.161	9766.0154
427.659	9147.82699
428.156	8501.4817
428.652	8033.74868
429.149	7583.18558
429.646	7317.80762
430.143	6884.82881
430.639	6584.76077
431.135	6170.10903
431.632	5907.86
432.128	5408.14341
432.624	5087.86715
433.12	4870.2777
433.616	4802.17774
434.111	4703.81142
434.607	4380.00817
435.103	4344.38753
435.598	4336.2262
436.093	4110.0574
436.588	3789.98797
437.083	3714.20322
437.578	3469.19908
438.073	3312.95266
438.568	3275.80331
439.062	3158.17065
439.557	3030.64996
440.051	2914.58968
440.546	2776.64757
441.04	2717.87334
441.534	2672.08879
442.028	2669.81655
442.522	2528.85613
443.015	2562.51175
443.509	2523.01088
444.002	2495.97595
444.496	2358.43758
444.989	2429.94244
445.482	2350.01279
445.975	2290.63856
446.468	2434.50533
446.961	2311.3322
447.454	2261.67494
447.947	2153.73266
448.439	2118.83736
448.931	2027.46548
449.424	2099.97465
449.916	2040.79215
450.408	2046.50419
450.9	1966.70911
451.392	1919.88182
451.884	1969.56023
452.375	1941.83142
452.867	1874.3972
453.358	1852.46958
453.849	1790.24392
454.341	1761.34345
454.832	1852.30449
455.323	1792.71456
455.814	1715.4164
456.304	1729.45016
456.795	1802.51816
457.285	1705.30923
457.776	1670.32772
458.266	1651.53736
458.756	1639.57736
459.247	1580.49004
459.737	1646.59659
460.226	1589.3235
460.716	1463.38113
461.206	1542.48643
461.695	1488.5763
462.185	1445.35814
462.674	1453.27313
463.163	1436.18383
463.653	1407.01942
464.142	1395.36566
464.63	1369.3524
465.119	1322.17823
465.608	1354.23129
466.096	1327.06969
466.585	1285.15245
467.073	1255.19557
467.561	1221.17261
468.05	1270.15199
468.538	1156.14592
469.026	1214.14071
469.513	1104.74622
470.001	1201.10946
470.489	1238.23974
470.976	1129.95279
471.463	1058.05967
471.951	1047.02907
472.438	1073.96568
472.925	1027.93124
473.412	1017.96572
473.899	1006.82374
474.385	970.92164
474.872	989.83601
475.359	965.9255
475.845	926.56385
476.331	949.66489
476.817	892.7727
477.303	912.73015
477.789	811.6381
478.275	791.65894
478.761	853.72618
479.247	793.47737
479.732	786.66981
480.218	730.61793
480.703	747.58104
481.188	708.28514
481.673	728.42826
482.158	710.33457
482.643	708.55808
483.128	702.40569
483.612	669.36207
484.097	672.43609
484.581	666.32981
485.066	628.35354
485.55	638.2308
486.034	618.18872
486.518	629.28459
487.002	686.49637
487.486	591.29302
487.969	600.30251
488.453	595.32477
488.936	585.17946
489.42	545.09163
489.903	561.25362
490.386	558.82562
490.869	522.02255
491.352	518.12665
491.835	520.9727
492.318	537.10833
492.8	541.0346
493.283	489.12929
493.765	492.10849
494.247	525.10728
494.73	428.86996
495.212	443.96993
495.694	476.02374
496.175	460.0075
496.657	427.93333
497.139	438.71001
497.62	421.93693
498.102	453.04933
498.583	448.03875
499.064	372.77096
499.545	386.82607
500.026	383.8099
500.507	391.85285
500.988	381.88578
501.469	365.86163
501.949	368.84289
502.43	364.82067
502.91	370.72875
503.39	382.89003
503.87	377.83485
504.35	346.76382
504.83	335.70034
505.31	339.77446
505.79	284.65418
506.269	286.63587
506.749	290.63405
507.228	337.75002
507.707	336.70134
508.187	350.78201
508.666	230.53931
509.145	284.63562
509.623	277.62952
510.102	283.65409
510.581	264.60108
511.059	287.69117
511.538	280.68362
512.016	306.70429
512.494	354.81929
512.972	221.50369
513.45	299.66712
513.928	284.66252
514.406	313.73002
514.884	280.68744
515.361	204.46805
515.839	313.68187
516.316	289.66716
516.793	237.57769
517.27	247.57271
517.747	296.72913
518.224	196.43868
518.701	241.52035
519.178	249.5924
519.654	236.5382
520.131	241.57249
520.607	215.51152
521.083	259.57142
521.56	209.47596
522.036	204.43641
522.512	192.45391
522.987	219.50538
523.463	240.55174
523.939	189.445
524.414	246.54854
524.89	240.55416
525.365	177.38856
525.84	153.358
526.315	187.43995
526.79	190.41455
527.265	231.51434
527.74	197.46293
528.215	241.56035
528.689	184.39805
529.164	218.46373
529.638	235.58092
530.112	205.471
530.587	228.4812
531.061	209.49247
531.534	252.59089
532.008	229.53644
532.482	189.41839
532.956	144.35788
533.429	175.40995
533.903	179.38384
534.376	238.51552
534.849	130.29396
535.322	192.44193
535.795	153.36304
536.268	232.54059
536.741	154.35871
537.213	206.4603
537.686	180.42603
538.158	155.34513
538.631	163.38065
539.103	174.38687
539.575	200.40412
540.047	182.39473
540.519	171.39462
540.991	174.40928
541.463	195.45626
541.934	171.37902
542.406	159.36707
542.877	147.32175
543.348	136.31216
543.82	214.50238
544.291	182.40684
544.762	224.51372
545.233	212.50932
545.703	208.44708
546.174	220.49422
546.645	202.47032
547.115	238.55414
547.585	241.52525
548.056	258.59169
548.526	309.68885
548.996	286.64853
549.466	276.63449
549.935	377.83729
550.405	342.70594
550.875	368.81204
551.344	359.79997
551.814	369.79293
552.283	337.68172
552.752	382.81751
553.221	433.86789
553.69	425.85815
554.159	472.05901
554.628	482.98999
555.096	436.00888
555.565	475.98375
556.033	486.03363
556.502	493.08785
556.97	418.84382
557.438	461.99102
557.906	443.96257
558.374	456.95981
558.842	492.06956
559.31	483.98913
559.777	436.97331
560.245	474.99813
560.712	492.02552
561.18	535.0681
561.647	549.09001
562.114	637.3033
562.581	617.32212
563.048	685.37382
563.514	664.43061
563.981	728.43632
564.448	737.40751
564.914	746.465
565.381	862.6137
565.847	856.65687
566.313	912.76711
566.779	942.75422
567.245	895.70485
567.711	976.91107
568.176	995.77682
568.642	1034.07653
569.108	1111.14727
569.573	1132.04835
570.038	1190.87977
570.504	1226.08151
570.969	1220.29303
571.434	1251.01694
571.899	1316.32497
572.363	1343.20636
572.828	1384.22727
573.293	1524.45168
573.757	1509.39544
574.222	1591.42282
574.686	1482.33289
575.15	1601.62636
575.614	1555.45934
576.078	1576.50773
576.542	1555.39382
577.006	1548.36147
577.469	1550.5763
577.933	1686.49048
578.396	1606.57756
578.86	1644.59046
579.323	1598.62932
579.786	1539.21943
580.249	1516.38009
580.712	1462.50583
581.175	1503.61947
581.637	1440.29862
582.1	1398.09548
582.563	1383.0734
583.025	1394.43931
583.487	1337.93425
583.95	1303.04254
584.412	1294.92294
584.874	1280.31718
585.336	1247.20995
585.797	1213.93221
586.259	1131.03463
586.721	1154.07668
587.182	1108.96447
587.643	1052.82351
588.105	936.74044
588.566	1015.61631
589.027	971.8588
589.488	874.59359
589.949	983.88272
590.41	942.4514
590.87	811.47214
591.331	843.46688
591.791	810.53634
592.252	756.42399
592.712	734.4475
593.172	723.35672
593.632	726.28449
594.092	748.36823
594.552	623.11764
595.011	674.31033
595.471	720.33814
595.931	594.12657
596.39	716.45228
596.849	578.15918
597.308	563.02118
597.768	609.34982
598.227	600.22832
598.685	607.17734
599.144	580.17874
599.603	586.19366
600.062	627.13695
600.52	596.14358
600.978	538.11512
601.437	566.1131
601.895	514.9363
602.353	515.9836
602.811	552.07022
603.269	555.13888
603.727	540.12526
604.184	544.07177
604.642	553.16235
605.099	564.14669
605.557	554.16676
606.014	535.00038
606.471	565.22878
606.928	519.97299
607.385	588.24281
607.842	704.3642
608.299	651.28749
608.755	630.28343
609.212	674.27487
609.668	591.12605
610.125	648.31178
610.581	580.15516
611.037	570.10518
611.493	607.21716
611.949	512.07201
612.405	587.03725
612.861	553.11075
613.316	606.25686
613.772	516.01984
614.227	500.01681
614.683	587.07292
615.138	573.16476
615.593	654.30703
616.048	571.1343
616.503	525.10146
616.958	511.11258
617.412	580.18624
617.867	552.07889
618.321	579.05027
618.776	563.07364
619.23	516.05752
619.684	551.09348
620.138	514.02063
620.592	490.04034
621.046	473.96997
621.5	479.03484
621.954	459.91489
622.407	525.01995
622.861	496.07187
623.314	482.96811
623.768	462.96004
624.221	446.78565
624.674	422.87145
625.127	397.83362
625.58	420.84319
626.033	400.78376
626.485	414.90473
626.938	406.8651
627.39	439.92221
627.843	376.78517
628.295	399.82858
628.747	398.86094
629.199	348.7251
629.651	373.78495
630.103	357.75393
630.555	342.68089
631.006	362.77739
631.458	372.81296
631.909	325.68365
632.361	288.63181
632.812	276.60191
633.263	293.58863
633.714	357.71688
634.165	250.56437
634.616	211.47488
635.067	238.49194
635.518	292.64921
635.968	293.55061
636.419	297.60245
636.869	200.44597
637.319	286.63956
637.769	219.46596
638.219	258.58171
638.669	170.38879
639.119	195.44695
639.569	226.51976
640.019	191.41893
640.468	172.37146
640.918	195.44264
641.367	201.43622
641.816	182.38564
642.265	169.37287
642.714	156.34728
643.163	151.33455
643.612	181.42168
644.061	115.23829
644.51	177.39068
644.958	196.41966
645.406	126.29361
645.855	206.48945
646.303	158.35829
646.751	156.34642
647.199	91.20195
647.647	168.37322
648.095	82.18565
648.543	210.42179
648.99	160.37313
649.438	101.22871
649.885	125.29763
650.333	154.29603
650.78	174.40849
651.227	165.39136
651.674	196.43615
652.121	141.33612
652.568	154.36661
653.015	198.48327
653.461	146.3382
653.908	178.39987
654.354	153.35701
654.801	215.49714
655.247	128.27335
655.693	116.29364
656.139	186.43989
656.585	192.45004
657.031	170.39457
657.477	178.38178
657.922	189.42868
658.368	150.36544
658.813	199.4497
659.259	152.35851
659.704	167.38293
660.149	127.29448
660.594	128.30097
661.039	155.3467
661.484	171.39823
661.929	135.31005
662.373	140.35022
662.818	192.46425
663.262	152.36102
663.707	185.45582
664.151	174.41215
664.595	187.44764
665.039	161.39143
665.483	179.45092
665.927	131.30195
666.371	164.38215
666.814	185.43422
667.258	182.42593
667.701	190.40311
668.145	178.43397
668.588	190.45751
669.031	131.3094
669.474	191.45128
669.917	188.40757
670.36	155.37938
670.803	186.44159
671.245	186.39532
671.688	189.44811
672.13	175.39628
672.573	201.49634
673.015	203.4774
673.457	222.48025
673.899	173.41224
674.341	146.34837
674.783	199.47145
675.225	218.52811
675.666	198.47334
676.108	137.29403
676.549	194.44921
676.991	232.50618
677.432	247.50378
677.873	177.40635
678.314	158.37411
678.755	238.57047
679.196	243.55472
679.637	228.54567
680.078	185.42947
680.518	234.53149
680.959	161.3776
681.399	215.52192
681.839	268.63478
682.28	231.56201
682.72	232.52908
683.16	217.53249
683.6	225.5014
684.039	199.41031
684.479	179.43502
684.919	236.54536
685.358	266.65066
685.798	303.77575
686.237	272.63803
686.676	205.46062
687.115	277.6336
687.554	281.65256
687.993	279.60265
688.432	286.63693
688.871	266.59411
689.309	294.68558
689.748	321.65382
690.186	264.61563
690.625	302.69203
691.063	335.7807
691.501	327.78271
691.939	335.81284
692.377	284.67994
692.815	273.64025
693.253	298.68998
693.69	302.64799
694.128	304.72198
694.565	314.72443
695.003	296.72537
695.44	327.75036
695.877	333.75677
696.314	343.71198
696.751	262.57889
697.188	270.60205
697.625	265.58637
698.061	296.69648
698.498	381.87949
698.934	375.86254
699.371	350.79523
699.807	403.90876
700.243	337.77639
700.679	400.86083
701.115	295.66227
701.551	306.69387
701.987	375.8086
702.422	357.8182
702.858	399.90966
703.294	288.62488
703.729	371.8639
704.164	349.80147
704.599	374.7945
705.035	325.70561
705.47	366.84571
705.904	377.8491
706.339	376.83108
706.774	388.87298
707.209	362.81016
707.643	375.85944
708.078	365.84558
708.512	370.88746
708.946	392.88703
709.38	404.91269
709.814	414.9097
710.248	396.92336
710.682	463.039
711.116	405.93784
711.549	402.99414
711.983	392.86824
712.416	390.87784
712.85	360.86282
713.283	339.76791
713.716	406.95448
714.149	341.77463
714.582	380.82201
715.015	375.889
715.448	385.925
715.881	324.66849
716.313	319.71026
716.746	375.84702
717.178	343.7962
717.61	374.89944
718.043	389.91898
718.475	360.83053
718.907	327.7842
719.339	339.75009
719.77	329.75434
720.202	350.85034
720.634	342.80594
721.065	373.85246
721.497	335.7942
721.928	276.66431
722.359	347.81693
722.79	309.72324
723.221	280.6798
723.652	312.76853
724.083	300.66506
724.514	264.58891
724.945	271.62262
725.375	291.66856
725.806	258.61676
726.236	262.64611
726.666	292.6769
727.096	241.58502
727.526	287.71048
727.956	268.60426
728.386	290.69721
728.816	298.74673
729.246	233.55753
729.675	214.51764
730.105	254.61299
730.534	240.55306
730.964	237.58371
731.393	251.60129
731.822	184.45845
732.251	252.62761
732.68	214.49118
733.109	255.62271
733.537	162.39128
733.966	183.4494
734.395	214.48902
734.823	240.53161
735.251	182.43526
735.68	227.55497
736.108	198.49637
736.536	235.55135
736.964	196.45186
737.392	170.42203
737.82	108.25602
738.247	236.55856
738.675	160.3743
739.102	191.47839
739.53	130.32978
739.957	141.35939
740.384	172.41637
740.811	133.33505
741.238	134.32524
741.665	108.25266
742.092	148.35179
742.519	192.47525
742.945	143.34271
743.372	159.39249
743.798	152.38886
744.225	140.33584
744.651	137.34277
745.077	102.25525
745.503	146.35795
745.929	127.30622
746.355	103.24901
746.781	138.34122
747.207	55.13166
747.632	101.24978
748.058	64.15987
748.483	141.32837
748.908	97.24235
749.334	125.30958
749.759	164.38967
750.184	70.16907
750.609	86.21085
751.033	75.17549
751.458	69.15612
751.883	82.20156
752.307	130.31043
752.732	107.27283
753.156	87.21791
753.58	74.17691
754.005	102.25792
754.429	73.17462
754.853	74.18686
755.277	46.1098
755.7	62.15499
756.124	111.27662
756.548	85.20565
756.971	100.24599
757.394	56.14533
757.818	56.14573
758.241	83.21216
758.664	107.27417
759.087	67.15382
759.51	62.1551
759.933	37.09006
760.356	56.14357
760.778	95.23958
761.201	72.17731
761.623	69.1692
762.046	78.18448
762.468	88.21167
762.89	47.11572
763.312	57.13962
763.734	25.06149
764.156	59.14794
764.578	100.23036
765	94.23251
765.421	101.26323
765.843	96.25152
766.264	83.19915
766.686	47.11845
767.107	46.11408
767.528	69.17749
767.949	71.18014
768.37	50.12526
768.791	89.21671
769.212	48.12388
769.632	54.1289
770.053	68.18028
770.473	78.19138
770.894	37.09254
771.314	49.11703
771.734	52.12413
772.154	45.11684
772.575	46.10778
772.994	40.09306
773.414	53.12838
773.834	-19.04793
774.254	55.13761
774.673	49.12029
775.093	24.06
775.512	67.16861
775.931	55.14138
776.351	76.19012
776.77	27.06807
777.189	34.08252
777.607	-27.06994
778.026	30.07537
778.445	-9.02289
778.864	8.02062
779.282	46.11316
779.701	36.09188
780.119	11.02837
780.537	40.1018
780.955	39.09997
781.373	-10.02515
781.791	10.02302
782.209	16.03705
782.627	21.05567
783.045	18.04239
783.462	30.0771
783.88	69.18045
784.297	39.10004
784.715	24.06273
785.132	31.07602
785.549	33.08426
785.966	8.02037
786.383	34.08478
786.8	26.06066
787.217	8.01933
787.633	53.13519
788.05	32.07554
788.466	21.05029
788.883	-6.01555
789.299	15.03666
789.715	72.17783
790.131	56.14105
790.547	7.01756
790.963	51.12802
791.379	18.04595
791.795	20.046
792.21	55.13081
792.626	-6.01445
793.041	20.05021
793.457	15.03749
793.872	20.04756
794.287	17.04223
794.702	6.0149
795.117	74.18706
795.532	-51.13146
795.947	45.10892
796.362	18.04293
796.776	25.05831
797.191	82.20342
797.605	4.00972
798.02	21.05228
798.434	60.13451
798.848	43.10759
799.262	71.17854
799.676	46.1122
800.09	-16.03965
800.504	41.10088
800.918	12.02851
801.331	-3.00788
801.745	-33.07704
802.158	20.05081
802.572	42.10122
802.985	37.09033
803.398	58.13972
803.811	21.05377
804.224	10.02507
804.637	23.05569
805.05	18.04262
805.462	55.13732
805.875	39.10282
806.288	-52.12834
806.7	22.05595
807.112	56.13121
807.525	11.02738
807.937	-29.07355
808.349	-1.00252
808.761	15.03696
809.173	23.05657
809.584	-19.04702
809.996	1.00251
810.408	18.04729
810.819	33.07978
811.231	86.22678
811.642	64.15854
812.053	135.3249
812.464	165.39076
812.875	115.29405
813.286	61.15653
813.697	24.0552
814.108	10.02454
814.519	15.03369
814.929	32.08103
815.34	35.08538
815.75	-3.00774
816.16	27.06763
816.571	47.12312
816.981	-21.04985
817.391	42.10263
817.801	14.03524
818.211	11.02639
818.62	53.12963
819.03	30.0744
819.44	32.0835
819.849	41.10436
820.259	-6.01539
820.668	1.0025
821.077	33.08355
821.486	63.15323
821.895	33.08128
822.304	26.06905
822.713	48.11427
823.122	-4.01007
823.531	2.00478
823.939	36.08859
824.348	29.07106
824.756	28.07058
825.164	-21.05321
825.573	37.09381
825.981	-7.01735
826.389	25.06343
826.797	47.11967
827.205	50.11725
827.612	-15.03738
828.02	36.08633
828.428	8.0205
828.835	-10.02656
829.243	-8.01929
829.65	20.05023
830.057	-18.04405
830.464	8.01967
830.871	-2.00481
831.278	33.08032
831.685	27.06127
832.092	40.09887
832.499	34.0756
832.905	29.07363
833.312	0
833.718	-10.02509
834.124	-2.00461
834.531	81.20325
834.937	6.0155
835.343	34.08277
835.749	57.13296
836.155	22.05819
836.561	-31.07712
836.966	25.06131
837.372	21.05409
837.777	41.10262
838.183	42.0947
838.588	17.0428
838.993	18.04367
839.399	45.11231
839.804	-15.03746
840.209	-10.02592
840.613	27.06104
841.018	43.10933
841.423	5.01293
841.828	32.08118
842.232	23.05686
842.637	35.08328
843.041	-11.02866
843.445	19.04819
843.849	11.02759
844.253	-8.01922
844.657	14.03583
845.061	38.08663
845.465	3.00744
845.869	22.05181
846.272	-8.01996
846.676	-61.1477
847.079	52.1336
847.483	-6.01502
847.886	34.0828
848.289	-11.02976
848.692	9.02285
849.095	25.06062
849.498	19.04778
849.901	12.02789
850.304	-6.01442
850.707	17.04345
851.109	14.03524
851.512	41.10236
851.914	37.09594
852.316	21.05358
852.718	31.08256
853.121	31.07726
853.523	33.07987
853.925	16.04235
854.326	28.07106
854.728	4.01041
855.13	12.03124
855.531	46.1122
855.933	49.11824
856.334	11.0277
856.736	43.09955
857.137	44.10386
857.538	22.0564
857.939	38.09578
858.34	41.10039
858.741	30.07879
859.142	-5.01212
859.542	23.06105
859.943	73.18338
860.343	1.00254
860.744	-1.00246
861.144	0
861.544	42.10358
861.945	24.06185
862.345	-8.01979
862.745	4.01
863.145	-29.06979
863.544	3.00767
863.944	88.20982
864.344	-11.02744
864.743	13.03226
865.143	57.14759
865.542	16.0379
865.941	19.04721
866.34	42.10014
866.74	16.04308
867.139	-30.07331
867.537	18.0462
867.936	13.03164
868.335	-14.03596
868.734	43.11053
869.132	23.05401
869.531	-30.07238
869.929	6.01412
870.327	66.16026
870.726	6.01496
871.124	-18.04237
871.522	15.03829
871.92	27.06726
872.318	6.01472
872.715	-22.05444
873.113	1.00247
873.511	-50.12472
873.908	-6.01535
874.306	31.07821
874.703	38.09513
875.1	-26.0667
875.497	18.04361
875.894	4.01005
876.291	9.022
876.688	-8.02088
877.085	5.01209
877.482	50.12562
877.878	47.11461
878.275	19.04852
878.671	-20.0444
879.068	32.07758
879.464	13.03196
879.86	-7.01697
880.256	36.08879
880.652	41.10561
881.048	40.09916
881.444	-1.00239
881.84	33.08465
882.236	15.03788
882.631	35.08602
883.027	-16.03884
883.422	18.04671
883.817	7.01805
884.213	25.06475
884.608	12.03024
885.003	48.11786
885.398	4.01017
885.793	45.11369
886.188	22.05579
886.582	26.06684
886.977	48.11489
887.371	-19.04792
887.766	-18.04565
888.16	26.06544
888.554	-26.06412
888.949	9.02263
889.343	25.06142
889.737	-12.03255
890.131	12.03045
890.525	51.1316
890.918	42.10647
891.312	47.11208
891.706	7.01843
892.099	55.1393
892.492	12.02608
892.886	40.09974
893.279	21.05443
893.672	0
894.065	32.08031
894.458	17.04275
894.851	33.08005
895.244	27.06979
895.637	-4.00974
896.029	30.07451
896.422	21.05169
896.814	8.02031
897.206	16.03872
897.599	34.08361
897.991	19.04663
898.383	-11.02624
898.775	-22.05072
899.167	-16.03849
899.559	20.05045
899.951	23.055
900.342	48.12246
900.734	20.0507
901.125	36.09547
901.517	-14.03467
901.908	-13.03133
902.299	50.12472
902.69	15.03587
903.082	-20.04842
903.473	12.02939
903.863	3.00767
904.254	8.01873
904.645	18.04439
905.036	-35.08703
905.426	42.09668
905.817	24.05963
906.207	7.01708
906.597	-27.06464
906.987	-21.05426
907.378	20.05072
907.768	27.07178
908.158	14.03445
908.547	29.07633
908.937	-12.03077
909.327	22.05362
909.717	20.05054
910.106	46.11236
910.495	15.03746
910.885	37.09428
911.274	33.0831
911.663	23.05825
912.052	7.01728
912.441	60.15366
912.83	20.0469
913.219	-5.0131
913.608	-40.09829
913.997	13.03318
914.385	59.14189
914.774	8.01967
915.162	31.0752
915.55	24.0579
915.939	16.04079
916.327	-33.08233
916.715	21.05471
917.103	33.08125
917.491	67.16533
917.878	15.03744
918.266	13.03371
918.654	8.02057
919.041	22.05768
919.429	-49.11748
919.816	-7.01794
920.203	30.07325
920.591	-19.04745
920.978	-4.00988
921.365	9.02378
921.752	-39.09454
922.139	42.09148
922.525	24.05947
922.912	33.08053
923.299	56.14135
923.685	-2.00524
924.072	30.06949
924.458	41.10214
924.844	50.12553
925.231	25.05905
925.617	26.06759
926.003	10.02568
926.389	16.04047
926.774	-3.00768
927.16	3.00753
927.546	-25.06491
927.931	17.043
928.317	18.04191
928.702	16.03789
929.088	34.08246
929.473	5.01286
929.858	53.13098
930.243	4.00974
930.628	31.07681
931.013	-10.02514
931.398	-23.05291
931.783	20.05215
932.167	9.02205
932.552	-9.02251
932.937	23.05717
933.321	33.08391
933.705	-24.06127
934.09	-8.01998
934.474	40.09563
934.858	-44.11485
935.242	-24.05656
935.626	-2.00519
936.009	46.12281
936.393	-6.01531
936.777	-44.11352
937.16	29.07602
937.544	30.07027
937.927	-13.03333
938.311	5.01227
938.694	5.01316
939.077	59.14259
939.46	11.02691
939.843	41.08583
940.226	-3.00781
940.609	23.05411
940.991	32.0823
941.374	13.03203
941.757	34.08469
942.139	-31.07094
942.522	38.08928
942.904	-8.01937
943.286	15.03818
943.668	53.13799
944.05	28.06989
944.432	33.08281
944.814	73.18126
945.196	36.08986
945.578	22.0538
945.959	61.1434
946.341	18.04379
946.722	-44.10455
947.104	18.04312
947.485	32.07603
947.866	38.09684
948.247	6.01533
948.628	35.0857
949.009	36.09291
949.39	3.00748
949.771	13.03057
950.152	-7.01746
950.532	-18.04547
950.913	42.10297
951.293	21.0574
951.674	27.06567
952.054	-8.02006
952.434	-10.02502
952.814	-63.15041
953.194	-7.0182
953.574	3.00738
953.954	28.06727
954.334	36.08996
954.714	-5.01241
955.093	23.05596
955.473	1.00253
955.853	-8.02074
956.232	16.04357
956.611	7.01677
956.99	-48.1212
957.37	18.04599
957.749	33.07903
958.128	-4.01013
958.506	-12.03157
958.885	21.0533
959.264	37.09221
959.643	19.04411
960.021	-15.03749
960.4	-24.05538
960.778	-22.05422
961.156	62.15616
961.535	53.12363
961.913	9.02132
962.291	26.06766
962.669	-60.15259
963.047	8.02061
963.424	10.02568
963.802	-16.03978
964.18	4.01013
964.557	15.03507
964.935	38.0897
965.312	68.17792
965.69	48.12021
966.067	-8.01971
966.444	-25.06226
966.821	-25.0646
967.198	5.01207
967.575	-6.01477
967.952	-23.05418
968.329	39.09514
968.705	30.06582
969.082	38.09878
969.458	-5.0122
969.835	-32.07819
970.211	27.06986
970.587	15.03749
970.963	9.02319
971.339	8.02105
971.715	6.01511
972.091	45.11129
972.467	-3.00753
972.843	54.13557
973.219	20.04783
973.594	-7.01856
973.97	5.01201
974.345	40.09669
974.721	64.15435
975.096	5.01229
975.471	-52.12322
975.846	65.15679
976.221	45.11595
976.596	12.02925
976.971	8.01969
977.346	6.01406
977.72	-17.04329
978.095	-12.03107
978.469	20.04785
978.844	12.03004
979.218	39.09525
979.593	5.01193
979.967	60.14694
980.341	30.07007
980.715	12.03027
981.089	46.11586
981.463	11.02567
981.837	9.02233
982.21	-1.00229
982.584	23.05628
982.957	4.01011
983.331	73.17168
983.704	-12.03007
984.078	-32.07991
984.451	-12.0296
984.824	34.0845
985.197	4.00981
985.57	13.03276
985.943	20.04902
986.316	10.02464
986.688	12.0291
987.061	-9.0215
987.434	11.02867
987.806	29.07001
988.179	15.03626
988.551	27.06882
988.923	-11.02709
989.295	42.10526
989.667	9.0222
990.039	-22.05541
990.411	10.0233
990.783	-17.03912
991.155	77.18784
991.527	-16.03904
991.898	9.02258
992.27	-6.01515
992.641	-6.01515
993.012	34.08044
993.384	31.07464
993.755	-2.00515
994.126	2.00485
994.497	46.11441
994.868	32.07375
995.239	24.05858
995.61	21.0536
995.98	22.05428
996.351	14.03531
996.722	-11.02615
997.092	-43.10396
997.462	2.00482
997.833	-15.03566
998.203	-1.00244
998.573	-6.01509
998.943	14.03341
999.313	-43.10404
999.683	5.01211
1000.053	-10.02327
1000.423	28.06791
1000.792	10.02633
1001.162	-21.05249
1001.531	17.04224
1001.901	-26.06551
1002.27	21.04775
1002.639	36.0922
1003.009	-1.00241
1003.378	-11.02828
1003.747	13.03107
1004.116	2.00486
1004.485	-24.05771
1004.853	-43.11026
1005.222	39.09881
1005.591	20.04785
1005.959	68.15783
1006.328	-4.00922
1006.696	-48.11764
1007.064	41.10395
1007.433	22.0547
1007.801	-22.05392
1008.169	24.06131
1008.537	-17.0379
1008.905	35.08257
1009.273	43.10642
1009.64	9.02191
1010.008	16.03856
1010.375	-4.00952
1010.743	64.14743
1011.11	9.02165
1011.478	-2.00496
1011.845	7.01657
1012.212	33.0761
1012.579	-2.00495
1012.946	26.06235
1013.313	-14.03332
1013.68	-12.02723
1014.047	40.09753
1014.414	0
1014.78	6.01499
1015.147	58.13893
1015.513	-7.0171
1015.88	66.16719
1016.246	24.05932
1016.612	38.08754
1016.978	24.05943
1017.344	24.05954
1017.71	-20.0484
1018.076	3.0071
1018.442	24.0617
1018.808	11.02778
1019.174	36.0911
1019.539	22.05021
1019.905	-43.10321
1020.27	42.10435
1020.636	25.05987
1021.001	38.09203
1021.366	-16.03872
1021.731	-4.01037
1022.096	-33.08406
1022.461	-3.00709
1022.826	23.05542
1023.191	-17.04496
1023.556	-10.02379
1023.92	-17.04195
1024.285	7.01713
1024.649	-19.04687
1025.014	-31.07731
1025.378	28.07111
1025.742	17.04254
1026.107	-21.04821
1026.471	-22.05161
1026.835	-64.16057
1027.199	10.02448
1027.562	21.0496
1027.926	-13.0319
1028.29	38.09763
1028.654	16.03736
1029.017	26.06372
1029.381	44.10756
1029.744	49.12573
1030.107	-49.11667
1030.471	-5.01208
1030.834	-13.02994
1031.197	-32.07729
1031.56	1.00237
1031.923	-7.01823
1032.286	-15.03513
1032.648	64.15336
1033.011	35.08219
1033.374	17.03979
1033.736	2.00534
1034.099	16.03963
1034.461	56.14362
1034.823	27.06773
1035.185	28.07095
1035.548	15.03688
1035.91	44.10652
1036.272	30.06905
1036.634	-11.02691
1036.995	18.04226
1037.357	-24.05926
1037.719	18.04372
1038.08	-6.01421
1038.442	32.0763
1038.803	34.08252
1039.165	15.0379
1039.526	16.03876
1039.887	30.07235
1040.248	9.02273
1040.609	21.05174
1040.97	39.09691
1041.331	-7.01777
1041.692	39.09226
1042.053	5.01147
1042.413	-5.01173
1042.774	-2.00489
1043.134	5.01186
1043.495	29.07287
1043.855	1.00244
1044.215	-38.09489
1044.576	16.03901
1044.936	24.05445
1045.296	-18.04524
1045.656	35.08608
1046.016	31.07509
1046.375	28.06908
1046.735	6.01398
1047.095	-24.05736
1047.454	35.07379
1047.814	-36.08685
1048.173	16.03793
1048.533	30.06941
1048.892	1.00246
1049.251	29.07259
1049.61	34.08432
1049.969	-40.09523
1050.328	-1.0022
1050.687	11.02707
1051.046	14.03421
1051.405	7.01755
1051.763	-30.07057
1052.122	7.01783
1052.48	-18.04439
1052.839	-14.03348
1053.197	-41.0974
1053.555	-27.06099
1053.914	13.03206
1054.272	1.00242
1054.63	-15.03756
1054.988	-33.07963
1055.345	36.07868
1055.703	18.04308
1056.061	13.03363
1056.419	-5.01306
1056.776	-2.00485
1057.134	43.10046
1057.491	25.06266
1057.848	0
1058.206	13.03093
1058.563	-2.00451
1058.92	16.03705
1059.277	-10.02467
1059.634	38.09022
1059.991	-2.00476
1060.348	84.19289
1060.704	4.00967
1061.061	-46.10567
1061.418	34.08345
1061.774	10.02494
1062.131	-17.04538
1062.487	-11.02599
1062.843	40.09996
1063.199	-14.03501
1063.555	5.0117
1063.911	27.06877
1064.267	37.07725
1064.623	-1.00247
1064.979	-6.01406
1065.335	-26.06173
1065.691	-22.05272
1066.046	-20.04436
1066.402	-5.01163
1066.757	-36.09123
1067.112	-16.03902
1067.468	6.01442
1067.823	-25.06108
1068.178	-10.02434
1068.533	-15.03654
1068.888	26.06266
1069.243	10.02487
1069.598	19.04671
1069.952	-4.0093
1070.307	30.07527
1070.662	19.0459
1071.016	18.04132
1071.371	21.04821
1071.725	39.09301
1072.079	-37.08952
1072.434	1.00246
1072.788	34.08252
1073.142	40.09811
1073.496	45.10978
1073.85	0
1074.203	-50.12182
1074.557	2.00536
1074.911	9.02146
1075.265	28.06527
1075.618	39.09535
1075.971	20.04803
1076.325	26.0667
1076.678	59.13832
1077.031	4.00926
1077.385	31.06937
1077.738	26.0603
1078.091	51.11887
1078.444	21.04929
1078.796	-9.02232
1079.149	4.00997
1079.502	22.05294
1079.855	34.08041
1080.207	9.02216
1080.56	21.05494
1080.912	-1.00246
1081.264	-1.00244
1081.617	40.09912
1081.969	44.11233
1082.321	74.1817
1082.673	36.08442
1083.025	-22.0526
1083.377	16.03451
1083.728	3.00707
1084.08	39.09829
1084.432	17.04167
1084.783	9.02101
1085.135	-5.0127
1085.486	51.11877
1085.838	12.0298
1086.189	-29.07172
1086.54	7.01671
1086.891	0
1087.242	29.07075
1087.593	-5.01209
1087.944	69.15835
1088.295	14.03176
1088.646	18.04392
1088.996	22.05394
1089.347	12.02964
1089.698	38.09189
1090.048	15.03893
1090.398	16.03736
1090.749	29.06929
1091.099	-17.04352
1091.449	11.02741
1091.799	32.08106
1092.149	13.0327
1092.499	-11.02684
1092.849	25.06379
1093.199	-3.00749
1093.548	-18.04372
1093.898	64.1612
1094.248	4.01026
1094.597	-9.0235
1094.947	-1.00268
1095.296	41.10192
1095.645	-3.00782
1095.994	60.1453
1096.343	9.02276
1096.692	-4.01072
1097.041	-9.02472
1097.39	-6.01515
1097.739	-17.0442
1098.088	38.10152
1098.437	-9.02396
1098.785	74.19919
1099.134	38.10061
1099.482	-14.03862
1099.83	-31.0814
1100.179	16.04204
1100.527	33.08826
1100.875	18.04788
1101.223	-9.02392
1101.571	14.03902
1101.919	-4.01064
1102.267	17.04793
1102.615	2.00644
1102.962	-2.00644
1103.31	15.04823
1103.658	0
