Data from N2 R2  sample 1_Subt2__2__15-56-17-756.txt Node

Date: Wed Aug 27 15:56:17 PDT 2025
User: uwsun
Spectrometer: HDX01956
Trigger mode: 0
Integration Time (sec): 5.000000E-1
Scans to average: 1
Nonlinearity correction enabled: true
Boxcar width: 0
Storing dark spectrum: false
XAxis mode: Wavelengths
Number of Pixels in Spectrum: 2068
>>>>>Begin Spectral Data<<<<<
194.03	370.01832
194.578	348.08598
195.127	338.04115
195.676	354.09138
196.225	383.98768
196.773	402.07395
197.321	545.42117
197.87	707.66882
198.418	786.84923
198.966	826.95008
199.513	749.72835
200.061	761.78105
200.609	736.77373
201.156	743.49168
201.704	764.77867
202.251	736.78573
202.798	791.89155
203.345	781.75503
203.892	738.69858
204.438	836.79458
204.985	796.71453
205.532	776.85886
206.078	793.77473
206.624	826.84747
207.17	782.64834
207.716	864.90473
208.262	745.32811
208.808	831.85903
209.354	821.81858
209.899	812.84219
210.445	793.78927
210.99	834.81023
211.535	818.73182
212.08	856.79103
212.625	803.8111
213.17	781.7722
213.715	833.67952
214.259	816.6975
214.804	773.73776
215.348	833.70487
215.892	817.75565
216.436	799.65437
216.98	798.58862
217.524	780.66424
218.068	741.68141
218.612	794.81297
219.155	750.60364
219.698	677.47703
220.242	696.57574
220.785	687.47293
221.328	718.63873
221.871	709.61266
222.414	723.6485
222.956	617.39024
223.499	672.39642
224.041	724.55534
224.583	636.25631
225.126	691.40948
225.668	720.61162
226.21	719.6499
226.751	706.4274
227.293	690.44151
227.835	718.5933
228.376	686.46225
228.918	758.72798
229.459	655.52213
230	664.441
230.541	698.48528
231.082	729.62074
231.622	760.60963
232.163	682.52901
232.704	752.70328
233.244	640.44946
233.784	687.52856
234.324	658.34177
234.864	695.44331
235.404	711.52575
235.944	718.54045
236.484	710.59834
237.023	728.57466
237.563	735.54681
238.102	684.45357
238.641	693.59655
239.18	741.58199
239.719	750.71317
240.258	716.46087
240.797	737.61889
241.335	734.62545
241.874	741.29578
242.412	751.62825
242.95	719.5866
243.488	800.65386
244.026	690.45361
244.564	731.34953
245.102	796.62503
245.64	773.68096
246.177	667.36847
246.715	728.57332
247.252	701.45902
247.789	640.07916
248.326	788.72555
248.863	735.46678
249.4	703.43529
249.936	729.38077
250.473	736.56147
251.009	788.63775
251.546	792.58982
252.082	774.50293
252.618	780.57866
253.154	758.64658
253.69	740.52083
254.226	716.52824
254.761	782.58271
255.297	778.55163
255.832	758.60539
256.367	798.70047
256.903	741.48082
257.438	757.58338
257.972	806.62613
258.507	781.63651
259.042	701.36711
259.576	792.5372
260.111	798.64384
260.645	781.49817
261.179	760.59072
261.713	823.63276
262.247	809.6654
262.781	723.36405
263.315	753.65752
263.849	795.78941
264.382	774.58507
264.915	881.84378
265.449	805.77943
265.982	830.67002
266.515	819.78255
267.048	710.34833
267.58	756.46862
268.113	798.5496
268.646	819.81265
269.178	884.76412
269.71	751.44954
270.243	790.60985
270.775	859.94449
271.307	777.66607
271.838	825.72118
272.37	825.80092
272.902	856.72002
273.433	789.54629
273.965	885.88882
274.496	810.78119
275.027	803.79417
275.558	837.80712
276.089	876.92636
276.62	802.81803
277.15	821.80426
277.681	858.6394
278.211	856.858
278.741	873.70472
279.272	834.69576
279.802	861.91036
280.332	870.82596
280.861	868.84413
281.391	884.76412
281.921	831.75209
282.45	856.90358
282.98	860.98566
283.509	905.78564
284.038	832.67942
284.567	852.7324
285.096	899.89389
285.625	833.65647
286.153	879.81611
286.682	897.81944
287.21	900.89393
287.739	937.92395
288.267	876.87403
288.795	892.06493
289.323	853.7655
289.851	905.82985
290.378	1019.97146
290.906	977.07188
291.433	920.99694
291.961	932.85486
292.488	936.99985
293.015	955.94159
293.542	956.11278
294.069	991.11343
294.596	1006.11821
295.122	989.02374
295.649	910.72803
296.175	966.03299
296.702	965.00916
297.228	993.05567
297.754	980.88192
298.28	958.88725
298.806	908.88235
299.332	1052.98945
299.857	987.90038
300.383	996.13918
300.908	1016.14395
301.433	1023.10753
301.958	1081.12193
302.483	1056.25751
303.008	1015.09569
303.533	1077.38378
304.058	1051.06002
304.582	1043.11908
305.107	1023.29134
305.631	1084.04968
306.155	1088.13919
306.679	1048.08447
307.203	1137.18303
307.727	1101.20779
308.251	1060.17559
308.775	1100.18405
309.298	1133.2783
309.822	1159.41147
310.345	1099.15733
310.868	1177.29564
311.391	1085.20754
311.914	1157.42746
312.437	1129.08996
312.96	1170.25459
313.482	1159.25727
314.005	1145.41171
314.527	1187.56216
315.049	1165.41542
315.571	1205.17266
316.093	1278.52642
316.615	1234.38613
317.137	1268.16934
317.659	1249.39174
318.18	1229.37024
318.702	1298.42463
319.223	1329.10396
319.744	1335.35078
320.265	1303.50732
320.786	1344.64235
321.307	1380.70064
321.828	1341.33453
322.348	1381.48374
322.869	1409.59084
323.389	1357.70046
323.909	1431.51284
324.43	1495.66929
324.95	1454.52503
325.47	1493.79622
325.989	1448.5817
326.509	1550.53994
327.029	1590.62322
327.548	1533.53746
328.067	1630.89309
328.587	1563.83106
329.106	1674.76599
329.625	1625.11846
330.144	1586.63087
330.662	1645.75103
331.181	1661.74209
331.7	1659.74175
332.218	1671.52226
332.736	1750.79693
333.255	1786.87588
333.773	1761.85651
334.291	1745.00522
334.808	1785.6729
335.326	1836.76424
335.844	1871.92998
336.361	1942.30128
336.879	1977.03795
337.396	1913.05554
337.913	2111.09132
338.43	1996.83342
338.947	2086.14111
339.464	2051.74789
339.981	2056.08785
340.497	2113.27112
341.014	2143.26921
341.53	2159.9303
342.046	2137.24293
342.562	2163.2984
343.078	2196.11212
343.594	2247.21271
344.11	2287.15232
344.626	2325.45087
345.141	2263.93923
345.657	2328.87484
346.172	2334.27666
346.687	2305.0408
347.202	2329.98816
347.717	2470.22135
348.232	2528.52741
348.747	2484.09271
349.261	2504.86072
349.776	2554.2207
350.29	2576.48191
350.805	2607.49099
351.319	2597.13878
351.833	2664.09001
352.347	2713.21012
352.861	2678.20303
353.374	2695.04025
353.888	2613.19861
354.401	2834.13528
354.915	2786.10555
355.428	2834.48627
355.941	2815.12992
356.454	2840.86884
356.967	2837.16553
357.48	2812.00369
357.993	2882.38652
358.505	2936.40862
359.018	3007.41254
359.53	3021.19246
360.042	3071.83724
360.554	3052.21005
361.066	3003.37825
361.578	3089.72906
362.09	3059.19976
362.602	3062.73388
363.113	3152.01932
363.625	3179.8128
364.136	3267.70871
364.647	3195.00473
365.158	3357.00332
365.669	3303.19504
366.18	3388.00586
366.691	3422.6357
367.201	3317.07664
367.712	3451.87434
368.222	3385.78627
368.733	3561.46664
369.243	3531.60308
369.753	3601.7146
370.263	3707.02359
370.773	3647.26296
371.282	3821.83398
371.792	3875.63642
372.301	4059.87627
372.811	4047.30233
373.32	4108.1139
373.829	4027.55698
374.338	4367.0667
374.847	4482.15838
375.356	4568.227
375.865	4719.52472
376.373	4959.65448
376.882	5078.25569
377.39	5096.92334
377.898	5367.94628
378.407	5528.34132
378.915	5699.86699
379.423	5981.18859
379.93	6176.90587
380.438	6507.19123
380.946	6772.95659
381.453	7111.1609
381.96	7326.12228
382.468	7867.52151
382.975	8363.19448
383.482	8711.78488
383.989	8851.0698
384.495	9103.6708
385.002	9447.91892
385.509	10121.98493
386.015	10753.86263
386.521	11246.91284
387.028	11676.55522
387.534	12068.92363
388.04	12533.24211
388.546	12790.1211
389.051	13476.73545
389.557	14412.9798
390.063	15535.5651
390.568	16193.38263
391.073	16545.3218
391.578	17181.67957
392.084	17696.5369
392.589	18308.53386
393.093	19604.54774
393.598	21370.37586
394.103	23363.95433
394.607	25846.26471
395.112	27990.3074
395.616	29367.33822
396.12	31873.07952
396.624	35268.72288
397.128	38237.88722
397.632	42295.65525
398.136	46343.90443
398.639	48855.28229
399.143	53467.97523
399.646	57930.19205
400.15	58212.50025
400.653	57879.39077
401.156	57173.58385
401.659	56177.40201
402.162	53821.55638
402.664	47275.14456
403.167	32260.27245
403.67	3851.94142
404.172	0
404.674	0
405.176	0
405.678	0
406.18	0
406.682	0
407.184	0
407.686	12367.42319
408.187	34596.90747
408.688	44563.94194
409.19	48906.19284
409.691	51236.67962
410.192	52883.26968
410.693	53713.23343
411.194	54189.54801
411.694	54767.79104
412.195	55625.98899
412.696	55971.27715
413.196	55815.15953
413.696	55802.1488
414.196	55740.09561
414.696	56340.4775
415.196	57067.59327
415.696	58258.21704
416.196	59666.45207
416.695	59754.81715
417.195	50242.9291
417.694	47461.55407
418.194	44788.28809
418.693	41922.14445
419.192	40321.38818
419.691	39846.30593
420.19	38988.18618
420.688	37902.94335
421.187	36633.07913
421.685	34178.78231
422.184	31117.6949
422.682	27168.47289
423.18	23157.42122
423.678	20654.67646
424.176	19229.41921
424.674	18043.15128
425.172	17234.18942
425.669	15996.02506
426.167	15136.90476
426.664	13763.03273
427.161	12420.3327
427.659	11654.36714
428.156	10832.9612
428.652	10307.26274
429.149	9852.80685
429.646	9458.7537
430.143	8977.33863
430.639	8346.13587
431.135	8001.79009
431.632	7534.20184
432.128	7076.99453
432.624	6686.33243
433.12	6441.77101
433.616	6264.66621
434.111	5996.20598
434.607	5724.31065
435.103	5685.73633
435.598	5383.6924
436.093	5237.43572
436.588	4898.37915
437.083	4771.63421
437.578	4490.67783
438.073	4418.48833
438.568	4195.43074
439.062	4110.73918
439.557	3938.33065
440.051	3891.26397
440.546	3642.42879
441.04	3606.70751
441.534	3471.01197
442.028	3472.69027
442.522	3363.78751
443.015	3259.40694
443.509	3420.96089
444.002	3188.97848
444.496	3054.3946
444.989	3144.96382
445.482	3028.09026
445.975	3023.65818
446.468	3112.45016
446.961	2876.31463
447.454	2942.72334
447.947	2801.84723
448.439	2813.99459
448.931	2726.58012
449.424	2816.17843
449.916	2709.98148
450.408	2667.62025
450.9	2529.90669
451.392	2609.17375
451.884	2510.72053
452.375	2387.0387
452.867	2380.5615
453.358	2401.66786
453.849	2417.42859
454.341	2354.56694
454.832	2210.43137
455.323	2272.98154
455.814	2240.6689
456.304	2269.70779
456.795	2212.71483
457.285	2179.52618
457.776	2126.56029
458.266	2184.8624
458.756	2185.92689
459.247	2151.86516
459.737	2065.88569
460.226	1952.5536
460.716	1939.75513
461.206	1965.80834
461.695	1875.92631
462.185	1909.73013
462.674	1896.60397
463.163	1894.50875
463.653	1830.29847
464.142	1788.72273
464.63	1728.69492
465.119	1753.55749
465.608	1703.54543
466.096	1695.37284
466.585	1701.53787
467.073	1617.56851
467.561	1614.58906
468.05	1615.49008
468.538	1556.60884
469.026	1524.47639
469.513	1447.06979
470.001	1615.53923
470.489	1580.61656
470.976	1445.2943
471.463	1405.51429
471.951	1353.43442
472.438	1369.3238
472.925	1352.34209
473.412	1294.33671
473.899	1278.15865
474.385	1310.39084
474.872	1265.18894
475.359	1256.3379
475.845	1212.89174
476.331	1212.98276
476.817	1191.20291
477.303	1169.07973
477.789	1146.13781
478.275	1078.11751
478.761	1038.01111
479.247	1049.83221
479.732	1073.13675
480.218	1028.13626
480.703	1017.02503
481.188	955.6265
481.673	976.8042
482.158	940.66845
482.643	932.9553
483.128	930.76521
483.612	938.79424
484.097	914.85185
484.581	846.61955
485.066	859.76051
485.55	833.53286
486.034	836.52493
486.518	722.4438
487.002	855.79878
487.486	769.61985
487.969	749.57492
488.453	760.63484
488.936	743.44436
489.42	762.45077
489.903	691.50315
490.386	688.97811
490.869	673.27204
491.352	634.34544
491.835	654.1815
492.318	697.38762
492.8	647.20609
493.283	617.38911
493.765	613.34742
494.247	617.27543
494.73	569.1177
495.212	563.19951
495.694	562.18674
496.175	603.28152
496.657	583.23035
497.139	526.83165
497.62	562.21215
498.102	609.36773
498.583	526.20114
499.064	436.89066
499.545	549.13162
500.026	581.17353
500.507	540.13872
500.988	517.16751
501.469	483.11187
501.949	465.04221
502.43	448.99266
502.91	436.84542
503.39	466.06563
503.87	474.02642
504.35	452.97564
504.83	488.98558
505.31	425.95405
505.79	441.98386
506.269	413.89396
506.749	395.84441
507.228	426.93056
507.707	397.81744
508.187	415.91477
508.666	381.86688
509.145	394.86176
509.623	428.94283
510.102	381.86337
510.581	381.84687
511.059	399.94041
511.538	395.94362
512.016	422.94868
512.494	437.99466
512.972	301.67491
513.45	364.8012
513.928	378.86544
514.406	395.90635
514.884	393.94457
515.361	352.78356
515.839	422.89802
516.316	351.80025
516.793	388.91892
517.27	319.72907
517.747	364.88534
518.224	335.72824
518.701	358.75356
519.178	306.72001
519.654	358.79625
520.131	296.69567
520.607	303.70864
521.083	353.76345
521.56	275.61789
522.036	318.66347
522.512	289.67034
522.987	329.74253
523.463	318.71961
523.939	298.6867
524.414	345.75349
524.89	318.72283
525.365	293.62746
525.84	275.62802
526.315	298.68588
526.79	270.57909
527.265	313.68505
527.74	267.61883
528.215	337.76865
528.689	257.54728
529.164	335.69444
529.638	302.73732
530.112	249.56704
530.587	291.60566
531.061	285.66159
531.534	307.71208
532.008	264.61418
532.482	251.54844
532.956	300.72425
533.429	216.50193
533.903	283.59321
534.376	285.61112
534.849	262.57647
535.322	285.64377
535.795	225.52645
536.268	265.61346
536.741	215.49476
537.213	271.59739
537.686	274.63669
538.158	241.52704
538.631	220.50799
539.103	264.57599
539.575	223.44821
540.047	289.61248
540.519	219.50054
540.991	254.58812
541.463	245.56762
541.934	242.52844
542.406	175.40272
542.877	208.44939
543.348	211.47702
543.82	265.6159
544.291	215.47733
544.762	303.68386
545.233	259.61666
545.703	207.44503
546.174	259.57716
546.645	273.62671
547.115	300.68993
547.585	295.63557
548.056	318.72049
548.526	338.74897
548.996	364.81228
549.466	334.75889
549.935	356.7941
550.405	387.79075
550.875	421.91866
551.344	370.8226
551.814	417.8868
552.283	353.71146
552.752	390.83318
553.221	414.83345
553.69	402.816
554.159	460.03458
554.628	446.92349
555.096	418.97273
555.565	510.04614
556.033	411.89001
556.502	430.96309
556.97	312.64517
557.438	372.81502
557.906	355.78582
558.374	313.67956
558.842	312.70546
559.31	328.69527
559.777	314.71865
560.245	292.6395
560.712	259.56879
561.18	277.58705
561.647	278.58775
562.114	359.78174
562.581	324.73915
563.048	323.70276
563.514	293.68231
563.981	390.83138
564.448	350.73186
564.914	342.73634
565.381	315.66991
565.847	376.81197
566.313	422.91402
566.779	454.94846
567.245	390.83462
567.711	438.96727
568.176	395.81515
568.642	479.0842
569.108	487.08086
569.573	537.11825
570.038	614.12945
570.504	545.09465
570.969	536.17574
571.434	550.06176
571.899	622.29641
572.363	601.19011
572.828	715.3674
573.293	767.49675
573.757	695.35925
574.222	757.43669
574.686	744.41919
575.15	814.62577
575.614	790.52238
576.078	801.55507
576.542	829.54685
577.006	825.52646
577.469	831.65248
577.933	891.63243
578.396	794.566
578.86	878.68657
579.323	859.7011
579.786	794.40874
580.249	829.55831
580.712	839.67615
581.175	813.67289
581.637	793.49783
582.1	782.38812
582.563	780.38026
583.025	762.55343
583.487	759.29324
583.95	759.37616
584.412	721.25609
584.874	744.52974
585.336	670.36442
585.797	678.24369
586.259	691.38268
586.721	685.38015
587.182	591.18721
587.643	584.1367
588.105	564.14461
588.566	606.07676
589.027	579.21227
589.488	596.1623
589.949	588.2325
590.41	575.98207
590.87	483.95065
591.331	534.00418
591.791	486.9955
592.252	457.92488
592.712	451.9495
593.172	461.92187
593.632	452.85761
594.092	446.87886
594.552	412.78018
595.011	442.90783
595.471	406.81433
595.931	395.78659
596.39	444.95756
596.849	406.84781
597.308	379.72066
597.768	456.0423
598.227	355.76811
598.685	388.79297
599.144	429.90319
599.603	396.8427
600.062	393.75602
600.52	404.81219
600.978	369.79498
601.437	385.79059
601.895	363.68654
602.353	349.69337
602.811	412.82675
603.269	385.82161
603.727	382.82528
604.184	413.84005
604.642	410.89031
605.099	475.98683
605.557	404.88027
606.014	394.76361
606.471	430.96349
606.928	373.72446
607.385	517.10946
607.842	611.20995
608.299	609.21611
608.755	541.12409
609.212	595.14688
609.668	557.06989
610.125	533.10695
610.581	498.01043
611.037	515.01143
611.493	538.09573
611.949	436.92982
612.405	533.95641
612.861	479.98005
613.316	540.13623
613.772	447.89926
614.227	467.95853
614.683	526.97761
615.138	506.044
615.593	530.0892
616.048	493.99865
616.503	454.96904
616.958	510.11063
617.412	505.0501
617.867	503.99608
618.321	583.05646
618.776	488.94897
619.23	508.04297
619.684	555.10041
620.138	484.96943
620.592	493.04604
621.046	498.01366
621.5	542.15545
621.954	438.8773
622.407	452.89487
622.861	515.10849
623.314	471.94841
623.768	411.86377
624.221	437.7716
624.674	439.9031
625.127	427.89067
625.58	418.83956
626.033	428.83308
626.485	467.00715
626.938	450.94968
627.39	500.03437
627.843	439.90391
628.295	381.79438
628.747	426.91599
629.199	374.77476
629.651	425.88414
630.103	416.86715
630.555	470.90787
631.006	390.83246
631.458	428.92424
631.909	333.69924
632.361	433.92082
632.812	373.79669
633.263	340.67565
633.714	400.79525
634.165	315.70165
634.616	311.68556
635.067	301.61336
635.518	327.72173
635.968	413.75323
636.419	352.70504
636.869	289.63253
637.319	410.89334
637.769	257.54228
638.219	367.80899
638.669	313.69517
639.119	316.70664
639.569	367.82016
640.019	369.77893
640.468	324.67689
640.918	241.54194
641.367	291.61941
641.816	260.5415
642.265	293.62963
642.714	272.59093
643.163	303.65
643.612	301.68461
644.061	242.48719
644.51	297.63905
644.958	313.65319
645.406	295.66445
645.855	341.78905
646.303	307.67504
646.751	281.60775
647.199	277.59089
647.647	261.5686
648.095	289.62665
648.543	305.59917
648.99	319.72055
649.438	277.60473
649.885	248.57651
650.333	276.51496
650.78	279.64151
651.227	267.62079
651.674	328.70984
652.121	324.74511
652.568	316.72875
653.015	301.72049
653.461	295.66309
653.908	266.58674
654.354	282.64127
654.801	286.65195
655.247	264.54714
655.693	238.58931
656.139	288.66763
656.585	260.60129
657.031	251.57321
657.477	245.51787
657.922	253.56636
658.368	321.75691
658.813	257.57389
659.259	228.52981
659.704	223.50558
660.149	207.47236
660.594	281.64094
661.039	294.63872
661.484	267.60999
661.929	214.4837
662.373	191.47338
662.818	199.48054
663.262	193.45477
663.707	248.60393
664.151	203.47814
664.595	242.5732
665.039	190.45942
665.483	270.66901
665.927	236.53255
666.371	233.53554
666.814	252.58372
667.258	166.38971
667.701	219.4617
668.145	241.58063
668.588	190.45751
669.031	176.41205
669.474	217.51012
669.917	221.47574
670.36	186.45263
670.803	238.55937
671.245	284.5907
671.688	169.40224
672.13	235.52564
672.573	237.58135
673.015	219.51342
673.457	223.48231
673.899	163.38915
674.341	203.47907
674.783	215.50778
675.225	228.55129
675.666	196.46874
676.108	159.33963
676.549	154.35942
676.991	239.52067
677.432	244.498
677.873	212.48328
678.314	200.4697
678.755	217.52222
679.196	268.6087
679.637	246.58673
680.078	214.49394
680.518	201.45959
680.959	167.39121
681.399	180.43983
681.839	197.47302
682.28	180.44212
682.72	198.45465
683.16	203.49943
683.6	154.34823
684.039	158.32878
684.479	152.37128
684.919	163.38214
685.358	172.42808
685.798	184.48092
686.237	164.39281
686.676	147.33423
687.115	232.53548
687.554	164.38967
687.993	196.4309
688.432	154.35234
688.871	216.48742
689.309	209.49553
689.748	220.4584
690.186	185.43812
690.625	203.47442
691.063	193.46236
691.501	197.48324
691.939	249.61394
692.377	192.46775
692.815	171.40903
693.253	156.37137
693.69	188.41331
694.128	202.48917
694.565	212.49905
695.003	167.41904
695.44	229.53581
695.877	199.46453
696.314	199.42635
696.751	166.37414
697.188	169.38472
697.625	168.37927
698.061	191.45861
698.498	221.5264
698.934	152.36518
699.371	190.4457
699.807	237.55257
700.243	150.35846
700.679	193.43383
701.115	189.43355
701.551	156.36452
701.987	205.45816
702.422	206.48643
702.858	196.46516
703.294	169.37599
703.729	162.39275
704.164	164.39057
704.599	199.43887
705.035	167.37478
705.47	133.32154
705.904	199.46453
706.339	193.4429
706.774	199.46507
707.209	184.4269
707.643	190.45161
708.078	167.40206
708.512	200.49523
708.946	175.41348
709.38	181.42749
709.814	164.37929
710.248	203.49131
710.682	209.49438
711.116	200.48195
711.549	170.43826
711.983	146.33994
712.416	154.36337
712.85	177.439
713.283	147.34598
713.716	174.42754
714.149	196.45833
714.582	191.42987
715.015	160.39503
715.448	161.40325
715.881	158.33815
716.313	155.35684
716.746	151.35664
717.178	141.34036
717.61	158.39553
718.043	162.39953
718.475	137.33008
718.907	196.48177
719.339	136.31366
719.77	156.37009
720.202	188.47062
720.634	159.38801
721.065	183.43422
721.497	213.51687
721.928	142.35046
722.359	134.32853
722.79	171.41106
723.221	151.37548
723.652	164.41498
724.083	168.38267
724.514	143.32698
724.945	172.403
725.375	204.47685
725.806	128.31359
726.236	126.31849
726.666	203.47889
727.096	166.40864
727.526	145.36828
727.956	160.36872
728.386	204.49846
728.816	188.48044
729.246	162.3929
729.675	100.24708
730.105	168.41203
730.534	165.38592
730.964	144.36074
731.393	158.38521
731.822	163.40767
732.251	148.37557
732.68	152.35322
733.109	179.44331
733.537	127.30877
733.966	169.4161
734.395	116.27031
734.823	165.3712
735.251	131.31635
735.68	171.42242
736.108	166.41855
736.536	171.40622
736.964	125.29225
737.392	153.38101
737.82	121.28612
738.247	175.41908
738.675	113.26679
739.102	161.40543
739.53	111.28253
739.957	110.28191
740.384	140.34095
740.811	113.28569
741.238	107.26102
741.665	91.2136
742.092	184.43432
742.519	130.32544
742.945	128.30764
743.372	153.37809
743.798	117.30116
744.225	135.32416
744.651	121.30362
745.077	97.24296
745.503	162.396
745.929	135.32502
746.355	63.15346
746.781	126.31223
747.207	59.14113
747.632	70.1741
748.058	81.20171
748.483	165.38244
748.908	91.2276
749.334	172.42231
749.759	130.31091
750.184	78.18811
750.609	79.19394
751.033	109.25335
751.458	90.20277
751.883	58.1432
752.307	95.22837
752.732	107.27283
753.156	128.31823
753.58	113.26813
754.005	114.28765
754.429	144.33978
754.853	110.27597
755.277	92.21767
755.7	86.21405
756.124	71.17822
756.548	101.24363
756.971	112.2749
757.394	96.24741
757.818	86.22264
758.241	76.1945
758.664	135.34422
759.087	44.10148
759.51	96.23868
759.933	53.12862
760.356	56.14357
760.778	121.30373
761.201	73.17974
761.623	127.30808
762.046	83.19611
762.468	86.20693
762.89	69.1692
763.312	40.09829
763.734	95.23063
764.156	95.23666
764.578	53.12324
765	116.28577
765.421	110.28624
765.843	73.19201
766.264	47.11354
766.686	77.19301
767.107	95.23348
767.528	103.26337
767.949	50.12733
768.37	67.16734
768.791	94.22867
769.212	78.20025
769.632	71.16893
770.053	59.15665
770.473	64.15744
770.894	44.10991
771.314	6.01445
771.734	40.0957
772.154	42.10911
772.575	50.11706
772.994	55.12758
773.414	82.19753
773.834	2.00503
774.254	90.22376
774.673	51.12516
775.093	2.00502
775.512	78.1959
775.931	86.21986
776.351	10.02531
776.77	37.09311
777.189	65.15685
777.607	22.0565
778.026	39.09783
778.445	-24.06121
778.864	58.14818
779.282	77.18833
779.701	24.06138
780.119	37.09501
780.537	48.12198
780.955	52.13299
781.373	31.0774
781.791	34.07789
782.209	28.06468
782.627	50.13189
783.045	56.13091
783.462	7.01806
783.88	35.09206
784.297	54.13815
784.715	42.10944
785.132	46.11249
785.549	50.12729
785.966	37.09375
786.383	77.1905
786.8	18.04206
787.217	55.13172
787.633	52.13266
788.05	-6.01427
788.466	45.10727
788.883	42.10798
789.299	22.0537
789.715	52.12891
790.131	81.20311
790.547	-29.07321
790.963	41.1031
791.379	0
791.795	10.02305
792.21	47.11196
792.626	37.08841
793.041	41.10255
793.457	31.07726
793.872	10.02382
794.287	64.15761
794.702	-17.04238
795.117	27.06882
795.532	-1.00256
795.947	21.05106
796.362	34.08085
796.776	2.00469
797.191	35.08757
797.605	37.08935
798.02	38.0943
798.434	73.16322
798.848	32.08023
799.262	36.0911
799.676	3.00738
800.09	-36.08954
800.504	48.11795
800.918	40.09453
801.331	-1.00263
801.745	-31.07234
802.158	52.13135
802.572	-16.03898
802.985	56.13623
803.398	21.05094
803.811	14.03589
804.224	-13.03273
804.637	-12.02925
805.05	36.08495
805.462	120.29606
805.875	5.01326
806.288	-33.08116
806.7	25.06354
807.112	6.0142
807.525	-24.06013
807.937	-5.01263
808.349	-5.01259
808.761	4.00988
809.173	8.01973
809.584	11.02707
809.996	50.12458
810.408	25.0656
810.819	67.16094
811.231	76.20075
811.642	104.25574
812.053	166.39715
812.464	176.41592
812.875	205.51585
813.286	90.22977
813.697	33.07576
814.108	28.0685
814.519	-24.05434
814.929	11.02796
815.34	-3.00737
815.75	31.07946
816.16	19.04766
816.571	35.09187
816.981	-43.10251
817.391	47.11474
817.801	25.0628
818.211	30.07172
818.62	48.11751
819.03	24.05958
819.44	30.07831
819.849	53.13462
820.259	-3.00769
820.668	1.0025
821.077	7.0178
821.486	39.09528
821.895	-11.02731
822.304	-1.00267
822.713	29.06929
823.122	15.03763
823.531	6.01432
823.939	15.03706
824.348	36.0881
824.756	46.11557
825.164	1.00252
825.573	12.03056
825.981	13.0321
826.389	39.09871
826.797	67.17
827.205	72.16811
827.612	55.13532
828.02	41.09823
828.428	36.09181
828.835	26.06863
829.243	35.08372
829.65	28.07022
830.057	10.02434
830.464	-19.04694
830.871	18.04308
831.278	27.06579
831.685	27.06127
832.092	46.11357
832.499	51.113
832.905	41.10388
833.312	-11.02555
833.718	27.06729
834.124	10.023
834.531	28.07093
834.937	27.06948
835.343	55.13337
835.749	23.05401
836.155	42.11072
836.561	11.02715
836.966	40.09782
837.372	71.18129
837.777	11.02768
838.183	35.07903
838.588	18.04531
838.993	0
839.399	39.09744
839.804	-5.01247
840.209	-11.02852
840.613	6.01362
841.018	27.06885
841.423	0
841.828	13.03309
842.232	9.02231
842.637	24.05722
843.041	2.0052
843.445	36.09103
843.849	-11.0277
844.253	-6.01441
844.657	12.03072
845.061	18.0412
845.465	18.04449
845.869	3.00709
846.272	31.07681
846.676	-55.13302
847.079	22.05682
847.483	34.08447
847.886	69.16694
848.289	27.0726
848.692	-8.02037
849.095	11.02674
849.498	41.1027
849.901	4.00931
850.304	-37.08945
850.707	-15.03856
851.109	26.0653
851.512	42.10484
851.914	23.05978
852.316	2.00512
852.718	50.13274
853.121	49.12171
853.523	82.19664
853.925	16.04235
854.326	28.07106
854.728	15.03897
855.13	-4.01044
855.531	46.1122
855.933	16.03885
856.334	12.03021
856.736	44.10184
857.137	15.03561
857.538	59.15028
857.939	19.04805
858.34	35.0858
858.741	48.12568
859.142	-30.07309
859.542	9.02394
859.943	52.13112
860.343	4.01017
860.744	17.04172
861.144	2.00494
861.544	9.02233
861.945	5.01293
862.345	8.01973
862.745	11.02746
863.145	36.08557
863.544	9.02299
863.944	50.12008
864.344	7.01741
864.743	14.03473
865.143	22.05731
865.542	22.05205
865.941	41.10147
866.34	7.0168
866.74	19.05114
867.139	-42.10286
867.537	66.16796
867.936	29.07038
868.335	-2.00513
868.734	-4.01037
869.132	-17.04023
869.531	6.01438
869.929	-12.02835
870.327	28.06847
870.726	32.07939
871.124	-20.0471
871.522	-19.04879
871.92	33.08212
872.318	-5.01229
872.715	23.05644
873.113	11.02715
873.511	-64.16005
873.908	-38.09776
874.306	22.05559
874.703	2.00504
875.1	3.00766
875.497	-3.0073
875.894	23.05759
876.291	-51.12604
876.688	21.05454
877.085	43.10321
877.482	52.1306
877.878	3.00738
878.275	-9.02309
878.671	-27.06002
879.068	5.01218
879.464	45.10998
879.86	-15.03643
880.256	38.09368
880.652	-15.03901
881.048	23.05719
881.444	12.0286
881.84	29.07444
882.236	-5.01267
882.631	42.10309
883.027	5.01209
883.422	53.13671
883.817	14.03606
884.213	2.0052
884.608	20.05032
885.003	22.05428
885.398	-1.00254
885.793	48.1212
886.188	29.07345
886.582	46.11785
886.977	4.00965
887.371	-41.10381
887.766	-3.00759
888.16	60.1501
888.554	-30.07404
888.949	1.00252
889.343	9.02218
889.737	6.01623
890.131	5.0127
890.525	55.14182
890.918	37.09388
891.312	25.05987
891.706	-2.00527
892.099	39.09906
892.492	24.05203
892.886	28.06997
893.279	38.09821
893.672	18.04636
894.065	3.00757
894.458	-23.05825
894.851	17.04136
895.244	42.10828
895.637	31.075
896.029	40.09916
896.422	17.04187
896.814	31.07838
897.206	17.04113
897.599	21.05176
897.991	17.04173
898.383	-9.02146
898.775	2.00459
899.167	-19.04573
899.559	17.0429
899.951	36.08587
900.342	49.12499
900.734	12.03046
901.125	57.15064
901.517	-28.06951
901.908	6.01441
902.299	59.14693
902.69	8.01915
903.082	-17.04113
903.473	31.07565
903.863	0
904.254	-14.03292
904.645	8.01977
905.036	28.06883
905.426	57.13081
905.817	39.09663
906.207	3.00733
906.597	-39.09358
906.987	-68.17713
907.378	-34.08705
907.768	2.00534
908.158	-7.01729
908.547	37.09726
908.937	-55.14207
909.327	-24.059
909.717	15.03794
910.106	62.15099
910.495	3.00751
910.885	37.09428
911.274	12.03033
911.663	12.03045
912.052	-25.06208
912.441	31.0798
912.83	54.12578
913.219	45.11688
913.608	-22.05388
913.997	5.01278
914.385	11.02669
914.774	27.06616
915.162	-6.01466
915.55	10.02419
915.939	-26.06677
916.327	-25.06228
916.715	58.15015
917.103	29.07146
917.491	45.11149
917.878	54.13382
918.266	0
918.654	2.00515
919.041	20.05246
919.429	-5.01189
919.816	23.05863
920.203	11.02695
920.591	19.04713
920.978	22.0541
921.365	17.04487
921.752	5.01202
922.139	-9.01982
922.525	43.10619
922.912	-17.04187
923.299	60.15134
923.685	8.02092
924.072	46.10622
924.458	4.01003
924.844	23.05803
925.231	47.11054
925.617	31.08052
926.003	18.04616
926.389	-17.04326
926.774	47.11934
927.16	44.10963
927.546	-5.01294
927.931	57.14313
928.317	45.10422
928.702	29.0685
929.088	52.12569
929.473	30.07683
929.858	23.05715
930.243	27.06545
930.628	51.1259
931.013	26.06495
931.398	12.02741
931.783	18.04695
932.167	-37.0914
932.552	-22.05515
932.937	10.02492
933.321	29.07379
933.705	19.04814
934.09	-3.00748
934.474	18.04321
934.858	-33.08598
935.242	-47.11127
935.626	-15.039
936.009	13.0349
936.393	2.0051
936.777	-12.03079
937.16	26.06819
937.544	-21.04968
937.927	-34.0875
938.311	44.1072
938.694	3.0079
939.077	2.00489
939.46	-19.04675
939.843	30.06296
940.226	27.06994
940.609	9.02123
940.991	13.03354
941.374	22.05412
941.757	63.15609
942.139	-20.04567
942.522	9.02127
942.904	-22.0534
943.286	-1.00255
943.668	18.04715
944.05	8.02004
944.432	58.14488
944.814	58.14441
945.196	17.04258
945.578	24.05867
945.959	11.02611
946.341	-2.00488
946.722	32.07492
947.104	-13.03132
947.485	4.00956
947.866	24.06131
948.247	11.02808
948.628	45.10998
949.009	27.06979
949.39	-11.02751
949.771	12.02823
950.152	11.02735
950.532	-36.09123
950.913	56.13694
951.293	-9.02472
951.674	21.05113
952.054	3.00751
952.434	5.01247
952.814	-9.02127
953.194	-7.0182
953.574	-10.02467
953.954	67.15978
954.334	-13.03277
954.714	4.00991
955.093	-38.09351
955.473	13.0328
955.853	-27.07022
956.232	-9.02461
956.611	36.08577
956.99	-54.1365
957.37	-15.03854
957.749	15.03605
958.128	-32.08147
958.506	13.03406
958.885	33.08358
959.264	11.02754
959.643	25.05797
960.021	-40.10043
960.4	0
960.778	6.01471
961.156	18.04569
961.535	16.03759
961.913	17.04021
962.291	27.07025
962.669	-76.19382
963.047	-1.00258
963.424	-18.04645
963.802	-37.09234
964.18	24.06058
964.557	24.05601
964.935	-6.01428
965.312	25.06589
965.69	33.08287
966.067	-18.04443
966.444	21.05186
966.821	12.03081
967.198	10.02413
967.575	34.08308
967.952	-41.09691
968.329	30.07331
968.705	41.08974
969.082	41.10653
969.458	30.07273
969.835	-61.14986
970.211	11.02854
970.587	-7.01757
970.963	32.08213
971.339	-8.0211
971.715	-24.06078
972.091	26.06452
972.467	2.00501
972.843	18.04548
973.219	33.07873
973.594	-14.03715
973.97	46.10959
974.345	16.03885
974.721	-7.01711
975.096	19.04658
975.471	-62.1472
975.846	40.09694
976.221	43.11084
976.596	-8.01957
976.971	-13.03213
977.346	6.01406
977.72	-12.03053
978.095	-6.01552
978.469	-4.00961
978.844	-23.05794
979.218	24.05878
979.593	-30.07208
979.967	10.02472
980.341	0
980.715	7.01767
981.089	17.04304
981.463	3.00701
981.837	-23.0574
982.21	-35.08071
982.584	14.03431
982.957	-10.02534
983.331	4.00953
983.704	36.08944
984.078	27.0667
984.451	-20.0494
984.824	18.04487
985.197	15.0367
985.57	-8.02024
985.943	-2.00492
986.316	51.12474
986.688	-22.0537
987.061	55.1298
987.434	-15.03927
987.806	10.02423
988.179	28.06753
988.551	43.1093
988.923	-49.12154
989.295	46.1152
989.667	15.03696
990.039	-4.01004
990.411	31.07194
990.783	-5.01148
991.155	18.04439
991.527	-5.01217
991.898	4.01004
992.27	10.02517
992.641	41.10266
993.012	63.14822
993.384	15.03622
993.755	42.10738
994.126	7.01697
994.497	27.06739
994.868	44.10116
995.239	-17.04181
995.61	31.07899
995.98	4.0099
996.351	10.02524
996.722	33.07779
997.092	-28.0675
997.462	58.1384
997.833	2.00474
998.203	-24.05878
998.573	-11.02768
998.943	27.06427
999.313	-13.03128
999.683	16.03867
1000.053	39.08986
1000.423	29.07032
1000.792	26.06826
1001.162	-5.01246
1001.531	-12.02998
1001.901	0
1002.27	-4.00914
1002.639	3.00773
1003.009	15.0361
1003.378	-16.04116
1003.747	8.01914
1004.116	-24.05865
1004.485	-24.05771
1004.853	22.05577
1005.222	-23.05892
1005.591	19.04547
1005.959	69.16012
1006.328	23.05274
1006.696	-17.04143
1007.064	29.07368
1007.433	-10.02501
1007.801	-66.16307
1008.169	18.04603
1008.537	7.01553
1008.905	4.00949
1009.273	31.07689
1009.64	49.11842
1010.008	-19.04609
1010.375	-13.03098
1010.743	57.13149
1011.11	0
1011.478	8.0198
1011.845	36.08475
1012.212	30.06922
1012.579	0
1012.946	19.04562
1013.313	13.03078
1013.68	32.07198
1014.047	46.11203
1014.414	-5.01202
1014.78	6.01499
1015.147	2.00484
1015.513	7.01706
1015.88	21.05362
1016.246	15.03714
1016.612	21.04854
1016.978	14.03473
1017.344	-19.04751
1017.71	7.01685
1018.076	-8.01899
1018.442	31.0796
1018.808	12.0303
1019.174	-2.0051
1019.539	24.05476
1019.905	14.03324
1020.27	-8.02006
1020.636	-1.00241
1021.001	8.01948
1021.366	-55.13407
1021.731	43.11053
1022.096	-14.03554
1022.461	-19.04502
1022.826	-12.0291
1023.191	24.06303
1023.556	45.10591
1023.92	4.00983
1024.285	5.01224
1024.649	-3.00738
1025.014	-12.02982
1025.378	-7.01789
1025.742	28.06992
1026.107	43.09745
1026.471	3.007
1026.835	-31.07731
1027.199	3.00735
1027.562	49.1151
1027.926	-23.05655
1028.29	29.07462
1028.654	44.10217
1029.017	1.00246
1029.381	55.13417
1029.744	39.10025
1030.107	14.03293
1030.471	20.04811
1030.834	36.0821
1031.197	-23.05546
1031.56	36.08481
1031.923	18.04668
1032.286	-60.14174
1032.648	71.1699
1033.011	41.09616
1033.374	14.03279
1033.736	6.01602
1034.099	37.0913
1034.461	17.0439
1034.823	5.01259
1035.185	10.02542
1035.548	1.00246
1035.91	42.10171
1036.272	33.07591
1036.634	13.03167
1036.995	-21.04968
1037.357	9.02209
1037.719	-18.04402
1038.08	-4.00947
1038.442	2.0048
1038.803	16.03897
1039.165	17.04293
1039.526	24.05806
1039.887	51.12251
1040.248	46.11541
1040.609	37.0909
1040.97	27.06724
1041.331	18.0455
1041.692	7.01666
1042.053	7.01604
1042.413	-15.03525
1042.774	13.03173
1043.134	5.01186
1043.495	13.03276
1043.855	-1.00244
1044.215	-27.06729
1044.576	-16.03924
1044.936	-3.00684
1045.296	4.01001
1045.656	9.02224
1046.016	24.05821
1046.375	7.01734
1046.735	30.06955
1047.095	28.06625
1047.454	11.02331
1047.814	-29.06987
1048.173	-20.04774
1048.533	-7.01632
1048.892	25.06128
1049.251	-10.02521
1049.61	-36.09042
1049.969	-31.07367
1050.328	1.0022
1050.687	42.10278
1051.046	-1.00245
1051.405	11.02755
1051.763	11.02567
1052.122	29.07358
1052.48	-24.05926
1052.839	12.02856
1053.197	-72.17206
1053.555	-3.00674
1053.914	23.05661
1054.272	13.03136
1054.63	4.00998
1054.988	-31.07478
1055.345	31.06782
1055.703	6.01439
1056.061	-16.04159
1056.419	-12.03139
1056.776	24.0579
1057.134	-26.06156
1057.491	13.03266
1057.848	15.03754
1058.206	0
1058.563	28.06275
1058.92	12.02781
1059.277	3.00738
1059.634	47.1114
1059.991	-42.10068
1060.348	18.04188
1060.704	-12.0291
1061.061	-92.21328
1061.418	13.03203
1061.774	9.02245
1062.131	-6.01599
1062.487	-49.11663
1062.843	36.09003
1063.199	-25.06264
1063.555	-39.09208
1063.911	27.06877
1064.267	21.044
1064.623	-16.03962
1064.979	-33.07776
1065.335	-36.08564
1065.691	-29.06958
1066.046	7.01544
1066.402	8.01856
1066.757	-27.06831
1067.112	-64.15749
1067.468	-9.02168
1067.823	40.09654
1068.178	3.00728
1068.533	-23.05611
1068.888	85.20255
1069.243	10.02487
1069.598	41.10039
1069.952	30.06925
1070.307	35.08773
1070.662	12.02903
1071.016	17.03903
1071.371	-23.05327
1071.725	13.03116
1072.079	-23.0555
1072.434	-1.00246
1072.788	37.08976
1073.142	17.04187
1073.496	66.16038
1073.85	-1.00233
1074.203	-31.07526
1074.557	-4.01074
1074.911	40.09482
1075.265	54.12524
1075.618	54.13166
1075.971	39.09333
1076.325	5.01287
1076.678	56.13137
1077.031	55.12607
1077.385	-7.01579
1077.738	57.13139
1078.091	-36.08534
1078.444	7.01648
1078.796	-40.09978
1079.149	-25.06264
1079.502	-10.02421
1079.855	-19.0454
1080.207	41.10035
1080.56	17.0445
1080.912	13.03194
1081.264	-7.01708
1081.617	22.0547
1081.969	52.13257
1082.321	26.06441
1082.673	29.0681
1083.025	2.00476
1083.377	-250.56989
1083.728	5.01178
1084.08	38.09578
1084.432	43.1049
1084.783	20.04659
1085.135	15.03795
1085.486	36.08409
1085.838	12.0298
1086.189	-14.03453
1086.54	-12.02874
1086.891	43.10999
1087.242	-14.03443
1087.593	-67.16393
1087.944	21.04866
1088.295	18.0408
1088.646	-29.07138
1088.996	-4.00985
1089.347	21.05178
1089.698	39.09429
1090.048	1.0026
1090.398	-6.01407
1090.749	1.0024
1091.099	-21.05379
1091.449	-6.015
1091.799	45.11373
1092.149	-29.0735
1092.499	-29.07101
1092.849	-4.01026
1093.199	-4.00999
1093.548	35.08417
1093.898	18.04571
1094.248	-41.10598
1094.597	-16.04182
1094.947	-2.00536
1095.296	16.03995
1095.645	27.07001
1095.994	43.10447
1096.343	38.09561
1096.692	44.11696
1097.041	-1.00274
1097.39	-17.04301
1097.739	-23.05986
1098.088	32.08557
1098.437	-26.06941
1098.785	38.10289
1099.134	27.07162
1099.482	1.00275
1099.83	-28.07349
1100.179	-28.07411
1100.527	53.14129
1100.875	-13.03476
1101.223	-14.03724
1101.571	31.08617
1101.919	-5.01331
1102.267	8.02259
1102.615	10.03216
1102.962	1.00322
1103.31	6.01931
1103.658	6.0193
