Data from N2 R2  sample 3_Subt2__4__15-45-05-772.txt Node

Date: Wed Aug 27 15:45:05 PDT 2025
User: uwsun
Spectrometer: HDX01956
Trigger mode: 0
Integration Time (sec): 5.000000E-1
Scans to average: 1
Nonlinearity correction enabled: true
Boxcar width: 0
Storing dark spectrum: false
XAxis mode: Wavelengths
Number of Pixels in Spectrum: 2068
>>>>>Begin Spectral Data<<<<<
194.03	247.69478
194.578	265.83794
195.127	270.84142
195.676	272.84978
196.225	240.6343
196.773	264.72303
197.321	393.05072
197.87	539.31316
198.418	583.42521
198.966	543.35136
199.513	556.33166
200.061	574.39201
200.609	569.41408
201.156	566.18214
201.704	622.48819
202.251	580.44797
202.798	629.55024
203.345	596.38954
203.892	603.42486
204.438	592.33684
204.985	586.31844
205.532	620.52889
206.078	628.45274
206.624	658.52219
207.17	634.37933
207.716	609.41348
208.262	570.0615
208.808	623.45283
209.354	586.36085
209.899	624.46912
210.445	623.45397
210.99	641.4479
211.535	649.42425
212.08	627.37765
212.625	600.40874
213.17	601.41301
213.715	560.19905
214.259	603.3132
214.804	641.47961
215.348	654.39216
215.892	648.44261
216.436	637.36621
216.98	576.20518
217.524	567.26496
218.068	551.29785
218.612	656.53912
219.155	563.25189
219.698	548.22781
220.242	513.20402
220.785	553.21945
221.328	590.38093
221.871	521.22948
222.414	572.34346
222.956	540.23562
223.499	542.15845
224.041	569.26263
224.583	503.02409
225.126	544.14616
225.668	502.17336
226.21	510.21858
226.751	532.11789
227.293	497.08205
227.835	549.26052
228.376	569.24326
228.918	568.34389
229.459	546.29576
230	524.17059
230.541	568.24237
231.082	551.26966
231.622	605.32425
232.163	589.34545
232.704	536.26663
233.244	486.13457
233.784	537.23146
234.324	531.11358
234.864	564.20502
235.404	536.193
235.944	510.14255
236.484	511.19652
237.023	591.31531
237.563	564.23102
238.102	515.13411
238.641	531.2623
239.18	533.18852
239.719	592.3948
240.258	568.19733
240.797	586.32758
241.335	542.24765
241.874	615.11061
242.412	546.23485
242.95	557.27023
243.488	592.28022
244.026	493.08286
244.564	567.08914
245.102	610.29726
245.64	553.25806
246.177	548.1541
246.715	587.3064
247.252	568.21673
247.789	531.92298
248.326	610.38537
248.863	611.25398
249.4	540.14271
249.936	571.12269
250.473	606.3217
251.009	567.23575
251.546	608.27168
252.082	558.1386
252.618	634.32555
253.154	548.2429
253.69	585.24375
254.226	507.13046
254.761	614.28991
255.297	617.276
255.832	596.30644
256.367	628.38707
256.903	564.17275
257.438	550.20244
257.972	616.2964
258.507	614.33351
259.042	584.17015
259.576	602.22075
260.111	554.20304
260.645	555.12195
261.179	558.21944
261.713	574.20417
262.247	638.36335
262.781	562.10159
263.315	611.38456
263.849	562.32456
264.382	618.30973
264.915	697.5175
265.449	603.38851
265.982	626.31805
266.515	632.42958
267.048	642.23912
267.58	579.17162
268.113	612.24049
268.646	595.37769
269.178	674.40991
269.71	610.2167
270.243	654.37346
270.775	641.51472
271.307	606.34679
271.838	635.38005
272.37	646.46306
272.902	643.35478
273.433	624.27004
273.965	589.33682
274.496	633.44316
275.027	659.51576
275.558	667.49199
276.089	635.46633
276.62	634.48574
277.15	645.46936
277.681	670.33781
278.211	692.55399
278.741	665.3619
279.272	677.42525
279.802	691.58688
280.332	695.51442
280.861	664.47277
281.391	648.36323
281.921	629.38436
282.45	726.65767
282.98	679.62371
283.509	670.39411
284.038	627.32449
284.567	661.40189
285.096	672.48559
285.625	632.31495
286.153	662.43361
286.682	685.45601
287.21	674.48815
287.739	703.51893
288.267	678.51195
288.795	729.7433
289.323	682.46503
289.851	664.41592
290.378	752.5469
290.906	740.65098
291.433	704.59774
291.961	735.52919
292.488	669.5112
293.015	730.55949
293.542	715.66032
294.069	712.61068
294.596	723.61734
295.122	761.63804
295.649	701.39819
296.175	732.62035
296.702	715.57185
297.228	796.72112
297.754	757.531
298.28	765.57473
298.806	757.62176
299.332	830.65394
299.857	794.59896
300.383	793.77837
300.908	821.80727
301.433	779.6933
301.958	840.74283
302.483	803.8111
303.008	757.6538
303.533	844.95951
304.058	792.64753
304.582	820.75116
305.107	762.79901
305.631	806.62762
306.155	862.78533
306.679	877.8144
307.203	852.74811
307.727	815.74235
308.251	798.73499
308.775	787.67665
309.298	885.88149
309.822	820.83479
310.345	871.80198
310.868	906.8807
311.391	909.92417
311.914	925.0387
312.437	857.69398
312.96	917.87441
313.482	945.9343
314.005	968.11715
314.527	892.04541
315.049	955.07162
315.571	898.74574
316.093	905.94483
316.615	962.98108
317.137	944.75448
317.659	1026.06893
318.18	938.93508
318.702	1058.09176
319.223	928.63689
319.744	1001.9154
320.265	1021.0959
320.786	1078.2502
321.307	1059.2275
321.828	1009.90939
322.348	1068.07231
322.869	1110.19171
323.389	1300.6604
323.909	1024.98822
324.43	1124.19567
324.95	1151.15613
325.47	1139.31652
325.989	1184.25232
326.509	1210.16678
327.029	1186.17138
327.548	1176.13471
328.067	1209.37593
328.587	1176.33631
329.106	1299.36416
329.625	1263.63265
330.144	1170.15913
330.662	1290.36246
331.181	1282.3337
331.7	1263.31111
332.218	1338.21567
332.736	1297.33445
333.255	1395.48869
333.773	1320.40071
334.291	1346.5601
334.808	1367.29806
335.326	1452.43069
335.844	1426.51375
336.361	1506.85428
336.879	1500.62034
337.396	1437.59929
337.913	1639.73649
338.43	1579.52603
338.947	1607.7567
339.464	1611.46081
339.981	1632.75343
340.497	1609.84759
341.014	1621.84397
341.53	1585.54141
342.046	1660.86549
342.562	1639.87574
343.078	1676.75123
343.594	1723.8531
344.11	1709.77902
344.626	1769.05166
345.141	1760.65918
345.657	1731.56941
346.172	1871.99675
346.687	1781.74443
347.202	1892.77288
347.717	1874.91388
348.232	1896.15603
348.747	1875.80973
349.261	1866.6175
349.776	1956.95301
350.29	1975.16997
350.805	1989.18035
351.319	1945.87338
351.833	1989.85381
352.347	2036.9718
352.861	2072.99086
353.374	2161.89941
353.888	2013.96149
354.401	2084.93197
354.915	2191.96168
355.428	2150.24695
355.941	2170.97104
356.454	2262.79013
356.967	2203.01416
357.48	2168.86695
357.993	2199.19037
358.505	2279.24578
359.018	2397.29842
359.53	2346.09578
360.042	2388.81713
360.554	2337.10857
361.066	2416.27655
361.578	2365.72426
362.09	2367.1113
362.602	2395.73057
363.113	2421.9875
363.625	2474.83071
364.136	2567.77266
364.647	2539.00761
365.158	2643.0521
365.669	2582.19453
366.18	2568.04921
366.691	2617.75337
367.201	2580.09661
367.712	2616.96171
368.222	2674.87566
368.733	2748.65326
369.243	2754.76096
369.753	2733.87827
370.263	2967.1779
370.773	2938.37012
371.282	2932.05316
371.792	3073.88733
372.301	3161.16204
372.811	3037.53378
373.32	3212.49258
373.829	3240.84886
374.338	3409.51723
374.847	3400.66292
375.356	3606.69966
375.865	3744.05543
376.373	3823.27314
376.882	3869.89361
377.39	4014.51681
377.898	4126.62721
378.407	4392.94722
378.915	4515.44033
379.423	4624.83205
379.93	4744.48999
380.438	5016.7254
380.946	5213.30358
381.453	5485.33748
381.96	5547.09377
382.468	6104.83521
382.975	6547.89631
383.482	6739.67603
383.989	6911.15533
384.495	7068.785
385.002	7335.69868
385.509	7676.16534
386.015	8214.93064
386.521	8641.74827
387.028	8976.5984
387.534	9218.51744
388.04	9596.44729
388.546	9879.81129
389.051	10210.54122
389.557	11073.62318
390.063	12072.80746
390.568	12646.97941
391.073	12922.82769
391.578	13356.09495
392.084	13736.98966
392.589	14161.07096
393.093	15304.59498
393.598	16514.07266
394.103	18161.32136
394.607	20135.16338
395.112	21425.8599
395.616	22991.58469
396.12	24782.26114
396.624	27363.81346
397.128	29410.20178
397.632	32661.01252
398.136	35748.49894
398.639	37329.90692
399.143	41037.85083
399.646	46928.51138
400.15	51714.02149
400.653	56161.31222
401.156	56513.38119
401.659	56177.40201
402.162	53821.55638
402.664	47275.14456
403.167	32260.27245
403.67	3851.94142
404.172	0
404.674	0
405.176	0
405.678	0
406.18	0
406.682	0
407.184	0
407.686	12367.42319
408.187	34596.90747
408.688	44563.94194
409.19	48906.19284
409.691	51236.67962
410.192	52883.26968
410.693	53713.23343
411.194	54189.54801
411.694	54767.79104
412.195	55625.98899
412.696	55971.27715
413.196	55815.15953
413.696	55802.1488
414.196	55740.09561
414.696	56340.4775
415.196	57067.59327
415.696	58258.21704
416.196	59666.45207
416.695	47317.82583
417.195	39431.27463
417.694	37083.52423
418.194	35354.65361
418.693	32636.80493
419.192	31641.66105
419.691	31183.1566
420.19	30574.86457
420.688	29792.9578
421.187	28442.41625
421.685	26816.51475
422.184	24470.20424
422.682	21348.97795
423.18	18274.28434
423.678	15837.01228
424.176	14647.95836
424.674	13893.76253
425.172	13344.23624
425.669	12592.96295
426.167	11800.70968
426.664	10669.16102
427.161	9794.11748
427.659	9085.6671
428.156	8526.53728
428.652	8121.85755
429.149	7543.15112
429.646	7327.81548
430.143	6945.84857
430.639	6571.75942
431.135	6204.10246
431.632	5870.86981
432.128	5367.16194
432.624	5081.87044
433.12	4956.23157
433.616	4797.18046
434.111	4624.85628
434.607	4431.97902
435.103	4260.43516
435.598	4249.27561
436.093	4039.09487
436.588	3846.95958
437.083	3728.19679
437.578	3377.23458
438.073	3338.94638
438.568	3313.79361
439.062	3116.18344
439.557	3065.64354
440.051	2915.58955
440.546	2840.64302
441.04	2774.87442
441.534	2613.08057
442.028	2678.81696
442.522	2526.85583
443.015	2527.5104
443.509	2554.01674
444.002	2474.97146
444.496	2366.43862
444.989	2392.93295
445.482	2331.00642
445.975	2312.64382
446.468	2380.49882
446.961	2219.31768
447.454	2284.68121
447.947	2249.76678
448.439	2196.87107
448.931	2105.4939
449.424	2088.96875
449.916	2113.82773
450.408	2036.50025
450.9	2052.75372
451.392	1939.8952
451.884	1990.57022
452.375	1930.82445
452.867	1887.40366
453.358	1827.45543
453.849	1864.2798
454.341	1744.33331
454.832	1743.24774
455.323	1788.7116
455.814	1754.4422
456.304	1703.43227
456.795	1767.49558
457.285	1675.28991
457.776	1619.29196
458.266	1682.5623
458.756	1685.61581
459.247	1578.48828
459.737	1599.55544
460.226	1541.28536
460.716	1503.41965
461.206	1523.46857
461.695	1485.5731
462.185	1466.37877
462.674	1491.3077
463.163	1408.15852
463.653	1436.04304
464.142	1366.33419
464.63	1355.33684
465.119	1319.17505
465.608	1329.20489
466.096	1358.09951
466.585	1338.20961
467.073	1289.23536
467.561	1270.23177
468.05	1201.07222
468.538	1195.19721
469.026	1136.04314
469.513	1135.7796
470.001	1217.1288
470.489	1218.21456
470.976	1094.90955
471.463	1112.13747
471.951	1078.07394
472.438	1041.92222
472.925	1048.96069
473.412	963.88514
473.899	994.80741
474.385	988.94915
474.872	928.74859
475.359	967.9286
475.845	921.55748
476.331	909.61121
476.817	883.75846
477.303	855.6443
477.789	872.73693
478.275	844.74958
478.761	842.70816
479.247	807.49829
479.732	847.7757
480.218	817.77819
480.703	747.58104
481.188	760.36155
481.673	726.425
482.158	740.38083
482.643	720.58053
483.128	705.41073
483.612	698.41185
484.097	720.52285
484.581	627.26312
485.066	670.4312
485.55	578.13087
486.034	608.17226
486.518	580.1975
487.002	654.43614
487.486	588.28726
487.969	597.29682
488.453	595.32477
488.936	572.15664
489.42	601.18845
489.903	554.23974
490.386	545.80955
490.869	547.06531
491.352	504.0994
491.835	457.86815
492.318	536.10651
492.8	567.07762
493.283	459.06619
493.765	481.08609
494.247	501.06212
494.73	466.93899
495.212	404.89183
495.694	464.00045
496.175	422.93351
496.657	463.00235
497.139	410.66985
497.62	418.93083
498.102	407.95329
498.583	405.94898
499.064	366.75955
499.545	409.87093
500.026	446.93009
500.507	362.79446
500.988	428.98578
501.469	359.84846
501.949	352.80884
502.43	363.81858
502.91	354.69986
503.39	353.82717
503.87	368.81645
504.35	332.73506
504.83	317.66535
505.31	338.77233
505.79	362.82083
506.269	304.67336
506.749	295.6443
507.228	333.74173
507.707	349.72637
508.187	325.72991
508.666	261.60828
509.145	289.64614
509.623	321.723
510.102	306.704
510.581	275.62473
511.059	298.71617
511.538	286.69749
512.016	402.90743
512.494	338.78475
512.972	271.6114
513.45	255.57413
513.928	287.66913
514.406	269.63284
514.884	255.62896
515.361	229.52277
515.839	266.58527
516.316	257.59707
516.793	264.64024
517.27	300.68827
517.747	272.67298
518.224	220.48996
518.701	277.59346
519.178	246.5856
519.654	234.53386
520.131	196.46963
520.607	204.48638
521.083	201.44885
521.56	196.44753
522.036	220.469
522.512	180.42653
522.987	190.44099
523.463	235.54078
523.939	211.49466
524.414	214.48034
524.89	260.59795
525.365	188.41175
525.84	210.48586
526.315	202.47384
526.79	194.42291
527.265	234.5207
527.74	196.46067
528.215	274.63291
528.689	197.42499
529.164	158.34049
529.638	254.62569
530.112	177.40895
530.587	216.45707
531.061	231.54197
531.534	265.61979
532.008	198.46664
532.482	139.31092
532.956	161.39888
533.429	183.42802
533.903	165.35489
534.376	253.54626
534.849	168.37694
535.322	217.49697
535.795	168.39748
536.268	210.49145
536.741	164.38125
537.213	185.41517
537.686	155.36864
538.158	177.39232
538.631	147.34436
539.103	230.50543
539.575	166.33804
540.047	185.40098
540.519	186.42795
540.991	151.35678
541.463	169.39745
541.934	165.36618
542.406	195.44695
542.877	145.31751
543.348	161.36769
543.82	199.46854
544.291	211.46884
544.762	214.49177
545.233	221.53003
545.703	196.42238
546.174	291.64417
546.645	247.56998
547.115	274.63341
547.585	223.48788
548.056	276.63068
548.526	286.64062
548.996	318.71639
549.466	281.64533
549.935	334.74843
550.405	290.6056
550.875	369.81407
551.344	368.81849
551.814	374.80281
552.283	337.68172
552.752	405.86241
553.221	362.73749
553.69	437.87995
554.159	448.01001
554.628	493.00824
555.096	492.12609
555.565	515.05523
556.033	459.98375
556.502	463.02793
556.97	441.88555
557.438	419.90888
557.906	456.98807
558.374	501.04223
558.842	518.11997
559.31	446.92101
559.777	532.16205
560.245	490.02632
560.712	549.13009
561.18	560.11163
561.647	547.08654
562.114	642.31207
562.581	610.30907
563.048	671.35004
563.514	707.50934
563.981	724.42975
564.448	715.37268
564.914	752.47472
565.381	796.51414
565.847	828.61329
566.313	902.75186
566.779	967.78975
567.245	911.72867
567.711	999.94559
568.176	1005.79012
568.642	1042.08879
569.108	1130.17422
569.573	1171.09829
570.038	1173.86179
570.504	1220.07461
570.969	1254.33761
571.434	1260.02641
571.899	1353.36784
572.363	1404.26857
572.828	1459.29965
573.293	1488.41743
573.757	1528.41282
574.222	1599.42943
574.686	1578.41761
575.15	1633.65579
575.614	1642.53437
576.078	1627.55246
576.542	1653.47415
577.006	1625.42449
577.469	1591.61556
577.933	1650.463
578.396	1606.57756
578.86	1614.56443
579.323	1563.59595
579.786	1598.26392
580.249	1537.39889
580.712	1544.58997
581.175	1465.57818
581.637	1453.31103
582.1	1406.10256
582.563	1458.1382
583.025	1421.46936
583.487	1393.98137
583.95	1346.08443
584.412	1286.91556
584.874	1316.36098
585.336	1249.21237
585.797	1202.92058
586.259	1226.153
586.721	1131.04705
587.182	1126.98721
587.643	1096.87801
588.105	991.81787
588.566	979.57474
589.027	1004.90684
589.488	908.64153
589.949	949.83235
590.41	909.4139
590.87	874.56146
591.331	822.43816
591.791	820.55156
592.252	779.45913
592.712	766.49939
593.172	734.37368
593.632	723.28017
594.092	711.31253
594.552	667.18325
595.011	742.41947
595.471	686.28558
595.931	635.19247
596.39	681.3922
596.849	606.20759
597.308	534.97719
597.768	634.39801
598.227	604.23541
598.685	551.08279
599.144	611.2331
599.603	609.23412
600.062	617.12162
600.52	578.11378
600.978	583.19643
601.437	566.1131
601.895	538.97408
602.353	536.01685
602.811	623.18772
603.269	615.24516
603.727	589.2142
604.184	613.18843
604.642	529.11768
605.099	609.22568
605.557	555.16861
606.014	565.04878
606.471	574.246
606.928	559.03607
607.385	696.43672
607.842	730.40591
608.299	737.42859
608.755	610.24826
609.212	644.22694
609.668	618.16989
610.125	656.32557
610.581	613.21165
611.037	657.24781
611.493	590.18765
611.949	577.19103
612.405	658.14156
612.861	571.14222
613.316	622.2855
613.772	573.11763
614.227	504.02403
614.683	591.07916
615.138	573.16476
615.593	596.20691
616.048	631.23621
616.503	565.17509
616.958	527.14359
617.412	599.21991
617.867	566.10264
618.321	610.09792
618.776	519.00012
619.23	557.13115
619.684	585.15189
620.138	523.03636
620.592	500.05931
621.046	514.04249
621.5	494.06389
621.954	536.04756
622.407	487.95627
622.861	499.07767
623.314	477.95917
623.768	479.99159
624.221	444.78253
624.674	426.87892
625.127	452.93758
625.58	454.9043
626.033	426.82958
626.485	443.96216
626.938	385.8241
627.39	400.84751
627.843	369.77175
628.295	364.7618
628.747	383.83116
629.199	390.80501
629.651	363.76559
630.103	348.73638
630.555	363.71917
631.006	354.76152
631.458	352.77251
631.909	333.69924
632.361	350.75777
632.812	276.60191
633.263	315.62962
633.714	356.71504
634.165	308.68705
634.616	259.57716
635.067	248.51146
635.518	293.6513
635.968	236.44972
636.419	213.44036
636.869	220.48853
637.319	329.72918
637.769	200.42729
638.219	273.61364
638.669	250.56253
639.119	163.37601
639.569	223.51317
640.019	191.41893
640.468	221.47226
640.918	217.49038
641.367	195.42374
641.816	145.30972
642.265	163.36008
642.714	188.41574
643.163	165.3645
643.612	169.39466
644.061	122.2524
644.51	150.33296
644.958	147.31808
645.406	129.30042
645.855	194.46201
646.303	204.45828
646.751	144.32057
647.199	149.32668
647.647	152.3388
648.095	151.33706
648.543	213.42752
648.99	201.46495
649.438	113.25526
649.885	139.33008
650.333	161.30896
650.78	175.41075
651.227	177.41885
651.674	208.4617
652.121	168.3984
652.568	181.42865
653.015	207.50438
653.461	159.36736
653.908	149.33672
654.354	193.4468
654.801	198.45938
655.247	131.27958
655.693	121.30602
656.139	208.48982
656.585	200.46805
657.031	193.44591
657.477	222.47162
657.922	189.42868
658.368	179.43372
658.813	198.44754
659.259	154.36309
659.704	165.3785
660.149	180.41299
660.594	187.43463
661.039	168.37477
661.484	148.34623
661.929	182.41406
662.373	171.42536
662.818	167.40571
663.262	130.31007
663.707	183.45106
664.151	157.37311
664.595	182.43609
665.039	153.37254
665.483	198.49708
665.927	170.38879
666.371	145.33915
666.814	182.42743
667.258	171.40105
667.701	231.48571
668.145	189.45984
668.588	210.50375
669.031	166.3894
669.474	172.40789
669.917	221.47574
670.36	172.41966
670.803	234.5504
671.245	213.45004
671.688	169.40224
672.13	210.47214
672.573	188.46535
673.015	143.34023
673.457	213.46167
673.899	219.51723
674.341	172.40836
674.783	203.48056
675.225	238.57438
675.666	192.45952
676.108	164.34993
676.549	171.39776
676.991	190.41823
677.432	325.65111
677.873	185.42403
678.314	212.49672
678.755	254.60696
679.196	293.6621
679.637	232.55482
680.078	262.59893
680.518	190.4354
680.959	140.3297
681.399	238.57525
681.839	287.67728
682.28	237.57596
682.72	252.57237
683.16	258.62828
683.6	252.55842
684.039	233.47674
684.479	234.56281
684.919	269.61753
685.358	277.67618
685.798	280.71977
686.237	306.71299
686.676	226.50561
687.115	306.69584
687.554	276.64159
687.993	257.55775
688.432	243.54599
688.871	261.58354
689.309	311.72279
689.748	297.60824
690.186	261.609
690.625	333.7583
691.063	298.69955
691.501	322.77148
691.939	314.7649
692.377	343.81191
692.815	289.67564
693.253	298.68998
693.69	313.67
694.128	378.88487
694.565	322.7417
695.003	351.85133
695.44	320.73533
695.877	316.72061
696.314	354.733
696.751	401.8602
697.188	304.67308
697.625	369.79873
698.061	396.91356
698.498	360.83449
698.934	383.87953
699.371	374.84562
699.807	362.82316
700.243	363.83194
700.679	370.80141
701.115	329.73343
701.551	396.88148
701.987	416.8891
702.422	392.89208
702.858	373.85486
703.294	342.7335
703.729	366.8531
704.164	363.83128
704.599	402.84877
705.035	397.84868
705.47	354.81994
705.904	389.87397
706.339	419.91778
706.774	448.99555
707.209	409.90645
707.643	393.89743
708.078	395.90962
708.512	372.89191
708.946	369.8389
709.38	393.88984
709.814	461.00098
710.248	416.96617
710.682	415.94231
711.116	454.03897
711.549	435.06694
711.983	416.91678
712.416	416.93136
712.85	427.00811
713.283	382.85772
713.716	396.93279
714.149	413.92446
714.582	420.90076
715.015	381.90218
715.448	377.90716
715.881	310.64161
716.313	350.77426
716.746	395.88854
717.178	347.80484
717.61	383.9195
718.043	406.95597
718.475	334.77454
718.907	395.93496
719.339	397.86777
719.77	336.7693
720.202	355.86168
720.634	368.86282
721.065	321.74131
721.497	407.95143
721.928	328.78166
722.359	325.76842
722.79	371.85777
723.221	318.76654
723.652	274.67967
724.083	289.64214
724.514	283.62881
724.945	298.68094
725.375	313.71593
725.806	225.54127
726.236	255.62966
726.666	299.69216
727.096	304.72919
727.526	272.6752
727.956	276.62128
728.386	341.81185
728.816	286.71822
729.246	246.58718
729.675	202.48972
730.105	276.6633
730.534	248.57058
730.964	247.60722
731.393	226.54398
731.822	199.49446
732.251	258.64185
732.68	211.48459
733.109	224.55018
733.537	211.5049
733.966	224.5459
734.395	223.50866
734.823	213.47447
735.251	184.43987
735.68	208.51032
736.108	205.51326
736.536	204.48153
736.964	237.5419
737.392	160.39793
737.82	118.27919
738.247	224.53139
738.675	174.40593
739.102	203.50734
739.53	159.40126
739.957	141.35939
740.384	182.43974
740.811	129.32521
741.238	149.36063
741.665	143.33224
742.092	171.40465
742.519	171.4249
742.945	117.28179
743.372	143.35403
743.798	130.33386
744.225	157.3754
744.651	145.36227
745.077	125.31151
745.503	128.31487
745.929	136.32737
746.355	73.17748
746.781	118.29284
747.207	89.21167
747.632	136.33417
748.058	84.20907
748.483	155.35997
748.908	91.2276
749.334	122.30232
749.759	134.32023
750.184	96.23073
750.609	95.23253
751.033	85.1985
751.458	95.21381
751.883	92.22573
752.307	100.24016
752.732	122.31025
753.156	139.34489
753.58	70.16748
754.005	96.24301
754.429	79.18876
754.853	76.19184
755.277	51.12162
755.7	92.22873
756.124	86.21529
756.548	58.14104
756.971	98.24116
757.394	80.20675
757.818	78.20221
758.241	51.13109
758.664	100.25655
759.087	28.06478
759.51	27.06797
759.933	27.06584
760.356	30.07726
760.778	129.32334
761.201	98.24018
761.623	108.26292
762.046	76.17982
762.468	62.14986
762.89	35.08637
763.312	29.0714
763.734	40.09811
764.156	57.14298
764.578	63.1462
765	77.19106
765.421	125.32444
765.843	62.16338
766.264	51.12311
766.686	45.11345
767.107	49.12145
767.528	29.07512
767.949	19.04865
768.37	67.16734
768.791	44.10804
769.212	28.07251
769.632	9.02167
770.053	65.17241
770.473	45.11109
770.894	29.07264
771.314	12.02886
771.734	32.07668
772.154	60.15538
772.575	41.09616
772.994	-7.01644
773.414	53.12838
773.834	-2.00503
774.254	79.1968
774.673	53.13002
775.093	-11.02767
775.512	38.09612
775.931	56.14392
776.351	79.19752
776.77	49.12304
777.189	47.1138
777.607	6.01545
778.026	10.02521
778.445	-31.07916
778.864	18.04631
779.282	68.1666
779.701	13.03331
780.119	46.11793
780.537	26.06633
780.955	29.07447
781.373	20.05003
781.791	-15.0347
782.209	8.01855
782.627	27.0715
783.045	38.08914
783.462	-3.00775
783.88	42.11034
784.297	34.08729
784.715	27.07054
785.132	-1.00247
785.549	67.17006
785.966	12.03054
786.383	-32.08075
786.8	11.02574
787.217	17.04101
787.633	59.15033
788.05	15.03552
788.466	50.11908
788.883	9.02327
789.299	0
789.715	37.09197
790.131	24.0608
790.547	-4.01005
790.963	48.12055
791.379	4.01024
791.795	-6.01387
792.21	-9.02167
792.626	-13.03136
793.041	17.0427
793.457	8.02002
793.872	54.12757
794.287	43.1063
794.702	35.08643
795.117	28.07136
795.532	29.07371
795.947	46.11132
796.362	21.05006
796.776	14.03273
797.191	43.10743
797.605	-1.00243
798.02	47.11645
798.434	27.06094
798.848	5.0126
799.262	39.09864
799.676	74.17954
800.09	-6.01484
800.504	56.1374
800.918	-2.00476
801.331	10.02622
801.745	-28.0653
802.158	42.10628
802.572	19.04599
802.985	56.13623
803.398	50.12063
803.811	-4.01029
804.224	7.01756
804.637	29.07014
805.05	45.106
805.462	43.10759
805.875	22.05817
806.288	-19.04661
806.7	24.06101
807.112	31.07299
807.525	48.11869
807.937	12.03021
808.349	-13.03279
808.761	-15.03716
809.173	-3.00741
809.584	-11.02718
809.996	54.13445
810.408	25.0656
810.819	74.17752
811.231	60.15891
811.642	138.33721
812.053	127.30611
812.464	192.45232
812.875	143.36385
813.286	75.19198
813.697	33.07576
814.108	34.08308
814.519	17.03817
814.929	-14.03574
815.34	25.0611
815.75	10.02573
816.16	-1.00252
816.571	59.15424
816.981	15.03536
817.391	57.1389
817.801	8.02016
818.211	19.04552
818.62	-1.00247
819.03	48.11864
819.44	-14.03682
819.849	33.08412
820.259	9.02303
820.668	-16.0402
821.077	2.00509
821.486	33.08071
821.895	-32.07976
822.304	33.08753
822.713	15.03594
823.122	-3.00755
823.531	10.02385
823.939	23.05674
824.348	16.0393
824.756	30.07559
825.164	-15.03796
825.573	33.08373
825.981	10.02471
826.389	42.10624
826.797	71.18002
827.205	34.07998
827.612	22.05446
828.02	39.09347
828.428	0
828.835	10.02647
829.243	17.04081
829.65	5.01259
830.057	-18.04405
830.464	25.06126
830.871	13.03114
831.278	18.04394
831.685	44.0995
832.092	35.08659
832.499	25.05569
832.905	-2.00511
833.312	8.01851
833.718	34.08462
834.124	7.01611
834.531	38.09609
834.937	31.07971
835.343	-2.0049
835.749	32.07501
836.155	5.01326
836.561	-1.00247
836.966	42.10267
837.372	38.09759
837.777	40.10014
838.183	4.00909
838.588	25.06285
838.993	-21.05132
839.399	22.05514
839.804	3.00747
840.209	4.01034
840.613	-6.01366
841.018	30.07645
841.423	20.0516
841.828	-20.0512
842.232	14.03467
842.637	23.05485
843.041	15.03891
843.445	35.08852
843.849	34.08493
844.253	0
844.657	15.03838
845.061	8.01835
845.465	61.14959
845.869	16.03772
846.272	-9.02246
846.676	-6.01438
847.079	23.05939
847.483	9.02246
847.886	62.1502
848.289	20.05384
848.692	9.02285
849.095	13.0316
849.498	7.01764
849.901	27.06256
850.304	29.06924
850.707	3.00769
851.109	-24.06082
851.512	85.21052
851.914	49.12679
852.316	39.0992
852.718	22.05868
853.121	18.04496
853.523	87.20843
853.925	20.0529
854.326	3.00765
854.728	21.05451
855.13	-7.01828
855.531	51.12427
855.933	32.07747
856.334	4.01009
856.736	23.05346
857.137	16.03797
857.538	40.10223
857.939	13.03291
858.34	30.07361
858.741	43.11268
859.142	-9.02184
859.542	10.0266
859.943	51.12862
860.343	35.08849
860.744	13.03193
861.144	-3.00741
861.544	26.06431
861.945	29.07467
862.345	13.03203
862.745	13.03244
863.145	-20.04805
863.544	9.02299
863.944	42.10102
864.344	-12.02994
864.743	19.04709
865.143	41.10645
865.542	12.02845
865.941	-18.04503
866.34	-22.0531
866.74	0
867.139	-2.00486
867.537	25.06408
867.936	-33.08101
868.335	10.02557
868.734	27.0696
869.132	-11.026
869.531	-36.08695
869.929	-1.00236
870.327	54.13141
870.726	17.04229
871.124	-17.04001
871.522	-21.05394
871.92	32.07965
872.318	8.01961
872.715	1.00246
873.113	-16.03969
873.511	-32.07956
873.908	-41.10554
874.306	20.05056
874.703	38.09513
875.1	0
875.497	6.01457
875.894	14.03511
876.291	-43.10611
876.688	25.06489
877.085	23.05542
877.482	24.06058
877.878	19.04658
878.275	-14.03596
878.671	-19.04217
879.068	34.0824
879.464	50.12209
879.86	23.05546
880.256	44.10836
880.652	44.11328
881.048	49.12127
881.444	-42.10114
881.84	19.04886
882.236	43.10806
882.631	-9.0223
883.027	-25.06078
883.422	43.11111
883.817	25.06426
884.213	38.09821
884.608	66.16469
885.003	54.13244
885.398	-16.04082
885.793	-5.01274
886.188	12.03048
886.582	85.21628
886.977	34.08159
887.371	-11.0277
887.766	12.03027
888.16	15.03783
888.554	-23.05669
888.949	15.03768
889.343	47.115
889.737	-44.11998
890.131	30.07589
890.525	39.10084
890.918	0
891.312	18.04316
891.706	25.06562
892.099	44.11166
892.492	11.02391
892.886	34.08487
893.279	43.11103
893.672	21.05406
894.065	31.07782
894.458	-8.02021
894.851	-15.03672
895.244	20.05176
895.637	4.00973
896.029	66.16283
896.422	43.10541
896.814	44.11098
897.206	-25.06096
897.599	23.05667
897.991	11.02703
898.383	-34.08147
898.775	-4.00919
899.167	46.10934
899.559	-1.00253
899.951	36.08587
900.342	34.08695
900.734	14.03553
901.125	65.17155
901.517	-29.07201
901.908	21.05029
902.299	56.13953
902.69	32.07627
903.082	-1.00241
903.473	56.13603
903.863	23.05856
904.254	18.04206
904.645	-17.0422
905.036	20.04924
905.426	26.06004
905.817	-4.00999
906.207	-8.01958
906.597	-11.02625
906.987	-29.07504
907.378	4.01017
907.768	15.03996
908.158	-5.01235
908.547	63.16487
908.937	-4.01024
909.327	5.01222
909.717	9.02279
910.106	40.09782
910.495	-2.00501
910.885	45.1145
911.274	13.03286
911.663	-2.00509
912.052	0
912.441	29.07467
912.83	30.07021
913.219	-17.04462
913.608	-17.0416
913.997	23.05861
914.385	42.10133
914.774	35.08564
915.162	26.06313
915.55	9.02178
915.939	6.01532
916.327	-7.01738
916.715	44.11418
917.103	35.08615
917.491	35.08688
917.878	19.04738
918.266	4.01039
918.654	24.06153
919.041	-19.05016
919.429	-23.05487
919.816	-9.02307
920.203	-18.04434
920.591	-22.05498
920.978	20.0492
921.365	6.01586
921.752	10.02402
922.139	-1.0022
922.525	81.19863
922.912	0
923.299	42.10628
923.685	-29.0763
924.072	32.0741
924.458	15.03754
924.844	14.03538
925.231	-16.03809
925.617	77.19841
926.003	-2.00515
926.389	-12.03051
926.774	28.07133
927.16	26.065
927.546	-11.02849
927.931	32.08072
928.317	56.12941
928.702	13.0308
929.088	14.03408
929.473	5.01286
929.858	16.03981
930.243	5.01217
930.628	40.09894
931.013	19.04752
931.398	-7.01605
931.783	-17.04461
932.167	-14.03444
932.552	-34.08542
932.937	55.13592
933.321	23.05858
933.705	-28.07153
934.09	-23.05759
934.474	56.13347
934.858	-21.0546
935.242	-48.11366
935.626	18.04653
936.009	-8.02155
936.393	11.02799
936.777	-3.00768
937.16	11.02892
937.544	23.05394
937.927	-23.05908
938.311	23.05625
938.694	12.03156
939.077	37.08979
939.46	-8.01964
939.843	16.03368
940.226	45.1162
940.609	56.13091
940.991	16.04126
941.374	23.05657
941.757	19.04745
942.139	23.05206
942.522	-6.01422
942.904	-15.03636
943.286	15.03818
943.668	48.12508
944.05	6.01504
944.432	49.1226
944.814	80.19839
945.196	40.09978
945.578	37.09023
945.959	44.10378
946.341	-11.0269
946.722	19.0446
947.104	27.06456
947.485	51.12074
947.866	23.05877
948.247	12.03063
948.628	19.04666
949.009	-23.05996
949.39	16.03982
949.771	52.12136
950.152	27.06695
950.532	-13.03281
950.913	74.18035
951.293	21.0574
951.674	3.00733
952.054	12.02999
952.434	-8.02001
952.814	-44.10467
953.194	-27.07044
953.574	-12.02962
953.954	37.08874
954.334	33.08251
954.714	-10.02484
955.093	-11.02693
955.473	-25.0635
955.853	-57.14901
956.232	-31.08506
956.611	-5.01201
956.99	-12.03011
957.37	5.0128
957.749	-5.01206
958.128	10.02527
958.506	21.05494
958.885	1.00255
959.264	40.09963
959.643	-9.02101
960.021	-16.04
960.4	0
960.778	22.05378
961.156	8.02034
961.535	17.03993
961.913	41.09654
962.291	5.01306
962.669	-51.12949
963.047	7.01804
963.424	0
963.802	-6.01489
964.18	26.06561
964.557	100.2299
964.935	20.04738
965.312	19.05013
965.69	40.10032
966.067	-2.00492
966.444	3.00743
966.821	-22.05682
967.198	-23.05584
967.575	-18.04441
967.952	-38.08977
968.329	39.09514
968.705	62.1351
969.082	54.13999
969.458	-52.12801
969.835	-25.06101
970.211	7.01818
970.587	18.04496
970.963	22.05656
971.339	9.02367
971.715	10.02517
972.091	10.02489
972.467	-9.02261
972.843	59.14799
973.219	37.0882
973.594	-7.01856
973.97	47.11196
974.345	-3.00731
974.721	28.06799
975.096	4.00983
975.471	-27.06367
975.846	33.08008
976.221	25.06464
976.596	37.08976
976.971	-8.01975
977.346	50.11619
977.72	-36.09197
978.095	-36.09358
978.469	15.03592
978.844	17.04252
979.218	30.07339
979.593	34.08069
979.967	23.05671
980.341	54.12554
980.715	-17.0431
981.089	46.11586
981.463	-5.0117
981.837	-13.03239
982.21	-2.00458
982.584	41.09998
982.957	-22.05587
983.331	28.06643
983.704	6.01499
984.078	-33.08242
984.451	10.02456
984.824	38.09437
985.197	13.03182
985.57	40.10032
985.943	-20.04938
986.316	38.09317
986.688	-28.06842
987.061	13.03093
987.434	29.07535
987.806	-39.09535
988.179	17.04108
988.551	32.08149
988.923	-36.08908
989.295	26.06535
989.667	30.07372
990.039	27.06741
990.411	-18.04218
990.783	6.01374
991.155	14.03455
991.527	-29.07093
991.898	-7.01761
992.27	19.04775
992.641	12.0302
993.012	30.07104
993.384	23.05546
993.755	4.01029
994.126	12.02906
994.497	21.05247
994.868	19.0439
995.239	-5.01227
995.61	37.09418
995.98	21.05182
996.351	-27.0686
996.722	3.00711
997.092	-39.09422
997.462	-9.02175
997.833	-5.01186
998.203	9.02191
998.573	-16.0403
998.943	27.06427
999.313	-18.04335
999.683	1.00242
1000.053	15.03473
1000.423	20.04858
1000.792	70.18241
1001.162	28.06936
1001.531	12.02985
1001.901	8.02003
1002.27	52.11749
1002.639	-10.02582
1003.009	31.07438
1003.378	-7.01798
1003.747	2.00479
1004.116	19.04606
1004.485	-18.04323
1004.853	0
1005.222	42.10636
1005.591	56.13306
1005.959	43.1003
1006.328	4.00921
1006.696	-11.02677
1007.064	11.02804
1007.433	32.07941
1007.801	2.00488
1008.169	50.12715
1008.537	1.00222
1008.905	17.04025
1009.273	16.03979
1009.64	-20.04896
1010.008	12.02894
1010.375	-22.05252
1010.743	50.1155
1011.11	33.07903
1011.478	-18.04477
1011.845	34.08007
1012.212	21.04854
1012.579	25.0616
1012.946	4.00963
1013.313	-23.05483
1013.68	0
1014.047	32.07814
1014.414	10.02397
1014.78	6.01499
1015.147	15.03622
1015.513	-3.00732
1015.88	72.18219
1016.246	20.04947
1016.612	8.01854
1016.978	39.09631
1017.344	19.04718
1017.71	13.03126
1018.076	25.05896
1018.442	13.03349
1018.808	3.00759
1019.174	12.0305
1019.539	16.03656
1019.905	-16.03821
1020.27	-6.01504
1020.636	-26.06287
1021.001	46.11123
1021.366	2.00482
1021.731	35.09009
1022.096	-41.10458
1022.461	-8.01891
1022.826	32.07697
1023.191	35.09175
1023.556	38.08956
1023.92	9.0221
1024.285	2.0049
1024.649	-11.02709
1025.014	7.01734
1025.378	32.08121
1025.742	33.08233
1026.107	-8.01832
1026.471	22.05116
1026.835	-22.05478
1027.199	-29.07151
1027.562	64.1499
1027.926	-5.01225
1028.29	50.12819
1028.654	52.12055
1029.017	25.06128
1029.381	75.18228
1029.744	53.1359
1030.107	28.06568
1030.471	0
1030.834	27.06169
1031.197	35.08347
1031.56	3.00711
1031.923	23.05959
1032.286	-19.04453
1032.648	5.01212
1033.011	58.13558
1033.374	25.05843
1033.736	34.09038
1034.099	31.07658
1034.461	-13.03374
1034.823	11.02767
1035.185	10.02542
1035.548	-5.01234
1035.91	13.03165
1036.272	41.09417
1036.634	20.04865
1036.995	10.02351
1037.357	-4.00984
1037.719	-33.08092
1038.08	2.00473
1038.442	7.01677
1038.803	61.14731
1039.165	-20.05084
1039.526	10.02425
1039.887	19.04592
1040.248	22.05543
1040.609	13.03208
1040.97	48.11908
1041.331	28.07065
1041.692	-10.02388
1042.053	-12.02761
1042.413	-19.04468
1042.774	55.13317
1043.134	15.03551
1043.495	14.03528
1043.855	17.04136
1044.215	-17.04229
1044.576	8.01953
1044.936	1.00228
1045.296	48.11921
1045.656	31.0763
1046.016	22.05338
1046.375	13.03216
1046.735	-3.007
1047.095	56.13178
1047.454	-25.0534
1047.814	-38.09171
1048.173	-13.03099
1048.533	32.07401
1048.892	-30.07429
1049.251	-50.12693
1049.61	-35.08789
1049.969	-30.07128
1050.328	55.11957
1050.687	48.11734
1051.046	29.07067
1051.405	19.04752
1051.763	1.00234
1052.122	33.08367
1052.48	-11.02709
1052.839	-41.09856
1053.197	-27.06397
1053.555	-13.02928
1053.914	32.07863
1054.272	2.00483
1054.63	23.05719
1054.988	-19.04573
1055.345	-25.05534
1055.703	-2.00481
1056.061	3.00777
1056.419	-17.0445
1056.776	1.00242
1057.134	53.12358
1057.491	2.00503
1057.848	-14.03523
1058.206	17.04042
1058.563	9.02025
1058.92	26.06009
1059.277	-25.06185
1059.634	8.0191
1059.991	-33.07897
1060.348	15.03492
1060.704	-20.04858
1061.061	-19.04341
1061.418	12.02957
1061.774	20.0498
1062.131	-24.06414
1062.487	7.01648
1062.843	14.03515
1063.199	4.00997
1063.555	-4.00938
1063.911	15.03829
1064.267	17.03565
1064.623	-3.00741
1064.979	2.00468
1065.335	-55.13131
1065.691	25.05937
1066.046	-21.04659
1066.402	-3.00698
1066.757	-70.17846
1067.112	-21.05127
1067.468	-9.02168
1067.823	13.03154
1068.178	19.04599
1068.533	-2.00486
1068.888	48.11519
1069.243	7.01742
1069.598	6.01479
1069.952	-11.0256
1070.307	20.05027
1070.662	-11.02672
1071.016	13.02987
1071.371	-36.08359
1071.725	45.10719
1072.079	-38.09196
1072.434	-28.06931
1072.788	14.03411
1073.142	30.07372
1073.496	61.14836
1073.85	0
1074.203	-26.06306
1074.557	16.04282
1074.911	10.02384
1075.265	8.01872
1075.618	38.09293
1075.971	-3.00724
1076.325	18.04624
1076.678	15.03547
1077.031	31.0714
1077.385	29.06492
1077.738	76.17452
1078.091	-7.0165
1078.444	23.05397
1078.796	20.04934
1079.149	3.00748
1079.502	2.00483
1079.855	3.00714
1080.207	4.00986
1080.56	-5.01314
1080.912	2.00492
1081.264	3.0073
1081.617	45.11141
1081.969	49.12499
1082.321	49.12087
1082.673	47.10998
1083.025	-29.06942
1083.377	31.06665
1083.728	1.00236
1084.08	35.08827
1084.432	44.10732
1084.783	0
1085.135	5.01267
1085.486	23.05386
1085.838	31.07672
1086.189	-11.02711
1086.54	-20.04798
1086.891	53.13533
1087.242	-10.02457
1087.593	-21.05094
1087.944	9.0209
1088.295	16.03628
1088.646	37.08996
1088.996	-34.08422
1089.347	-10.0248
1089.698	6.0146
1090.048	10.02598
1090.398	0
1090.749	9.02159
1091.099	0
1091.449	19.04728
1091.799	57.14375
1092.149	19.04775
1092.499	-10.0244
1092.849	9.02303
1093.199	-4.00999
1093.548	0
1093.898	26.06593
1094.248	-13.03344
1094.597	4.01042
1094.947	-15.04032
1095.296	1.0025
1095.645	-14.03656
1095.994	6.01468
1096.343	-2.00507
1096.692	8.02139
1097.041	18.04923
1097.39	14.03523
1097.739	-4.01038
1098.088	46.12273
1098.437	-30.08015
1098.785	10.0272
1099.134	21.05576
1099.482	-6.01653
1099.83	-20.05242
1100.179	27.0708
1100.527	1.00269
1100.875	-30.08044
1101.223	6.01591
1101.571	32.08893
1101.919	-15.03999
1102.267	-7.01981
1102.615	2.00644
1102.962	1.00322
1103.31	8.02575
1103.658	4.01287
