Data from N2 R2  sample 11_Subt2__4__15-12-13-818.txt Node

Date: Wed Aug 27 15:12:13 PDT 2025
User: uwsun
Spectrometer: HDX01956
Trigger mode: 0
Integration Time (sec): 5.000000E-1
Scans to average: 1
Nonlinearity correction enabled: true
Boxcar width: 0
Storing dark spectrum: false
XAxis mode: Wavelengths
Number of Pixels in Spectrum: 2068
>>>>>Begin Spectral Data<<<<<
194.03	202.57213
194.578	191.60945
195.127	211.66249
195.676	209.65817
196.225	187.49863
196.773	219.60411
197.321	333.90129
197.87	452.11872
198.418	492.22275
198.966	453.14545
199.513	457.11479
200.061	478.17972
200.609	441.12098
201.156	400.86749
201.704	512.25032
202.251	443.13281
202.798	497.25419
203.345	481.14635
203.892	492.18714
204.438	499.14785
204.985	437.0126
205.532	477.20665
206.078	494.17266
206.624	503.19886
207.17	490.09812
207.716	518.22357
208.262	430.8298
208.808	431.04227
209.354	510.20186
209.899	517.24215
210.445	480.15117
210.99	460.07672
211.535	519.16965
212.08	516.1598
212.625	488.17038
213.17	455.09959
213.715	451.98994
214.259	454.01939
214.804	482.1472
215.348	530.15817
215.892	518.18379
216.436	471.04572
216.98	462.99253
217.524	400.92462
218.068	496.18057
218.612	526.26499
219.155	478.08128
219.698	416.95892
220.242	401.96343
220.785	452.01738
221.328	482.15159
221.871	399.96553
222.414	449.07936
222.956	438.02233
223.499	421.92488
224.041	443.00827
224.583	402.83872
225.126	473.01182
225.668	459.08171
226.21	423.02711
226.751	403.87232
227.293	434.95924
227.835	413.97566
228.376	445.99934
228.918	444.07518
229.459	471.13362
230	366.84571
230.541	483.07508
231.082	431.01639
231.622	471.05958
232.163	454.06472
232.704	417.0076
233.244	364.87174
233.784	433.01321
234.324	438.93895
234.864	411.90861
235.404	441.00047
235.944	420.96003
236.484	427.01589
237.023	474.08004
237.563	449.0034
238.102	404.91195
238.641	430.04161
239.18	402.92222
239.719	475.14412
240.258	455.98443
240.797	485.12092
241.335	430.01148
241.874	393.75093
242.412	405.94379
242.95	470.09029
243.488	482.06642
244.026	459.01523
244.564	408.81494
245.102	489.06685
245.64	469.08474
246.177	418.9069
246.715	498.12843
247.252	447.98405
247.789	444.78949
248.326	497.15416
248.863	486.02511
249.4	480.02882
249.936	497.9957
250.473	450.01329
251.009	487.07907
251.546	530.12738
252.082	395.8371
252.618	469.01579
253.154	485.11382
253.69	491.06489
254.226	402.91742
254.761	471.02013
255.297	476.01496
255.832	418.952
256.367	516.16596
256.903	477.01071
257.438	443.992
257.972	521.11902
258.507	489.08981
259.042	446.92349
259.576	500.03714
260.111	458.01449
260.645	466.96274
261.179	514.13356
261.713	485.03709
262.247	485.07017
262.781	458.92118
263.315	470.09501
263.849	466.11839
264.382	462.01189
264.915	518.17001
265.449	545.26927
265.982	508.09691
266.515	535.23372
267.048	479.96186
267.58	454.94636
268.113	510.05745
268.646	533.24908
269.178	485.05632
269.71	478.98398
270.243	459.00467
270.775	513.24184
271.307	479.09211
271.838	506.12939
272.37	512.19068
272.902	511.1074
273.433	495.03658
273.965	524.20472
274.496	526.22473
275.027	538.26695
275.558	549.2575
276.089	555.30171
276.62	484.16693
277.15	524.22246
277.681	535.10123
278.211	530.22921
278.741	516.09184
279.272	544.17828
279.802	564.32773
280.332	570.27454
280.861	535.21804
281.391	532.14734
281.921	495.11957
282.45	554.30821
282.98	547.34059
283.509	548.17079
284.038	558.1963
284.567	516.12848
285.096	562.27057
285.625	509.08757
286.153	525.16969
286.682	564.22998
287.21	548.24139
287.739	540.20688
288.267	577.31325
288.795	556.37297
289.323	564.24192
289.851	547.19562
290.378	576.23123
290.906	647.47096
291.433	577.34283
291.961	605.2947
292.488	599.37216
293.015	548.21622
293.542	593.40985
294.069	596.37974
294.596	612.40001
295.122	573.28258
295.649	542.12042
296.175	624.41204
296.702	594.33864
297.228	620.39047
297.754	610.27474
298.28	624.32477
298.806	569.26786
299.332	663.37188
299.857	626.3088
300.383	583.3632
300.908	664.50933
301.433	596.34534
301.958	646.39773
302.483	640.49105
303.008	603.35977
303.533	653.57278
304.058	639.37403
304.582	655.44827
305.107	643.55276
305.631	697.44232
306.155	684.47248
306.679	681.47009
307.203	650.39382
307.727	731.59091
308.251	614.38658
308.775	677.47641
309.298	744.62983
309.822	706.6165
310.345	665.43858
310.868	705.52844
311.391	632.41798
311.914	744.70287
312.437	652.34999
312.96	687.47673
313.482	712.53347
314.005	697.61214
314.527	756.78209
315.049	766.72939
315.571	753.51387
316.093	724.61593
316.615	782.67499
317.137	757.47161
317.659	772.64787
318.18	823.74127
318.702	818.70845
319.223	837.51098
319.744	818.63377
320.265	765.66144
320.786	820.80997
321.307	848.86711
321.828	829.63703
322.348	812.67196
322.869	922.9012
323.389	851.25269
323.909	900.79857
324.43	868.79857
324.95	813.64965
325.47	910.94763
325.989	903.83495
326.509	972.84686
327.029	999.91525
327.548	948.82038
328.067	994.0509
328.587	866.84466
329.106	1030.00031
329.625	993.19233
330.144	905.78063
330.662	1023.99898
331.181	1002.95282
331.7	1001.95225
332.218	1053.87971
332.736	1065.02881
333.255	1088.09222
333.773	1063.05722
334.291	1043.12771
334.808	1083.96021
335.326	1118.03931
335.844	1157.18013
336.361	1212.45908
336.879	1198.25596
337.396	1229.33871
337.913	1268.32783
338.43	1174.09027
338.947	1248.34238
339.464	1253.11221
339.981	1292.37676
340.497	1314.50028
341.014	1326.50255
341.53	1328.28098
342.046	1356.52587
342.562	1335.52508
343.078	1368.43346
343.594	1379.49522
344.11	1387.45414
344.626	1364.60191
345.141	1370.305
345.657	1402.28304
346.172	1452.59547
346.687	1472.46839
347.202	1484.43901
347.717	1463.54008
348.232	1608.88301
348.747	1538.53122
349.261	1554.38879
349.776	1602.66629
350.29	1620.85468
350.805	1691.92625
351.319	1612.61481
351.833	1705.65483
352.347	1668.70049
352.861	1609.64539
353.374	1610.53923
353.888	1570.61263
354.401	1663.64083
354.915	1745.68982
355.428	1729.9285
355.941	1780.73256
356.454	1738.52374
356.967	1747.73036
357.48	1728.60711
357.993	1817.93529
358.505	1815.94665
359.018	1899.01427
359.53	1891.85754
360.042	1878.60832
360.554	1885.86673
361.066	1916.00322
361.578	1868.53046
362.09	1913.87944
362.602	1868.53046
363.113	1902.75592
363.625	1908.62247
364.136	1999.61238
364.647	2011.81556
365.158	2083.87695
365.669	2037.97777
366.18	2070.8775
366.691	2074.62657
367.201	2120.94133
367.712	2135.82848
368.222	2112.74157
368.733	2168.57604
369.243	2182.67108
369.753	2229.78678
370.263	2347.08206
370.773	2360.24894
371.282	2302.96111
371.792	2372.85526
372.301	2494.12683
372.811	2434.41508
373.32	2544.57285
373.829	2532.88192
374.338	2729.64952
374.847	2736.77435
375.356	2786.86767
375.865	2978.33222
376.373	3026.55061
376.882	3082.112
377.39	3206.81442
377.898	3302.94235
378.407	3512.3823
378.915	3505.97319
379.423	3717.31163
379.93	3798.00915
380.438	3977.2981
380.946	4179.87312
381.453	4364.93888
381.96	4497.63485
382.468	4859.32911
382.975	5171.2764
383.482	5307.87985
383.989	5484.4074
384.495	5519.7753
385.002	5851.17461
385.509	6206.46045
386.015	6525.98974
386.521	6838.31058
387.028	7133.48524
387.534	7207.45192
388.04	7561.9185
388.546	7809.21413
389.051	8217.99249
389.557	8765.20072
390.063	9553.9952
390.568	10015.35409
391.073	10254.16209
391.578	10581.54325
392.084	11060.95685
392.589	11168.69097
393.093	12129.85304
393.598	13147.2702
394.103	14326.9444
394.607	15871.28859
395.112	17083.99248
395.616	18038.44174
396.12	19371.51257
396.624	21791.88565
397.128	23594.06343
397.632	26125.75106
398.136	28442.27334
398.639	30055.0713
399.143	32915.08574
399.646	37037.79873
400.15	40950.52161
400.653	44840.8113
401.156	49692.37826
401.659	54833.84385
402.162	53548.96437
402.664	47275.14456
403.167	32260.27245
403.67	3851.94142
404.172	0
404.674	0
405.176	0
405.678	0
406.18	0
406.682	0
407.184	0
407.686	12367.42319
408.187	34596.90747
408.688	44563.94194
409.19	48906.19284
409.691	51236.67962
410.192	52883.26968
410.693	53713.23343
411.194	54189.54801
411.694	54767.79104
412.195	55625.98899
412.696	55971.27715
413.196	55815.15953
413.696	55802.1488
414.196	55740.09561
414.696	56340.4775
415.196	57067.59327
415.696	58192.58629
416.196	48745.99169
416.695	37863.347
417.195	31490.449
417.694	29411.51904
418.194	28393.01668
418.693	26207.23883
419.192	25453.89266
419.691	24717.8457
420.19	24042.62051
420.688	23539.71055
421.187	22633.47991
421.685	21129.27439
422.184	19131.37908
422.682	16861.31872
423.18	14512.20786
423.678	12716.99662
424.176	11749.25434
424.674	10946.87374
425.172	10539.96411
425.669	10027.15042
426.167	9313.6929
426.664	8477.43401
427.161	7791.2105
427.659	7080.7052
428.156	6793.2081
428.652	6322.90125
429.149	6071.71523
429.646	5720.47092
430.143	5534.94528
430.639	5175.09502
431.135	4850.6669
431.632	4658.42034
432.128	4309.73088
432.624	4111.40823
433.12	3981.7738
433.616	3731.76792
434.111	3746.32174
434.607	3521.42902
435.103	3457.85208
435.598	3369.73359
436.093	3117.46766
436.588	3040.27705
437.083	2874.46952
437.578	2688.39419
438.073	2631.99827
438.568	2540.85155
439.062	2477.28008
439.557	2327.64139
440.051	2332.57646
440.546	2284.60454
441.04	2139.74918
441.534	2123.92436
442.028	2086.68167
442.522	2018.69467
443.015	2088.42973
443.509	2004.81694
444.002	1935.75273
444.496	1874.29719
444.989	1909.72174
445.482	1803.72585
445.975	1848.46252
446.468	1764.28843
446.961	1745.15385
447.454	1747.43765
447.947	1666.4561
448.439	1675.55973
448.931	1591.22507
449.424	1646.65419
449.916	1639.52456
450.408	1552.22122
450.9	1466.3365
451.392	1500.52788
451.884	1524.27005
452.375	1454.43011
452.867	1411.08302
453.358	1457.18936
453.849	1399.98627
454.341	1359.04317
454.832	1448.04876
455.323	1413.37587
455.814	1370.13545
456.304	1285.06979
456.795	1379.18
457.285	1308.99669
457.776	1316.03642
458.266	1254.14755
458.756	1273.20865
459.247	1269.1751
459.737	1265.20969
460.226	1183.94207
460.716	1159.04386
461.206	1134.03538
461.695	1098.09436
462.185	1138.01344
462.674	1153.95869
463.163	1099.83657
463.653	1102.73008
464.142	1068.96974
464.63	1038.94004
465.119	959.73791
465.608	1058.88527
466.096	1039.75488
466.585	1033.84865
467.073	1011.88158
467.561	944.79965
468.05	978.78724
468.538	919.80652
469.026	915.7388
469.513	841.4295
470.001	948.77501
470.489	940.82924
470.976	873.61143
471.463	844.72701
471.951	811.66054
472.438	790.54935
472.925	811.60518
473.412	795.61748
473.899	788.50689
474.385	796.64045
474.872	712.41194
475.359	753.5757
475.845	754.33207
476.331	748.38063
476.817	671.40146
477.303	708.40923
477.789	680.41432
478.275	603.31653
478.761	673.41744
479.247	615.19572
479.732	602.32958
480.218	588.34128
480.703	576.26414
481.188	519.98836
481.673	576.17007
482.158	584.1313
482.643	572.29425
483.128	599.22766
483.612	525.1034
484.097	573.25042
484.581	504.04359
485.066	529.16401
485.55	475.95339
486.034	495.98161
486.518	447.95183
487.002	512.15738
487.486	447.00713
487.969	408.92323
488.453	467.06685
488.936	477.98701
489.42	482.98106
489.903	391.90579
490.386	425.65425
490.869	417.83852
491.352	357.8044
491.835	381.73717
492.318	438.92558
492.8	455.88964
493.283	413.96999
493.765	401.92196
494.247	414.89593
494.73	298.62368
495.212	358.7979
495.694	352.77869
496.175	306.69331
496.657	334.74442
497.139	303.50985
497.62	284.65
498.102	357.84439
498.583	299.71516
499.064	216.46328
499.545	247.54449
500.026	288.62169
500.507	296.65865
500.988	330.77495
501.469	307.73289
501.949	261.61067
502.43	217.50395
502.91	275.55375
503.39	250.59763
503.87	290.65386
504.35	266.59705
504.83	218.46757
505.31	238.55479
505.79	255.59079
506.269	277.61701
506.749	257.56582
507.228	196.44897
507.707	222.47512
508.187	221.50694
508.666	225.5281
509.145	196.44663
509.623	257.58644
510.102	212.49691
510.581	195.45018
511.059	249.60399
511.538	227.55971
512.016	229.53518
512.494	295.69075
512.972	144.3333
513.45	161.36947
513.928	240.56473
514.406	225.53387
514.884	239.59124
515.361	152.35238
515.839	242.53515
516.316	225.52604
516.793	179.44104
517.27	161.37967
517.747	208.52068
518.224	166.37383
518.701	171.37475
519.178	144.34951
519.654	171.39509
520.131	189.45347
520.607	151.36368
521.083	186.41664
521.56	119.27593
522.036	155.3351
522.512	123.29467
522.987	190.44099
523.463	156.36466
523.939	160.37885
524.414	162.36751
524.89	185.43185
525.365	114.25358
525.84	135.317
526.315	162.38299
526.79	120.2657
527.265	191.42881
527.74	162.38328
528.215	231.53816
528.689	111.24388
529.164	140.30287
529.638	187.46634
530.112	124.28952
530.587	175.37364
531.061	120.28765
531.534	206.48738
532.008	151.35913
532.482	123.27604
532.956	102.25544
533.429	113.26793
533.903	91.19884
534.376	154.33956
534.849	120.2719
535.322	122.28474
535.795	106.2538
536.268	140.33213
536.741	115.26993
537.213	109.24844
537.686	82.19776
538.158	119.26695
538.631	116.27339
539.103	148.33084
539.575	131.26889
540.047	121.26585
540.519	127.29565
540.991	90.21516
541.463	169.39745
541.934	129.28843
542.406	90.21063
542.877	89.19719
543.348	74.17196
543.82	115.27519
544.291	125.28271
544.762	135.31514
545.233	133.32432
545.703	138.30109
546.174	141.32189
546.645	149.35055
547.115	188.44204
547.585	123.27479
548.056	170.39676
548.526	176.40316
548.996	153.35631
549.466	175.41043
549.935	188.43393
550.405	166.35619
550.875	197.45027
551.344	199.45813
551.814	204.45395
552.283	194.40531
552.752	160.35885
553.221	196.41439
553.69	196.41657
554.159	254.59651
554.628	254.54853
555.096	242.58271
555.565	259.56233
556.033	224.50444
556.502	209.4894
556.97	142.30483
557.438	160.36622
557.906	162.37303
558.374	126.28445
558.842	162.37749
559.31	130.28748
559.777	117.27837
560.245	85.19428
560.712	111.25136
561.18	119.26091
561.647	114.24968
562.114	187.42207
562.581	79.18912
563.048	131.29665
563.514	108.26066
563.981	114.25757
564.448	103.22716
564.914	81.18417
565.381	132.29191
565.847	128.29109
566.313	134.30807
566.779	182.40315
567.245	82.18716
567.711	156.3648
568.176	110.24153
568.642	134.32512
569.108	132.31509
569.573	123.28012
570.038	163.33427
570.504	147.32284
570.969	128.3053
571.434	146.30963
571.899	189.43233
572.363	174.37948
572.828	191.41204
573.293	224.4939
573.757	235.51022
574.222	245.52354
574.686	246.52648
575.15	241.54572
575.614	264.57355
576.078	241.53082
576.542	221.47492
577.006	236.50136
577.469	230.52177
577.933	237.50623
578.396	266.59018
578.86	285.62615
579.323	280.63002
579.786	244.49529
580.249	197.42827
580.712	247.56158
581.175	230.53572
581.637	232.49888
582.1	168.34616
582.563	254.51158
583.025	245.55861
583.487	258.49954
583.95	230.47369
584.412	198.3931
584.874	227.52154
585.336	192.43398
585.797	217.44481
586.259	204.4547
586.721	200.44837
587.182	193.42386
587.643	122.26393
588.105	132.29471
588.566	190.37457
589.027	144.33092
589.488	124.26929
589.949	169.38752
590.41	144.27454
590.87	106.22716
591.331	171.35084
591.791	154.33913
592.252	97.21249
592.712	123.27762
593.172	135.29036
593.632	77.15948
594.092	84.17962
594.552	130.26316
595.011	119.26222
595.471	162.34326
595.931	89.18986
596.39	168.38375
596.849	151.33316
597.308	36.07418
597.768	123.3005
598.227	134.30362
598.685	154.33144
599.144	187.41465
599.603	166.37092
600.062	159.32312
600.52	98.21092
600.978	190.42508
601.437	154.33273
601.895	148.29465
602.353	142.29575
602.811	238.49679
603.269	172.38401
603.727	216.48324
604.184	220.46717
604.642	176.40122
605.099	233.51019
605.557	224.50671
606.014	226.4556
606.471	233.54324
606.928	244.4885
607.385	253.57475
607.842	339.71498
608.299	381.80214
608.755	349.75738
609.212	377.76578
609.668	334.67704
610.125	353.76378
610.581	349.73348
611.037	317.65272
611.493	344.73269
611.949	294.64633
612.405	320.60565
612.861	293.62475
613.316	386.84106
613.772	277.57909
614.227	301.64097
614.683	354.68608
615.138	357.76252
615.593	337.72386
616.048	398.82374
616.503	349.7619
616.958	333.7537
617.412	404.86047
617.867	384.7816
618.321	422.79716
618.776	348.69929
619.23	324.69399
619.684	412.84546
620.138	348.71897
620.592	298.66035
621.046	283.60526
621.5	361.80109
621.954	314.64698
622.407	313.63984
622.861	292.65971
623.314	331.68799
623.768	283.61155
624.221	260.48029
624.674	294.62457
625.127	277.59705
625.58	260.54126
626.033	294.59051
626.485	228.51786
626.938	266.58404
627.39	257.56155
627.843	194.42148
628.295	198.42962
628.747	247.55156
629.199	213.45714
629.651	202.4411
630.103	223.48479
630.555	215.44071
631.006	200.44449
631.458	219.49409
631.909	260.55475
632.361	176.39522
632.812	179.3984
633.263	205.42021
633.714	219.45378
634.165	121.28035
634.616	158.35946
635.067	169.35472
635.518	156.35663
635.968	202.38811
636.419	149.31247
636.869	148.33357
637.319	246.55466
637.769	125.2714
638.219	175.40127
638.669	119.27495
639.119	130.30186
639.569	126.29557
640.019	112.24975
640.468	144.31285
640.918	147.33694
641.367	157.34393
641.816	108.23254
642.265	130.28917
642.714	137.30619
643.163	109.24361
643.612	102.24133
644.061	40.08427
644.51	149.33081
644.958	97.21213
645.406	125.29134
645.855	160.38353
646.303	145.32968
646.751	64.14484
647.199	127.27974
647.647	82.18542
648.095	153.34138
648.543	152.30939
648.99	154.35956
649.438	114.25747
649.885	72.17318
650.333	153.29418
650.78	125.29626
651.227	128.30577
651.674	155.34785
652.121	137.32683
652.568	170.40346
653.015	158.38851
653.461	98.22917
653.908	95.21705
654.354	138.32296
654.801	180.4191
655.247	83.17898
655.693	115.29116
656.139	149.35491
656.585	155.36594
657.031	154.35857
657.477	148.31949
657.922	136.31179
658.368	155.37726
658.813	98.22602
659.259	132.31255
659.704	108.25058
660.149	134.31028
660.594	123.2895
661.039	114.25715
661.484	106.25002
661.929	95.21993
662.373	124.31109
662.818	139.33946
663.262	153.36332
663.707	92.23056
664.151	97.23318
664.595	134.32402
665.039	108.26518
665.483	143.36256
665.927	80.18627
666.371	106.24982
666.814	131.31072
667.258	94.22378
667.701	131.28152
668.145	119.29332
668.588	85.20875
669.031	119.28172
669.474	83.20021
669.917	53.11821
670.36	106.26181
670.803	176.41866
671.245	143.30678
671.688	107.25771
672.13	158.35902
672.573	95.23915
673.015	117.27976
673.457	99.2198
673.899	130.31233
674.341	108.25957
674.783	119.28628
675.225	108.26704
675.666	107.26024
676.108	34.07459
676.549	99.23355
676.991	98.21989
677.432	142.29654
677.873	116.26956
678.314	94.22533
678.755	134.32756
679.196	118.27616
679.637	123.30028
680.078	131.30736
680.518	107.24929
680.959	101.23966
681.399	112.27714
681.839	81.19878
682.28	101.2517
682.72	163.37691
683.16	96.24085
683.6	107.24427
684.039	110.23135
684.479	136.33319
684.919	108.25592
685.358	74.18746
685.798	150.39433
686.237	102.2472
686.676	53.1228
687.115	111.26237
687.554	113.27113
687.993	81.18238
688.432	107.24712
688.871	127.2918
689.309	125.30117
689.748	100.21393
690.186	102.24543
690.625	86.2056
691.063	128.31044
691.501	108.26929
691.939	116.29301
692.377	153.37546
692.815	66.16104
693.253	95.22881
693.69	93.20854
694.128	133.32626
694.565	110.26408
695.003	125.31602
695.44	119.28444
695.877	109.25894
696.314	112.24447
696.751	93.21274
697.188	92.21269
697.625	119.27134
698.061	97.23707
698.498	115.27949
698.934	108.26164
699.371	80.19169
699.807	97.23238
700.243	79.19135
700.679	132.30043
701.115	80.18752
701.551	56.13342
701.987	119.27068
702.422	117.28104
702.858	87.21081
703.294	71.16117
703.729	94.23081
704.164	76.18405
704.599	81.18305
705.035	106.24087
705.47	88.21455
705.904	117.27752
706.339	126.29303
706.774	99.23591
707.209	108.25434
707.643	114.27493
708.078	94.22944
708.512	95.23975
708.946	89.21379
709.38	83.19975
709.814	129.30042
710.248	151.36904
710.682	140.33559
711.116	122.29833
711.549	125.32477
711.983	104.24416
712.416	98.23375
712.85	125.31298
713.283	109.25844
713.716	90.22457
714.149	103.24525
714.582	113.25838
715.015	147.3638
715.448	127.32005
715.881	49.10734
716.313	42.09887
716.746	117.27816
717.178	127.30738
717.61	94.23803
718.043	122.30309
718.475	76.18523
718.907	141.3501
719.339	98.22773
719.77	91.21859
720.202	120.30409
720.634	105.25881
721.065	160.38133
721.497	152.37307
721.928	97.24138
722.359	90.22245
722.79	96.23406
723.221	90.22628
723.652	126.32099
724.083	139.31847
724.514	146.33364
724.945	106.25157
725.375	135.31984
725.806	95.23417
726.236	76.19382
726.666	114.27358
727.096	174.4277
727.526	139.35342
727.956	119.27648
728.386	132.32686
728.816	221.56149
729.246	64.15807
729.675	102.25193
730.105	131.32349
730.534	159.37233
730.964	116.29207
731.393	96.23676
731.822	74.18806
732.251	127.32348
732.68	141.32837
733.109	142.35406
733.537	108.26351
733.966	116.2884
734.395	122.28395
734.823	130.29456
735.251	110.26669
735.68	140.34781
736.108	147.3719
736.536	161.3832
736.964	147.34221
737.392	121.30307
737.82	76.18128
738.247	157.37727
738.675	95.22507
739.102	169.42497
739.53	97.24751
739.957	110.28191
740.384	138.3362
740.811	123.31041
741.238	102.24906
741.665	110.25724
742.092	160.37943
742.519	117.29358
742.945	128.30764
743.372	132.32746
743.798	132.33888
744.225	170.40548
744.651	99.2494
745.077	106.26507
745.503	165.4031
745.929	123.2968
746.355	67.16308
746.781	143.35325
747.207	86.20466
747.632	121.29814
748.058	150.36884
748.483	172.39811
748.908	112.27906
749.334	138.34097
749.759	134.32023
750.184	107.25663
750.609	98.23974
751.033	102.2374
751.458	133.297
751.883	66.16272
752.307	118.28242
752.732	104.26532
753.156	144.35696
753.58	105.24953
754.005	121.30493
754.429	146.34436
754.853	131.32741
755.277	131.3076
755.7	102.25313
756.124	108.26929
756.548	100.24126
756.971	128.31324
757.394	112.28784
757.818	91.23538
758.241	111.28233
758.664	95.24394
759.087	95.21688
759.51	102.25332
759.933	77.18602
760.356	111.28183
760.778	133.33313
761.201	127.30958
761.623	124.30097
762.046	67.1588
762.468	112.26817
762.89	61.14981
763.312	109.26441
763.734	74.18035
764.156	146.36033
764.578	96.22132
765	134.32902
765.421	105.27347
765.843	106.27725
766.264	66.15887
766.686	97.24226
767.107	89.21897
767.528	76.19525
767.949	22.0563
768.37	79.19688
768.791	106.25728
769.212	105.2683
769.632	47.11234
770.053	72.19076
770.473	64.15744
770.894	53.13218
771.314	74.1759
771.734	52.12413
772.154	63.16307
772.575	50.11706
772.994	18.04206
773.414	93.22357
773.834	30.07502
774.254	96.23842
774.673	73.17841
775.093	49.12194
775.512	57.1437
775.931	50.12864
776.351	37.09321
776.77	72.18005
777.189	89.21379
777.607	48.12272
778.026	22.05535
778.445	-45.11519
778.864	46.11777
779.282	84.20518
779.701	84.21256
780.119	41.10521
780.537	50.12702
780.955	29.07447
781.373	33.08236
781.791	27.06194
782.209	7.01624
782.627	8.02125
783.045	38.08914
783.462	15.03865
783.88	12.03169
784.297	51.13055
784.715	39.10168
785.132	14.03444
785.549	32.08172
785.966	-5.01276
786.383	49.12185
786.8	50.1161
787.217	27.06501
787.633	40.10226
788.05	34.08023
788.466	38.09071
788.883	48.12328
789.299	-7.01718
789.715	69.17052
790.131	51.12857
790.547	-24.06054
790.963	79.1973
791.379	21.05358
791.795	26.05973
792.21	58.13787
792.626	13.0312
793.041	57.14215
793.457	20.04994
793.872	-1.00239
794.287	62.15274
794.702	24.05939
795.117	22.05613
795.532	-9.02303
795.947	75.1805
796.362	39.09265
796.776	33.07685
797.191	63.15683
797.605	34.08215
798.02	7.01747
798.434	51.11455
798.848	56.13979
799.262	33.08355
799.676	6.01474
800.09	-12.02972
800.504	77.18819
800.918	43.10156
801.331	21.05496
801.745	-9.02091
802.158	38.09623
802.572	5.01213
802.985	61.14825
803.398	18.04369
803.811	43.10968
804.224	41.10221
804.637	-11.0268
805.05	37.08729
805.462	78.19393
805.875	57.14983
806.288	16.039
806.7	54.13655
807.112	48.11265
807.525	-3.00749
807.937	44.11015
808.349	-10.02521
808.761	2.00494
809.173	29.07125
809.584	-5.01234
809.996	8.02009
810.408	9.02368
810.819	91.21759
811.231	40.10629
811.642	82.20246
812.053	99.23988
812.464	151.35857
812.875	160.40587
813.286	27.06969
813.697	36.0826
814.108	6.01474
814.519	0
814.929	33.08355
815.34	-2.00491
815.75	27.06926
816.16	31.07759
816.571	14.03688
816.981	6.01417
817.391	42.10263
817.801	-16.04049
818.211	44.10491
818.62	19.04676
819.03	44.10884
819.44	60.15581
819.849	65.16475
820.259	58.14713
820.668	11.0275
821.077	58.14619
821.486	59.14361
821.895	61.14947
822.304	36.09544
822.713	29.06929
823.122	-8.02015
823.531	-27.06486
823.939	48.11786
824.348	47.11478
824.756	12.03033
825.164	25.06282
825.573	9.02293
825.981	-2.00495
826.389	65.16375
826.797	18.04607
827.205	8.01891
827.612	16.03965
828.02	30.07202
828.428	48.12216
828.835	-15.03987
829.243	28.06707
829.65	21.05273
830.057	10.02434
830.464	-15.03703
830.871	14.03353
831.278	20.0488
831.685	27.06127
832.092	14.03477
832.499	41.09103
832.905	14.03564
833.312	6.01389
833.718	32.07968
834.124	-2.00461
834.531	24.06084
834.937	-29.07535
835.343	34.08277
835.749	11.02589
836.155	30.07924
836.561	-1.00247
836.966	-1.00246
837.372	35.08994
837.777	-9.02273
838.183	64.14366
838.588	9.02269
838.993	-28.06852
839.399	25.06262
839.804	-18.04498
840.209	-6.01554
840.613	20.04528
841.018	-2.00513
841.423	38.09773
841.828	-15.03837
842.232	-14.03485
842.637	33.07855
843.041	-1.0026
843.445	33.08349
843.849	3.00754
844.253	2.0048
844.657	-26.06701
845.061	7.01606
845.465	37.09114
845.869	2.00473
846.272	-12.02997
846.676	-40.09647
847.079	-4.01038
847.483	-37.09311
847.886	12.02934
848.289	0
848.692	-31.07927
849.095	17.04129
849.498	24.0603
849.901	23.05333
850.304	0
850.707	-7.01797
851.109	-23.05827
851.512	52.12957
851.914	30.07788
852.316	7.01791
852.718	29.07726
853.121	29.0723
853.523	39.09429
853.925	-16.04257
854.326	33.08367
854.728	25.06484
855.13	-4.01044
855.531	38.09282
855.933	26.06301
856.334	-29.07355
856.736	44.10184
857.137	28.0663
857.538	44.11237
857.939	17.04301
858.34	54.1319
858.741	3.00791
859.142	-19.04619
859.542	8.02129
859.943	28.0709
860.343	49.12357
860.744	12.02948
861.144	26.06389
861.544	44.10848
861.945	8.02068
862.345	0
862.745	-3.00751
863.145	3.00718
863.544	37.09404
863.944	34.08191
864.344	23.05703
864.743	-6.01494
865.143	14.03652
865.542	7.01661
865.941	13.03234
866.34	-17.04099
866.74	5.01349
867.139	-39.09546
867.537	3.00772
867.936	-18.04407
868.335	-11.02824
868.734	13.03359
869.132	-10.02363
869.531	-29.06995
869.929	27.0633
870.327	17.04166
870.726	-2.00499
871.124	-12.02822
871.522	-23.0591
871.92	19.0474
872.318	-15.03693
872.715	13.03196
873.113	-4.0099
873.511	-76.19047
873.908	-45.11591
874.306	6.0152
874.703	26.06523
875.1	-7.0179
875.497	29.07011
875.894	36.08993
876.291	4.00979
876.688	10.02602
877.085	-29.07056
877.482	5.01266
877.878	47.11461
878.275	-22.05658
878.671	-23.05109
879.068	-28.06865
879.464	11.02705
879.86	-2.00485
880.256	1.00248
880.652	34.08769
881.048	18.0448
881.444	-11.02633
881.84	31.07955
882.236	33.08308
882.631	-2.00495
883.027	12.02897
883.422	30.07769
883.817	30.07705
884.213	7.01819
884.608	33.08284
885.003	30.07391
885.398	13.033
885.793	20.05075
886.188	9.02288
886.582	44.11277
886.977	32.07682
887.371	-39.09871
887.766	-33.08391
888.16	45.11288
888.554	-10.02459
888.949	9.02263
889.343	45.11015
889.737	24.06473
890.131	5.0127
890.525	7.0182
890.918	32.08126
891.312	7.01682
891.706	18.04731
892.099	-5.0128
892.492	-12.02622
892.886	35.08735
893.279	29.07506
893.672	19.04892
894.065	43.10771
894.458	-1.00252
894.851	29.0704
895.244	22.05692
895.637	13.03156
896.029	33.08191
896.422	13.03204
896.814	36.09094
897.206	-9.02188
897.599	32.07872
897.991	10.02458
898.383	-27.06461
898.775	5.01147
899.167	-14.03366
899.559	4.01012
899.951	-5.01202
900.342	43.1098
900.734	2.00509
901.125	62.16371
901.517	-14.03467
901.908	-30.07254
902.299	39.09747
902.69	10.02393
903.082	-13.03143
903.473	23.05621
903.863	34.0864
904.254	-33.07788
904.645	23.05667
905.036	23.05659
905.426	45.10352
905.817	26.06457
906.207	40.09702
906.597	-6.01431
906.987	0
907.378	-24.06134
907.768	35.09293
908.158	15.03691
908.547	35.09203
908.937	-16.04105
909.327	3.00734
909.717	24.0606
910.106	41.10024
910.495	-10.02509
910.885	-1.00257
911.274	12.03033
911.663	9.02285
912.052	18.04434
912.441	1.00259
912.83	51.11887
913.219	50.12975
913.608	-14.03424
913.997	-7.01793
914.385	52.12522
914.774	8.01967
915.162	3.00732
915.55	13.03143
915.939	-6.01536
916.327	-27.06729
916.715	37.09613
917.103	57.13972
917.491	34.08441
917.878	43.10677
918.266	-26.06787
918.654	34.08702
919.041	-29.07669
919.429	-29.06926
919.816	33.08397
920.203	-35.0865
920.591	-41.10281
920.978	13.03202
921.365	9.02378
921.752	-20.04831
922.139	-17.03749
922.525	35.08656
922.912	-9.02214
923.299	40.10126
923.685	-13.03411
924.072	9.02094
924.458	14.03505
924.844	25.06305
925.231	6.01422
925.617	-5.01307
926.003	13.03337
926.389	9.02279
926.774	26.06626
927.16	-31.07829
927.546	24.06179
927.931	10.02532
928.317	4.00934
928.702	4.00949
929.088	22.05348
929.473	8.02057
929.858	6.01496
930.243	-5.01219
930.628	38.09403
931.013	-50.12661
931.398	9.02057
931.783	-23.06042
932.167	-28.06906
932.552	-13.03254
932.937	31.07695
933.321	-1.00256
933.705	-35.08953
934.09	-24.0601
934.474	-13.03139
934.858	-27.07027
935.242	-20.0471
935.626	-20.05205
936.009	-5.01346
936.393	-20.05117
936.777	-35.09016
937.16	-12.03168
937.544	-34.08063
937.927	-1.00256
938.311	38.09268
938.694	-37.09811
939.077	14.03412
939.46	-25.06158
939.843	56.11684
940.226	63.16217
940.609	31.07282
940.991	3.00775
941.374	-24.05954
941.757	26.06485
942.139	4.00909
942.522	-1.00237
942.904	-11.02664
943.286	12.03056
943.668	34.08881
944.05	9.02254
944.432	59.14735
944.814	43.10736
945.196	16.04008
945.578	17.04161
945.959	-11.02622
946.341	37.08969
946.722	8.01882
947.104	-27.06523
947.485	56.13245
947.866	21.05368
948.247	-5.0128
948.628	13.03196
949.009	-1.0026
949.39	45.11141
949.771	44.10285
950.152	2.00498
950.532	-26.06577
950.913	3.00741
951.293	58.1576
951.674	17.04143
952.054	-21.05279
952.434	10.02493
952.814	-45.10707
953.194	-41.10722
953.574	9.02213
953.954	16.03853
954.334	8.02009
954.714	27.0666
955.093	-42.10343
955.473	-15.03803
955.853	-7.01814
956.232	-24.06578
956.611	-17.04091
956.99	-45.11357
957.37	-25.06435
957.749	-22.05324
958.128	18.04542
958.506	22.05754
958.885	22.05583
959.264	42.10457
959.643	27.06258
960.021	-10.02497
960.4	-9.0207
960.778	1.00245
961.156	15.0381
961.535	-4.00943
961.913	45.10587
962.291	7.01828
962.669	-60.15259
963.047	-1.00258
963.424	-21.05422
963.802	7.01733
964.18	-29.07389
964.557	68.15733
964.935	8.01899
965.312	22.05801
965.69	51.12765
966.067	-6.01478
966.444	5.01238
966.821	-43.11145
967.198	11.02653
967.575	25.06119
967.952	-41.09691
968.329	-10.02462
968.705	45.09841
969.082	43.11169
969.458	-24.05878
969.835	3.00728
970.211	71.18231
970.587	-5.01254
970.963	19.04887
971.339	-11.02903
971.715	16.04023
972.091	19.04721
972.467	24.05993
972.843	19.048
973.219	12.02874
973.594	-7.01856
973.97	28.06694
974.345	30.07265
974.721	13.03165
975.096	-3.00738
975.471	-59.14
975.846	26.06318
976.221	42.10828
976.596	12.02925
976.971	-25.06192
977.346	39.09083
977.72	-36.09197
978.095	-22.05705
978.469	14.03353
978.844	4.01003
979.218	14.03435
979.593	-5.01196
979.967	40.09833
980.341	23.0538
980.715	-10.02532
981.089	21.05313
981.463	29.06743
981.837	-18.04488
982.21	-65.15078
982.584	-1.00246
982.957	13.03281
983.331	15.03568
983.704	-4.01001
984.078	19.04701
984.451	-52.12919
984.824	2.005
985.197	13.03182
985.57	37.09284
985.943	-11.02711
986.316	-6.01483
986.688	35.08452
987.061	63.14845
987.434	10.02607
987.806	-3.00729
988.179	44.10579
988.551	43.1093
988.923	-57.14159
989.295	54.13504
989.667	18.04433
990.039	9.02254
990.411	-8.01871
990.783	-23.05299
991.155	47.1153
991.527	16.03881
991.898	-33.0834
992.27	30.07524
992.641	-1.00252
993.012	18.04272
993.384	17.04104
993.755	35.08959
994.126	-29.07077
994.497	35.08722
994.868	-40.0935
995.239	-1.00245
995.61	2.00512
995.98	3.00743
996.351	-4.01012
996.722	9.02131
997.092	19.0454
997.462	26.06242
997.833	-8.01899
998.203	17.04132
998.573	-16.0403
998.943	12.02864
999.313	-2.0048
999.683	5.01211
1000.053	-15.03493
1000.423	31.07514
1000.792	51.13333
1001.162	5.01244
1001.531	-15.03749
1001.901	-16.04024
1002.27	65.14647
1002.639	4.0103
1003.009	0
1003.378	-48.12418
1003.747	1.0024
1004.116	2.00486
1004.485	-16.03841
1004.853	-8.02039
1005.222	24.06097
1005.591	3.0072
1005.959	53.12338
1006.328	42.09594
1006.696	15.03633
1007.064	7.01786
1007.433	-40.10057
1007.801	-8.01956
1008.169	32.08164
1008.537	-14.03119
1008.905	4.00949
1009.273	7.01744
1009.64	6.01462
1010.008	-2.00484
1010.375	-28.06691
1010.743	57.13149
1011.11	-50.12163
1011.478	5.01238
1011.845	52.12203
1012.212	11.02548
1012.579	15.03703
1012.946	30.07189
1013.313	-3.00712
1013.68	-20.04547
1014.047	25.06112
1014.414	10.02397
1014.78	-3.00751
1015.147	41.09852
1015.513	-10.02445
1015.88	26.06633
1016.246	25.06178
1016.612	28.06463
1016.978	24.05943
1017.344	22.0546
1017.71	-39.09471
1018.076	16.0378
1018.442	-28.07264
1018.808	10.02526
1019.174	21.05328
1019.539	30.06836
1019.905	-43.10321
1020.27	4.01001
1020.636	19.04555
1021.001	-12.02933
1021.366	-26.06304
1021.731	-8.02075
1022.096	-28.07126
1022.461	-27.06407
1022.826	31.07458
1023.191	24.06303
1023.556	-17.04049
1023.92	6.01474
1024.285	4.00979
1024.649	-23.05678
1025.014	-8.01987
1025.378	36.09129
1025.742	2.00502
1026.107	25.05687
1026.471	-18.04219
1026.835	-32.07982
1027.199	34.08287
1027.562	37.08712
1027.926	-22.05408
1028.29	2.00517
1028.654	40.09295
1029.017	-16.03952
1029.381	40.09785
1029.744	6.01551
1030.107	-33.07834
1030.471	5.01206
1030.834	-10.02302
1031.197	-6.01442
1031.56	-51.12218
1031.923	-21.05483
1032.286	-45.106
1032.648	24.05795
1033.011	51.11938
1033.374	-33.078
1033.736	13.03468
1034.099	53.1304
1034.461	20.05162
1034.823	1.00252
1035.185	33.08355
1035.548	8.01969
1035.91	8.0195
1036.272	16.03693
1036.634	-10.02446
1036.995	-26.06156
1037.357	-26.06422
1037.719	-23.0563
1038.08	-14.03321
1038.442	1.0024
1038.803	28.06804
1039.165	0
1039.526	3.00729
1039.887	23.05554
1040.248	-10.02534
1040.609	-41.10218
1040.97	-11.02758
1041.331	-23.05856
1041.692	-18.04305
1042.053	49.11137
1042.413	44.10221
1042.774	15.03659
1043.134	-8.01902
1043.495	-2.00505
1043.855	-36.08846
1044.215	-6.0149
1044.576	33.0802
1044.936	-40.09192
1045.296	16.03997
1045.656	-13.03226
1046.016	-1.00244
1046.375	40.09847
1046.735	7.0163
1047.095	6.01426
1047.454	-12.02556
1047.814	-2.00479
1048.173	-16.03816
1048.533	14.0325
1048.892	22.05396
1049.251	15.03764
1049.61	21.0522
1049.969	25.05877
1050.328	-21.04639
1050.687	15.03689
1051.046	0
1051.405	40.09967
1051.763	56.12952
1052.122	22.05589
1052.48	-7.01723
1052.839	-7.01672
1053.197	-5.0118
1053.555	-26.05872
1053.914	27.06641
1054.272	-8.01937
1054.63	36.08931
1054.988	4.00958
1055.345	33.07217
1055.703	-40.0968
1056.061	14.03621
1056.419	-5.01306
1056.776	-19.04621
1057.134	20.04694
1057.491	-13.03281
1057.848	36.08977
1058.206	-21.05029
1058.563	10.02249
1058.92	25.05779
1059.277	29.07104
1059.634	32.07606
1059.991	-49.11761
1060.348	11.02563
1060.704	-37.09016
1061.061	-51.11727
1061.418	14.03449
1061.774	15.03738
1062.131	-12.03201
1062.487	-35.08308
1062.843	-11.02774
1063.199	-55.13856
1063.555	27.06293
1063.911	17.04338
1064.267	3.00631
1064.623	-5.01236
1064.979	-17.03993
1065.335	-9.0213
1065.691	-16.0383
1066.046	-51.11384
1066.402	-16.0373
1066.757	6.01509
1067.112	-48.11777
1067.468	-46.11161
1067.823	18.04362
1068.178	-12.02921
1068.533	-27.06592
1068.888	50.11995
1069.243	21.05213
1069.598	18.04426
1069.952	-45.10542
1070.307	-2.00505
1070.662	24.05792
1071.016	33.07552
1071.371	-23.05327
1071.725	5.012
1072.079	-25.06035
1072.434	-40.09923
1072.788	69.16638
1073.142	-4.00989
1073.496	68.16517
1073.85	1.00233
1074.203	-11.0266
1074.557	46.12248
1074.911	-15.03594
1075.265	9.02106
1075.618	2.00492
1075.971	36.0862
1076.325	14.03599
1076.678	51.11976
1077.031	-25.05822
1077.385	53.11806
1077.738	28.06491
1078.091	3.00706
1078.444	-16.03783
1078.796	-31.0772
1079.149	11.02738
1079.502	24.05773
1079.855	-22.0526
1080.207	38.09306
1080.56	3.00787
1080.912	34.08321
1081.264	11.02674
1081.617	58.14326
1081.969	2.00514
1082.321	28.06934
1082.673	26.06109
1083.025	-11.02624
1083.377	-267.61073
1083.728	12.02824
1084.08	55.13821
1084.432	52.12664
1084.783	2.00468
1085.135	-16.0407
1085.486	18.04219
1085.838	13.03228
1086.189	-18.04443
1086.54	-45.10847
1086.891	18.04624
1087.242	0
1087.593	-2.00483
1087.944	37.08546
1088.295	-5.01139
1088.646	57.13806
1088.996	-7.01725
1089.347	10.02471
1089.698	30.07265
1090.048	25.06478
1090.398	27.0629
1090.749	-8.01925
1091.099	-20.05122
1091.449	-55.13871
1091.799	7.01781
1092.149	42.10511
1092.499	-23.05625
1092.849	-8.02053
1093.199	3.00748
1093.548	-15.03641
1093.898	46.11624
1094.248	0
1094.597	-11.02873
1094.947	8.02142
1095.296	40.09945
1095.645	-3.00782
1095.994	35.08516
1096.343	-4.01014
1096.692	32.08523
1097.041	5.0137
1097.39	14.03523
1097.739	-6.01557
1098.088	34.09089
1098.437	-24.06405
1098.785	48.12976
1099.134	-5.01333
1099.482	-1.00275
1099.83	-46.1211
1100.179	-7.01846
1100.527	41.10951
1100.875	9.02398
1101.223	-29.07733
1101.571	9.0251
1101.919	-12.03197
1102.267	-15.0425
1102.615	-8.02578
1102.962	-2.00644
1103.31	2.00644
1103.658	-6.01933
