Data from N2 R7 sample 1_Subt2__0__15-41-57-561.txt Node

Date: Fri Aug 29 15:41:57 PDT 2025
User: uwsun
Spectrometer: HDX01956
Trigger mode: 0
Integration Time (sec): 5.000000E-1
Scans to average: 1
Nonlinearity correction enabled: true
Boxcar width: 0
Storing dark spectrum: false
XAxis mode: Wavelengths
Number of Pixels in Spectrum: 2068
>>>>>Begin Spectral Data<<<<<
194.03	22.06154
194.578	28.08824
195.127	15.04666
195.676	24.07479
196.225	25.06605
196.773	32.08729
197.321	44.11724
197.87	69.16858
198.418	86.2067
198.966	10.02453
199.513	-18.04229
200.061	-17.0406
200.609	60.14939
201.156	39.07922
201.704	41.09627
202.251	55.13582
202.798	71.17146
203.345	93.21377
203.892	35.08247
204.438	69.1537
204.985	6.01326
205.532	-2.00495
206.078	43.09864
206.624	22.0505
207.17	39.08475
207.716	4.00911
208.262	47.08662
208.808	-27.06238
209.354	43.09733
209.899	118.27648
210.445	66.15161
210.99	20.04499
211.535	49.1077
212.08	43.09356
212.625	40.0938
213.17	74.17461
213.715	-32.06686
214.259	84.18164
214.804	102.23375
215.348	48.10273
215.892	57.1276
216.436	111.23823
216.98	84.17308
217.524	66.1451
218.068	85.1992
218.612	73.17168
219.155	32.07068
219.698	38.08498
220.242	65.15209
220.785	102.22123
221.328	38.08914
221.871	75.17845
222.414	83.19345
222.956	1.00227
223.499	20.04251
224.041	73.15971
224.583	64.13033
225.126	37.0768
225.668	27.06179
226.21	51.12018
226.751	32.06558
227.293	84.17931
227.835	6.01384
228.376	43.09376
228.918	52.1236
229.459	45.1048
230	64.14236
230.541	22.04792
231.082	64.1449
231.622	52.11254
232.163	37.08403
232.704	28.06517
233.244	23.05367
233.784	66.1518
234.324	-13.02686
234.864	35.07447
235.404	62.13814
235.944	45.10024
236.484	105.24337
237.023	48.10593
237.563	10.02174
238.102	29.06436
238.641	75.17659
239.18	8.01754
239.719	30.07071
240.258	95.19782
240.797	38.08488
241.335	93.2112
241.874	19.03424
242.412	58.1296
242.95	7.01565
243.488	14.03004
244.026	45.0965
244.564	34.06545
245.102	49.10226
245.64	41.09262
246.177	26.05459
246.715	65.14533
247.252	63.13469
247.789	118.20478
248.326	-26.05863
248.863	17.0348
249.4	48.10157
249.936	72.13667
250.473	52.1123
251.009	30.06385
251.546	6.01237
252.082	23.04704
252.618	55.11315
253.154	21.04693
253.69	60.12491
254.226	25.05553
254.761	48.09984
255.297	-13.02666
255.832	10.02206
256.367	21.04606
256.903	39.07926
257.438	70.15182
257.972	72.14749
258.507	20.04236
259.042	29.05842
259.576	2.00399
260.111	54.11547
260.645	70.13943
261.179	33.0711
261.713	55.11243
262.247	76.1609
262.781	12.02328
263.315	-9.0205
263.849	30.0693
264.382	28.05972
264.915	2.00434
265.449	4.00896
265.982	62.12971
266.515	46.10313
267.048	-19.03743
267.58	70.1406
268.113	13.0259
268.646	86.19312
269.178	18.03697
269.71	74.14753
270.243	34.0716
270.775	82.1901
271.307	67.14807
271.838	72.15716
272.37	47.106
272.902	33.06911
273.433	36.07214
273.965	83.18366
274.496	37.08477
275.027	84.18917
275.558	5.01117
276.089	-21.04744
276.62	55.12839
277.15	77.1733
277.681	107.2098
278.211	63.14115
278.741	47.09381
279.272	41.08511
279.802	52.11854
280.332	32.06872
280.861	57.12471
281.391	41.08438
281.921	80.17477
282.45	58.13206
282.98	47.11174
283.509	104.20927
284.038	29.06012
284.567	98.20629
285.096	46.10092
285.625	37.07605
286.153	-11.02356
286.682	13.02701
287.21	56.12136
287.739	26.05567
288.267	42.0916
288.795	70.16645
289.323	-4.00846
289.851	74.15522
290.378	32.06475
290.906	31.06728
291.433	66.14748
291.961	29.05888
292.488	43.09626
293.015	34.07154
293.542	36.08157
294.069	57.12476
294.596	91.20044
295.122	73.15458
295.649	11.02183
296.175	41.08913
296.702	64.1384
297.228	73.15796
297.754	2.00403
298.28	56.11222
298.806	8.01718
299.332	-30.05942
299.857	38.0758
300.383	73.16396
300.908	37.0789
301.433	-15.0325
301.958	50.10238
302.483	12.0265
303.008	76.16533
303.533	72.1656
304.058	95.19579
304.582	30.06207
305.107	-2.00462
305.631	112.22142
306.155	4.00818
306.679	-4.0082
307.203	81.16198
307.727	43.08894
308.251	58.12478
308.775	-18.03729
309.298	-18.03762
309.822	62.13562
310.345	71.14455
310.868	-3.00625
311.391	73.15485
311.914	42.09059
312.437	63.12347
312.96	29.05861
313.482	14.02854
314.005	51.10955
314.527	60.1344
315.049	87.18729
315.571	-15.02831
316.093	77.16069
316.615	32.06525
317.137	45.08198
317.659	94.19168
318.18	77.15605
318.702	89.17112
319.223	19.03244
319.744	60.11083
320.265	-12.02435
320.786	12.02463
321.307	21.04344
321.828	51.09442
322.348	18.03487
322.869	21.04036
323.389	-212.29593
323.909	26.04865
324.43	61.1204
324.95	41.07522
325.47	46.09056
325.989	14.02643
326.509	11.01906
327.029	1.00178
327.548	22.0386
328.067	35.06593
328.587	58.1137
329.106	17.03007
329.625	94.19578
330.144	14.02494
330.662	30.05303
331.181	37.06614
331.7	39.06943
332.218	65.10418
332.736	54.09486
333.255	19.03316
333.773	-1.00178
334.291	77.1442
334.808	-3.00492
335.326	48.07862
335.844	15.02509
336.361	-29.05404
336.879	-26.04371
337.396	10.01726
337.913	6.00974
338.43	54.08367
338.947	24.03999
339.464	20.0289
339.981	20.03256
340.497	89.15056
341.014	-33.05598
341.53	40.05961
342.046	-27.0454
342.562	85.14246
343.078	45.06982
343.594	8.01274
344.11	78.12021
344.626	27.04501
345.141	33.04785
345.657	36.05232
346.172	27.04182
346.687	-5.00726
347.202	25.03452
347.717	7.01053
348.232	-5.00799
348.747	30.0419
349.261	-11.014
349.776	10.01427
350.29	25.03693
350.805	111.16458
351.319	-1.00139
351.833	-9.01174
352.347	-2.00276
352.861	31.04123
353.374	92.1198
353.888	25.03508
354.401	39.05
354.915	-31.03795
355.428	20.02815
355.941	39.04897
356.454	95.11371
356.967	23.02992
357.48	42.05183
357.993	-8.01099
358.505	16.02115
359.018	2.00265
359.53	9.0114
360.042	84.09221
360.554	58.07311
361.066	-43.05544
361.578	64.06665
362.09	49.05882
362.602	-3.00317
363.113	1.00114
363.625	16.01696
364.136	66.0661
364.647	-86.09316
365.158	-3.00327
365.669	33.03704
366.18	79.08399
366.691	39.03721
367.201	17.01845
367.712	60.05717
368.222	52.04951
368.733	-37.03197
369.243	28.02375
369.753	58.05305
370.263	110.10235
370.773	54.05368
371.282	-32.02943
371.792	-28.02144
372.301	-115.10334
372.811	18.01759
373.32	-95.05708
373.829	-107.07782
374.338	53.02873
374.847	-67.03908
375.356	-47.02699
375.865	-39.01285
376.373	-34.01267
376.882	69.03505
377.39	-43.01795
377.898	-215.0803
378.407	-65.00958
378.915	-81.00572
379.423	-60.00564
379.93	-48.99942
380.438	-133.99573
380.946	-93.98649
381.453	-138.973
381.96	-167.95148
382.468	-301.88317
382.975	-136.94347
383.482	-165.91976
383.989	-175.92156
384.495	-258.8638
385.002	-278.84179
385.509	-249.85818
386.015	-335.82644
386.521	-257.8681
387.028	-379.82615
387.534	-425.83831
388.04	-277.89276
388.546	-582.87452
389.051	-693.0018
389.557	-646.15206
390.063	-179.08493
390.568	-361.2526
391.073	-653.69361
391.578	-553.69753
392.084	-766.35418
392.589	-1121.69367
393.093	-1437.50074
393.598	-1250.34381
394.103	-1398.4208
394.607	-1386.56384
395.112	-1393.07146
395.616	-1437.27343
396.12	-1744.54213
396.624	-2232.3975
397.128	-2025.77561
397.632	-1892.3345
398.136	-2168.19397
398.639	-4017.80323
399.143	-5194.81328
399.646	-5489.98794
400.15	-5981.22901
400.653	-7687.62172
401.156	-9915.36715
401.659	-12175.0721
402.162	-5754.60239
402.664	-1198.9008
403.167	0
403.67	0
404.172	0
404.674	0
405.176	0
405.678	0
406.18	0
406.682	0
407.184	0
407.686	0
408.187	0
408.688	0
409.19	0
409.691	0
410.192	0
410.693	0
411.194	435.30976
411.694	4082.94878
412.195	6920.92796
412.696	4879.44471
413.196	2105.84931
413.696	208.46503
414.196	2235.07402
414.696	4803.91338
415.196	7115.29416
415.696	10839.09473
416.196	9440.82771
416.695	4595.38761
417.195	1853.75894
417.694	1655.04129
418.194	1771.33641
418.693	1006.92938
419.192	838.20744
419.691	940.42654
420.19	1072.63188
420.688	1574.17584
421.187	1683.68113
421.685	1813.04644
422.184	2057.34574
422.682	1767.08999
423.18	1033.76419
423.678	637.49908
424.176	531.88227
424.674	352.38086
425.172	699.43152
425.669	710.1014
426.167	902.94456
426.664	762.79068
427.161	430.79828
427.659	261.85293
428.156	269.85002
428.652	203.8903
429.149	232.87657
429.646	270.85738
430.143	255.88946
430.639	179.93208
431.135	133.96548
431.632	149.96136
432.128	50.99433
432.624	-57.00186
433.12	-67.99308
433.616	-78.99411
434.111	-261.02012
434.607	-196.0311
435.103	-1.00006
435.598	9.0008
436.093	-32.01084
436.588	6.00211
437.083	2.00086
437.578	-3.00154
438.073	-167.11504
438.568	-67.05058
439.062	-76.04253
439.557	-46.03559
440.051	-127.09478
440.546	-151.11764
441.04	-138.1235
441.534	-127.13156
442.028	-86.08267
442.522	-140.13799
443.015	-119.10078
443.509	-70.07355
444.002	-151.16455
444.496	-171.15792
444.989	-173.19687
445.482	-209.24875
445.975	-217.21914
446.468	-167.15561
446.961	-166.15627
447.454	-154.16183
447.947	-124.13688
448.439	-183.22451
448.931	-216.23384
449.424	-172.2278
449.916	-125.15389
450.408	-258.29443
450.9	-286.37148
451.392	-280.39038
451.884	-198.24041
452.375	-325.45242
452.867	-145.17471
453.358	-218.26222
453.849	-177.19456
454.341	-258.32098
454.832	-224.2593
455.323	-228.31663
455.814	-217.28327
456.304	-179.23318
456.795	-222.29246
457.285	-174.22443
457.776	-161.21702
458.266	-215.30291
458.756	-191.27803
459.247	-214.30525
459.737	-285.41876
460.226	-204.27382
460.716	-285.43063
461.206	-247.37701
461.695	-250.40976
462.185	-217.32688
462.674	-169.24646
463.163	-201.28336
463.653	-201.26577
464.142	-208.32817
464.63	-212.34785
465.119	-293.4563
465.608	-266.41267
466.096	-265.39272
466.585	-186.29243
467.073	-218.3637
467.561	-258.43921
468.05	-209.33958
468.538	-178.30858
469.026	-249.4279
469.513	-264.39255
470.001	-221.35524
470.489	-226.38369
470.976	-212.35369
471.463	-213.39218
471.951	-245.46199
472.438	-249.43455
472.925	-274.47907
473.412	-158.29157
473.899	-218.37874
474.385	-221.41653
474.872	-269.48212
475.359	-245.46313
475.845	-245.38756
476.331	-187.31326
476.817	-230.44298
477.303	-240.43957
477.789	-242.4643
478.275	-191.3738
478.761	-199.38244
479.247	-218.39181
479.732	-253.50921
480.218	-245.52241
480.703	-187.37586
481.188	-179.30661
481.673	-195.36156
482.158	-272.46931
482.643	-210.44535
483.128	-257.48415
483.612	-240.46736
484.097	-190.38849
484.581	-178.34431
485.066	-220.448
485.55	-262.4835
486.034	-262.47889
486.518	-233.4601
487.002	-248.51444
487.486	-252.52578
487.969	-266.5577
488.453	-209.45319
488.936	-198.37914
489.42	-218.41481
489.903	-199.4339
490.386	-205.28716
490.869	-141.26209
491.352	-176.3752
491.835	-199.3572
492.318	-219.42961
492.8	-194.34796
493.283	-240.53604
493.765	-237.51325
494.247	-153.31291
494.73	-223.43477
495.212	-179.38268
495.694	-250.51743
496.175	-263.55153
496.657	-196.41203
497.139	-207.3231
497.62	-296.62882
498.102	-204.44811
498.583	-231.51967
499.064	-235.46645
499.545	-186.37669
500.026	-216.43184
500.507	-207.42988
500.988	-214.47778
501.469	-274.62107
501.949	-213.47525
502.43	-282.60691
502.91	-217.40216
503.39	-242.55233
503.87	-199.41843
504.35	-184.39209
504.83	-246.48908
505.31	-285.6322
505.79	-260.56606
506.269	-241.515
506.749	-341.72299
507.228	-257.5499
507.707	-246.49775
508.187	-222.48539
508.666	-242.54096
509.145	-267.57179
509.623	-254.54689
510.102	-232.51454
510.581	-207.45785
511.059	-255.58516
511.538	-221.52458
512.016	-198.43145
512.494	-245.54913
512.972	-234.51335
513.45	-309.66201
513.928	-253.56473
514.406	-298.66145
514.884	-236.55748
515.361	-212.46509
515.839	-270.57059
516.316	-249.5535
516.793	-233.54581
517.27	-226.50769
517.747	-236.55813
518.224	-250.53851
518.701	-277.57755
519.178	-286.65879
519.654	-211.46533
520.131	-259.59601
520.607	-244.5643
521.083	-262.55878
521.56	-293.65049
522.036	-265.54664
522.512	-200.4574
522.987	-313.69806
523.463	-287.64114
523.939	-214.48764
524.414	-229.49444
524.89	-256.56918
525.365	-281.59969
525.84	-336.75415
526.315	-210.46846
526.79	-225.47351
527.265	-233.49661
527.74	-240.546
528.215	-240.5294
528.689	-244.50637
529.164	-224.45635
529.638	-238.57308
530.112	-258.57005
530.587	-276.55538
531.061	-298.67875
531.534	-264.60472
532.008	-244.54925
532.482	-194.41555
532.956	-283.67845
533.429	-220.49888
533.903	-204.42317
534.376	-270.56633
534.849	-231.50367
535.322	-236.52406
535.795	-241.55459
536.268	-214.48094
536.741	-254.57714
537.213	-223.4852
537.686	-251.57483
538.158	-238.50032
538.631	-221.50613
539.103	-293.62475
539.575	-229.45263
540.047	-238.49502
540.519	-227.51193
540.991	-210.48336
541.463	-225.51281
541.934	-243.52579
542.406	-225.50327
542.877	-240.51208
543.348	-230.52431
543.82	-213.49153
544.291	-215.47356
544.762	-258.57767
545.233	-224.52565
545.703	-240.50007
546.174	-211.45987
546.645	-263.58923
547.115	-225.507
547.585	-238.51508
548.056	-276.62357
548.526	-219.47751
548.996	-200.44671
549.466	-204.4641
549.935	-226.49455
550.405	-228.46365
550.875	-220.48162
551.344	-221.49147
551.814	-201.42654
552.283	-161.32181
552.752	-252.54258
553.221	-260.52366
553.69	-213.43542
554.159	-189.4217
554.628	-251.51729
555.096	-220.51061
555.565	-171.34782
556.033	-179.38848
556.502	-239.54053
556.97	-187.3854
557.438	-187.41275
557.906	-166.3674
558.374	-164.35145
558.842	-196.43994
559.31	-169.35566
559.777	-192.43504
560.245	-194.43223
560.712	-150.32658
561.18	-192.40149
561.647	-174.36756
562.114	-169.36271
562.581	-174.40498
563.048	-139.30205
563.514	-221.51527
563.981	-143.30903
564.448	-154.32688
564.914	-115.2516
565.381	-145.31281
565.847	-106.23304
566.313	-113.24733
566.779	-97.20513
567.245	-109.23938
567.711	-55.12206
568.176	-86.17999
568.642	-65.15078
569.108	-69.15727
569.573	-4.00868
570.038	14.02699
570.504	21.04277
570.969	5.01146
571.434	-27.05434
571.899	7.0152
572.363	64.13146
572.828	91.18738
573.293	66.13648
573.757	111.22743
574.222	77.15369
574.686	88.17577
575.15	88.18687
575.614	140.28379
576.078	154.31817
576.542	178.35587
577.006	176.34779
577.469	246.53012
577.933	159.31205
578.396	222.45989
578.86	231.47308
579.323	175.36569
579.786	227.42468
580.249	169.3378
580.712	201.43101
581.175	185.40081
581.637	201.40735
582.1	241.4607
582.563	209.3943
583.025	149.31979
583.487	168.29837
583.95	90.17309
584.412	197.36363
584.874	124.26848
585.336	134.28269
585.797	140.26925
586.259	211.43799
586.721	88.18573
587.182	120.25293
587.643	142.28798
588.105	130.27521
588.566	79.15102
589.027	87.18825
589.488	99.20357
589.949	121.26305
590.41	92.16093
590.87	149.30445
591.331	125.24289
591.791	84.17487
592.252	71.14653
592.712	94.20396
593.172	60.12279
593.632	154.30188
594.092	153.30411
594.552	118.22825
595.011	147.29969
595.471	134.2684
595.931	123.24585
596.39	139.29665
596.849	134.27896
597.308	182.35053
597.768	112.25532
598.227	188.40096
598.685	217.43998
599.144	191.39452
599.603	241.49937
600.062	237.43243
600.52	241.4674
600.978	320.65163
601.437	304.60016
601.895	348.62518
602.353	419.77851
602.811	356.67017
603.269	393.7939
603.727	409.82281
604.184	448.83385
604.642	476.96576
605.099	533.005
605.557	581.14454
606.014	596.01407
606.471	599.19611
606.928	615.0293
607.385	659.25465
607.842	791.36965
608.299	830.45981
608.755	896.60579
609.212	930.49605
609.668	903.44876
610.125	1018.78116
610.581	1060.81902
611.037	1107.78962
611.493	1119.87828
611.949	1080.8574
612.405	1106.50464
612.861	1205.97617
613.316	1145.92523
613.772	1202.90209
614.227	1156.91277
614.683	1271.81755
615.138	1248.99562
615.593	1271.00462
616.048	1295.00426
616.503	1284.18634
616.958	1243.18015
617.412	1299.09249
617.867	1283.89555
618.321	1304.77901
618.776	1295.93197
619.23	1237.01886
619.684	1304.00247
620.138	1300.07826
620.592	1206.08364
621.046	1296.10579
621.5	1228.11623
621.954	1225.93704
622.407	1203.88684
622.861	1210.10492
623.314	1169.90837
623.768	1160.94897
624.221	1184.6075
624.674	1115.87662
625.127	1096.89302
625.58	1162.92591
626.033	1121.81032
626.485	1058.89981
626.938	1100.95226
627.39	1037.82163
627.843	1060.84324
628.295	1033.80985
628.747	1023.85886
629.199	1029.77364
629.651	945.66392
630.103	993.74685
630.555	968.56798
631.006	947.74134
631.458	950.75779
631.909	1000.78532
632.361	978.78275
632.812	1005.79657
633.263	952.59834
633.714	1003.65272
634.165	956.84457
634.616	977.83435
635.067	1006.73802
635.518	986.86171
635.968	1106.65166
636.419	1045.74694
636.869	1020.91008
637.319	991.80513
637.769	1012.76415
638.219	1093.02913
638.669	1057.97028
639.119	1086.07141
639.569	1069.0178
640.019	1093.95832
640.468	1112.90146
640.918	1121.09772
641.367	1111.91344
641.816	1117.91565
642.265	1095.96693
642.714	1158.04791
643.163	1194.07805
643.612	1119.08165
644.061	1163.84057
644.51	1113.95656
644.958	1182.95492
645.406	1204.19563
645.855	1200.26303
646.303	1224.16959
646.751	1210.07404
647.199	1245.11903
647.647	1235.13679
648.095	1161.03892
648.543	1230.85801
648.99	1231.23547
649.438	1181.13895
649.885	1208.31138
650.333	1171.68073
650.78	1097.09094
651.227	1147.18018
651.674	1143.01136
652.121	1082.09258
652.568	1090.09808
653.015	1059.16137
653.461	1065.01317
653.908	1096.0111
654.354	1051.0098
654.801	974.85425
655.247	1087.86898
655.693	986.1213
656.139	919.82346
656.585	938.85558
657.031	890.71786
657.477	880.56412
657.922	908.72506
658.368	964.9639
658.813	894.73383
659.259	850.71892
659.704	832.63491
660.149	792.57228
660.594	829.66762
661.039	751.46963
661.484	821.67195
661.929	785.57249
662.373	730.60586
662.818	756.62623
663.262	697.46869
663.707	686.53421
664.151	700.5018
664.595	679.44137
665.039	762.64826
665.483	684.5404
665.927	732.50166
666.371	584.20954
666.814	684.44095
667.258	606.28035
667.701	702.32339
668.145	677.49572
668.588	627.37765
669.031	616.29242
669.474	652.39691
669.917	623.23087
670.36	576.29433
670.803	638.37747
671.245	623.16759
671.688	619.35778
672.13	561.13669
672.573	591.36193
673.015	576.25353
673.457	558.09992
673.899	577.26873
674.341	597.30122
674.783	513.12875
675.225	578.2898
675.666	532.16793
676.108	536.06143
676.549	560.20886
676.991	578.1517
677.432	532.9637
677.873	527.11783
678.314	542.18393
678.755	491.10465
679.196	496.04715
679.637	547.22481
680.078	481.04449
680.518	452.98608
680.959	469.0443
681.399	468.07964
681.839	490.10487
682.28	418.97043
682.72	433.92883
683.16	429.00148
683.6	426.91441
684.039	414.81196
684.479	411.95098
684.919	393.85503
685.358	439.04489
685.798	460.12608
686.237	389.89295
686.676	447.97332
687.115	419.92784
687.554	444.9883
687.993	399.83523
688.432	338.74023
688.871	334.72622
689.309	368.8368
689.748	393.77897
690.186	359.81948
690.625	341.76521
691.063	386.87843
691.501	367.86501
691.939	405.95491
692.377	338.79002
692.815	354.80823
693.253	344.79299
693.69	349.73381
694.128	322.74938
694.565	345.78816
695.003	308.75365
695.44	305.69174
695.877	322.72273
696.314	361.74198
696.751	340.74492
697.188	313.69286
697.625	340.75026
698.061	338.7773
698.498	347.80484
698.934	327.75726
699.371	339.76447
699.807	313.71392
700.243	300.69737
700.679	333.72482
701.115	300.68413
701.551	323.73256
701.987	325.7041
702.422	294.67532
702.858	347.79145
703.294	339.73725
703.729	329.77396
704.164	302.70229
704.599	291.6283
705.035	327.70299
705.47	287.6757
705.904	245.55771
706.339	337.75375
706.774	299.67704
707.209	266.59681
707.643	339.781
708.078	305.71695
708.512	249.60671
708.946	273.63649
709.38	279.64202
709.814	298.65952
710.248	328.76875
710.682	275.63509
711.116	287.66201
711.549	297.74114
711.983	248.55985
712.416	305.69708
712.85	350.83535
713.283	276.63449
713.716	321.77713
714.149	290.6704
714.582	283.61678
715.015	366.87553
715.448	296.72187
715.881	307.64977
716.313	273.62169
716.746	265.60689
717.178	286.66614
717.61	323.78843
718.043	294.70923
718.475	300.70287
718.907	330.80387
719.339	256.5654
719.77	232.53804
720.202	302.7376
720.634	249.59058
721.065	308.70436
721.497	263.62739
721.928	251.6006
722.359	174.4147
722.79	255.59453
723.221	284.69313
723.652	286.71563
724.083	250.5503
724.514	306.67864
724.945	252.5777
725.375	215.48962
725.806	275.66704
726.236	305.75475
726.666	258.59525
727.096	288.68451
727.526	258.63765
727.956	258.571
728.386	292.69588
728.816	260.63976
729.246	241.57161
729.675	264.63134
730.105	288.68662
730.534	326.73291
730.964	307.74939
731.393	332.79301
731.822	311.76593
732.251	282.69363
732.68	264.60593
733.109	231.55696
733.537	271.63531
733.966	282.67849
734.395	281.62903
734.823	287.62762
735.251	263.61607
735.68	323.77873
736.108	271.66596
736.536	253.58197
736.964	246.55715
737.392	269.65396
737.82	251.58751
738.247	298.68971
738.675	294.67991
739.102	243.59209
739.53	230.57242
739.957	228.57362
740.384	311.74016
740.811	242.59899
741.238	230.5492
741.665	241.5455
742.092	240.56033
742.519	194.47244
742.945	226.53138
743.372	235.56853
743.798	252.63103
744.225	203.47479
744.651	229.56214
745.077	243.5912
745.503	211.50567
745.929	250.58459
746.355	316.7574
746.781	213.51803
747.207	181.41902
747.632	172.41417
748.058	230.56136
748.483	211.4774
748.908	189.46276
749.334	202.48788
749.759	211.48847
750.184	171.40278
750.609	232.55758
751.033	208.48372
751.458	268.58422
751.883	210.51102
752.307	177.41171
752.732	175.43119
753.156	195.4739
753.58	170.39988
754.005	225.55906
754.429	163.3796
754.853	172.42091
755.277	146.34356
755.7	184.4501
756.124	193.47115
756.548	146.34383
756.971	195.46875
757.394	156.39797
757.818	154.39245
758.241	186.46477
758.664	137.34376
759.087	123.27422
759.51	180.44195
759.933	128.30682
760.356	152.38613
760.778	169.41072
761.201	185.44387
761.623	203.48427
762.046	184.43112
762.468	204.4819
762.89	196.47607
763.312	156.37764
763.734	140.33508
764.156	135.33153
764.578	140.32083
765	160.38659
765.421	98.24869
765.843	185.4775
766.264	183.43623
766.686	151.37603
767.107	119.28769
767.528	80.20244
767.949	135.34106
768.37	130.31754
768.791	143.34376
769.212	95.23855
769.632	82.19198
770.053	103.27064
770.473	129.31234
770.894	155.38444
771.314	165.39016
771.734	72.16903
772.154	158.40123
772.575	126.2913
772.994	76.17382
773.414	157.37354
773.834	116.28903
774.254	112.27358
774.673	100.24372
775.093	51.12724
775.512	99.24376
775.931	123.31019
776.351	93.23101
776.77	45.11104
777.189	110.26127
777.607	131.33214
778.026	102.25369
778.445	59.14842
778.864	140.35602
779.282	82.19791
779.701	65.16463
780.119	34.08674
780.537	118.29294
780.955	122.30871
781.373	71.1763
781.791	125.27949
782.209	97.22385
782.627	67.17694
783.045	40.0931
783.462	88.22474
783.88	35.09128
784.297	102.2559
784.715	58.14953
785.132	67.16296
785.549	48.1209
785.966	44.1115
786.383	69.17033
786.8	100.23211
787.217	69.1643
787.633	26.06556
788.05	117.27687
788.466	131.30688
788.883	72.18388
789.299	62.15009
789.715	85.20674
790.131	47.11768
790.547	65.16293
790.963	41.10258
791.379	66.16731
791.795	26.06016
792.21	43.10148
792.626	86.20418
793.041	63.15609
793.457	51.12682
793.872	72.16983
794.287	23.05552
794.702	54.13382
795.117	50.1249
795.532	32.08086
795.947	116.27774
796.362	95.22664
796.776	88.20635
797.191	34.08398
797.605	7.01667
798.02	30.07372
798.434	62.13894
798.848	34.08444
799.262	22.05514
799.676	39.09596
800.09	49.12127
800.504	62.15105
800.918	33.07725
801.331	84.21993
801.745	16.03727
802.158	55.13806
802.572	73.17742
802.985	68.16486
803.398	76.18148
803.811	74.19038
804.224	55.13751
804.637	29.06977
805.05	41.09586
805.462	92.22556
805.875	47.12233
806.288	54.13082
806.7	47.11874
807.112	45.10513
807.525	72.1779
807.937	26.06485
808.349	34.08582
808.761	69.17002
809.173	18.04412
809.584	48.1193
809.996	36.08879
810.408	1.00261
810.819	12.02859
811.231	14.03652
811.642	17.04098
812.053	42.10053
812.464	72.17134
812.875	98.24931
813.286	69.17767
813.697	119.27626
814.108	77.18812
814.519	59.13214
814.929	73.1862
815.34	44.10736
815.75	36.09204
816.16	33.08287
816.571	41.10704
816.981	22.05252
817.391	19.04637
817.801	53.13208
818.211	72.1718
818.62	19.04621
819.03	38.09375
819.44	76.19831
819.849	63.15899
820.259	57.14626
820.668	13.03232
821.077	2.00503
821.486	43.10419
821.895	47.1167
822.304	34.09059
822.713	40.09519
823.122	40.10039
823.531	10.024
823.939	57.13926
824.348	46.1124
824.756	55.13816
825.164	36.09116
825.573	62.15577
825.981	55.13682
826.389	38.09602
826.797	38.09571
827.205	20.04639
827.612	47.11649
828.02	17.04034
828.428	33.08456
828.835	8.02126
829.243	28.0673
829.65	32.08008
830.057	40.09763
830.464	32.07851
830.871	41.09875
831.278	12.02932
831.685	35.07874
832.092	40.09847
832.499	27.05965
832.905	12.03068
833.312	41.09413
833.718	52.12994
834.124	52.11931
834.531	61.15395
834.937	73.18712
835.343	43.10427
835.749	70.16357
836.155	49.12862
836.561	-16.03995
836.966	62.15178
837.372	55.14024
837.777	10.02516
838.183	24.05389
838.588	27.06751
838.993	43.10517
839.399	31.07627
839.804	7.01724
840.209	43.10984
840.613	27.06059
841.018	70.17707
841.423	42.10813
841.828	22.05605
842.232	64.1586
842.637	34.08072
843.041	6.01553
843.445	53.13318
843.849	30.07472
844.253	38.09081
844.657	11.02795
845.061	33.0754
845.465	47.11389
845.869	61.14189
846.272	24.05886
846.676	48.11646
847.079	24.06142
847.483	88.21855
847.886	67.16296
848.289	28.0751
848.692	18.04594
849.095	40.0965
849.498	83.20962
849.901	57.13097
850.304	42.10079
850.707	49.12521
851.109	50.12679
851.512	38.09379
851.914	-29.07423
852.316	30.07629
852.718	-4.01044
853.121	26.06412
853.523	7.01654
853.925	1.00263
854.326	35.08789
854.728	11.02852
855.13	24.06226
855.531	-14.03393
855.933	41.09882
856.334	29.07269
856.736	14.03167
857.137	-22.05199
857.538	-7.0178
857.939	5.01247
858.34	37.09056
858.741	33.08662
859.142	44.10603
859.542	21.05574
859.943	44.10963
860.343	10.02498
860.744	58.14157
861.144	42.10278
861.544	-30.07331
861.945	18.0462
862.345	73.17808
862.745	8.02006
863.145	57.13635
863.544	35.0888
863.944	45.10661
864.344	38.09475
864.743	36.0897
865.143	45.11583
865.542	17.03976
865.941	13.03244
866.34	86.20497
866.74	48.129
867.139	-30.07303
867.537	17.04362
867.936	33.07981
868.335	42.10715
868.734	10.02576
869.132	36.08402
869.531	58.1403
869.929	-6.01385
870.327	25.0603
870.726	61.15202
871.124	50.11706
871.522	23.05894
871.92	37.09161
872.318	36.08836
872.715	76.18751
873.113	-48.11925
873.511	11.02763
873.908	-12.03066
874.306	54.13435
874.703	17.04284
875.1	1.00258
875.497	20.04829
875.894	2.00495
876.291	25.06171
876.688	0
877.085	21.05073
877.482	37.09294
877.878	9.02186
878.275	21.05368
878.671	81.17954
879.068	60.14476
879.464	31.07529
879.86	2.00478
880.256	67.16503
880.652	48.12224
881.048	47.11666
881.444	34.08128
881.84	47.11963
882.236	55.13831
882.631	42.10336
883.027	52.12602
883.422	62.15834
883.817	-8.02033
884.213	34.08756
884.608	8.01979
885.003	12.02917
885.398	7.01767
885.793	8.02025
886.188	-6.01508
886.582	30.07729
886.977	37.08814
887.371	29.07368
887.766	-26.06561
888.16	27.06773
888.554	61.15069
888.949	58.14557
889.343	48.11742
889.737	-8.02153
890.131	4.01013
890.525	32.08216
890.918	52.13093
891.312	21.05058
891.706	13.03434
892.099	66.16761
892.492	30.0651
892.886	35.08595
893.279	17.04359
893.672	23.05887
894.065	33.08296
894.458	42.10586
894.851	51.12506
895.244	21.05394
895.637	15.0364
896.029	22.05412
896.422	25.06142
896.814	33.08236
897.206	-8.01928
897.599	84.20663
897.991	13.03168
898.383	16.03809
898.775	0
899.167	6.01412
899.559	66.16671
899.951	42.09926
900.342	61.15494
900.734	-18.04524
901.125	55.14428
901.517	-2.00496
901.908	68.16263
902.299	-10.02474
902.69	-14.03347
903.082	64.1547
903.473	0
903.863	68.17305
904.254	38.08848
904.645	31.07742
905.036	10.02441
905.426	56.12818
905.817	69.16883
906.207	8.01923
906.597	25.0588
906.987	71.18346
907.378	31.07871
907.768	-6.01602
908.158	30.07347
908.547	50.12922
908.937	52.13346
909.327	37.09013
909.717	100.25178
910.106	9.0218
910.495	45.11251
910.885	8.02042
911.274	9.02267
911.663	70.17713
912.052	45.11121
912.441	32.08167
912.83	41.09435
913.219	16.04213
913.608	19.04683
913.997	-26.0661
914.385	10.02409
914.774	35.08551
915.162	-14.03379
915.55	26.06323
915.939	16.04065
916.327	33.08266
916.715	11.02824
917.103	97.2368
917.491	94.23081
917.878	12.02973
918.266	52.13485
918.654	1.00258
919.041	0
919.429	-7.01671
919.816	68.17189
920.203	9.022
920.591	39.09695
920.978	39.09574
921.365	43.11299
921.752	7.01683
922.139	16.03501
922.525	18.04351
922.912	29.07104
923.299	-4.01004
923.685	28.07334
924.072	38.08789
924.458	17.04238
924.844	40.0992
925.231	41.09564
925.617	10.02562
926.003	33.08462
926.389	52.13116
926.774	34.08643
927.16	37.09214
927.546	1.00257
927.931	82.2035
928.317	12.02786
928.702	60.14174
929.088	-13.03113
929.473	59.14991
929.858	-18.04408
930.243	21.05069
930.628	14.0343
931.013	-12.03008
931.398	50.11504
931.783	60.15774
932.167	14.03446
932.552	50.12531
932.937	54.13396
933.321	21.05298
933.705	37.09351
934.09	53.1339
934.474	27.06444
934.858	5.01307
935.242	10.02337
935.626	15.03864
936.009	39.10393
936.393	33.08423
936.777	27.06943
937.16	32.08353
937.544	78.18283
937.927	21.05357
938.311	70.17029
938.694	57.15059
939.077	10.02413
939.46	50.12282
939.843	69.14342
940.226	-5.01295
940.609	19.0439
940.991	23.05883
941.374	33.08092
941.757	31.07678
942.139	1.00227
942.522	9.02145
942.904	19.04595
943.286	54.13713
943.668	9.02348
944.05	69.16939
944.432	43.10627
944.814	34.08401
945.196	-45.11162
945.578	-12.02886
945.959	22.05185
946.341	41.10084
946.722	30.07071
947.104	33.07915
947.485	34.07939
947.866	-13.03312
948.247	-3.00764
948.628	46.11232
949.009	8.02064
949.39	42.10473
949.771	53.12324
950.152	55.13487
950.532	-23.05734
950.913	46.11106
951.293	22.0597
951.674	25.06076
952.054	-1.0025
952.434	34.08466
952.814	35.08353
953.194	76.19804
953.574	51.12562
953.954	41.09755
954.334	58.14436
954.714	10.02455
955.093	72.17633
955.473	27.0678
955.853	48.12431
956.232	33.09069
956.611	46.11043
956.99	43.10821
957.37	4.01028
957.749	22.05278
958.128	39.09846
958.506	2.00523
958.885	38.09612
959.264	14.03454
959.643	56.1273
960.021	39.09684
960.4	37.08409
960.778	53.1305
961.156	19.0479
961.535	49.11425
961.913	43.10077
962.291	4.01034
962.669	8.02042
963.047	34.08702
963.424	18.0462
963.802	8.01982
964.18	59.14906
964.557	47.10834
964.935	71.16756
965.312	12.03145
965.69	39.09786
966.067	13.03188
966.444	29.07175
966.821	36.09304
967.198	40.09723
967.575	28.06913
967.952	47.11084
968.329	16.03918
968.705	27.0582
969.082	40.10277
969.458	-29.07061
969.835	23.05628
970.211	32.08238
970.587	49.12203
970.963	74.18905
971.339	19.04987
971.715	37.09261
972.091	38.09379
972.467	26.06514
972.843	1.0025
973.219	59.14146
973.594	29.07612
973.97	94.22189
974.345	38.09116
974.721	64.15458
975.096	-8.01957
975.471	23.05485
975.846	21.05073
976.221	-12.03081
976.596	6.0145
976.971	10.02487
977.346	50.11642
977.72	4.01027
978.095	-1.00261
978.469	33.07903
978.844	50.12571
979.218	25.06021
979.593	62.14822
979.967	37.09036
980.341	25.05785
980.715	56.14095
981.089	9.0227
981.463	25.05769
981.837	10.02462
982.21	83.19192
982.584	-13.03177
982.957	0
983.331	36.08534
983.704	56.13745
984.078	21.05203
984.451	79.1963
984.824	-7.01723
985.197	-2.00491
985.57	36.09051
985.943	66.16254
986.316	61.14959
986.688	55.13252
987.061	13.03069
987.434	37.09663
987.806	58.14046
988.179	-12.02866
988.551	56.14191
988.923	74.18143
989.295	55.13732
989.667	-7.0169
990.039	15.0373
990.411	20.04631
990.783	39.09
991.155	21.05073
991.527	74.18143
991.898	-9.02266
992.27	21.05222
992.641	27.06802
993.012	68.15946
993.384	18.0432
993.755	13.03336
994.126	47.11311
994.497	12.02966
994.868	34.07835
995.239	32.07782
995.61	52.13079
995.98	15.03667
996.351	0
996.722	16.03736
997.092	30.07131
997.462	-14.03311
997.833	17.04056
998.203	35.0851
998.573	36.08986
998.943	21.04952
999.313	19.0458
999.683	14.03383
1000.053	11.02551
1000.423	31.0756
1000.792	56.14498
1001.162	-10.02488
1001.531	37.09144
1001.901	25.0626
1002.27	56.12503
1002.639	16.04112
1003.009	36.08584
1003.378	28.07186
1003.747	19.04515
1004.116	45.10777
1004.485	20.04807
1004.853	36.09142
1005.222	-23.05875
1005.591	72.17022
1005.959	19.04308
1006.328	-28.06401
1006.696	27.0654
1007.064	30.07573
1007.433	19.04775
1007.801	59.14457
1008.169	36.09113
1008.537	44.09755
1008.905	10.02348
1009.273	38.09406
1009.64	6.01443
1010.008	39.09315
1010.375	92.22162
1010.743	71.16326
1011.11	1.00239
1011.478	24.05967
1011.845	55.1292
1012.212	-54.12479
1012.579	51.12516
1012.946	-6.01443
1013.313	58.13781
1013.68	22.04973
1014.047	-14.03376
1014.414	22.05223
1014.78	-15.03771
1015.147	40.09691
1015.513	26.06292
1015.88	55.14049
1016.246	62.15268
1016.612	25.05751
1016.978	43.10548
1017.344	3.00748
1017.71	52.12674
1018.076	58.13654
1018.442	20.05171
1018.808	-15.03792
1019.174	6.01517
1019.539	49.11281
1019.905	22.05215
1020.27	-17.04246
1020.636	74.17657
1021.001	20.04814
1021.366	29.0699
1021.731	76.1945
1022.096	-14.0357
1022.461	2.00478
1022.826	47.11174
1023.191	13.03431
1023.556	65.15185
1023.92	51.12534
1024.285	57.1389
1024.649	43.10548
1025.014	64.15807
1025.378	10.02531
1025.742	-6.01505
1026.107	44.09962
1026.471	57.13285
1026.835	4.01
1027.199	-19.04632
1027.562	28.06535
1027.926	14.03445
1028.29	44.11142
1028.654	13.03012
1029.017	30.07399
1029.381	6.01445
1029.744	30.07675
1030.107	50.11826
1030.471	42.10068
1030.834	44.10019
1031.197	55.13232
1031.56	20.04745
1031.923	36.09326
1032.286	70.1637
1032.648	40.09581
1033.011	30.06911
1033.374	28.06607
1033.736	6.01589
1034.099	19.04656
1034.461	4.01018
1034.823	1.00251
1035.185	38.09582
1035.548	13.03184
1035.91	1.00242
1036.272	45.10248
1036.634	31.07608
1036.995	47.11049
1037.357	13.03183
1037.719	33.08047
1038.08	67.15849
1038.442	25.0596
1038.803	46.11048
1039.165	36.09103
1039.526	42.1016
1039.887	28.06725
1040.248	13.03223
1040.609	39.09652
1040.97	23.05646
1041.331	7.01785
1041.692	8.01882
1042.053	49.11155
1042.413	43.1003
1042.774	53.12876
1043.134	38.09064
1043.495	35.08817
1043.855	60.14519
1044.215	64.15836
1044.576	-1.00241
1044.936	23.05299
1045.296	44.10987
1045.656	36.08853
1046.016	81.19428
1046.375	2.00489
1046.735	13.02968
1047.095	33.07746
1047.454	43.09121
1047.814	53.12726
1048.173	68.16182
1048.533	-14.03247
1048.892	-21.05106
1049.251	53.1329
1049.61	-6.01492
1049.969	33.078
1050.328	52.11264
1050.687	19.04647
1051.046	28.06842
1051.405	51.12677
1051.763	31.07151
1052.122	34.08499
1052.48	33.08113
1052.839	25.05907
1053.197	10.02371
1053.555	49.11168
1053.914	49.1198
1054.272	55.13277
1054.63	-6.01481
1054.988	27.06439
1055.345	22.04763
1055.703	24.05801
1056.061	9.0233
1056.419	12.03125
1056.776	67.16186
1057.134	24.05582
1057.491	72.17946
1057.848	25.06248
1058.206	33.07782
1058.563	14.03108
1058.92	56.12885
1059.277	50.12327
1059.634	42.09891
1059.991	18.04336
1060.348	-19.04352
1060.704	7.01681
1061.061	69.15962
1061.418	20.04874
1061.774	32.07921
1062.131	13.03456
1062.487	23.05403
1062.843	32.07999
1063.199	7.01753
1063.555	9.02101
1063.911	66.16612
1064.267	37.07735
1064.623	24.05854
1064.979	84.19759
1065.335	37.08861
1065.691	55.13161
1066.046	-19.04236
1066.402	-4.00918
1066.757	56.1411
1067.112	29.0714
1067.468	16.038
1067.823	34.08194
1068.178	9.02192
1068.533	43.10431
1068.888	50.1194
1069.243	42.10374
1069.598	50.12141
1069.952	-35.08013
1070.307	-20.0501
1070.662	17.04059
1071.016	17.03832
1071.371	35.07981
1071.725	17.0409
1072.079	59.14156
1072.434	6.01469
1072.788	31.07404
1073.142	50.12291
1073.496	-34.08191
1073.85	-17.03992
1074.203	26.06332
1074.557	15.04009
1074.911	91.21535
1075.265	27.063
1075.618	42.10263
1075.971	11.02634
1076.325	43.10933
1076.678	29.06655
1077.031	19.04324
1077.385	16.03547
1077.738	50.11279
1078.091	37.0843
1078.444	16.03737
1078.796	29.07138
1079.149	56.13903
1079.502	-11.02627
1079.855	6.0141
1080.207	32.07904
1080.56	17.04415
1080.912	9.02206
1081.264	44.10599
1081.617	38.09275
1081.969	29.07337
1082.321	28.0686
1082.673	-39.09054
1083.025	11.02627
1083.377	32.0689
1083.728	58.135
1084.08	25.06264
1084.432	2.00486
1084.783	81.18849
1085.135	25.06289
1085.486	9.02075
1085.838	-10.02488
1086.189	23.05607
1086.54	52.12403
1086.891	-17.04347
1087.242	13.03184
1087.593	31.07568
1087.944	29.06586
1088.295	53.12031
1088.646	28.06809
1088.996	18.04359
1089.347	31.07627
1089.698	-33.07918
1090.048	80.20653
1090.398	25.05822
1090.749	40.09581
1091.099	26.06561
1091.449	54.13431
1091.799	17.04278
1092.149	4.00983
1092.499	44.10736
1092.849	13.03323
1093.199	40.10035
1093.548	36.08666
1093.898	34.08524
1094.248	62.15884
1094.597	10.02568
1094.947	20.05357
1095.296	42.10377
1095.645	38.09895
1095.994	21.05067
1096.343	36.09074
1096.692	27.07114
1097.041	-4.01091
1097.39	52.13027
1097.739	17.0444
1098.088	81.21571
1098.437	8.02115
1098.785	16.04334
1099.134	98.2579
1099.482	43.11829
1099.83	43.11303
1100.179	3.00788
1100.527	13.03472
1100.875	22.05838
1101.223	54.14316
1101.571	25.06929
1101.919	-40.10601
1102.267	19.0537
1102.615	-3.00965
1102.962	9.02898
1103.31	4.01285
1103.658	12.03865
