Data from N2 R7 sample 1_Subt2__3__15-42-00-552.txt Node

Date: Fri Aug 29 15:42:00 PDT 2025
User: uwsun
Spectrometer: HDX01956
Trigger mode: 0
Integration Time (sec): 5.000000E-1
Scans to average: 1
Nonlinearity correction enabled: true
Boxcar width: 0
Storing dark spectrum: false
XAxis mode: Wavelengths
Number of Pixels in Spectrum: 2068
>>>>>Begin Spectral Data<<<<<
194.03	33.09216
194.578	28.08824
195.127	6.01868
195.676	2.00625
196.225	26.06868
196.773	33.09
197.321	31.08278
197.87	96.23336
198.418	49.1186
198.966	57.13858
199.513	-19.04465
200.061	14.03324
200.609	76.18868
201.156	-31.06398
201.704	17.04011
202.251	-1.00249
202.798	20.04876
203.345	70.16164
203.892	39.09183
204.438	63.14051
204.985	50.10951
205.532	10.02471
206.078	57.13039
206.624	19.04364
207.17	74.15961
207.716	-4.00912
208.262	36.06653
208.808	4.00919
209.354	22.05001
209.899	96.2259
210.445	17.03944
210.99	35.07848
211.535	64.14023
212.08	76.1642
212.625	83.19299
213.17	86.20245
213.715	-22.04586
214.259	91.19649
214.804	66.15234
215.348	87.18463
215.892	69.15409
216.436	81.17497
216.98	42.08736
217.524	67.14727
218.068	72.16917
218.612	44.10406
219.155	59.12958
219.698	37.08276
220.242	58.1359
220.785	2.00443
221.328	63.14707
221.871	52.12427
222.414	36.08468
222.956	16.03624
223.499	8.01705
224.041	56.12296
224.583	62.12631
225.126	25.05203
225.668	2.0046
226.21	13.03086
226.751	-11.02276
227.293	18.03897
227.835	44.10071
228.376	80.17307
228.918	59.14005
229.459	5.01174
230	1.00225
230.541	44.09539
231.082	49.11128
231.622	52.11254
232.163	12.02739
232.704	5.01169
233.244	54.12524
233.784	57.13133
234.324	-8.01651
234.864	17.03631
235.404	48.10726
235.944	64.14201
236.484	69.16107
237.023	27.05985
237.563	1.00218
238.102	54.11922
238.641	79.18587
239.18	-16.03525
239.719	40.09409
240.258	42.08849
240.797	46.10258
241.335	66.1507
241.874	28.05035
242.412	-5.01132
242.95	5.01118
243.488	50.10645
244.026	4.00865
244.564	82.15603
245.102	55.11463
245.64	73.16383
246.177	48.10028
246.715	85.18927
247.252	65.1389
247.789	137.23655
248.326	0
248.863	1.00205
249.4	109.22757
249.936	58.11047
250.473	26.05646
251.009	25.05326
251.546	25.05134
252.082	73.14761
252.618	60.1233
253.154	41.09126
253.69	49.10226
254.226	53.11704
254.761	72.14896
255.297	43.08707
255.832	28.06153
256.367	65.14125
256.903	39.07926
257.438	52.11322
257.972	62.12729
258.507	11.02334
259.042	51.10222
259.576	-2.00399
260.111	61.13024
260.645	70.13943
261.179	50.10733
261.713	22.04531
262.247	69.1463
262.781	-9.01755
263.315	19.04304
263.849	42.09679
264.382	55.11662
264.915	-2.00434
265.449	-21.04728
265.982	48.10073
266.515	43.09646
267.048	21.04098
267.58	53.10687
268.113	55.1085
268.646	37.08392
269.178	17.03493
269.71	87.17293
270.243	78.16267
270.775	72.16725
271.307	14.03128
271.838	95.20635
272.37	75.16818
272.902	33.06911
273.433	33.06617
273.965	39.08709
274.496	34.07795
275.027	24.05471
275.558	58.12821
276.089	-10.02254
276.62	24.05637
277.15	73.16443
277.681	15.03005
278.211	67.14999
278.741	-56.11445
279.272	36.07481
279.802	71.16124
280.332	7.01511
280.861	45.0987
281.391	-2.00416
281.921	8.01774
282.45	89.20138
282.98	61.14463
283.509	19.03898
284.038	48.09908
284.567	86.18151
285.096	81.17639
285.625	13.02686
286.153	26.05524
286.682	24.04974
287.21	62.13419
287.739	67.14218
288.267	52.11317
288.795	71.1688
289.323	13.02741
289.851	79.16553
290.378	22.04462
290.906	2.00437
291.433	58.12982
291.961	22.04474
292.488	13.02928
293.015	43.0903
293.542	64.14419
294.069	24.0529
294.596	88.19396
295.122	24.05137
295.649	35.06908
296.175	50.10849
296.702	71.1533
297.228	73.15796
297.754	74.1465
298.28	7.01419
298.806	33.07049
299.332	29.05665
299.857	35.06986
300.383	38.08596
300.908	20.0428
301.433	3.00647
301.958	92.18658
302.483	4.00885
303.008	24.05279
303.533	59.13605
304.058	74.15323
304.582	16.03321
305.107	54.12325
305.631	74.1476
306.155	-12.02463
306.679	-12.02466
307.203	7.01424
307.727	26.05398
308.251	51.10988
308.775	14.02879
309.298	-14.02924
309.822	37.08136
310.345	67.13653
310.868	89.18153
311.391	80.16944
311.914	34.07346
312.437	56.10993
312.96	42.08463
313.482	7.01429
314.005	15.03247
314.527	30.06762
315.049	60.12991
315.571	7.01314
316.093	62.12982
316.615	23.047
317.137	47.08558
317.659	66.13544
318.18	33.06755
318.702	38.07396
319.223	30.05107
319.744	41.0761
320.265	32.06427
320.786	53.10776
321.307	23.04755
321.828	59.10901
322.348	34.06561
322.869	4.00772
323.389	-209.29146
323.909	30.05608
324.43	104.20319
324.95	-7.013
325.47	53.10417
325.989	47.08802
326.509	33.05686
327.029	23.04067
327.548	-32.05695
328.067	13.02462
328.587	22.04349
329.106	31.05464
329.625	90.18761
330.144	2.00357
330.662	21.03721
331.181	49.08732
331.7	60.10623
332.218	23.0373
332.736	69.12073
333.255	9.01575
333.773	35.06182
334.291	94.17529
334.808	-8.01313
335.326	68.11076
335.844	-30.05079
336.361	73.13258
336.879	30.04966
337.396	30.05151
337.913	17.02751
338.43	44.06837
338.947	-3.00504
339.464	-1.00145
339.981	24.03903
340.497	67.11402
341.014	-16.02702
341.53	12.01804
342.046	43.07093
342.562	43.0729
343.078	0
343.594	15.02384
344.11	1.00158
344.626	26.04335
345.141	34.04929
345.657	126.17801
346.172	21.03258
346.687	-28.04092
347.202	24.03315
347.717	117.1702
348.232	53.0833
348.747	3.00423
349.261	-66.08559
349.776	23.03269
350.29	15.02223
350.805	50.07551
351.319	41.05625
351.833	-50.06613
352.347	4.0055
352.861	-5.00673
353.374	32.04252
353.888	98.13433
354.401	40.05127
354.915	-3.00364
355.428	52.07244
355.941	-21.02693
356.454	95.11371
356.967	-16.02109
357.48	94.11387
357.993	51.06874
358.505	-10.01333
359.018	-33.0443
359.53	10.01266
360.042	42.04687
360.554	59.07435
361.066	20.02523
361.578	39.04103
362.09	-21.02585
362.602	20.02096
363.113	55.06125
363.625	-19.02043
364.136	45.04547
364.647	-80.08645
365.158	60.06381
365.669	60.06664
366.18	74.07883
366.691	89.08307
367.201	27.02919
367.712	68.06457
368.222	11.01066
368.733	-20.01714
369.243	16.01365
369.753	42.03869
370.263	-39.03872
370.773	-9.00919
371.282	-27.02477
371.792	-63.04912
372.301	-100.08924
372.811	-31.03093
373.32	-53.031
373.829	-36.02517
374.338	-26.01486
374.847	-5.0028
375.356	-102.0607
375.865	-74.02528
376.373	-44.01655
376.882	33.0172
377.39	5.002
377.898	-192.07015
378.407	-145.02503
378.915	-66.00436
379.423	-74.00727
379.93	-49.99942
380.438	-177.99651
380.946	-90.98685
381.453	-267.95622
381.96	-253.9312
382.468	-362.86339
382.975	-186.92431
383.482	-114.94374
383.989	-279.87938
384.495	-265.86028
385.002	-410.76778
385.509	-352.80013
386.015	-328.83024
386.521	-340.82337
387.028	-395.81809
387.534	-381.85767
388.04	-200.92495
388.546	-512.89731
389.051	-690.00235
389.557	-730.15243
390.063	-367.14888
390.568	-443.2954
391.073	-647.68897
391.578	-644.78486
392.084	-761.3473
392.589	-1168.77595
393.093	-1611.87884
393.598	-1394.83018
394.103	-1476.75817
394.607	-1410.70688
395.112	-1309.48147
395.616	-1367.69253
396.12	-1857.69143
396.624	-2320.42659
397.128	-2207.13607
397.632	-2053.62507
398.136	-2598.45191
398.639	-4136.51717
399.143	-5773.66751
399.646	-5981.58653
400.15	-6633.24173
400.653	-8187.6202
401.156	-10296.73813
401.659	-12757.21494
402.162	-6207.93416
402.664	-1227.43152
403.167	0
403.67	0
404.172	0
404.674	0
405.176	0
405.678	0
406.18	0
406.682	0
407.184	0
407.686	0
408.187	0
408.688	0
409.19	0
409.691	0
410.192	0
410.693	0
411.194	435.30976
411.694	4002.96517
412.195	6591.77337
412.696	4372.19656
413.196	1441.94769
413.696	-52.87823
414.196	1501.90149
414.696	4247.66794
415.196	6614.30484
415.696	10061.25833
416.196	8750.34038
416.695	4297.78988
417.195	1455.06214
417.694	1353.66913
418.194	1584.62984
418.693	936.94509
419.192	757.10312
419.691	638.36765
420.19	1037.16646
420.688	1178.13984
421.187	1527.74231
421.685	1652.28839
422.184	1846.41079
422.682	1654.31758
423.18	857.02277
423.678	448.00455
424.176	251.38042
424.674	286.30066
425.172	533.29309
425.669	680.0904
426.167	736.92046
426.664	560.82189
427.161	393.81371
427.659	280.84246
428.156	191.89267
428.652	198.89305
429.149	146.92306
429.646	83.95706
430.143	277.87914
430.639	229.91137
431.135	146.96173
431.632	102.97449
432.128	101.98736
432.624	-76.0029
433.12	-137.98848
433.616	-113.99257
434.111	-258.01966
434.607	-264.04761
435.103	-81.00696
435.598	32.00263
436.093	0
436.588	39.01328
437.083	-7.00302
437.578	-56.02983
438.073	-138.0935
438.568	-15.01101
439.062	-34.01849
439.557	-75.0589
440.051	-128.09558
440.546	-245.20021
441.04	-190.17414
441.534	-158.16577
442.028	-62.05898
442.522	-219.2232
443.015	-179.15601
443.509	-120.12866
444.002	-205.22817
444.496	-184.17092
444.989	-132.14787
445.482	-213.25388
445.975	-241.24584
446.468	-152.14068
446.961	-236.2291
447.454	-206.22107
447.947	-252.29217
448.439	-156.18954
448.931	-262.28884
449.424	-188.25033
449.916	-157.1955
450.408	-280.32222
450.9	-224.28478
451.392	-235.32289
451.884	-224.27454
452.375	-324.45089
452.867	-163.19769
453.358	-261.31888
453.849	-242.27282
454.341	-214.26209
454.832	-194.22204
455.323	-319.45609
455.814	-208.27069
456.304	-249.33213
456.795	-216.28398
457.285	-206.26863
457.776	-155.20852
458.266	-264.37778
458.756	-231.34044
459.247	-313.46049
459.737	-285.41876
460.226	-233.31577
460.716	-237.35293
461.206	-229.34766
461.695	-234.38181
462.185	-209.31406
462.674	-269.4045
463.163	-213.30143
463.653	-217.28847
464.142	-283.45621
464.63	-235.38807
465.119	-208.31586
465.608	-328.51815
466.096	-236.34664
466.585	-196.30905
467.073	-228.38143
467.561	-223.37603
468.05	-166.26644
468.538	-166.28686
469.026	-213.3625
469.513	-226.33215
470.001	-256.41561
470.489	-210.35498
470.976	-226.3785
471.463	-203.37283
471.951	-231.43409
472.438	-237.4123
472.925	-242.41955
473.412	-187.3476
473.899	-192.33126
474.385	-221.41653
474.872	-207.36506
475.359	-259.49127
475.845	-236.37235
476.331	-117.19223
476.817	-238.45927
477.303	-193.34929
477.789	-238.45618
478.275	-261.51926
478.761	-212.4087
479.247	-207.37099
479.732	-264.5327
480.218	-174.3653
480.703	-222.44981
481.188	-236.41045
481.673	-220.41047
482.158	-302.52525
482.643	-197.4166
483.128	-261.49216
483.612	-205.39587
484.097	-206.42274
484.581	-233.45664
485.066	-275.56701
485.55	-211.3844
486.034	-224.4055
486.518	-215.42276
487.002	-255.52979
487.486	-210.43406
487.969	-189.38952
488.453	-230.50096
488.936	-226.43569
489.42	-179.33737
489.903	-175.37963
490.386	-175.24278
490.869	-197.37129
491.352	-138.29177
491.835	-237.42958
492.318	-225.44201
492.8	-202.36305
493.283	-218.4847
493.765	-258.56123
494.247	-188.38754
494.73	-211.4102
495.212	-166.35389
495.694	-244.50434
496.175	-311.6591
496.657	-221.46714
497.139	-205.31979
497.62	-268.56586
498.102	-217.47796
498.583	-199.44475
499.064	-250.49796
499.545	-206.41911
500.026	-265.53582
500.507	-230.48009
500.988	-237.53164
501.469	-268.60673
501.949	-217.48458
502.43	-265.56824
502.91	-281.5291
503.39	-242.55233
503.87	-261.55628
504.35	-236.50857
504.83	-232.45974
505.31	-264.58306
505.79	-261.56836
506.269	-233.49704
506.749	-257.5349
507.228	-265.568
507.707	-258.52346
508.187	-205.44661
508.666	-315.71471
509.145	-240.51097
509.623	-275.59477
510.102	-237.52617
510.581	-216.47865
511.059	-268.61659
511.538	-183.43121
512.016	-267.5903
512.494	-233.52095
512.972	-238.52257
513.45	-305.65288
513.928	-272.60952
514.406	-319.71114
514.884	-228.53775
515.361	-228.50188
515.839	-247.51935
516.316	-227.5023
516.793	-228.53357
517.27	-217.48658
517.747	-275.65525
518.224	-207.44177
518.701	-195.39917
519.178	-269.61753
519.654	-212.46764
520.131	-258.59359
520.607	-258.59833
521.083	-263.56103
521.56	-221.4833
522.036	-223.45566
522.512	-233.5364
522.987	-259.57118
523.463	-223.49159
523.939	-255.58587
524.414	-212.45607
524.89	-234.51789
525.365	-295.63147
525.84	-275.60951
526.315	-278.62885
526.79	-244.51564
527.265	-235.50109
527.74	-246.56032
528.215	-266.58994
528.689	-253.52611
529.164	-226.46064
529.638	-249.60081
530.112	-279.61915
530.587	-260.52125
531.061	-254.5734
531.534	-223.50661
532.008	-285.64691
532.482	-241.52146
532.956	-274.65575
533.429	-231.52499
533.903	-260.54608
534.376	-245.51106
534.849	-174.37481
535.322	-231.51243
535.795	-252.58117
536.268	-249.5636
536.741	-229.51771
537.213	-184.39703
537.686	-267.61343
538.158	-276.58506
538.631	-224.51331
539.103	-265.56162
539.575	-215.42356
540.047	-252.52578
540.519	-236.5332
540.991	-226.52184
541.463	-244.55824
541.934	-186.39756
542.406	-245.55026
542.877	-240.51208
543.348	-228.51954
543.82	-206.47472
544.291	-169.36865
544.762	-246.54944
545.233	-223.5232
545.703	-306.64694
546.174	-192.41678
546.645	-273.61289
547.115	-246.5567
547.585	-203.43605
548.056	-298.67628
548.526	-247.54175
548.996	-189.42118
549.466	-180.40752
549.935	-268.59165
550.405	-257.52608
550.875	-224.49079
551.344	-215.47753
551.814	-227.48445
552.283	-244.4971
552.752	-248.53351
553.221	-249.50024
553.69	-209.42686
554.159	-247.55771
554.628	-263.54349
555.096	-249.58123
555.565	-224.46113
556.033	-160.34584
556.502	-198.44407
556.97	-181.37253
557.438	-208.46112
557.906	-175.38805
558.374	-204.44094
558.842	-198.44462
559.31	-197.41714
559.777	-255.58516
560.245	-170.37688
560.712	-174.38076
561.18	-206.4321
561.647	-164.34567
562.114	-175.37607
562.581	-166.38575
563.048	-181.39683
563.514	-214.49826
563.981	-131.28237
564.448	-156.33127
564.914	-128.28081
565.381	-135.29061
565.847	-137.30315
566.313	-117.2563
566.779	-73.15356
567.245	-146.32314
567.711	-77.17167
568.176	-136.28779
568.642	-57.13201
569.108	-105.24106
569.573	-29.06323
570.038	-39.07614
570.504	-34.07012
570.969	-20.04605
571.434	-33.06651
571.899	33.07125
572.363	25.0518
572.828	75.15499
573.293	35.07288
573.757	45.09358
574.222	74.14781
574.686	46.09278
575.15	70.14923
575.614	102.20856
576.078	120.24982
576.542	181.36161
577.006	118.23635
577.469	224.48499
577.933	124.24538
578.396	222.45989
578.86	184.38083
579.323	188.39173
579.786	137.26202
580.249	146.29338
580.712	192.41251
581.175	181.39248
581.637	208.42086
582.1	158.30811
582.563	179.34019
583.025	135.29061
583.487	137.24528
583.95	106.20307
584.412	172.31947
584.874	107.23252
585.336	113.23949
585.797	60.11762
586.259	159.33388
586.721	98.20638
587.182	129.27136
587.643	129.26239
588.105	123.26079
588.566	91.17345
589.027	54.11767
589.488	104.21362
589.949	122.26517
590.41	94.16434
590.87	126.2588
591.331	107.20881
591.791	74.1544
592.252	39.08106
592.712	56.12249
593.172	81.16498
593.632	128.25246
594.092	99.19926
594.552	94.18287
595.011	77.15948
595.471	124.24894
595.931	97.19505
596.39	81.17504
596.849	124.25872
597.308	137.26672
597.768	120.27312
598.227	154.33087
598.685	157.32269
599.144	177.36676
599.603	227.47183
600.062	182.3367
600.52	191.37486
600.978	248.51329
601.437	275.54661
601.895	241.44485
602.353	297.56858
602.811	342.64603
603.269	358.72901
603.727	348.70994
604.184	358.68123
604.642	437.89453
605.099	477.91322
605.557	509.01939
606.014	497.86934
606.471	561.12995
606.928	558.94968
607.385	570.10834
607.842	702.24387
608.299	806.42638
608.755	837.52252
609.212	797.32973
609.668	760.26818
610.125	894.61452
610.581	972.70669
611.037	974.63273
611.493	999.73091
611.949	947.68569
612.405	1015.42099
612.861	1094.84862
613.316	1091.86095
613.772	1051.73404
614.227	1114.86427
614.683	1089.64424
615.138	1092.82234
615.593	1108.82898
616.048	1200.90868
616.503	1195.08253
616.958	1133.04342
617.412	1180.96446
617.867	1122.73733
618.321	1213.70261
618.776	1117.75426
619.23	1145.91689
619.684	1157.85301
620.138	1193.96507
620.592	1172.04281
621.046	1107.89339
621.5	1098.95775
621.954	1136.84136
622.407	1075.74741
622.861	1053.90771
623.314	1067.79067
623.768	1047.81242
624.221	959.39613
624.674	1007.74389
625.127	995.76405
625.58	1003.73419
626.033	1028.70297
626.485	1012.83836
626.938	1003.82428
627.39	949.70493
627.843	943.6898
628.295	971.72852
628.747	961.77332
629.199	905.61075
629.651	838.51625
630.103	869.57766
630.555	887.46904
631.006	904.68
631.458	877.65193
631.909	930.68993
632.361	861.6154
632.812	848.57651
633.263	870.49287
633.714	901.52603
634.165	899.75804
634.616	867.67141
635.067	864.54831
635.518	922.76783
635.968	957.49236
636.419	880.53668
636.869	888.71645
637.319	904.68249
637.769	912.63119
638.219	967.85203
638.669	928.78448
639.119	977.91348
639.569	894.7602
640.019	929.73381
640.468	931.66824
640.918	1052.00157
641.367	1016.79347
641.816	1017.79012
642.265	984.81721
642.714	989.82601
643.163	989.8142
643.612	980.88643
644.061	1026.68657
644.51	1042.86527
644.958	990.72297
645.406	1034.96676
645.855	1033.02656
646.303	1070.97245
646.751	1104.94625
647.199	1070.90671
647.647	1022.86783
648.095	1044.88993
648.543	1112.73782
648.99	1011.93829
649.438	1078.00269
649.885	1024.04511
650.333	1046.55873
650.78	959.88967
651.227	957.90335
651.674	960.77015
652.121	977.93777
652.568	945.88294
653.015	941.97289
653.461	920.80128
653.908	887.71329
654.354	899.7829
654.801	853.67111
655.247	947.68829
655.693	860.90143
656.139	796.62429
656.585	795.62482
657.031	788.55778
657.477	737.35791
657.922	761.49696
658.368	778.65137
658.813	766.53049
659.259	711.48314
659.704	720.45176
660.149	695.41059
660.594	718.48086
661.039	701.38783
661.484	717.49434
661.929	623.29418
662.373	575.30553
662.818	652.43354
663.262	637.35975
663.707	591.34732
664.151	587.28966
664.595	608.31038
665.039	605.35207
665.483	563.29889
665.927	599.26527
666.371	564.17327
666.814	566.22287
667.258	523.12477
667.701	658.25366
668.145	624.39371
668.588	550.22774
669.031	498.0716
669.474	527.15912
669.917	507.0285
670.36	515.17149
670.803	499.10892
671.245	498.96334
671.688	513.14998
672.13	454.94383
672.573	508.18972
673.015	455.01516
673.457	471.94885
673.899	493.10282
674.341	508.12778
674.783	463.02921
675.225	458.04688
675.666	405.91439
676.108	429.87219
676.549	455.00386
676.991	454.93206
677.432	430.79915
677.873	401.8754
678.314	412.9262
678.755	446.01245
679.196	396.85589
679.637	452.03149
680.078	372.82807
680.518	427.93649
680.959	406.91758
681.399	401.93924
681.839	394.9075
682.28	352.82789
682.72	327.7175
683.16	324.77361
683.6	373.8098
684.039	338.67481
684.479	347.81312
684.919	309.68429
685.358	387.93228
685.798	362.9041
686.237	368.8483
686.676	390.8595
687.115	328.74012
687.554	345.78372
687.993	346.73279
688.432	276.61237
688.871	303.66317
689.309	331.75831
689.748	353.70623
690.186	357.81524
690.625	266.60612
691.063	293.67935
691.501	349.82547
691.939	305.73312
692.377	289.682
692.815	267.6203
693.253	320.7412
693.69	259.55538
694.128	286.67033
694.565	252.5865
695.003	317.77437
695.44	255.58422
695.877	296.66793
696.314	289.60364
696.751	307.67731
697.188	241.5415
697.625	326.72148
698.061	263.6139
698.498	306.71552
698.934	280.65448
699.371	264.60448
699.807	291.66669
700.243	280.65345
700.679	292.64112
701.115	310.70551
701.551	277.63411
701.987	299.65138
702.422	286.658
702.858	236.55035
703.294	269.59373
703.729	292.69188
704.164	268.62742
704.599	291.6283
705.035	246.53808
705.47	266.62882
705.904	222.50771
706.339	307.69091
706.774	278.63218
707.209	201.457
707.643	272.63503
708.078	237.5645
708.512	235.57409
708.946	263.61439
709.38	236.54775
709.814	273.60735
710.248	272.6445
710.682	229.53371
711.116	218.50977
711.549	241.60751
711.983	268.60253
712.416	218.50697
712.85	222.54284
713.283	237.54909
713.716	269.65763
714.149	257.59801
714.582	220.48589
715.015	259.63224
715.448	247.60789
715.881	297.62998
716.313	248.56762
716.746	259.59386
717.178	216.51005
717.61	213.53059
718.043	251.61044
718.475	233.55306
718.907	270.6651
719.339	183.41034
719.77	175.41043
720.202	212.52647
720.634	191.45809
721.065	262.60472
721.497	236.5659
721.928	237.56862
722.359	192.45601
722.79	216.50747
723.221	247.60699
723.652	280.70138
724.083	228.50419
724.514	244.54813
724.945	222.51199
725.375	203.46342
725.806	212.52032
726.236	266.66296
726.666	214.49807
727.096	229.55047
727.526	222.55231
727.956	237.52683
728.386	223.53849
728.816	169.42283
729.246	226.53758
729.675	202.4888
730.105	238.57286
730.534	245.55996
730.964	229.56713
731.393	240.58336
731.822	251.62501
732.251	254.628
732.68	287.65568
733.109	231.55696
733.537	231.54578
733.966	241.58436
734.395	243.54823
734.823	231.51115
735.251	202.47884
735.68	255.62271
736.108	217.53859
736.536	261.59941
736.964	192.43963
737.392	241.58897
737.82	217.51131
738.247	211.49679
738.675	275.63838
739.102	169.41748
739.53	185.4642
739.957	236.59289
740.384	285.68168
740.811	237.58715
741.238	243.57879
741.665	179.41028
742.092	235.5492
742.519	154.37784
742.945	227.53363
743.372	184.44943
743.798	202.5104
744.225	165.3888
744.651	155.3857
745.077	186.45736
745.503	223.5332
745.929	179.4244
746.355	250.60675
746.781	182.44521
747.207	158.36745
747.632	160.38615
748.058	174.42912
748.483	180.40984
748.908	138.34109
749.334	154.37532
749.759	174.40577
750.184	160.37767
750.609	174.42279
751.033	217.50375
751.458	164.3654
751.883	180.44048
752.307	121.28457
752.732	135.33508
753.156	142.34853
753.58	184.43162
754.005	152.3827
754.429	157.36606
754.853	131.32302
755.277	169.3959
755.7	146.35967
756.124	97.24103
756.548	95.22594
756.971	141.34242
757.394	141.36066
757.818	134.34269
758.241	154.38704
758.664	135.33887
759.087	100.22401
759.51	125.31004
759.933	131.31384
760.356	158.40094
760.778	87.21468
761.201	156.37636
761.623	154.37083
762.046	170.39941
762.468	141.33715
762.89	137.33644
763.312	135.3281
763.734	112.26949
764.156	132.32435
764.578	150.34305
765	108.26351
765.421	66.16844
765.843	111.29018
766.264	138.3318
766.686	124.31031
767.107	72.17561
767.528	96.24223
767.949	118.29902
768.37	71.17533
768.791	117.28265
769.212	25.06357
769.632	55.12945
770.053	103.27064
770.473	86.20991
770.894	137.34092
771.314	113.26989
771.734	55.12955
772.154	105.26914
772.575	151.34735
772.994	56.12859
773.414	118.28285
773.834	72.18083
774.254	103.25201
774.673	92.22456
775.093	73.1814
775.512	45.1119
775.931	112.28301
776.351	74.18445
776.77	42.1037
777.189	64.15336
777.607	130.32966
778.026	40.10061
778.445	14.0355
778.864	96.24603
779.282	48.11659
779.701	77.1946
780.119	23.05879
780.537	32.08069
780.955	68.17372
781.373	78.19343
781.791	57.12923
782.209	59.13719
782.627	49.1298
783.045	117.26818
783.462	80.2046
783.88	59.15324
784.297	70.17663
784.715	41.10601
785.132	82.19888
785.549	12.03042
785.966	86.2163
786.383	56.13857
786.8	50.1172
787.217	48.11475
787.633	46.11557
788.05	129.30456
788.466	115.27025
788.883	41.10528
789.299	64.15487
789.715	88.21391
790.131	70.17454
790.547	64.16045
790.963	73.18159
791.379	10.0256
791.795	26.06016
792.21	105.24482
792.626	59.14081
793.041	85.20975
793.457	50.12436
793.872	79.18608
794.287	-6.01456
794.702	90.22156
795.117	52.12985
795.532	44.11095
795.947	53.12842
796.362	73.17489
796.776	99.23165
797.191	5.01242
797.605	0
798.02	54.1321
798.434	56.12565
798.848	59.14586
799.262	32.08005
799.676	81.19774
800.09	17.04232
800.504	100.2419
800.918	65.1512
801.331	32.08453
801.745	5.01167
802.158	55.13806
802.572	106.25602
802.985	66.16007
803.398	72.17206
803.811	90.2309
804.224	70.17454
804.637	28.06737
805.05	57.13285
805.462	90.22074
805.875	-2.00525
806.288	17.04147
806.7	80.20092
807.112	41.09586
807.525	79.19494
807.937	36.08963
808.349	45.11337
808.761	73.17974
809.173	44.10732
809.584	37.09214
809.996	18.04454
810.408	10.02608
810.819	26.06178
811.231	-2.00523
811.642	21.05058
812.053	35.08388
812.464	81.19242
812.875	80.20417
813.286	47.12149
813.697	82.19176
814.108	58.1422
814.519	43.09662
814.929	67.17108
815.34	45.10978
815.75	31.07932
816.16	41.10281
816.571	51.13292
816.981	7.01676
817.391	43.10447
817.801	37.09248
818.211	20.0482
818.62	31.07523
819.03	30.07413
819.44	75.19574
819.849	40.10136
820.259	55.14118
820.668	6.01493
821.077	-11.02772
821.486	46.1114
821.895	65.16087
822.304	24.06405
822.713	50.11876
823.122	38.0954
823.531	13.03118
823.939	59.14409
824.348	102.24664
824.756	56.14065
825.164	47.11878
825.573	62.15577
825.981	38.09482
826.389	70.17587
826.797	47.11819
827.205	0
827.612	74.1825
828.02	8.01902
828.428	33.08456
828.835	43.1136
829.243	40.09592
829.65	3.00755
830.057	-22.05432
830.464	43.10529
830.871	93.22178
831.278	50.12131
831.685	75.16735
832.092	42.10336
832.499	18.03984
832.905	49.12446
833.312	60.13722
833.718	61.15218
834.124	15.03467
834.531	16.0407
834.937	66.16939
835.343	72.17364
835.749	64.14972
836.155	39.10255
836.561	38.09396
836.966	56.13725
837.372	69.1755
837.777	11.02767
838.183	67.14913
838.588	11.02758
838.993	19.04668
839.399	30.07383
839.804	-10.02471
840.209	0
840.613	55.12272
841.018	44.11182
841.423	44.11324
841.828	6.01533
842.232	51.12668
842.637	15.03574
843.041	18.04649
843.445	17.043
843.849	17.04244
844.253	72.17095
844.657	37.09358
845.061	18.04125
845.465	39.09464
845.869	74.17169
846.272	15.03685
846.676	71.17152
847.079	18.04612
847.483	47.1176
847.886	98.23697
848.289	56.14951
848.692	28.07133
849.095	69.16556
849.498	85.21459
849.901	27.06241
850.304	63.15059
850.707	37.09474
851.109	70.17688
851.512	33.08152
851.914	-3.00764
852.316	37.09398
852.718	-6.01566
853.121	7.01732
853.523	30.07057
853.925	-8.0211
854.326	6.01515
854.728	37.09551
855.13	-2.00521
855.531	14.03375
855.933	38.09165
856.334	-27.06836
856.736	58.13003
857.137	11.02583
857.538	24.06071
857.939	4.00998
858.34	44.10756
858.741	63.16453
859.142	35.08449
859.542	32.08478
859.943	62.15398
860.343	22.05484
860.744	62.15122
861.144	26.06382
861.544	-39.09546
861.945	51.13013
862.345	1.00247
862.745	23.05753
863.145	98.23259
863.544	46.11649
863.944	65.1534
864.344	32.07988
864.743	55.13657
865.143	38.09793
865.542	45.10468
865.941	33.08206
866.34	30.07227
866.74	51.13699
867.139	-19.04616
867.537	45.1149
867.936	25.06055
868.335	33.08432
868.734	44.11269
869.132	34.07939
869.531	34.08262
869.929	-8.01848
870.327	27.0651
870.726	58.14462
871.124	74.17244
871.522	10.02568
871.92	35.08669
872.318	15.03696
872.715	62.15336
873.113	33.08077
873.511	38.09499
873.908	-49.126
874.306	-6.01509
874.703	68.1698
875.1	57.1458
875.497	45.10814
875.894	5.01237
876.291	26.06417
876.688	14.03637
877.085	26.06275
877.482	18.04537
877.878	-22.05374
878.275	53.13471
878.671	52.11596
879.068	38.09206
879.464	6.01464
879.86	38.09019
880.256	41.10147
880.652	37.09441
881.048	37.09201
881.444	48.11445
881.84	36.09181
882.236	50.12585
882.631	42.10336
883.027	34.08268
883.422	26.06682
883.817	9.0228
884.213	45.11567
884.608	1.00248
885.003	11.02674
885.398	1.00253
885.793	17.04296
886.188	1.00251
886.582	114.2894
886.977	67.15868
887.371	80.20143
887.766	-11.02768
888.16	83.20609
888.554	48.11886
888.949	36.09071
889.343	38.09313
889.737	-24.06477
890.131	33.0831
890.525	41.1051
890.918	10.02537
891.312	46.11027
891.706	48.12606
892.099	86.21762
892.492	45.09733
892.886	20.04925
893.279	11.02824
893.672	35.0894
894.065	53.13275
894.458	8.02029
894.851	35.08608
895.244	40.10241
895.637	45.10859
896.029	48.11751
896.422	27.06631
896.814	15.03756
897.206	8.01922
897.599	79.19451
897.991	24.05836
898.383	49.11591
898.775	-5.01142
899.167	-10.02361
899.559	85.21398
899.951	39.09222
900.342	44.11209
900.734	-31.0781
901.125	37.09735
901.517	66.16164
901.908	69.16499
902.299	0
902.69	-3.00716
903.082	63.15231
903.473	1.00242
903.863	48.12259
904.254	45.10463
904.645	81.20047
905.036	-3.00734
905.426	35.08045
905.817	47.11547
906.207	37.08844
906.597	38.08914
906.987	23.05992
907.378	36.09132
907.768	45.11912
908.158	54.13166
908.547	36.09326
908.937	48.12328
909.327	60.14552
909.717	67.16969
910.106	40.09632
910.495	52.12985
910.885	4.01022
911.274	32.08028
911.663	43.10933
912.052	77.18917
912.441	45.11458
912.83	51.11713
913.219	62.162
913.608	33.08113
913.997	-18.04569
914.385	27.06483
914.774	80.19381
915.162	19.04557
915.55	59.14259
915.939	-9.02296
916.327	64.15941
916.715	3.00771
917.103	41.10114
917.491	66.16289
917.878	3.00744
918.266	33.08586
918.654	22.0565
919.041	24.06295
919.429	6.01429
919.816	35.08899
920.203	31.07548
920.591	13.03247
920.978	21.05173
921.365	53.13903
921.752	4.00962
922.139	44.09572
922.525	-10.0243
922.912	34.08321
923.299	52.12924
923.685	4.01052
924.072	48.11079
924.458	30.07461
924.844	-19.04763
925.231	5.01175
925.617	-11.02829
926.003	16.04115
926.389	27.06841
926.774	19.04843
927.16	61.15125
927.546	-25.06467
927.931	51.12728
928.317	23.05329
928.702	23.05472
929.088	-9.02154
929.473	41.10451
929.858	-23.05638
930.243	1.00242
930.628	15.03674
931.013	-9.02255
931.398	57.13097
931.783	56.14732
932.167	26.06386
932.552	45.11288
932.937	37.09207
933.321	25.06303
933.705	33.08346
934.09	66.16636
934.474	32.0763
934.858	27.07032
935.242	29.06751
935.626	29.07452
936.009	19.0508
936.393	41.10451
936.777	-25.06487
937.16	50.13011
937.544	43.10148
937.927	12.03066
938.311	75.18228
938.694	75.19754
939.077	24.05775
939.46	42.10332
939.843	68.14137
940.226	35.09003
940.609	9.02084
940.991	55.13989
941.374	-20.04953
941.757	29.07185
942.139	27.06094
942.522	74.17414
942.904	25.0604
943.286	57.14467
943.668	34.08832
944.05	17.04214
944.432	28.06939
944.814	24.05941
945.196	-29.07172
945.578	16.03828
945.959	10.02362
946.341	50.12277
946.722	49.11506
947.104	36.0863
947.485	12.02814
947.866	21.05319
948.247	6.01526
948.628	64.15575
949.009	34.08732
949.39	54.13435
949.771	66.15307
950.152	29.07146
950.532	-7.0174
950.913	38.09189
951.293	3.00817
951.674	17.04138
952.054	35.08697
952.434	-2.00501
952.814	41.09774
953.194	54.14124
953.574	53.1305
953.954	-15.03607
954.334	44.10979
954.714	14.03435
955.093	59.14484
955.473	-23.05827
955.853	27.07018
956.232	35.09616
956.611	66.15785
956.99	17.04298
957.37	16.04102
957.749	53.12639
958.128	14.0355
958.506	14.03654
958.885	28.07095
959.264	-11.02726
959.643	16.03667
960.021	-21.05271
960.4	44.09986
960.778	54.13293
961.156	16.04036
961.535	38.08879
961.913	68.15858
962.291	29.07467
962.669	8.02042
963.047	50.1276
963.424	19.04875
963.802	18.04452
964.18	41.10392
964.557	52.11974
964.935	40.09497
965.312	-1.00263
965.69	12.03026
966.067	45.1097
966.444	39.09631
966.821	63.16205
967.198	35.08516
967.575	32.07895
967.952	82.19206
968.329	24.05869
968.705	46.09875
969.082	29.07465
969.458	-56.13704
969.835	27.06601
970.211	23.05931
970.587	52.12943
970.963	23.05929
971.339	13.03416
971.715	36.09012
972.091	73.17901
972.467	58.14446
972.843	-8.02006
973.219	69.16512
973.594	45.1178
973.97	67.15898
974.345	33.07924
974.721	64.15458
975.096	13.03168
975.471	64.15142
975.846	38.09151
976.221	11.02813
976.596	34.08175
976.971	23.05707
977.346	20.04684
977.72	38.09701
978.095	8.02083
978.469	18.04323
978.844	34.08573
979.218	-23.0559
979.593	17.04099
979.967	13.03189
980.341	27.06246
980.715	53.13347
981.089	55.13756
981.463	55.12617
981.837	31.07602
982.21	70.16228
982.584	-5.0122
982.957	31.07768
983.331	64.1509
983.704	3.00744
984.078	15.03721
984.451	62.15454
984.824	18.0441
985.197	53.12867
985.57	37.09301
985.943	78.19166
986.316	62.15201
986.688	37.08945
987.061	32.07527
987.434	32.08364
987.806	22.05364
988.179	40.09457
988.551	43.10922
988.923	35.08643
989.295	63.15706
989.667	10.02407
990.039	-22.05508
990.411	54.1242
990.783	30.06936
991.155	-15.03648
991.527	39.09624
991.898	46.1147
992.27	32.07941
992.641	48.12047
993.012	53.12465
993.384	-5.01205
993.755	22.05636
994.126	65.1559
994.497	2.00495
994.868	-11.02558
995.239	11.02685
995.61	30.07575
995.98	-9.0221
996.351	2.005
996.722	25.05827
997.092	8.0191
997.462	0
997.833	51.12088
998.203	59.1428
998.573	19.04757
998.943	17.04012
999.313	-23.05588
999.683	12.02901
1000.053	29.06701
1000.423	36.08771
1000.792	25.06507
1001.162	15.03715
1001.531	9.02236
1001.901	18.04513
1002.27	3.00677
1002.639	24.0616
1003.009	24.05736
1003.378	19.04884
1003.747	8.01905
1004.116	-34.08265
1004.485	-14.03387
1004.853	25.06361
1005.222	10.0254
1005.591	29.06913
1005.959	29.06562
1006.328	12.02721
1006.696	37.08945
1007.064	22.05561
1007.433	40.10014
1007.801	46.11299
1008.169	21.0533
1008.537	24.05343
1008.905	22.05153
1009.273	32.0793
1009.64	-17.04107
1010.008	44.10499
1010.375	62.1502
1010.743	68.15646
1011.11	-15.03594
1011.478	49.12127
1011.845	51.1199
1012.212	-26.05975
1012.579	38.09348
1012.946	46.10955
1013.313	45.10719
1013.68	34.07666
1014.047	-1.00241
1014.414	8.01905
1014.78	37.09214
1015.147	53.12809
1015.513	10.02427
1015.88	87.22097
1016.246	41.10136
1016.612	77.17529
1016.978	70.17086
1017.344	49.12109
1017.71	57.13879
1018.076	23.05451
1018.442	76.19457
1018.808	27.06775
1019.174	-12.03043
1019.539	143.32303
1019.905	5.01189
1020.27	-12.02994
1020.636	76.18128
1021.001	35.08401
1021.366	2.00485
1021.731	37.09534
1022.096	-31.0793
1022.461	8.01908
1022.826	26.06206
1023.191	57.14932
1023.556	50.11716
1023.92	65.15933
1024.285	-10.02467
1024.649	21.05173
1025.014	49.12136
1025.378	17.04298
1025.742	-10.0251
1026.107	42.09513
1026.471	55.12824
1026.835	39.09684
1027.199	13.0315
1027.562	30.06999
1027.926	67.16326
1028.29	44.11142
1028.654	-16.03728
1029.017	11.02722
1029.381	5.01204
1029.744	30.07675
1030.107	70.16492
1030.471	58.13861
1030.834	65.14737
1031.197	91.21743
1031.56	19.04508
1031.923	8.02083
1032.286	49.11506
1032.648	67.15966
1033.011	27.06224
1033.374	56.13142
1033.736	2.0053
1034.099	37.09036
1034.461	-2.0051
1034.823	13.03257
1035.185	51.1283
1035.548	4.00981
1035.91	44.10547
1036.272	13.0298
1036.634	86.20889
1036.995	23.05432
1037.357	32.07808
1037.719	9.02205
1038.08	57.1351
1038.442	32.07618
1038.803	30.07227
1039.165	22.05577
1039.526	39.09439
1039.887	44.10535
1040.248	25.06185
1040.609	63.15523
1040.97	19.04668
1041.331	19.04834
1041.692	2.00471
1042.053	40.09122
1042.413	4.0094
1042.774	43.10466
1043.134	76.17996
1043.495	58.14551
1043.855	57.13801
1044.215	38.09448
1044.576	-14.03387
1044.936	33.07588
1045.296	78.19357
1045.656	38.09341
1046.016	66.15875
1046.375	23.05605
1046.735	2.00458
1047.095	38.08911
1047.454	34.07226
1047.814	-2.00485
1048.173	88.20861
1048.533	-3.00694
1048.892	-14.03399
1049.251	59.14778
1049.61	29.07164
1049.969	37.08739
1050.328	55.11906
1050.687	18.04403
1051.046	31.07571
1051.405	40.09963
1051.763	-15.03492
1052.122	22.05512
1052.48	57.13952
1052.839	24.05672
1053.197	31.07319
1053.555	54.12295
1053.914	11.02708
1054.272	51.12321
1054.63	5.01232
1054.988	8.01915
1055.345	46.09909
1055.703	18.04356
1056.061	25.06455
1056.419	15.03904
1056.776	73.17615
1057.134	19.04423
1057.491	2.00505
1057.848	47.117
1058.206	35.08251
1058.563	22.04875
1058.92	65.14929
1059.277	49.12083
1059.634	53.12455
1059.991	65.15519
1060.348	46.10398
1060.704	24.05744
1061.061	59.13675
1061.418	27.06572
1061.774	4.00995
1062.131	-5.01333
1062.487	26.06104
1062.843	27.06756
1063.199	2.00501
1063.555	5.01168
1063.911	32.08103
1064.267	48.10011
1064.623	-17.04178
1064.979	74.17441
1065.335	53.12654
1065.691	-1.00242
1066.046	45.099
1066.402	11.02517
1066.757	40.10108
1067.112	43.1056
1067.468	-15.03584
1067.823	72.17226
1068.178	33.08002
1068.533	59.14269
1068.888	26.06237
1069.243	21.05207
1069.598	16.0391
1069.952	-2.00455
1070.307	4.00998
1070.662	-13.03122
1071.016	42.0942
1071.371	-1.0023
1071.725	51.1219
1072.079	23.05556
1072.434	-1.00245
1072.788	42.1001
1073.142	62.15207
1073.496	13.03104
1073.85	-9.0211
1074.203	31.07543
1074.557	16.04276
1074.911	41.09796
1075.265	37.08617
1075.618	38.09293
1075.971	4.00959
1076.325	27.06885
1076.678	2.00461
1077.031	7.01597
1077.385	29.06412
1077.738	32.07245
1078.091	-10.023
1078.444	48.11141
1078.796	8.01977
1079.149	31.07731
1079.502	3.00715
1079.855	32.07483
1080.207	77.18861
1080.56	15.03897
1080.912	46.11199
1081.264	37.08925
1081.617	11.02698
1081.969	35.08846
1082.321	40.09778
1082.673	-5.01153
1083.025	24.05718
1083.377	-199.4497
1083.728	26.0609
1084.08	17.04266
1084.432	45.10855
1084.783	21.04945
1085.135	12.03026
1085.486	4.00923
1085.838	6.01488
1086.189	2.00489
1086.54	68.1617
1086.891	12.03053
1087.242	-23.05671
1087.593	34.08296
1087.944	23.0523
1088.295	80.18061
1088.646	41.09946
1088.996	-12.02922
1089.347	5.01236
1089.698	11.02617
1090.048	35.09106
1090.398	63.14562
1090.749	35.08391
1091.099	-9.02285
1091.449	20.05005
1091.799	19.0478
1092.149	-16.03946
1092.499	15.0368
1092.849	15.03833
1093.199	88.21887
1093.548	22.0531
1093.898	24.06028
1094.248	37.09521
1094.597	-48.12452
1094.947	31.08289
1095.296	22.05456
1095.645	43.11188
1095.994	-7.01698
1096.343	44.11075
1096.692	14.03697
1097.041	3.00818
1097.39	59.14762
1097.739	22.05741
1098.088	45.12056
1098.437	27.07114
1098.785	39.10524
1099.134	45.11948
1099.482	35.0964
1099.83	56.14687
1100.179	-2.00526
1100.527	24.06399
1100.875	5.01331
1101.223	34.09044
1101.571	17.04718
1101.919	-12.03165
1102.267	14.0396
1102.615	1.00322
1102.962	7.02255
1103.31	-7.02252
1103.658	9.02899
