Data from N2 R7 sample 8_Subt2__3__15-22-49-584.txt Node

Date: Fri Aug 29 15:22:49 PDT 2025
User: uwsun
Spectrometer: HDX01956
Trigger mode: 0
Integration Time (sec): 5.000000E-1
Scans to average: 1
Nonlinearity correction enabled: true
Boxcar width: 0
Storing dark spectrum: false
XAxis mode: Wavelengths
Number of Pixels in Spectrum: 2068
>>>>>Begin Spectral Data<<<<<
194.03	170.46459
194.578	187.57757
195.127	156.4764
195.676	176.53775
196.225	222.56692
196.773	187.49731
197.321	280.71651
197.87	420.95849
198.418	437.97977
198.966	386.88021
199.513	330.72241
200.061	384.84627
200.609	404.94238
201.156	356.67083
201.704	334.73918
202.251	345.80622
202.798	373.84902
203.345	392.84688
203.892	403.88125
204.438	415.85796
204.985	386.78531
205.532	395.90635
206.078	385.82232
206.624	393.83468
207.17	400.8023
207.716	349.73898
208.262	345.58847
208.808	389.82402
209.354	394.82787
209.899	460.00326
210.445	346.75007
210.99	373.77805
211.535	440.88742
212.08	457.90667
212.625	415.90136
213.17	440.96397
213.715	369.70233
214.259	451.89853
214.804	435.92991
215.348	466.90705
215.892	460.94395
216.436	477.94282
216.98	476.89434
217.524	415.84527
218.068	405.88937
218.612	419.91856
219.155	401.81713
219.698	418.86125
220.242	408.89011
220.785	402.816
221.328	401.87355
221.871	363.81557
222.414	412.8977
222.956	319.67782
223.499	371.72814
224.041	380.77733
224.583	400.75227
225.126	347.67042
225.668	376.7998
226.21	322.71857
226.751	332.63421
227.293	393.78261
227.835	320.69165
228.376	395.79685
228.918	330.7422
229.459	353.77194
230	354.73989
230.541	396.79391
231.082	398.83959
231.622	309.63195
232.163	360.76377
232.704	341.74444
233.244	361.78609
233.784	437.93014
234.324	345.65569
234.864	333.66251
235.404	372.77544
235.944	339.70901
236.484	444.95961
237.023	376.77263
237.563	351.70743
238.102	413.84311
238.641	445.97184
239.18	338.68922
239.719	402.87851
240.258	387.75345
240.797	375.77909
241.335	412.87484
241.874	345.57009
242.412	383.79819
242.95	378.78024
243.488	438.85376
244.026	432.84887
244.564	410.71805
245.102	399.76794
245.64	428.89018
246.177	403.77564
246.715	425.87942
247.252	392.77826
247.789	377.60953
248.326	322.67421
248.863	385.72245
249.4	416.80933
249.936	381.66883
250.473	395.79026
251.009	378.74346
251.546	406.76205
252.082	386.72451
252.618	404.76578
253.154	394.81254
253.69	433.82657
254.226	365.75324
254.761	418.79773
255.297	353.66403
255.832	367.74887
256.367	381.77214
256.903	395.73756
257.438	393.79354
257.972	355.68062
258.507	322.63689
259.042	383.70877
259.576	384.69731
260.111	430.84454
260.645	439.79944
261.179	362.72474
261.713	389.735
262.247	432.84326
262.781	422.73869
263.315	377.79163
263.849	388.83214
264.382	440.8544
264.915	419.82779
265.449	404.83016
265.982	438.83996
266.515	427.88197
267.048	442.77656
267.58	381.71036
268.113	364.66603
268.646	428.89335
269.178	427.79614
269.71	441.80431
270.243	430.82661
270.775	422.91207
271.307	460.93287
271.838	512.01144
272.37	402.84058
272.902	418.80083
273.433	441.80105
273.965	463.94303
274.496	425.89752
275.027	422.88435
275.558	377.77766
276.089	400.82565
276.62	494.05113
277.15	423.88429
277.681	449.80936
278.211	448.92389
278.741	420.7658
279.272	449.84714
279.802	442.92789
280.332	455.88795
280.861	461.9223
281.391	396.74988
281.921	418.8477
282.45	465.97122
282.98	453.99224
283.509	488.89524
284.038	434.81823
284.567	510.97617
285.096	455.91198
285.625	406.76506
286.153	466.89496
286.682	449.84215
287.21	445.8841
287.739	438.85416
288.267	434.86768
288.795	470.02901
289.323	453.86265
289.851	507.96175
290.378	482.87488
290.906	417.8304
291.433	488.99508
291.961	471.85991
292.488	418.86319
293.015	453.86517
293.542	471.97241
294.069	502.99526
294.596	477.96536
295.122	467.90359
295.649	492.86716
296.175	522.01676
296.702	492.96632
297.228	542.05329
297.754	480.86017
298.28	461.83739
298.806	507.9716
299.332	492.85584
299.857	484.86555
300.383	547.10676
300.908	462.89412
301.433	533.0178
301.958	582.04687
302.483	454.90977
303.008	576.1179
303.533	534.11224
304.058	513.95795
304.582	523.96261
305.107	514.06196
305.631	510.91442
306.155	557.99642
306.679	499.90736
307.203	489.88555
307.727	581.05551
308.251	557.06784
308.775	478.88042
309.298	517.95251
309.822	569.10929
310.345	598.07021
310.868	534.97916
311.391	616.15018
311.914	559.07013
312.437	630.0686
312.96	629.09546
313.482	556.99386
314.005	620.16682
314.527	619.22467
315.049	613.16862
315.571	612.97894
316.093	616.1303
316.615	603.06892
317.137	629.97783
317.659	666.18056
318.18	693.20593
318.702	666.1024
319.223	680.95757
319.744	657.03269
320.265	674.15269
320.786	637.12172
321.307	680.19793
321.828	696.08187
322.348	684.11417
322.869	733.16786
323.389	423.47258
323.909	685.07373
324.43	759.25299
324.95	700.07225
325.47	715.18603
325.989	756.16929
326.509	721.01663
327.029	733.05857
327.548	713.02638
328.067	763.18188
328.587	824.32422
329.106	751.07726
329.625	800.40398
330.144	780.11729
330.662	791.12426
331.181	868.22377
331.7	877.22753
332.218	895.10355
332.736	873.20945
333.255	846.15943
333.773	820.15578
334.291	924.37271
334.808	875.09095
335.326	946.17063
335.844	885.13454
336.361	955.35182
336.879	940.17383
337.396	953.24078
337.913	954.14656
338.43	957.10179
338.947	982.2164
339.464	986.01247
339.981	934.1402
340.497	1045.32116
341.014	1010.24258
341.53	1003.07381
342.046	1033.24912
342.562	1070.32362
343.078	1088.1914
343.594	1059.1959
344.11	1112.2114
344.626	1089.30147
345.141	1143.11252
345.657	1150.12088
346.172	1050.15555
346.687	1106.07638
347.202	1165.04597
347.717	1190.18237
348.232	1201.28585
348.747	1147.05675
349.261	1121.89914
349.776	1227.11589
350.29	1134.13244
350.805	1372.29561
351.319	1291.09369
351.833	1295.99107
352.347	1309.08411
352.861	1312.04631
353.374	1374.06254
353.888	1310.12874
354.401	1296.99032
354.915	1239.8751
355.428	1341.14158
355.941	1353.97329
356.454	1422.94429
356.967	1358.0198
357.48	1446.9654
357.993	1383.09877
358.505	1411.05391
359.018	1545.07691
359.53	1510.99645
360.042	1464.81839
360.554	1455.00898
361.066	1509.99633
361.578	1481.73716
362.09	1499.93256
362.602	1429.72187
363.113	1548.82535
363.625	1577.73238
364.136	1591.68225
364.647	1510.70882
365.158	1564.76209
365.669	1634.82274
366.18	1684.76501
366.691	1540.61057
367.201	1572.76632
367.712	1614.61214
368.222	1749.58472
368.733	1671.43176
369.243	1639.45264
369.753	1740.5379
370.263	1771.58387
370.773	1801.63528
371.282	1778.48448
371.792	1782.27525
372.301	1857.38563
372.811	1999.53907
373.32	1823.00773
373.829	1831.16454
374.338	2015.91783
374.847	2065.88879
375.356	2082.87846
375.865	2147.52257
376.373	2289.50184
376.882	2418.67035
377.39	2427.48003
377.898	2393.36276
378.407	2515.08696
378.915	2668.92106
379.423	2843.8618
379.93	2853.77039
380.438	2965.69575
380.946	3059.62388
381.453	3183.59477
381.96	3197.63607
382.468	3366.82922
382.975	3701.9641
383.482	3867.41884
383.989	3828.19272
384.495	4092.12366
385.002	4148.37772
385.509	4555.28244
386.015	4670.70274
386.521	5129.32908
387.028	5121.6657
387.534	5420.50317
388.04	5655.22727
388.546	5549.0115
389.051	5577.1608
389.557	6139.68772
390.063	6995.84702
390.568	7299.08655
391.073	7131.48203
391.578	7607.16797
392.084	7679.89576
392.589	7382.39488
393.093	7946.80249
393.598	9246.41339
394.103	9720.67283
394.607	11229.76901
395.112	11771.30989
395.616	12544.52674
396.12	13168.0011
396.624	14538.68249
397.128	15725.8374
397.632	17672.80817
398.136	18997.02235
398.639	18389.38312
399.143	19555.58644
399.646	22639.31056
400.15	23740.27031
400.653	19556.95453
401.156	13866.23708
401.659	5169.95759
402.162	1054.15589
402.664	0
403.167	0
403.67	0
404.172	0
404.674	0
405.176	0
405.678	0
406.18	0
406.682	0
407.184	0
407.686	0
408.187	0
408.688	0
409.19	0
409.691	0
410.192	0
410.693	0
411.194	435.30976
411.694	4082.94878
412.195	8864.71461
412.696	12089.80453
413.196	12760.96929
413.696	12863.67595
414.196	13703.56671
414.696	17261.84252
415.196	21764.24417
415.696	29583.19008
416.196	36460.31858
416.695	32391.53845
417.195	25472.80579
417.694	24057.47239
418.194	23100.82649
418.693	21102.86927
419.192	20310.25365
419.691	20042.35212
420.19	19965.96439
420.688	19399.72019
421.187	18718.93217
421.685	17966.28172
422.184	16617.21909
422.682	14428.3244
423.18	11782.10976
423.678	10158.97944
424.176	9317.14393
424.674	8616.13099
425.172	8675.18579
425.669	8340.95571
426.167	7746.43987
426.664	7042.11558
427.161	6264.74388
427.659	5945.53906
428.156	5428.91523
428.652	5199.82588
429.149	4900.98475
429.646	4680.48596
430.143	4565.52704
430.639	4210.00915
431.135	3932.63745
431.632	3635.5779
432.128	3409.55791
432.624	3028.72763
433.12	2999.65754
433.616	2979.67565
434.111	2643.89134
434.607	2547.03773
435.103	2662.93892
435.598	2616.99313
436.093	2571.2987
436.588	2423.41723
437.083	2388.53804
437.578	2281.71366
438.073	1894.05701
438.568	2055.13626
439.062	1949.90711
439.557	1839.25746
440.051	1693.22635
440.546	1590.28501
441.04	1562.44053
441.534	1588.62074
442.028	1579.54844
442.522	1523.55763
443.015	1448.41136
443.509	1482.67775
444.002	1423.68375
444.496	1357.48456
444.989	1313.72323
445.482	1315.76441
445.975	1332.56011
446.468	1271.49942
446.961	1281.50987
447.454	1242.63083
447.947	1104.67756
448.439	1259.80926
448.931	1101.61823
449.424	1122.87982
449.916	1129.80933
450.408	1092.65512
450.9	1068.78673
451.392	1070.88101
451.884	1063.74183
452.375	966.81505
452.867	1044.74902
453.358	971.6937
453.849	1032.63526
454.341	933.69982
454.832	963.64967
455.323	852.78881
455.814	1000.79591
456.304	872.74889
456.795	918.76805
457.285	916.76191
457.776	911.81292
458.266	860.8141
458.756	856.85744
459.247	789.78286
459.737	758.76941
460.226	770.71288
460.716	699.75394
461.206	728.79877
461.695	777.91813
462.185	690.76397
462.674	739.78473
463.163	720.72757
463.653	716.66608
464.142	625.75418
464.63	689.85277
465.119	600.69654
465.608	613.71195
466.096	557.62363
466.585	628.75973
467.073	650.8309
467.561	677.86761
468.05	547.70304
468.538	609.8386
469.026	516.70779
469.513	530.60223
470.001	547.69098
470.489	552.74299
470.976	499.6722
471.463	464.71034
471.951	500.77186
472.438	404.5848
472.925	390.56382
473.412	450.70484
473.899	449.64374
474.385	432.6845
474.872	336.50909
475.359	352.56861
475.845	391.50678
476.331	411.57703
476.817	354.58643
477.303	322.50661
477.789	306.5097
478.275	269.46921
478.761	305.51518
479.247	323.50039
479.732	292.51405
480.218	316.59164
480.703	308.54847
481.188	282.42367
481.673	276.45187
482.158	246.36622
482.643	284.53725
483.128	235.38937
483.612	250.43019
484.097	260.4774
484.581	252.43735
485.066	223.40832
485.55	216.35105
486.034	196.31693
486.518	223.39328
487.002	184.34483
487.486	161.30508
487.969	153.29106
488.453	223.4389
488.936	137.2411
489.42	201.34355
489.903	171.34354
490.386	263.31397
490.869	143.24705
491.352	142.28179
491.835	132.21682
492.318	187.33169
492.8	119.19628
493.283	106.21979
493.765	132.26329
494.247	132.25251
494.73	96.17298
495.212	130.2593
495.694	116.2204
496.175	19.03736
496.657	119.23278
497.139	80.11446
497.62	53.10402
498.102	75.15506
498.583	65.13734
499.064	51.09447
499.545	68.1297
500.026	79.14714
500.507	83.1612
500.988	74.15536
501.469	21.04474
501.949	73.15322
502.43	-5.01012
502.91	28.04872
503.39	65.13914
503.87	-2.00402
504.35	50.10112
504.83	-34.06425
505.31	-14.0293
505.79	-11.02268
506.269	77.15319
506.749	-19.03745
507.228	44.08801
507.707	36.06813
508.187	60.12335
508.666	8.01696
509.145	-57.11652
509.623	-14.02859
510.102	11.02316
510.581	37.07766
511.059	-43.09448
511.538	35.07897
512.016	27.05602
512.494	1.00213
512.972	2.00417
513.45	-104.21294
513.928	29.06095
514.406	-80.16951
514.884	23.0516
515.361	-2.00419
515.839	2.00397
516.316	-35.07434
516.793	29.06444
517.27	22.0469
517.747	-21.04759
518.224	-33.06777
518.701	14.0273
519.178	-72.15876
519.654	-14.0296
520.131	-8.01748
520.607	-32.07088
521.083	-40.08119
521.56	-27.05662
522.036	-9.0175
522.512	1.00219
522.987	-45.09479
523.463	-14.02951
523.939	13.02826
524.414	-26.05369
524.89	-17.03592
525.365	4.00801
525.84	-90.19178
526.315	-75.16263
526.79	-34.06854
527.265	-50.10233
527.74	-70.15377
528.215	-12.0252
528.689	-16.03151
529.164	-3.0058
529.638	-21.04848
530.112	-84.17884
530.587	-78.14979
531.061	-65.14107
531.534	-5.01086
532.008	-28.06024
532.482	-24.04952
532.956	-67.154
533.429	0
533.903	10.01975
534.376	-72.14441
534.849	-40.08368
535.322	-48.10242
535.795	-21.0462
536.268	-31.06705
536.741	-50.10891
537.213	-2.00415
537.686	-56.12322
538.158	-76.15406
538.631	-27.05942
539.103	-64.12967
539.575	8.01493
540.047	-10.01974
540.519	16.03429
540.991	-17.03762
541.463	-30.06568
541.934	-17.035
542.406	-10.02137
542.877	-11.0223
543.348	12.02602
543.82	32.07023
544.291	33.0689
544.762	8.01693
545.233	-2.00449
545.703	28.05486
546.174	29.05998
546.645	1.00212
547.115	70.14819
547.585	63.12756
548.056	34.07195
548.526	75.15332
548.996	107.2238
549.466	159.33506
549.935	117.23744
550.405	132.2464
550.875	182.36454
551.344	178.36297
551.814	187.36319
552.283	225.40949
552.752	206.39981
553.221	235.41944
553.69	258.4711
554.159	285.57336
554.628	302.54504
555.096	317.65713
555.565	290.52793
556.033	417.78984
556.502	377.74516
556.97	348.63096
557.438	404.78112
557.906	379.74314
558.374	431.80479
558.842	393.77496
559.31	460.83408
559.777	451.88767
560.245	584.08924
560.712	562.03672
561.18	571.99255
561.647	592.03931
562.114	659.16055
562.581	732.39558
563.048	796.38453
563.514	809.49978
563.981	840.43279
564.448	844.40184
564.914	978.64571
565.381	1032.66645
565.847	1111.81931
566.313	1071.75938
566.779	1173.7972
567.245	1225.93926
567.711	1258.03114
568.176	1289.88835
568.642	1359.26113
569.108	1462.30508
569.573	1543.25815
570.038	1626.96581
570.504	1564.09529
570.969	1705.58335
571.434	1706.10974
571.899	1828.46558
572.363	1825.30857
572.828	1988.41398
573.293	1917.37854
573.757	2021.42522
574.222	1987.28699
574.686	2034.31479
575.15	2088.57159
575.614	2075.42894
576.078	2035.49985
576.542	2123.42466
577.006	2121.37778
577.469	2140.79745
577.933	2013.30441
578.396	2078.58728
578.86	2071.5473
579.323	1907.50237
579.786	1913.16175
580.249	1898.33233
580.712	1910.62361
581.175	1773.56361
581.637	1828.37176
582.1	1753.17151
582.563	1708.08434
583.025	1681.43754
583.487	1648.85504
583.95	1607.0007
584.412	1571.93928
584.874	1496.3001
585.336	1435.17395
585.797	1453.93557
586.259	1396.14122
586.721	1340.05941
587.182	1373.10625
587.643	1259.91061
588.105	1240.99286
588.566	1239.71744
589.027	1106.87301
589.488	1121.77883
589.949	1119.91705
590.41	1040.37556
590.87	1074.73749
591.331	1013.55629
591.791	954.60258
592.252	908.52257
592.712	894.60795
593.172	922.52005
593.632	908.46466
594.092	856.42339
594.552	871.383
595.011	744.31026
595.471	826.38996
595.931	793.33899
596.39	749.38558
596.849	797.41371
597.308	749.24601
597.768	757.49816
598.227	774.43941
598.685	699.26008
599.144	679.24771
599.603	765.39833
600.062	637.04409
600.52	654.14241
600.978	665.24646
601.437	715.27452
601.895	753.21216
602.353	727.24657
602.811	704.21123
603.269	737.37013
603.727	714.3342
604.184	688.20321
604.642	684.32033
605.099	750.34015
605.557	701.34252
606.014	699.15686
606.471	672.31947
606.928	722.17362
607.385	743.3861
607.842	854.4544
608.299	918.57799
608.755	832.51532
609.212	751.26857
609.668	768.27876
610.125	868.57783
610.581	930.65066
611.037	850.47247
611.493	802.46131
611.949	765.42511
612.405	737.12213
612.861	841.51744
613.316	722.35251
613.772	746.33367
614.227	767.40411
614.683	765.26571
615.138	685.26949
615.593	688.2665
616.048	748.34207
616.503	702.38171
616.958	745.47644
617.412	684.29255
617.867	646.13849
618.321	708.15209
618.776	664.17822
619.23	716.33795
619.684	663.2097
620.138	694.29996
620.592	606.21319
621.046	601.16624
621.5	572.15717
621.954	626.15908
622.407	624.14156
622.861	551.12455
623.314	583.10647
623.768	553.08161
624.221	532.87711
624.674	557.07864
625.127	520.03449
625.58	565.08947
626.033	564.0529
626.485	472.97557
626.938	507.03693
627.39	483.97213
627.843	506.00752
628.295	441.89332
628.747	489.00773
629.199	424.84926
629.651	391.78878
630.103	435.87754
630.555	384.72502
631.006	400.83714
631.458	342.72938
631.909	440.89965
632.361	361.76138
632.812	339.71058
633.263	408.78734
633.714	318.62426
634.165	356.78622
634.616	314.68623
635.067	298.61236
635.518	344.7521
635.968	339.62451
636.419	299.60263
636.869	271.60165
637.319	265.57192
637.769	258.53973
638.219	327.72354
638.669	242.54252
639.119	308.69897
639.569	226.51519
640.019	260.56606
640.468	228.48289
640.918	269.60986
641.367	203.43474
641.816	252.53278
642.265	231.5073
642.714	235.51609
643.163	205.45059
643.612	178.40889
644.061	196.39713
644.51	135.29835
644.958	223.46724
645.406	183.42029
645.855	184.43365
646.303	215.4815
646.751	162.35615
647.199	176.38644
647.647	184.40775
648.095	151.33581
648.543	206.40745
648.99	158.36542
649.438	183.41608
649.885	217.51489
650.333	147.27937
650.78	118.27854
651.227	168.39563
651.674	157.34799
652.121	143.33892
652.568	112.26643
653.015	203.49501
653.461	137.31805
653.908	193.43508
654.354	174.4037
654.801	105.24222
655.247	182.38901
655.693	137.34858
656.139	167.38968
656.585	123.28983
657.031	117.26785
657.477	101.21602
657.922	147.33125
658.368	171.41122
658.813	208.46975
659.259	112.26489
659.704	121.27779
660.149	128.29368
660.594	139.32422
661.039	178.39593
661.484	195.45394
661.929	162.37154
662.373	136.33664
662.818	142.34595
663.262	126.29904
663.707	158.3921
664.151	224.53037
664.595	132.31388
665.039	189.45915
665.483	166.41375
665.927	137.31905
666.371	120.27467
666.814	163.38304
667.258	151.35124
667.701	251.52613
668.145	195.47461
668.588	170.40982
669.031	131.3046
669.474	135.32181
669.917	183.39936
670.36	188.45664
670.803	184.43634
671.245	182.37872
671.688	247.58493
672.13	125.27891
672.573	204.50698
673.015	190.44796
673.457	171.36827
673.899	172.41087
674.341	149.356
674.783	171.40387
675.225	213.51182
675.666	174.41136
676.108	186.39911
676.549	226.5235
676.991	225.48581
677.432	207.40607
677.873	231.52244
678.314	220.51405
678.755	229.54378
679.196	204.45903
679.637	262.62201
680.078	234.53579
680.518	250.56874
680.959	245.57189
681.399	256.61665
681.839	249.59012
682.28	209.50526
682.72	311.6847
683.16	270.65135
683.6	300.66145
684.039	197.40619
684.479	210.50528
684.919	234.52631
685.358	316.7715
685.798	288.72895
686.237	296.69214
686.676	310.69466
687.115	373.83391
687.554	326.74341
687.993	279.59955
688.432	290.64155
688.871	313.68361
689.309	300.69158
689.748	359.71723
690.186	348.79613
690.625	351.78603
691.063	319.73581
691.501	356.84088
691.939	392.9266
692.377	340.79438
692.815	340.77846
693.253	372.85274
693.69	312.66136
694.128	378.86996
694.565	392.88703
695.003	454.07839
695.44	414.91811
695.877	421.92566
696.314	450.90634
696.751	463.98804
697.188	413.8951
697.625	480.02616
698.061	411.93134
698.498	424.96839
698.934	432.9795
699.371	416.92331
699.807	444.98585
700.243	461.03535
700.679	458.97038
701.115	480.05271
701.551	429.95196
701.987	510.05934
702.422	455.0093
702.858	430.96428
703.294	480.01065
703.729	465.0627
704.164	438.99109
704.599	476.98692
705.035	442.92666
705.47	469.06282
705.904	414.91008
706.339	457.99678
706.774	494.07209
707.209	447.96547
707.643	506.12473
708.078	477.08142
708.512	414.97745
708.946	456.02263
709.38	427.95342
709.814	442.94875
710.248	434.99601
710.682	419.93981
711.116	387.87483
711.549	405.99072
711.983	399.87288
712.416	453.00235
712.85	408.96292
713.283	388.87191
713.716	465.0929
714.149	436.97854
714.582	421.89063
715.015	439.03329
715.448	394.9432
715.881	391.81233
716.313	388.86297
716.746	361.81075
717.178	346.79633
717.61	373.90196
718.043	345.82421
718.475	380.87631
718.907	409.98152
719.339	284.62356
719.77	301.68849
720.202	308.75141
720.634	275.64896
721.065	299.68502
721.497	304.71947
721.928	269.64145
722.359	241.56697
722.79	261.6078
723.221	306.74375
723.652	313.77936
724.083	255.56071
724.514	269.60118
724.945	245.56244
725.375	210.47872
725.806	247.60228
726.236	235.589
726.666	240.55571
727.096	245.58714
727.526	241.5975
727.956	216.48224
728.386	280.66883
728.816	168.42041
729.246	162.39009
729.675	177.43032
730.105	232.55906
730.534	200.46126
730.964	221.54812
731.393	239.58104
731.822	194.48809
732.251	208.51861
732.68	210.48721
733.109	190.46167
733.537	175.41796
733.966	193.4722
734.395	152.34931
734.823	182.40684
735.251	193.4583
735.68	209.51476
736.108	169.42314
736.536	175.40883
736.964	163.37541
737.392	192.47351
737.82	179.4249
738.247	166.39427
738.675	190.44848
739.102	168.41508
739.53	170.42771
739.957	162.4124
740.384	171.41792
740.811	170.42633
741.238	167.40358
741.665	109.25335
742.092	162.38403
742.519	99.24537
742.945	135.32305
743.372	113.27966
743.798	121.31015
744.225	131.31072
744.651	125.31275
745.077	101.25225
745.503	138.33532
745.929	136.32513
746.355	165.40685
746.781	156.38346
747.207	47.1117
747.632	94.22969
748.058	107.26714
748.483	111.25626
748.908	62.15538
749.334	146.35636
749.759	101.23892
750.184	26.06297
750.609	140.34235
751.033	118.27929
751.458	139.3113
751.883	133.32831
752.307	79.18731
752.732	45.11353
753.156	115.28367
753.58	113.26875
754.005	153.38515
754.429	107.25194
754.853	118.29166
755.277	120.28381
755.7	113.28007
756.124	103.25566
756.548	92.21893
756.971	122.29734
757.394	70.18128
757.818	96.24715
758.241	97.24628
758.664	75.19029
759.087	58.13105
759.51	103.2565
759.933	99.23862
760.356	139.35392
760.778	106.26065
761.201	142.34349
761.623	131.31682
762.046	121.287
762.468	171.40653
762.89	113.27874
763.312	61.15031
763.734	97.23407
764.156	89.22043
764.578	116.26711
765	104.25394
765.421	10.02577
765.843	123.32089
766.264	151.36216
766.686	102.25627
767.107	102.24739
767.528	92.23231
767.949	69.17637
768.37	65.16069
768.791	91.22092
769.212	62.15661
769.632	61.1434
770.053	74.1954
770.473	110.26729
770.894	74.18625
771.314	110.26287
771.734	37.08746
772.154	68.17543
772.575	116.26871
772.994	16.03703
773.414	89.21452
773.834	71.17835
774.254	74.18203
774.673	80.1957
775.093	85.21075
775.512	21.05245
775.931	76.19327
776.351	104.25781
776.77	65.15981
777.189	92.21927
777.607	78.19962
778.026	96.23902
778.445	58.14593
778.864	96.24603
779.282	87.20978
779.701	63.15962
780.119	88.22236
780.537	35.0882
780.955	74.18885
781.373	86.21296
781.791	46.10453
782.209	104.23967
782.627	63.16649
783.045	48.11154
783.462	65.16667
783.88	56.14553
784.297	67.16915
784.715	79.20293
785.132	51.12441
785.549	59.14831
785.966	79.19895
786.383	60.14836
786.8	92.21388
787.217	42.10053
787.633	67.1677
788.05	145.34127
788.466	163.37945
788.883	53.13581
789.299	75.18112
789.715	94.22824
790.131	54.13504
790.547	54.13562
790.963	73.18159
791.379	46.11702
791.795	39.09
792.21	85.19897
792.626	51.1219
793.041	92.22673
793.457	65.16122
793.872	43.10199
794.287	25.06033
794.702	66.16319
795.117	40.1001
795.532	27.06829
795.947	104.24958
796.362	122.28954
796.776	70.16472
797.191	51.12557
797.605	1.00238
798.02	50.12241
798.434	39.08781
798.848	19.04732
799.262	18.04514
799.676	77.18812
800.09	55.13597
800.504	89.21574
800.918	25.05861
801.331	94.2457
801.745	21.04887
802.158	32.08066
802.572	88.21327
802.985	97.23389
803.398	42.10095
803.811	99.25359
804.224	44.11023
804.637	32.07694
805.05	66.15355
805.462	78.19173
805.875	44.11458
806.288	15.03661
806.7	80.20092
807.112	18.04228
807.525	83.20466
807.937	33.08221
808.349	39.09836
808.761	64.15784
809.173	66.16032
809.584	29.07232
809.996	21.05194
810.408	47.12178
810.819	35.08302
811.231	-6.0157
811.642	45.10789
812.053	141.33108
812.464	163.3811
812.875	165.41476
813.286	129.32869
813.697	120.27853
814.108	67.16399
814.519	12.02714
814.929	104.26382
815.34	66.16038
815.75	50.12751
816.16	69.17214
816.571	57.1484
816.981	36.0857
817.391	35.08516
817.801	22.05514
818.211	46.11031
818.62	0
819.03	62.15229
819.44	59.1544
819.849	20.05086
820.259	60.15388
820.668	7.01742
821.077	24.0601
821.486	61.14731
821.895	51.12654
822.304	60.15918
822.713	55.13051
823.122	41.10288
823.531	35.0836
823.939	38.09317
824.348	51.12451
824.756	51.1282
825.164	77.19356
825.573	15.038
825.981	42.10473
826.389	42.10605
826.797	-5.01269
827.205	37.08552
827.612	6.01498
828.02	29.06865
828.428	18.04624
828.835	29.07679
829.243	32.07685
829.65	5.01257
830.057	53.12905
830.464	49.11985
830.871	54.12974
831.278	43.10447
831.685	71.15855
832.092	59.14473
832.499	26.05745
832.905	31.07899
833.312	54.12365
833.718	35.08773
834.124	20.04618
834.531	61.15395
834.937	36.09288
835.343	86.20686
835.749	69.16126
836.155	83.21661
836.561	40.09887
836.966	33.08122
837.372	33.08447
837.777	27.06773
838.183	71.1579
838.588	64.15894
838.993	110.26569
839.399	-21.05216
839.804	2.00493
840.209	8.02056
840.613	2.00451
841.018	12.03067
841.423	33.08509
841.828	64.16184
842.232	67.16594
842.637	25.05946
843.041	5.01294
843.445	46.11574
843.849	27.06729
844.253	40.09556
844.657	-1.00255
845.061	31.07086
845.465	23.05598
845.869	75.17398
846.272	16.0393
846.676	47.11406
847.079	4.01027
847.483	70.17442
847.886	96.23222
848.289	42.11239
848.692	47.11934
849.095	37.08932
849.498	96.24189
849.901	44.10136
850.304	61.14586
850.707	88.22332
851.109	73.18436
851.512	23.05692
851.914	16.04063
852.316	59.14927
852.718	10.02603
853.121	18.04446
853.523	22.05183
853.925	26.06819
854.326	-20.05072
854.728	31.0801
855.13	12.03119
855.531	20.04816
855.933	50.12031
856.334	1.00252
856.736	-10.02273
857.137	4.00941
857.538	23.05819
857.939	16.03984
858.34	41.10028
858.741	28.07356
859.142	51.12274
859.542	31.08215
859.943	53.13184
860.343	-1.0025
860.744	77.18728
861.144	35.08576
861.544	2.00486
861.945	21.05387
862.345	37.09087
862.745	33.08239
863.145	36.08646
863.544	43.10895
863.944	29.06892
864.344	65.16128
864.743	64.15865
865.143	96.24491
865.542	2.00469
865.941	34.08453
866.34	54.12949
866.74	21.05669
867.139	-18.04372
867.537	47.11997
867.936	28.06778
868.335	20.05122
868.734	36.09233
869.132	42.09791
869.531	53.12833
869.929	42.09606
870.327	42.10099
870.726	43.10751
871.124	35.08219
871.522	22.05638
871.92	80.1965
872.318	45.11027
872.715	73.1802
873.113	44.10748
873.511	40.09996
873.908	7.01782
874.306	28.06999
874.703	37.09291
875.1	87.22136
875.497	35.08427
875.894	-11.02728
876.291	43.1058
876.688	24.06224
877.085	56.13439
877.482	26.06544
877.878	-9.02193
878.275	4.01026
878.671	63.14016
879.068	48.11607
879.464	49.1186
879.86	-10.02395
880.256	46.11374
880.652	52.13233
881.048	27.06726
881.444	57.13567
881.84	49.12468
882.236	36.09084
882.631	36.08869
883.027	42.10198
883.422	-1.00258
883.817	16.04049
884.213	53.13605
884.608	-6.01488
885.003	11.02674
885.398	25.06291
885.793	32.08066
886.188	18.04505
886.582	55.14108
886.977	34.08104
887.371	47.11904
887.766	29.07246
888.16	40.1001
888.554	73.17994
888.949	32.08069
889.343	60.14645
889.737	-28.07562
890.131	40.10061
890.525	32.08216
890.918	9.02284
891.312	53.12688
891.706	75.19607
892.099	51.12986
892.492	88.18858
892.886	28.06885
893.279	73.18535
893.672	53.13495
894.065	43.1079
894.458	51.12834
894.851	46.11291
895.244	50.12778
895.637	50.12054
896.029	34.08345
896.422	20.04918
896.814	23.05751
897.206	8.01922
897.599	66.16289
897.991	45.109
898.383	24.05705
898.775	61.13752
899.167	-23.05445
899.559	50.12666
899.951	47.11097
900.342	44.11209
900.734	-51.12894
901.125	36.09474
901.517	-11.02732
901.908	103.24469
902.299	29.07122
902.69	52.12275
903.082	47.11397
903.473	-6.01453
903.863	44.11245
904.254	8.01874
904.645	90.22237
905.036	-2.00489
905.426	33.07588
905.817	18.04446
906.207	19.04557
906.597	-12.02843
906.987	75.19366
907.378	54.13655
907.768	-5.01335
908.158	16.03929
908.547	10.02602
908.937	69.17656
909.327	35.08529
909.717	50.12702
910.106	28.06758
910.495	49.12242
910.885	64.16178
911.274	14.03524
911.663	42.10681
912.052	39.09649
912.441	-2.00513
912.83	11.02547
913.219	58.15165
913.608	38.09334
913.997	-22.05589
914.385	42.10056
914.774	-3.00738
915.162	23.05512
915.55	51.12344
915.939	31.07854
916.327	41.10255
916.715	-6.01545
917.103	78.19109
917.491	72.17751
917.878	59.1449
918.266	9.02351
918.654	31.07949
919.041	0
919.429	16.03803
919.816	49.12428
920.203	42.10206
920.591	-13.03262
920.978	14.03453
921.365	42.11038
921.752	67.15929
922.139	31.06762
922.525	26.06275
922.912	43.10505
923.299	10.02504
923.685	27.07073
924.072	9.02094
924.458	20.04983
924.844	31.077
925.231	26.06083
925.617	-10.02571
926.003	74.18839
926.389	46.11615
926.774	45.11418
927.16	33.08224
927.546	28.07176
927.931	35.0876
928.317	-3.00699
928.702	24.05709
929.088	-1.00239
929.473	5.01283
929.858	-37.09093
930.243	25.0603
930.628	6.01472
931.013	2.005
931.398	48.11049
931.783	49.12906
932.167	31.07608
932.552	32.08046
932.937	64.15848
933.321	8.02023
933.705	52.13107
934.09	97.24314
934.474	39.09286
934.858	32.08327
935.242	-33.07776
935.626	8.02063
936.009	-12.03225
936.393	39.09944
936.777	35.08987
937.16	29.07574
937.544	25.05921
937.927	-23.05912
938.311	42.10271
938.694	57.15059
939.077	29.06971
939.46	46.11307
939.843	36.07538
940.226	5.01293
940.609	-13.03023
940.991	45.11466
941.374	44.10768
941.757	23.05705
942.139	1.00227
942.522	66.15555
942.904	82.19596
943.286	61.15472
943.668	32.08316
944.05	29.07172
944.432	34.08416
944.814	43.10607
945.196	-58.1442
945.578	-22.05302
945.959	41.09627
946.341	91.22174
946.722	26.06133
947.104	48.1148
947.485	5.01174
947.866	15.03803
948.247	28.07093
948.628	39.09535
949.009	24.06175
949.39	61.15158
949.771	60.13932
950.152	40.09836
950.532	-5.01242
950.913	41.09909
951.293	7.01904
951.674	36.08731
952.054	28.06967
952.434	11.0275
952.814	16.03832
953.194	57.14901
953.574	64.15726
953.954	33.07864
954.334	23.05761
954.714	-13.03206
955.093	70.1715
955.473	-18.04557
955.853	54.1397
956.232	76.20744
956.611	28.06745
956.99	-10.0254
957.37	67.17024
957.749	38.09088
958.128	37.09345
958.506	41.10653
958.885	41.10366
959.264	-10.02478
959.643	-6.01381
960.021	48.11899
960.4	33.07506
960.778	62.1524
961.156	29.07298
961.535	2.00471
961.913	70.16318
962.291	2.00517
962.669	19.0484
963.047	6.01543
963.424	45.11495
963.802	-3.00745
964.18	62.15655
964.557	40.09233
964.935	46.10909
965.312	42.10952
965.69	69.17221
966.067	62.15066
966.444	28.06928
966.821	59.15187
967.198	57.13812
967.575	60.14727
967.952	56.13183
968.329	58.14094
968.705	29.06248
969.082	23.05927
969.458	-13.03156
969.835	32.07817
970.211	33.08494
970.587	31.07745
970.963	64.16379
971.339	5.01316
971.715	41.10255
972.091	39.09624
972.467	46.11482
972.843	28.06977
973.219	49.1177
973.594	40.1048
973.97	51.12139
974.345	49.1173
974.721	53.12828
975.096	6.01464
975.471	35.08328
975.846	63.15099
976.221	-2.00513
976.596	-3.00726
976.971	23.05707
977.346	23.05384
977.72	21.05377
978.095	8.02083
978.469	21.05041
978.844	68.17042
979.218	6.0145
979.593	7.01691
979.967	56.13628
980.341	49.11286
980.715	39.09846
981.089	47.11772
981.463	4.00927
981.837	-29.0719
982.21	39.09097
982.584	33.07996
982.957	-30.076
983.331	54.12757
983.704	29.07154
984.078	-3.00747
984.451	69.17177
984.824	16.03921
985.197	54.13107
985.57	47.11794
985.943	51.12594
986.316	70.17137
986.688	50.12059
987.061	41.09627
987.434	28.07324
987.806	79.19056
988.179	8.01903
988.551	76.19191
988.923	27.06677
989.295	59.14719
989.667	10.02407
990.039	8.01992
990.411	35.0808
990.783	30.06936
991.155	-21.05113
991.527	55.13532
991.898	5.01256
992.27	19.04726
992.641	68.17005
993.012	88.20555
993.384	9.02164
993.755	26.06656
994.126	47.11311
994.497	20.04936
994.868	60.13756
995.239	40.09712
995.61	13.03293
995.98	45.10941
996.351	13.03241
996.722	12.02804
997.092	-12.02875
997.462	-32.07595
997.833	36.08557
998.203	21.05119
998.573	42.10473
998.943	17.04012
999.313	30.07216
999.683	29.06987
1000.053	72.16493
1000.423	27.06589
1000.792	34.08836
1001.162	24.05934
1001.531	45.11104
1001.901	55.13697
1002.27	39.08738
1002.639	23.05904
1003.009	51.12125
1003.378	32.08207
1003.747	27.06407
1004.116	-5.01209
1004.485	27.06481
1004.853	46.11661
1005.222	19.04817
1005.591	46.1093
1005.959	-42.0964
1006.328	7.01589
1006.696	22.05334
1007.064	54.13572
1007.433	79.19638
1007.801	77.18805
1008.169	70.17612
1008.537	57.12603
1008.905	-10.02357
1009.273	63.15523
1009.64	-2.00482
1010.008	49.11681
1010.375	96.23108
1010.743	97.22189
1011.11	34.08069
1011.478	29.07204
1011.845	36.08488
1012.212	16.03646
1012.579	26.0641
1012.946	52.1237
1013.313	63.14955
1013.68	34.07666
1014.047	-11.02651
1014.414	1.00238
1014.78	32.07976
1015.147	72.17338
1015.513	-2.00487
1015.88	85.21597
1016.246	84.20602
1016.612	54.1235
1016.978	3.00741
1017.344	50.12354
1017.71	89.21541
1018.076	30.07101
1018.442	37.09537
1018.808	39.09765
1019.174	22.05545
1019.539	79.18079
1019.905	7.01664
1020.27	2.00498
1020.636	12.02897
1021.001	11.02652
1021.366	-23.05598
1021.731	27.06969
1022.096	13.033
1022.461	36.08541
1022.826	48.1141
1023.191	35.09203
1023.556	60.14031
1023.92	69.16901
1024.285	79.19171
1024.649	28.06888
1025.014	54.13362
1025.378	14.03541
1025.742	11.0275
1026.107	37.08389
1026.471	81.1879
1026.835	35.08697
1027.199	18.04357
1027.562	62.14374
1027.926	42.10282
1028.29	27.06858
1028.654	24.05549
1029.017	2.00496
1029.381	32.07668
1029.744	32.08184
1030.107	60.14163
1030.471	26.06251
1030.834	6.01377
1031.197	56.1347
1031.56	87.20373
1031.923	28.07264
1032.286	90.20964
1032.648	38.09106
1033.011	-13.0302
1033.374	52.12213
1033.736	21.05546
1034.099	75.18187
1034.461	5.01273
1034.823	39.09726
1035.185	34.08579
1035.548	-15.03693
1035.91	60.14339
1036.272	11.02522
1036.634	35.08583
1036.995	44.1035
1037.357	3.00736
1037.719	43.10466
1038.08	57.1351
1038.442	3.00718
1038.803	36.08662
1039.165	-1.00255
1039.526	39.09439
1039.887	14.03371
1040.248	-16.03988
1040.609	24.05956
1040.97	52.12697
1041.331	45.11397
1041.692	5.01177
1042.053	43.09801
1042.413	39.09104
1042.774	102.24553
1043.134	74.17529
1043.495	29.07314
1043.855	46.11161
1044.215	69.17058
1044.576	-16.03872
1044.936	54.12365
1045.296	68.16906
1045.656	59.14447
1046.016	40.09669
1046.375	35.0851
1046.735	5.01143
1047.095	-21.04981
1047.454	-2.00428
1047.814	44.10583
1048.173	37.08857
1048.533	19.04378
1048.892	13.03141
1049.251	48.12047
1049.61	21.05195
1049.969	30.07095
1050.328	16.03492
1050.687	-11.02705
1051.046	31.07571
1051.405	51.12677
1051.763	8.01854
1052.122	-1.00252
1052.48	14.03454
1052.839	-5.01188
1053.197	-6.01427
1053.555	60.13645
1053.914	45.1101
1054.272	82.19694
1054.63	11.02707
1054.988	28.06676
1055.345	-11.02399
1055.703	33.07963
1056.061	46.11835
1056.419	27.07013
1056.776	65.15709
1057.134	35.08122
1057.491	6.01513
1057.848	45.11206
1058.206	17.04021
1058.563	17.03771
1058.92	50.11518
1059.277	37.09144
1059.634	20.0473
1059.991	59.14102
1060.348	6.01367
1060.704	-21.05069
1061.061	100.2299
1061.418	30.07298
1061.774	10.02485
1062.131	8.02129
1062.487	14.03294
1062.843	9.02259
1063.199	50.12427
1063.555	20.04659
1063.911	74.18599
1064.267	8.01683
1064.623	-31.07638
1064.979	31.07367
1065.335	38.09099
1065.691	15.03617
1066.046	13.02879
1066.402	4.00917
1066.757	33.08349
1067.112	42.10316
1067.468	8.01903
1067.823	7.01696
1068.178	34.08243
1068.533	47.11393
1068.888	31.0743
1069.243	17.04218
1069.598	26.06342
1069.952	-40.09167
1070.307	26.0646
1070.662	31.07381
1071.016	9.02032
1071.371	9.02063
1071.725	64.1526
1072.079	27.06518
1072.434	31.07554
1072.788	50.11899
1073.142	56.1375
1073.496	29.06903
1073.85	25.05822
1074.203	29.07059
1074.557	35.09324
1074.911	43.1027
1075.265	29.06764
1075.618	48.11716
1075.971	44.10471
1076.325	64.16212
1076.678	-39.09072
1077.031	31.07037
1077.385	33.0729
1077.738	7.01593
1078.091	13.02976
1078.444	45.10451
1078.796	55.13472
1079.149	61.1513
1079.502	10.02379
1079.855	37.08644
1080.207	37.0913
1080.56	19.04933
1080.912	69.16726
1081.264	52.12508
1081.617	33.08062
1081.969	-15.03825
1082.321	36.08807
1082.673	-5.01153
1083.025	16.03818
1083.377	47.10087
1083.728	23.0539
1084.08	15.03765
1084.432	-4.00974
1084.783	36.08452
1085.135	20.05036
1085.486	-6.01387
1085.838	42.10351
1086.189	8.01956
1086.54	27.06471
1086.891	-9.02298
1087.242	-4.00983
1087.593	16.03917
1087.944	67.15098
1088.295	5.01146
1088.646	53.12828
1088.996	-11.02678
1089.347	24.05913
1089.698	-12.02868
1090.048	27.07035
1090.398	9.02103
1090.749	38.09106
1091.099	22.05555
1091.449	38.09479
1091.799	47.11764
1092.149	-1.00246
1092.499	-13.03206
1092.849	20.05106
1093.199	46.11528
1093.548	16.03866
1093.898	32.08025
1094.248	39.10032
1094.597	-48.12452
1094.947	15.04021
1095.296	28.06936
1095.645	64.16591
1095.994	32.07706
1096.343	48.12073
1096.692	-2.0053
1097.041	16.04352
1097.39	30.07546
1097.739	34.08854
1098.088	79.21045
1098.437	-19.05045
1098.785	33.08913
1099.134	81.21377
1099.482	57.15645
1099.83	22.05803
1100.179	16.04194
1100.527	67.17736
1100.875	-13.0347
1101.223	35.09309
1101.571	5.0139
1101.919	-3.0079
1102.267	47.13226
1102.615	6.01929
1102.962	18.0579
1103.31	0
1103.658	10.03221
