Data from N2 R7 sample 5_Subt2__0__15-43-51-057.txt Node

Date: Fri Aug 29 15:43:51 PDT 2025
User: uwsun
Spectrometer: HDX01956
Trigger mode: 0
Integration Time (sec): 5.000000E-1
Scans to average: 1
Nonlinearity correction enabled: true
Boxcar width: 0
Storing dark spectrum: false
XAxis mode: Wavelengths
Number of Pixels in Spectrum: 2068
>>>>>Begin Spectral Data<<<<<
194.03	118.32517
194.578	111.3462
195.127	119.36519
195.676	119.36633
196.225	172.44311
196.773	132.35426
197.321	244.62834
197.87	300.70122
198.418	315.72398
198.966	305.70689
199.513	198.44553
200.061	212.48406
200.609	318.75435
201.156	211.41176
201.704	252.56726
202.251	239.57014
202.798	322.74051
203.345	292.64436
203.892	272.61127
204.438	318.67172
204.985	248.52042
205.532	286.6706
206.078	298.64851
206.624	255.55789
207.17	304.62328
207.716	262.56532
208.262	285.49397
208.808	233.5104
209.354	247.53582
209.899	353.78888
210.445	291.63825
210.99	268.57207
211.535	323.66897
212.08	307.63042
212.625	296.65919
213.17	331.74186
213.715	206.40764
214.259	328.67218
214.804	378.81804
215.348	304.61454
215.892	345.72636
216.436	330.67475
216.98	327.63693
217.524	269.56611
218.068	329.73404
218.612	312.69942
219.155	280.58627
219.698	326.6856
220.242	280.62744
220.785	259.5429
221.328	281.62774
221.871	327.74013
222.414	284.63562
222.956	233.50437
223.499	222.45104
224.041	242.51052
224.583	268.52039
225.126	251.49611
225.668	236.5173
226.21	245.55545
226.751	217.42609
227.293	277.56651
227.835	217.47937
228.376	319.65477
228.918	292.66186
229.459	226.50749
230	272.57884
230.541	267.55126
231.082	204.44867
231.622	237.49262
232.163	243.52871
232.704	256.56894
233.244	251.55934
233.784	281.6184
234.324	213.41784
234.864	257.52036
235.404	270.57559
235.944	276.58531
236.484	279.6243
237.023	254.53631
237.563	244.50388
238.102	294.6164
238.641	233.53168
239.18	231.4825
239.719	270.60653
240.258	275.54967
240.797	293.61987
241.335	270.59107
241.874	265.4476
242.412	262.56072
242.95	226.48242
243.488	269.54541
244.026	257.52585
244.564	296.53393
245.102	270.53579
245.64	281.60359
246.177	275.54559
246.715	274.58614
247.252	275.56089
247.789	373.60374
248.326	257.54585
248.863	297.56941
249.4	280.56239
249.936	295.52954
250.473	264.54421
251.009	210.42939
251.546	287.55449
252.082	288.55362
252.618	244.48058
253.154	303.63765
253.69	287.56727
254.226	265.55916
254.761	318.62161
255.297	235.4549
255.832	276.57483
256.367	233.48819
256.903	277.53235
257.438	329.67407
257.972	284.55383
258.507	249.50093
259.042	271.51554
259.576	323.59563
260.111	316.63733
260.645	318.59686
261.179	271.55399
261.713	255.49763
262.247	272.55111
262.781	276.50168
263.315	334.70799
263.849	271.59589
264.382	344.68328
264.915	286.58266
265.449	257.54562
265.982	302.59817
266.515	300.63732
267.048	249.45962
267.58	258.49571
268.113	285.53188
268.646	296.63594
269.178	273.52846
269.71	299.56493
270.243	270.53905
270.775	255.57084
271.307	352.73147
271.838	339.69802
272.37	296.63348
272.902	351.68335
273.433	299.56272
273.965	301.63568
274.496	313.67724
275.027	332.70959
275.558	289.60793
276.089	215.46223
276.62	345.75922
277.15	363.76895
277.681	295.55273
278.211	371.77834
278.741	312.58444
279.272	309.60301
279.802	298.64548
280.332	307.62018
280.861	344.70688
281.391	280.54525
281.921	330.6827
282.45	337.72386
282.98	309.6974
283.509	319.61011
284.038	344.66287
284.567	350.69585
285.096	337.6939
285.625	293.56744
286.153	325.64539
286.682	298.57975
287.21	297.61044
287.739	327.65451
288.267	279.57784
288.795	386.86172
289.323	312.61451
289.851	398.77505
290.378	307.58204
290.906	326.66294
291.433	332.70099
291.961	298.56788
292.488	345.72412
293.015	292.57945
293.542	363.76761
294.069	342.7034
294.596	384.7937
295.122	345.68702
295.649	287.53296
296.175	390.78477
296.702	380.76606
297.228	366.74225
297.754	350.64818
298.28	378.70109
298.806	355.70529
299.332	319.58029
299.857	310.57926
300.383	376.79179
300.908	282.56928
301.433	291.5892
301.958	407.766
302.483	328.67643
303.008	374.76194
303.533	384.82782
304.058	399.76609
304.582	356.6827
305.107	323.69708
305.631	414.7606
306.155	370.69379
306.679	327.62057
307.203	360.67337
307.727	340.65642
308.251	385.76989
308.775	330.63039
309.298	325.62761
309.822	441.88719
310.345	453.84211
310.868	410.77525
311.391	418.81981
311.914	405.80538
312.437	417.74897
312.96	372.69272
313.482	423.78203
314.005	404.80171
314.527	399.83117
315.049	437.86983
315.571	351.60322
316.093	443.84935
316.615	423.78594
317.137	431.70872
317.659	480.89298
318.18	401.75248
318.702	486.84539
319.223	516.76433
319.744	450.75049
320.265	415.75995
320.786	449.83052
321.307	495.91517
321.828	543.88259
322.348	497.85288
322.869	468.80287
323.389	526.56471
323.909	473.78779
324.43	563.98071
324.95	547.87661
325.47	466.8269
325.989	497.82778
326.509	509.76661
327.029	501.77636
327.548	466.72314
328.067	544.8974
328.587	513.89782
329.106	532.81599
329.625	574.06631
330.144	517.80212
330.662	573.87091
331.181	557.86324
331.7	568.87386
332.218	560.77275
332.736	569.86585
333.255	589.87501
333.773	598.90273
334.291	691.09823
334.808	565.78143
335.326	695.93628
335.844	604.84925
336.361	589.93057
336.879	605.84443
337.396	617.89498
337.913	740.9581
338.43	668.85221
338.947	650.89954
339.464	632.74313
339.981	654.87828
340.497	726.01819
341.014	684.93877
341.53	677.81833
342.046	667.91271
342.562	688.96579
343.078	736.91601
343.594	779.97283
344.11	789.96742
344.626	789.04418
345.141	749.8512
345.657	777.87717
346.172	761.93094
346.687	658.76298
347.202	761.80823
347.717	827.94607
348.232	787.98011
348.747	780.83551
349.261	727.69662
349.776	773.84611
350.29	780.89368
350.805	922.03934
351.319	827.85429
351.833	794.76363
352.347	858.86451
352.861	792.79484
353.374	975.90527
353.888	906.92705
354.401	872.8104
354.915	854.72908
355.428	910.93118
355.941	877.7916
356.454	1031.83548
356.967	965.87124
357.48	1033.84958
357.993	1000.94409
358.505	948.87794
359.018	1031.91987
359.53	1024.86229
360.042	1029.73682
360.554	1039.88397
361.066	924.81446
361.578	970.65862
362.09	1009.81087
362.602	1017.66186
363.113	1042.7443
363.625	1068.68488
364.136	1130.66168
364.647	1048.66052
365.158	1144.72463
365.669	1107.763
366.18	1122.72739
366.691	1173.60829
367.201	1128.7245
367.712	1095.60498
368.222	1054.59372
368.733	1118.48239
369.243	1088.49048
369.753	1212.57887
370.263	1275.62305
370.773	1193.65864
371.282	1210.54493
371.792	1206.38842
372.301	1288.48654
372.811	1324.63458
373.32	1272.18468
373.829	1280.30897
374.338	1396.15186
374.847	1500.11763
375.356	1308.16812
375.865	1443.86879
376.373	1532.88092
376.882	1690.02139
377.39	1583.90673
377.898	1586.78848
378.407	1709.53758
378.915	1822.38986
379.423	1806.42973
379.93	1961.23748
380.438	1905.22813
380.946	2120.02301
381.453	2141.96939
381.96	2040.9677
382.468	2248.87458
382.975	2550.79765
383.482	2649.8965
383.989	2681.82683
384.495	2758.08866
385.002	2723.59009
385.509	2963.76604
386.015	3249.19908
386.521	3433.51039
387.028	3428.24439
387.534	3514.24022
388.04	3693.45218
388.546	3676.30741
389.051	3650.9583
389.557	4099.47767
390.063	4760.73096
390.568	4887.72328
391.073	4782.34708
391.578	5160.34037
392.084	5085.76228
392.589	4916.16069
393.093	4945.4842
393.598	5771.47323
394.103	6330.70063
394.607	6922.75744
395.112	7773.75061
395.616	7953.36813
396.12	8489.25356
396.624	9274.21034
397.128	10125.10077
397.632	11900.44254
398.136	12298.45756
398.639	11640.93998
399.143	12090.13713
399.646	13301.66206
400.15	14252.83432
400.653	15329.04072
401.156	12803.92411
401.659	4908.62873
402.162	1054.15589
402.664	0
403.167	0
403.67	0
404.172	0
404.674	0
405.176	0
405.678	0
406.18	0
406.682	0
407.184	0
407.686	0
408.187	0
408.688	0
409.19	0
409.691	0
410.192	0
410.693	0
411.194	435.30976
411.694	4082.94878
412.195	8864.71461
412.696	12089.80453
413.196	12760.96929
413.696	12863.67595
414.196	13703.56671
414.696	17261.84252
415.196	21764.24417
415.696	29583.19008
416.196	33969.10175
416.695	24037.94039
417.195	18613.40404
417.694	17051.79522
418.194	16703.76397
418.693	14997.6269
419.192	14394.61098
419.691	14035.35942
420.19	14150.62728
420.688	13984.44038
421.187	13527.71242
421.685	13105.43832
422.184	12273.92506
422.682	10514.41157
423.18	8540.61385
423.678	7083.43095
424.176	6646.71747
424.674	6237.81312
425.172	6166.76816
425.669	5942.51909
426.167	5685.18507
426.664	4917.65802
427.161	4659.09453
427.659	4180.28896
428.156	3852.88105
428.652	3665.409
429.149	3370.12369
429.646	3269.03545
430.143	3203.71775
430.639	3032.66372
431.135	2781.6934
431.632	2649.741
432.128	2432.91353
432.624	2084.20989
433.12	2018.11797
433.616	1879.21762
434.111	1674.42587
434.607	1788.46333
435.103	1846.3924
435.598	1804.44741
436.093	1761.73892
436.588	1641.8259
437.083	1571.94196
437.578	1450.08071
438.073	1249.24997
438.568	1315.35055
439.062	1300.14346
439.557	1300.38157
440.051	1142.33415
440.546	1044.35826
441.04	1065.46866
441.534	1017.59394
442.028	1132.55851
442.522	951.53093
443.015	1009.42798
443.509	931.60542
444.002	944.61296
444.496	942.46646
444.989	930.64103
445.482	918.66704
445.975	800.48433
446.468	839.45333
446.961	890.47264
447.454	834.54542
447.947	750.55941
448.439	760.63203
448.931	739.51309
449.424	790.72242
449.916	747.6457
450.408	684.5146
450.9	657.58943
451.392	664.65449
451.884	723.59895
452.375	570.57198
452.867	681.58434
453.358	549.48261
453.849	657.49698
454.341	560.50221
454.832	597.48665
455.323	574.59687
455.814	625.59055
456.304	610.58825
456.795	546.53863
457.285	596.5722
457.776	586.60046
458.266	465.51639
458.756	557.62747
459.247	473.53181
459.737	465.52922
460.226	503.5209
460.716	400.48241
461.206	423.51925
461.695	399.53699
462.185	402.49467
462.674	419.50188
463.163	443.49916
463.653	463.47898
464.142	370.48757
464.63	376.51691
465.119	306.39423
465.608	438.54172
466.096	440.51462
466.585	410.53488
467.073	383.5346
467.561	332.47603
468.05	362.49474
468.538	373.55286
469.026	318.46426
469.513	340.41413
470.001	315.43004
470.489	334.48191
470.976	344.48707
471.463	302.48451
471.951	274.45111
472.438	296.44283
472.925	254.38274
473.412	271.44654
473.899	271.41021
474.385	256.42616
474.872	212.33312
475.359	217.36392
475.845	235.32079
476.331	210.31376
476.817	164.28597
477.303	206.33499
477.789	148.25725
478.275	197.35015
478.761	194.33757
479.247	225.35859
479.732	129.2368
480.218	181.3502
480.703	200.36612
481.188	154.24029
481.673	151.25587
482.158	78.12206
482.643	113.22272
483.128	73.12638
483.612	120.21368
484.097	163.30661
484.581	127.22772
485.066	91.17218
485.55	78.1317
486.034	101.16771
486.518	65.11938
487.002	33.06415
487.486	96.1848
487.969	103.19833
488.453	72.14675
488.936	7.01274
489.42	103.18069
489.903	129.26167
490.386	52.06688
490.869	114.19847
491.352	98.19647
491.835	72.12025
492.318	1.00186
492.8	61.10224
493.283	58.12155
493.765	18.03686
494.247	119.22836
494.73	37.06768
495.212	48.09757
495.694	-18.03532
496.175	-55.11004
496.657	55.10922
497.139	31.04504
497.62	-48.09645
498.102	-30.06348
498.583	1.00214
499.064	-81.15499
499.545	-20.03896
500.026	4.00759
500.507	-9.01786
500.988	-26.05579
501.469	-23.04947
501.949	-44.09474
502.43	-46.09397
502.91	-32.05657
503.39	-13.0283
503.87	-22.04445
504.35	-6.01229
504.83	-48.09102
505.31	-68.14402
505.79	-63.13142
506.269	-21.04273
506.749	-111.22351
507.228	-62.12706
507.707	-54.10445
508.187	-8.0167
508.666	-77.16626
509.145	-123.25521
509.623	-119.24878
510.102	-33.07015
510.581	-40.08539
511.059	-84.18615
511.538	-69.15898
512.016	-66.13979
512.494	-58.12499
512.972	-69.14611
513.45	-132.27198
513.928	-96.20733
514.406	-102.21717
514.884	-85.19491
515.361	-61.12956
515.839	-97.19721
516.316	-73.15634
516.793	-67.15184
517.27	-48.10389
517.747	-93.21385
518.224	-89.18508
518.701	-83.16559
519.178	-120.26725
519.654	-30.06365
520.131	-70.15499
520.607	-57.12692
521.083	-107.22052
521.56	-105.22399
522.036	-139.27861
522.512	-70.1559
522.987	-150.32325
523.463	-87.18632
523.939	-84.18638
524.414	-54.11222
524.89	-82.17572
525.365	-108.22183
525.84	-127.2728
526.315	-110.24031
526.79	-97.19838
527.265	-84.17324
527.74	-101.22331
528.215	-102.21849
528.689	-116.23385
529.164	-63.12364
529.638	-74.17264
530.112	-139.29948
530.587	-116.22481
531.061	-171.37949
531.534	-87.19219
532.008	-138.3039
532.482	-132.27896
532.956	-121.28113
533.429	-71.15613
533.903	-77.15519
534.376	-96.19362
534.849	-138.29496
535.322	-113.24451
535.795	-112.25109
536.268	-122.269
536.741	-86.18875
537.213	-106.2249
537.686	-138.30887
538.158	-130.26678
538.631	-66.14644
539.103	-122.25047
539.575	-113.21727
540.047	-142.28903
540.519	-85.18613
540.991	-103.23201
541.463	-105.23351
541.934	-140.29625
542.406	-124.27158
542.877	-121.25151
543.348	-103.22878
543.82	-92.20719
544.291	-64.1365
544.762	-105.22769
545.233	-82.18709
545.703	-109.2205
546.174	-39.0819
546.645	-126.27433
547.115	-51.11083
547.585	-65.13547
548.056	-73.15809
548.526	-98.2082
548.996	-43.09292
549.466	-3.00655
549.935	-65.1374
550.405	-27.05239
550.875	-38.07999
551.344	-15.03193
551.814	-12.02441
552.283	9.01728
552.752	-40.0822
553.221	-25.04763
553.69	50.09611
554.159	14.02992
554.628	-59.11634
555.096	-28.06252
555.565	-2.00391
556.033	24.04983
556.502	29.062
556.97	4.00789
557.438	-10.02125
557.906	-10.02141
558.374	25.05138
558.842	-20.04327
559.31	3.00607
559.777	-21.04593
560.245	36.07638
560.712	57.11864
561.18	42.08327
561.647	38.07654
562.114	4.00826
562.581	73.1616
563.048	119.24437
563.514	83.1819
563.981	132.26843
564.448	124.24722
564.914	142.29377
565.381	157.31672
565.847	199.40939
566.313	184.37742
566.779	283.5486
567.245	243.49405
567.711	298.61263
568.176	303.57951
568.642	302.64939
569.108	377.7815
569.573	439.86201
570.038	465.79965
570.504	511.92494
570.969	560.13751
571.434	512.9029
571.899	627.17973
572.363	703.23499
572.828	794.37595
573.293	749.31118
573.757	772.34481
574.222	822.35769
574.686	806.34222
575.15	877.54148
575.614	970.59506
576.078	1001.67678
576.542	980.59729
577.006	1038.6404
577.469	1137.98226
577.933	1085.66945
578.396	1092.82433
578.86	1112.82652
579.323	1095.82388
579.786	1184.70111
580.249	1078.7049
580.712	1093.89331
581.175	1136.96235
581.637	1168.84905
582.1	1110.68163
582.563	1199.72337
583.025	1076.84853
583.487	1073.46748
583.95	1032.54053
584.412	1056.53677
584.874	990.74655
585.336	1022.73679
585.797	973.49982
586.259	924.61287
586.721	959.63772
587.182	928.60883
587.643	889.49589
588.105	823.47733
588.566	852.32606
589.027	768.41832
589.488	768.34064
589.949	808.49829
590.41	764.1025
590.87	735.30147
591.331	718.19791
591.791	692.24457
592.252	647.16138
592.712	566.10264
593.172	655.15891
593.632	639.10823
594.092	578.03381
594.552	544.94534
595.011	524.9768
595.471	534.97078
595.931	538.97209
596.39	514.0059
596.849	487.93417
597.308	524.92649
597.768	444.94401
598.227	501.99583
598.685	547.02388
599.144	479.92548
599.603	534.03229
600.062	479.82065
600.52	479.87629
600.978	495.96785
601.437	506.95166
601.895	493.85281
602.353	576.02704
602.811	492.89531
603.269	551.07107
603.727	572.1059
604.184	571.02889
604.642	666.29106
605.099	621.14608
605.557	613.19862
606.014	585.9997
606.471	611.21672
606.928	626.04461
607.385	655.24823
607.842	834.42788
608.299	865.50764
608.755	790.45394
609.212	802.33627
609.668	782.29714
610.125	885.60189
610.581	898.60691
611.037	950.60277
611.493	900.59976
611.949	823.51139
612.405	837.23726
612.861	998.72963
613.316	886.59353
613.772	890.53299
614.227	886.574
614.683	963.50785
615.138	886.56099
615.593	856.51037
616.048	872.51548
616.503	901.69141
616.958	859.65754
617.412	843.53191
617.867	817.37664
618.321	920.40987
618.776	862.4523
619.23	877.57448
619.684	888.52953
620.138	871.56129
620.592	835.58422
621.046	822.5122
621.5	804.54125
621.954	808.42918
622.407	828.43806
622.861	777.50553
623.314	757.37671
623.768	786.4538
624.221	689.08565
624.674	744.37734
625.127	679.30157
625.58	759.39643
626.033	730.30769
626.485	675.33004
626.938	709.38471
627.39	669.28731
627.843	715.35553
628.295	632.22271
628.747	684.34875
629.199	621.18562
629.651	611.16875
630.103	652.24822
630.555	591.05793
631.006	611.21729
631.458	595.19746
631.909	642.25098
632.361	598.19383
632.812	602.18681
633.263	564.04614
633.714	604.10434
634.165	625.30065
634.616	565.16726
635.067	628.19292
635.518	614.26384
635.968	624.06641
636.419	640.18741
636.869	652.33073
637.319	614.22413
637.769	555.08297
638.219	689.4073
638.669	670.36752
639.119	648.36682
639.569	639.33277
640.019	682.34984
640.468	703.33274
640.918	732.50099
641.367	641.24104
641.816	668.28199
642.265	739.44748
642.714	696.37824
643.163	707.38797
643.612	690.41986
644.061	661.1957
644.51	715.38654
644.958	701.31213
645.406	744.51395
645.855	708.49548
646.303	735.46746
646.751	695.35475
647.199	719.3963
647.647	668.32888
648.095	740.44227
648.543	725.25909
648.99	687.41907
649.438	759.52174
649.885	681.46821
650.333	699.14984
650.78	698.45889
651.227	710.49251
651.674	625.24811
652.121	642.37191
652.568	613.31467
653.015	684.51465
653.461	646.3459
653.908	676.37104
654.354	683.42214
654.801	560.17217
655.247	595.15622
655.693	566.32728
656.139	570.22207
656.585	574.23119
657.031	520.09167
657.477	530.0265
657.922	490.02451
658.368	545.21481
658.813	542.13844
659.259	506.10284
659.704	489.03754
660.149	521.09883
660.594	485.05185
661.039	513.05966
661.484	517.12471
661.929	522.10841
662.373	415.9743
662.818	478.08874
663.262	456.01089
663.707	488.13523
664.151	462.04121
664.595	471.04442
665.039	482.10405
665.483	483.13175
665.927	481.04183
666.371	417.89722
666.814	478.05184
667.258	393.87028
667.701	497.98511
668.145	510.16548
668.588	454.03314
669.031	429.93849
669.474	457.01963
669.917	445.91709
670.36	502.14487
670.803	459.02832
671.245	472.91873
671.688	539.20192
672.13	427.89305
672.573	487.14514
673.015	466.03739
673.457	413.84311
673.899	474.06438
674.341	455.02101
674.783	373.84628
675.225	433.9967
675.666	462.02889
676.108	414.84457
676.549	420.93528
676.991	465.95227
677.432	439.81405
677.873	462.99552
678.314	402.90558
678.755	401.92048
679.196	402.86774
679.637	427.98132
680.078	469.02098
680.518	450.98214
680.959	426.95885
681.399	435.00995
681.839	414.94974
682.28	390.91045
682.72	419.90152
683.16	429.00148
683.6	485.0259
684.039	421.82433
684.479	416.96159
684.919	352.77251
685.358	457.08407
685.798	396.98289
686.237	477.07354
686.676	424.92775
687.115	413.9157
687.554	435.97008
687.993	445.92203
688.432	450.96217
688.871	422.90036
689.309	435.97569
689.748	472.91829
690.186	479.06484
690.625	375.83561
691.063	419.94715
691.501	457.0561
691.939	438.02393
692.377	466.05965
692.815	446.99933
693.253	492.09854
693.69	475.97099
694.128	468.05561
694.565	477.05863
695.003	439.04569
695.44	452.99443
695.877	465.01097
696.314	464.93152
696.751	533.11827
697.188	487.03688
697.625	511.08525
698.061	519.14819
698.498	505.13249
698.934	503.12199
699.371	451.99369
699.807	507.10899
700.243	488.09004
700.679	485.01963
701.115	522.13489
701.551	536.16093
701.987	548.12879
702.422	502.10289
702.858	541.18349
703.294	503.05383
703.729	569.27361
704.164	553.21996
704.599	507.04209
705.035	485.0053
705.47	533.19244
705.904	500.0773
706.339	554.18158
706.774	560.19853
707.209	515.09423
707.643	575.26009
708.078	593.31323
708.512	534.22921
708.946	545.20028
709.38	505.1074
709.814	539.13088
710.248	540.21085
710.682	517.13424
711.116	529.15914
711.549	543.29185
711.983	509.08569
712.416	585.2594
712.85	561.28245
713.283	517.129
713.716	602.37766
714.149	569.24011
714.582	503.04314
715.015	595.35863
715.448	549.27308
715.881	622.22401
716.313	558.19527
716.746	566.21557
717.178	521.15501
717.61	534.24972
718.043	607.37493
718.475	580.282
718.907	619.42369
719.339	471.99334
719.77	529.15232
720.202	592.36505
720.634	520.16642
721.065	549.19241
721.497	546.22934
721.928	494.12479
722.359	537.18807
722.79	540.18602
723.221	566.30608
723.652	627.46904
724.083	527.09057
724.514	599.24536
724.945	566.21348
725.375	447.97002
725.806	572.30737
726.236	578.35598
726.666	554.20048
727.096	581.30051
727.526	564.3128
727.956	482.01487
728.386	542.22728
728.816	538.2532
729.246	556.23605
729.675	543.22681
730.105	552.24692
730.534	554.18516
730.964	604.38999
731.393	649.45348
731.822	587.36934
732.251	618.4228
732.68	563.21249
733.109	567.27746
733.537	573.2615
733.966	574.30194
734.395	591.23634
734.823	619.2567
735.251	555.22335
735.68	643.4536
736.108	578.33697
736.536	588.25963
736.964	526.12128
737.392	559.28248
737.82	619.34182
738.247	571.24763
738.675	624.34606
739.102	552.26463
739.53	568.32368
739.957	601.40752
740.384	621.38729
740.811	619.42312
741.238	598.32459
741.665	536.13819
742.092	607.31242
742.519	567.28163
742.945	578.26321
743.372	617.38231
743.798	580.36332
744.225	535.16738
744.651	600.36868
745.077	528.21345
745.503	591.31097
745.929	556.21968
746.355	600.35768
746.781	571.29277
747.207	518.11663
747.632	521.1689
748.058	561.28194
748.483	591.23143
748.908	531.21476
749.334	547.23234
749.759	535.15654
750.184	549.19545
750.609	574.28719
751.033	582.25105
751.458	565.15212
751.883	537.22407
752.307	534.15216
752.732	539.23605
753.156	573.291
753.58	545.18572
754.005	572.32831
754.429	563.20522
754.853	519.18537
755.277	514.12031
755.7	536.22253
756.124	488.12318
756.548	489.07226
756.971	530.19034
757.394	554.31073
757.818	481.15204
758.241	517.21154
758.664	514.1991
759.087	479.98893
759.51	520.19361
759.933	466.04253
760.356	520.23162
760.778	473.08145
761.201	535.19544
761.623	490.10217
762.046	480.05713
762.468	456.02221
762.89	476.0929
763.312	436.99939
763.734	447.00467
764.156	440.01695
764.578	482.02644
765	466.05836
765.421	392.94235
765.843	469.14793
766.264	469.05421
766.686	471.10186
767.107	420.95733
767.528	429.01519
767.949	444.05702
768.37	402.93182
768.791	475.06728
769.212	369.88051
769.632	391.85971
770.053	387.96738
770.473	380.87631
770.894	416.98217
771.314	384.86929
771.734	350.77685
772.154	391.95152
772.575	372.81777
772.994	353.76215
773.414	411.92982
773.834	393.9295
774.254	395.91361
774.673	351.81508
775.093	383.89745
775.512	290.68873
775.931	325.78977
776.351	310.73934
776.77	290.68316
777.189	320.72915
777.607	343.83662
778.026	358.84855
778.445	238.57937
778.864	371.90455
779.282	311.71793
779.701	283.68876
780.119	292.71079
780.537	252.61023
780.955	337.81984
781.373	279.66631
781.791	259.56304
782.209	311.687
782.627	249.63731
783.045	253.56403
783.462	275.67903
783.88	276.68987
784.297	253.61737
784.715	260.64659
785.132	254.59604
785.549	232.56497
785.966	236.5775
786.383	231.55317
786.8	249.56085
787.217	185.43066
787.633	193.47203
788.05	294.67181
788.466	264.60229
788.883	168.42177
789.299	182.4306
789.715	202.4805
790.131	182.44455
790.547	194.47491
790.963	177.43193
791.379	190.47098
791.795	182.40802
792.21	188.43117
792.626	218.50437
793.041	191.4621
793.457	208.50237
793.872	139.32358
794.287	105.24953
794.702	194.46838
795.117	135.33202
795.532	112.27896
795.947	165.39136
796.362	160.37694
796.776	220.50253
797.191	132.32014
797.605	95.22246
798.02	149.35804
798.434	123.27218
798.848	126.30766
799.262	110.27129
799.676	187.44747
800.09	125.30504
800.504	145.34777
800.918	137.31414
801.331	140.36305
801.745	82.18852
802.158	96.2392
802.572	133.3196
802.985	130.3115
803.398	118.27951
803.811	136.3461
804.224	136.33504
804.637	88.20934
805.05	120.27621
805.462	85.20867
805.875	79.20448
806.288	64.15476
806.7	81.2034
807.112	72.16732
807.525	96.23615
807.937	68.16832
808.349	105.26167
808.761	87.21366
809.173	84.20335
809.584	112.2751
809.996	71.17398
810.408	75.19339
810.819	87.20429
811.231	71.18339
811.642	36.08646
812.053	116.27371
812.464	138.32423
812.875	179.44882
813.286	130.33118
813.697	134.31016
814.108	94.22893
814.519	68.15201
814.929	88.22387
815.34	95.22959
815.75	78.19794
816.16	87.21634
816.571	83.21513
816.981	117.27419
817.391	81.19538
817.801	62.15426
818.211	74.17651
818.62	72.17338
819.03	86.2103
819.44	94.24452
819.849	49.12397
820.259	47.12081
820.668	43.1063
821.077	20.05012
821.486	57.13775
821.895	98.24107
822.304	59.15655
822.713	83.19588
823.122	101.2507
823.531	57.13557
823.939	68.16579
824.348	76.18467
824.756	86.21483
825.164	57.1438
825.573	9.02283
825.981	75.18589
826.389	43.10856
826.797	24.0606
827.205	55.12667
827.612	89.21889
828.02	18.0427
828.428	32.08201
828.835	35.09259
829.243	76.181
829.65	1.00252
830.057	54.13146
830.464	35.08583
830.871	58.13924
831.278	69.16682
831.685	75.16735
832.092	74.18103
832.499	35.07719
832.905	23.05869
833.312	57.13044
833.718	32.08025
834.124	62.14197
834.531	70.17638
834.937	39.10056
835.343	58.14025
835.749	42.09868
836.155	47.12342
836.561	39.09642
836.966	53.12997
837.372	80.20309
837.777	10.02516
838.183	42.09397
838.588	55.13682
838.993	45.11002
839.399	27.06648
839.804	14.03444
840.209	18.04618
840.613	-3.00677
841.018	38.09667
841.423	46.11835
841.828	45.11418
842.232	78.19279
842.637	82.19289
843.041	29.07475
843.445	22.05559
843.849	12.02999
844.253	76.1803
844.657	-15.03829
845.061	13.02982
845.465	3.00733
845.869	11.02584
846.272	8.01968
846.676	28.06819
847.079	23.05887
847.483	74.18425
847.886	81.19649
848.289	51.13627
848.692	15.0383
849.095	51.12279
849.498	82.20713
849.901	63.14458
850.304	81.19294
850.707	40.10237
851.109	75.18935
851.512	43.10603
851.914	26.06591
852.316	46.11665
852.718	-29.076
853.121	74.18089
853.523	31.07291
853.925	42.10986
854.326	3.00758
854.728	44.11344
855.13	23.05968
855.531	12.02894
855.933	64.15359
856.334	60.14955
856.736	23.05194
857.137	2.0047
857.538	53.13338
857.939	25.06214
858.34	64.15586
858.741	72.18775
859.142	46.11081
859.542	44.11634
859.943	31.07742
860.343	14.03495
860.744	73.17768
861.144	44.10764
861.544	-23.05613
861.945	54.13772
862.345	40.09818
862.745	25.06251
863.145	108.25582
863.544	36.09132
863.944	26.06183
864.344	52.12933
864.743	73.18067
865.143	16.04139
865.542	33.07694
865.941	66.16313
866.34	38.0914
866.74	49.13166
867.139	-3.00727
867.537	92.23297
867.936	31.075
868.335	36.09194
868.734	-20.05179
869.132	6.01409
869.531	68.16418
869.929	-10.02311
870.327	13.03143
870.726	94.23285
871.124	66.15404
871.522	45.11486
871.92	70.17226
872.318	71.17314
872.715	78.19237
873.113	14.03439
873.511	77.19113
873.908	-2.0051
874.306	24.06004
874.703	-2.00506
875.1	38.09753
875.497	38.09144
875.894	8.01977
876.291	62.15201
876.688	47.1214
877.085	22.05314
877.482	42.10541
877.878	25.06053
878.275	4.01026
878.671	79.17518
879.068	65.15667
879.464	65.15685
879.86	27.06422
880.256	54.13333
880.652	53.13486
881.048	64.15836
881.444	74.17556
881.84	25.06388
882.236	27.06824
882.631	69.16895
883.027	51.12362
883.422	35.08981
883.817	-16.04072
884.213	39.10035
884.608	15.03706
885.003	23.05579
885.398	0
885.793	37.09318
886.188	-18.04534
886.582	67.1715
886.977	52.12351
887.371	26.0661
887.766	-18.04535
888.16	49.12242
888.554	56.13847
888.949	41.10321
889.343	81.19693
889.737	12.0322
890.131	27.06807
890.525	61.15581
890.918	24.06073
891.312	52.12451
891.706	12.03171
892.099	68.17262
892.492	23.04998
892.886	4.00988
893.279	13.03336
893.672	37.09448
894.065	28.07045
894.458	47.11836
894.851	67.16381
895.244	-16.04136
895.637	40.09661
896.029	27.06636
896.422	30.07363
896.814	34.08484
897.206	-13.03136
897.599	88.21631
897.991	15.03654
898.383	27.06414
898.775	27.06129
899.167	-29.06873
899.559	42.10655
899.951	26.06164
900.342	57.14488
900.734	-8.02007
901.125	78.20381
901.517	20.0494
901.908	38.0914
902.299	26.06389
902.69	47.11105
903.082	31.0754
903.473	-1.00242
903.863	35.08959
904.254	13.03042
904.645	65.16134
905.036	0
905.426	56.12818
905.817	16.03953
906.207	26.06228
906.597	41.09612
906.987	55.14251
907.378	25.06354
907.768	29.07697
908.158	64.15575
908.547	-25.06545
908.937	56.14362
909.327	53.12871
909.717	63.15968
910.106	-12.02918
910.495	47.11747
910.885	68.17177
911.274	12.03021
911.663	81.20457
912.052	56.13811
912.441	67.16993
912.83	62.14208
913.219	75.19554
913.608	39.09578
913.997	-17.04315
914.385	22.05288
914.774	93.22475
915.162	19.04557
915.55	53.12823
915.939	-21.0537
916.327	42.10503
916.715	31.0793
917.103	63.15478
917.491	42.10412
917.878	72.1764
918.266	50.12971
918.654	54.13791
919.041	30.0786
919.429	2.00477
919.816	67.16939
920.203	34.08274
920.591	59.14613
920.978	51.12492
921.365	42.11038
921.752	31.07421
922.139	31.06762
922.525	7.01696
922.912	25.06128
923.299	46.11445
923.685	44.11493
924.072	31.0718
924.458	12.02994
924.844	24.05969
925.231	36.08405
925.617	-6.01541
926.003	35.08972
926.389	31.07849
926.774	41.1041
927.16	34.08472
927.546	45.11499
927.931	56.13963
928.317	48.11066
928.702	67.15806
929.088	-5.01196
929.473	32.0817
929.858	-35.08599
930.243	12.02902
930.628	33.08056
931.013	11.02746
931.398	55.12642
931.783	60.15774
932.167	10.02464
932.552	79.19695
932.937	19.04744
933.321	6.01518
933.705	1.00254
934.09	65.16387
934.474	50.1188
934.858	27.07032
935.242	42.09752
935.626	39.10004
936.009	65.17247
936.393	66.16749
936.777	22.05662
937.16	65.16871
937.544	21.04977
937.927	-7.01794
938.311	109.26322
938.694	61.16104
939.077	12.02894
939.46	93.22662
939.843	72.14956
940.226	-2.00518
940.609	-25.05827
940.991	27.06902
941.374	9.02217
941.757	36.08908
942.139	8.01813
942.522	50.11821
942.904	12.02906
943.286	51.12958
943.668	22.05727
944.05	19.04708
944.432	9.02238
944.814	73.17908
945.196	14.03435
945.578	0
945.959	29.06826
946.341	56.13735
946.722	31.07305
947.104	3.00724
947.485	25.05847
947.866	42.10598
948.247	42.10613
948.628	40.09778
949.009	50.12805
949.39	31.07745
949.771	103.23713
950.152	43.10568
950.532	0
950.913	51.12302
951.293	19.05159
951.674	29.07043
952.054	23.05728
952.434	82.20238
952.814	24.0574
953.194	61.15936
953.574	61.14997
953.954	30.07153
954.334	40.09988
954.714	7.0172
955.093	41.10099
955.473	2.00504
955.853	37.096
956.232	37.10162
956.611	38.09137
956.99	12.03037
957.37	22.05634
957.749	57.13583
958.128	15.03803
958.506	34.08845
958.885	47.1187
959.264	32.07869
959.643	46.10478
960.021	45.11162
960.4	37.08409
960.778	62.1524
961.156	47.11789
961.535	50.11656
961.913	33.07749
962.291	16.04129
962.669	10.02551
963.047	41.1048
963.424	8.02057
963.802	8.01982
964.18	76.19143
964.557	8.01858
964.935	23.05479
965.312	52.13536
965.69	54.13514
966.067	62.15066
966.444	71.1743
966.821	13.03373
967.198	84.20251
967.575	33.0814
967.952	70.16434
968.329	33.08056
968.705	83.17675
969.082	52.13332
969.458	11.02658
969.835	25.06115
970.211	26.06701
970.587	34.0849
970.963	90.22928
971.339	24.06295
971.715	42.10503
972.091	42.10358
972.467	46.11482
972.843	29.07225
973.219	77.18398
973.594	9.0237
973.97	88.20797
974.345	24.05773
974.721	56.13546
975.096	3.00732
975.471	52.12332
975.846	66.15809
976.221	16.04088
976.596	-5.01211
976.971	67.16491
977.346	57.13254
977.72	19.04867
978.095	31.08038
978.469	67.15941
978.844	94.23447
979.218	41.09845
979.593	55.13166
979.967	40.09763
980.341	-7.0163
980.715	73.18318
981.089	-14.03545
981.463	20.0462
981.837	16.03934
982.21	89.20555
982.584	34.08237
982.957	31.07768
983.331	58.13691
983.704	42.10336
984.078	25.0619
984.451	60.14961
984.824	14.03432
985.197	9.02203
985.57	40.1005
985.943	90.22066
986.316	72.1762
986.688	34.08225
987.061	29.06826
987.434	14.03671
987.806	59.14286
988.179	17.04037
988.551	66.16695
988.923	60.14749
989.295	71.17675
989.667	1.00241
990.039	28.06946
990.411	25.05783
990.783	55.12652
991.155	-38.09282
991.527	116.28219
991.898	48.11964
992.27	-6.01499
992.641	47.11798
993.012	39.09197
993.384	12.02883
993.755	15.03848
994.126	1.00243
994.497	39.09592
994.868	28.0646
995.239	30.07298
995.61	12.0304
995.98	12.02936
996.351	-1.0025
996.722	38.08834
997.092	-7.01676
997.462	-38.09029
997.833	53.12557
998.203	73.17622
998.573	21.05256
998.943	37.08698
999.313	43.10317
999.683	25.06028
1000.053	70.16042
1000.423	48.11668
1000.792	34.08836
1001.162	28.06918
1001.531	37.09144
1001.901	24.0601
1002.27	43.09626
1002.639	31.07946
1003.009	43.10239
1003.378	9.02317
1003.747	75.17632
1004.116	15.03613
1004.485	36.08626
1004.853	32.08132
1005.222	30.07591
1005.591	27.06439
1005.959	19.04308
1006.328	31.07003
1006.696	32.07744
1007.064	48.12077
1007.433	34.08521
1007.801	68.16635
1008.169	43.10871
1008.537	-12.02691
1008.905	-38.09005
1009.273	74.18197
1009.64	24.05753
1010.008	40.09552
1010.375	85.20503
1010.743	53.12231
1011.11	9.02146
1011.478	15.03735
1011.845	51.1199
1012.212	37.08396
1012.579	56.1373
1012.946	68.16126
1013.313	11.02637
1013.68	68.15226
1014.047	14.03359
1014.414	16.03803
1014.78	50.12422
1015.147	48.11611
1015.513	34.08215
1015.88	55.14049
1016.246	72.17698
1016.612	50.11445
1016.978	28.06888
1017.344	66.1626
1017.71	75.18201
1018.076	74.17366
1018.442	57.14642
1018.808	8.02014
1019.174	12.0303
1019.539	117.2657
1019.905	11.02613
1020.27	10.02485
1020.636	31.07458
1021.001	30.07208
1021.366	12.02902
1021.731	47.1209
1022.096	20.0507
1022.461	59.13935
1022.826	43.10231
1023.191	29.07633
1023.556	6.01418
1023.92	65.15933
1024.285	38.09293
1024.649	43.10548
1025.014	58.14341
1025.378	10.02531
1025.742	29.07227
1026.107	47.10634
1026.471	70.16273
1026.835	14.03492
1027.199	-14.0341
1027.562	23.05373
1027.926	86.20882
1028.29	58.14651
1028.654	57.13091
1029.017	19.04695
1029.381	17.04085
1029.744	12.0308
1030.107	33.07831
1030.471	34.08163
1030.834	38.08663
1031.197	62.14896
1031.56	10.02377
1031.923	40.10355
1032.286	75.17522
1032.648	67.15966
1033.011	14.03235
1033.374	35.08247
1033.736	6.01589
1034.099	44.10732
1034.461	37.09365
1034.823	14.03507
1035.185	45.11332
1035.548	85.20542
1035.91	39.09358
1036.272	63.14295
1036.634	48.11742
1036.995	30.07076
1037.357	-18.04433
1037.719	57.13838
1038.08	64.15148
1038.442	49.11627
1038.803	30.07227
1039.165	45.11361
1039.526	30.07273
1039.887	48.11484
1040.248	40.09869
1040.609	59.14548
1040.97	37.0906
1041.331	43.10895
1041.692	-3.00707
1042.053	38.0867
1042.413	57.13259
1042.774	66.15995
1043.134	31.07404
1043.495	55.13806
1043.855	47.11401
1044.215	60.14858
1044.576	-22.0533
1044.936	44.10095
1045.296	81.20091
1045.656	80.19512
1046.016	44.10628
1046.375	43.10439
1046.735	15.03423
1047.095	-9.0213
1047.454	50.1059
1047.814	14.03387
1048.173	80.18994
1048.533	-6.01389
1048.892	-26.06327
1049.251	63.15769
1049.61	32.07901
1049.969	45.10612
1050.328	39.08471
1050.687	58.14083
1051.046	25.06112
1051.405	17.04252
1051.763	5.01159
1052.122	28.07007
1052.48	34.08358
1052.839	30.07082
1053.197	-5.01189
1053.555	89.20121
1053.914	17.04181
1054.272	73.17562
1054.63	37.09063
1054.988	6.01437
1055.345	15.03253
1055.703	63.15116
1056.061	-1.00259
1056.419	-4.01044
1056.776	78.18804
1057.134	37.08583
1057.491	26.06535
1057.848	48.11947
1058.206	18.04257
1058.563	12.02665
1058.92	61.14021
1059.277	63.15495
1059.634	59.13849
1059.991	65.15519
1060.348	24.05449
1060.704	21.05029
1061.061	73.16873
1061.418	11.02685
1061.774	39.09642
1062.131	0
1062.487	-5.01181
1062.843	21.0526
1063.199	17.0425
1063.555	-7.01639
1063.911	25.06339
1064.267	59.12275
1064.623	7.01713
1064.979	93.21838
1065.335	25.06001
1065.691	23.05537
1066.046	56.12291
1066.402	-1.00229
1066.757	31.07846
1067.112	28.06895
1067.468	-42.10087
1067.823	60.14388
1068.178	54.13043
1068.533	33.0802
1068.888	24.0576
1069.243	65.15987
1069.598	50.12141
1069.952	-8.01822
1070.307	42.10404
1070.662	35.08328
1071.016	-6.01359
1071.371	34.07754
1071.725	93.22051
1072.079	6.01454
1072.434	9.02202
1072.788	28.06691
1073.142	56.1375
1073.496	24.05718
1073.85	63.14562
1074.203	24.05847
1074.557	58.15392
1074.911	137.32131
1075.265	69.15968
1075.618	85.20604
1075.971	27.06446
1076.325	27.06885
1076.678	0
1077.031	-23.05278
1077.385	55.12094
1077.738	24.05443
1078.091	-11.0253
1078.444	43.09991
1078.796	-6.01486
1079.149	50.12427
1079.502	14.03328
1079.855	22.05155
1080.207	56.13771
1080.56	37.09577
1080.912	56.13608
1081.264	12.02908
1081.617	44.10728
1081.969	27.06834
1082.321	6.01476
1082.673	3.00691
1083.025	60.14196
1083.377	49.10512
1083.728	54.12578
1084.08	27.06763
1084.432	18.04364
1084.783	58.13558
1085.135	27.0679
1085.486	7.01614
1085.838	28.06918
1086.189	-1.00245
1086.54	84.19913
1086.891	24.06093
1087.242	5.01227
1087.593	66.16007
1087.944	23.0523
1088.295	23.05253
1088.646	30.07293
1088.996	16.03876
1089.347	21.05176
1089.698	-21.05027
1090.048	56.14518
1090.398	67.15474
1090.749	85.20185
1091.099	37.09318
1091.449	10.02507
1091.799	16.04027
1092.149	-29.07169
1092.499	33.08068
1092.849	25.06377
1093.199	43.10782
1093.548	18.04348
1093.898	12.0302
1094.248	50.12837
1094.597	-24.062
1094.947	33.0882
1095.296	46.11357
1095.645	67.1736
1095.994	37.08901
1096.343	58.14562
1096.692	25.06589
1097.041	18.04894
1097.39	31.07796
1097.739	57.14784
1098.088	58.15505
1098.437	3.00794
1098.785	60.16135
1099.134	48.12738
1099.482	54.14829
1099.83	42.11042
1100.179	-7.01842
1100.527	51.13537
1100.875	5.01331
1101.223	5.01336
1101.571	38.10511
1101.919	-15.03959
1102.267	14.0396
1102.615	-3.00965
1102.962	12.03863
1103.31	3.00964
1103.658	23.07398
