Data from N2 R7 sample 11_Subt2__2__15-19-48-093.txt Node

Date: Fri Aug 29 15:19:48 PDT 2025
User: uwsun
Spectrometer: HDX01956
Trigger mode: 0
Integration Time (sec): 5.000000E-1
Scans to average: 1
Nonlinearity correction enabled: true
Boxcar width: 0
Storing dark spectrum: false
XAxis mode: Wavelengths
Number of Pixels in Spectrum: 2068
>>>>>Begin Spectral Data<<<<<
194.03	306.81788
194.578	328.99426
195.127	322.96136
195.676	324.97025
196.225	335.83836
196.773	393.00649
197.321	545.32681
197.87	766.62376
198.418	665.41897
198.966	772.62084
199.513	710.42764
200.061	687.4159
200.609	746.62049
201.156	661.15133
201.704	649.33988
202.251	689.4988
202.798	678.4458
203.345	734.46783
203.892	725.47557
204.438	752.43586
204.985	705.32873
205.532	772.63507
206.078	828.59725
206.624	769.49782
207.17	771.41287
207.716	734.42175
208.262	790.18708
208.808	687.3588
209.354	804.53532
209.899	854.70891
210.445	698.39767
210.99	745.42419
211.535	766.42803
212.08	773.41939
212.625	764.53425
213.17	829.66532
213.715	685.20267
214.259	794.45474
214.804	816.59891
215.348	763.37922
215.892	783.48829
216.436	765.4089
216.98	816.40445
217.524	752.41297
218.068	769.55743
218.612	774.56793
219.155	767.43167
219.698	715.37334
220.242	750.51579
220.785	634.21721
221.328	669.37258
221.871	705.47061
222.414	709.44559
222.956	623.23433
223.499	660.20574
224.041	675.28704
224.583	699.21703
225.126	656.17244
225.668	674.33896
226.21	644.33935
226.751	612.08857
227.293	643.20455
227.835	635.27809
228.376	662.25213
228.918	683.42277
229.459	650.33024
230	676.31048
230.541	607.15604
231.082	685.35231
231.622	658.23787
232.163	680.34022
232.704	674.36573
233.244	592.22395
233.784	707.41474
234.324	632.11609
234.864	672.23018
235.404	668.29926
235.944	669.29534
236.484	700.42818
237.023	677.29523
237.563	662.23747
238.102	683.30736
238.641	695.43561
239.18	651.23158
239.719	663.36698
240.258	752.33613
240.797	734.40143
241.335	719.42285
241.874	679.01819
242.412	691.33993
242.95	684.31338
243.488	715.30083
244.026	710.30251
244.564	727.16687
245.102	721.27927
245.64	696.3596
246.177	732.29648
246.715	718.38673
247.252	717.31438
247.789	742.07661
248.326	713.36226
248.863	659.15207
249.4	716.29244
249.936	714.14367
250.473	706.30946
251.009	673.23046
251.546	697.21354
252.082	729.25201
252.618	700.23003
253.154	735.39826
253.69	703.25308
254.226	693.32334
254.761	742.30401
255.297	734.25087
255.832	663.26045
256.367	726.35399
256.903	737.25903
257.438	697.30784
257.972	737.28201
258.507	728.30209
259.042	787.30941
259.576	685.14803
260.111	706.29515
260.645	758.2683
261.179	726.32991
261.713	736.27182
262.247	774.3874
262.781	705.14173
263.315	727.40717
263.849	706.4085
264.382	780.39101
264.915	799.43709
265.449	699.33933
265.982	802.40235
266.515	757.44647
267.048	739.19696
267.58	757.27943
268.113	724.20397
268.646	789.51354
269.178	743.27612
269.71	787.30941
270.243	764.34978
270.775	790.57122
271.307	785.47256
271.838	780.44556
272.37	756.45537
272.902	819.41676
273.433	750.25487
273.965	814.52444
274.496	762.48873
275.027	788.51634
275.558	815.51468
276.089	733.39851
276.62	845.66243
277.15	813.55141
277.681	765.26711
278.211	778.48415
278.741	767.27534
279.272	814.39802
279.802	880.66772
280.332	795.42549
280.861	850.54661
281.391	788.34892
281.921	830.52389
282.45	822.5796
282.98	869.73455
283.509	895.47417
284.038	833.41663
284.567	837.47484
285.096	863.56595
285.625	800.36146
286.153	799.41066
286.682	868.46006
287.21	830.50022
287.739	925.59556
288.267	840.52065
288.795	860.72965
289.323	841.45029
289.851	925.5761
290.378	842.38852
290.906	818.47623
291.433	877.62932
291.961	844.39568
292.488	892.64534
293.015	858.47772
293.542	838.58645
294.069	857.5574
294.596	924.67816
295.122	967.64789
295.649	878.39216
296.175	920.62527
296.702	959.67633
297.228	873.56488
297.754	931.47611
298.28	973.53945
298.806	934.60558
299.332	972.47853
299.857	974.52383
300.383	986.79736
300.908	916.58042
301.433	914.587
301.958	973.57832
302.483	935.66513
303.008	996.74256
303.533	973.8313
304.058	968.60498
304.582	961.57539
305.107	912.71839
305.631	1051.6254
306.155	981.56461
306.679	989.57653
307.203	989.56487
307.727	1006.63435
308.251	1005.72204
308.775	940.53186
309.298	1039.66601
309.822	1094.87157
310.345	1102.72211
310.868	1072.70216
311.391	1107.82078
311.914	1107.84395
312.437	1164.69712
312.96	1087.6696
313.482	1085.67826
314.005	1086.81427
314.527	1103.93893
315.049	1163.92705
315.571	1121.53862
316.093	1234.92073
316.615	1128.73344
317.137	1190.55488
317.659	1186.82525
318.18	1279.89074
318.702	1190.69283
319.223	1256.45656
319.744	1271.65574
320.265	1241.8086
320.786	1198.80827
321.307	1276.90741
321.828	1246.63649
322.348	1375.82189
322.869	1314.75803
323.389	1116.93133
323.909	1372.73924
324.43	1435.94155
324.95	1393.71479
325.47	1385.88773
325.989	1354.74093
326.509	1439.5897
327.029	1474.66239
327.548	1401.60418
328.067	1426.79753
328.587	1510.9736
329.106	1457.6509
329.625	1594.23565
330.144	1476.67601
330.662	1463.66033
331.181	1554.7388
331.7	1560.73244
332.218	1547.49322
332.736	1620.73516
333.255	1565.67141
333.773	1628.73987
334.291	1719.97144
334.808	1671.54045
335.326	1824.61031
335.844	1765.62787
336.361	1781.90339
336.879	1739.60571
337.396	1819.72286
337.913	1755.54301
338.43	1892.48139
338.947	1879.64855
339.464	1962.2884
339.981	1837.57597
340.497	1924.74823
341.014	1864.65192
341.53	1939.37729
342.046	2016.65176
342.562	2026.73265
343.078	2037.48553
343.594	2022.52594
344.11	2155.4907
344.626	2076.67343
345.141	2060.30191
345.657	2176.29833
346.172	2167.46222
346.687	2116.26911
347.202	2127.17026
347.717	2286.35111
348.232	2284.51504
348.747	2222.18607
349.261	2244.93124
349.776	2344.20025
350.29	2361.30213
350.805	2485.35954
351.319	2457.09409
351.833	2286.97743
352.347	2411.08221
352.861	2467.00412
353.374	2508.98882
353.888	2432.14661
354.401	2542.89522
354.915	2495.74841
355.428	2636.08661
355.941	2716.7759
356.454	2720.7083
356.967	2617.88907
357.48	2616.77887
357.993	2620.00311
358.505	2650.91045
359.018	2751.86795
359.53	2822.72388
360.042	2840.45327
360.554	2869.73353
361.066	2756.75345
361.578	2789.35709
362.09	2796.64199
362.602	2836.31122
363.113	2912.42355
363.625	2922.28548
364.136	2986.18168
364.647	2847.28674
365.158	3057.25529
365.669	3012.36998
366.18	3041.27862
366.691	3100.01022
367.201	2997.29404
367.712	3129.00778
368.222	3154.98548
368.733	3207.73235
369.243	3277.7111
369.753	3448.75494
370.263	3435.83084
370.773	3378.93829
371.282	3435.7043
371.792	3366.48307
372.301	3607.51297
372.811	3670.7144
373.32	3618.06289
373.829	3632.23102
374.338	3981.90469
374.847	4087.86337
375.356	4080.86389
375.865	4247.60619
376.373	4544.61867
376.882	4692.72598
377.39	4649.64289
377.898	4764.62564
378.407	4991.76226
378.915	5293.07963
379.423	5425.1629
379.93	5720.74388
380.438	5799.99223
380.946	6193.15931
381.453	6331.83244
381.96	6614.38728
382.468	6911.81005
382.975	7520.48377
383.482	7838.76759
383.989	7868.03563
384.495	7955.20606
385.002	8414.22435
385.509	8968.64362
386.015	9462.96632
386.521	9986.15423
387.028	10395.94578
387.534	10647.20676
388.04	11071.16065
388.546	11027.91155
389.051	11592.40786
389.557	12620.30122
390.063	14073.64761
390.568	14528.45474
391.073	14782.6437
391.578	15251.50074
392.084	15570.48932
392.589	15801.00224
393.093	16720.24785
393.598	18647.08469
394.103	20157.33481
394.607	22535.75442
395.112	24201.91868
395.616	25389.68663
396.12	27170.45294
396.624	30253.10818
397.128	33058.75408
397.632	36477.09927
398.136	38006.50419
398.639	35728.22313
399.143	32396.00378
399.646	28888.45294
400.15	25083.82847
400.653	20124.16724
401.156	13866.23708
401.659	5169.95759
402.162	1054.15589
402.664	0
403.167	0
403.67	0
404.172	0
404.674	0
405.176	0
405.678	0
406.18	0
406.682	0
407.184	0
407.686	0
408.187	0
408.688	0
409.19	0
409.691	0
410.192	0
410.693	0
411.194	435.30976
411.694	4082.94878
412.195	8864.71461
412.696	12089.80453
413.196	12760.96929
413.696	12863.67595
414.196	13703.56671
414.696	17261.84252
415.196	21764.24417
415.696	29583.19008
416.196	36460.31858
416.695	40057.39798
417.195	41392.74103
417.694	42311.08144
418.194	42144.10117
418.693	39120.51633
419.192	37798.1823
419.691	36995.79797
420.19	36488.69958
420.688	35907.51167
421.187	34762.41542
421.685	32764.92155
422.184	30009.736
422.682	26009.0337
423.18	21909.02999
423.678	19164.5822
424.176	17665.20236
424.674	16681.46151
425.172	16222.15126
425.669	15308.27222
426.167	14254.45645
426.664	12910.52125
427.161	11739.12152
427.659	10862.92904
428.156	10249.46251
428.652	9567.61926
429.149	9204.16413
429.646	8885.50821
430.143	8605.66611
430.639	7931.07538
431.135	7437.45808
431.632	6900.48812
432.128	6514.576
432.624	6139.30762
433.12	5819.20108
433.616	5700.92103
434.111	5284.14681
434.607	5114.86699
435.103	5231.00162
435.598	5072.84421
436.093	4885.65803
436.588	4606.61834
437.083	4451.6621
437.578	4182.78373
438.073	3817.05371
438.568	3803.2127
439.062	3682.98758
439.557	3582.36703
440.051	3423.35756
440.546	3137.55323
441.04	3137.75376
441.534	3087.03898
442.028	3081.93885
442.522	2933.0247
443.015	2995.76638
443.509	2923.19994
444.002	2879.23107
444.496	2754.99253
444.989	2804.3401
445.482	2765.42587
445.975	2674.14826
446.468	2677.05077
446.961	2623.09554
447.454	2630.28669
447.947	2581.42494
448.439	2494.63412
448.931	2415.39498
449.424	2338.87042
449.916	2374.73195
450.408	2257.52525
450.9	2306.74908
451.392	2232.9374
451.884	2234.69577
452.375	2097.9315
452.867	2122.75193
453.358	2063.7134
453.849	2047.58466
454.341	2006.76421
454.832	1974.66245
455.323	1915.02362
455.814	1946.89843
456.304	2046.903
456.795	1894.92074
457.285	1882.91285
457.776	1937.00462
458.266	1746.07026
458.756	1777.15549
459.247	1737.09619
459.737	1697.11012
460.226	1728.9815
460.716	1694.16933
461.206	1610.20518
461.695	1593.35641
462.185	1549.18587
462.674	1576.15515
463.163	1557.06775
463.653	1582.95352
464.142	1426.25251
464.63	1548.37091
465.119	1460.18715
465.608	1455.19396
466.096	1386.08969
466.585	1405.25118
467.073	1392.34829
467.561	1265.30755
468.05	1359.28582
468.538	1339.42727
469.026	1300.34934
469.513	1253.05461
470.001	1223.19795
470.489	1257.31498
470.976	1255.28754
471.463	1220.46366
471.951	1107.41191
472.438	1062.23264
472.925	985.1675
473.412	1022.34076
473.899	1100.26588
474.385	1044.36985
474.872	972.19968
475.359	984.31139
475.845	953.00597
476.331	1036.17364
476.817	876.2445
477.303	892.17619
477.789	858.21497
478.275	830.23546
478.761	830.20412
479.247	873.13828
479.732	768.18444
480.218	807.32805
480.703	795.23811
481.188	765.98554
481.673	749.06566
482.158	629.82927
482.643	687.17089
483.128	647.9514
483.612	685.04207
484.097	648.07312
484.581	700.07099
485.066	593.9851
485.55	563.82667
486.034	572.8278
486.518	598.95216
487.002	534.91469
487.486	511.88585
487.969	482.84376
488.453	560.01341
488.936	488.78042
489.42	520.81316
489.903	477.89071
490.386	561.59833
490.869	514.80097
491.352	489.89188
491.835	472.7025
492.318	474.77838
492.8	431.64981
493.283	421.81145
493.765	401.74988
494.247	438.77599
494.73	416.68842
495.212	417.77633
495.694	349.62552
496.175	273.50468
496.657	392.71728
497.139	396.51099
497.62	286.53044
498.102	302.59257
498.583	280.56369
499.064	320.55303
499.545	345.61389
500.026	310.54431
500.507	342.62324
500.988	350.69
501.469	247.50035
501.949	275.55145
502.43	249.47461
502.91	275.44734
503.39	297.60383
503.87	250.47362
504.35	267.51313
504.83	207.36812
505.31	232.45909
505.79	242.47058
506.269	294.55535
506.749	206.38454
507.228	228.43659
507.707	204.37023
508.187	246.48452
508.666	226.45623
509.145	167.32404
509.623	200.38853
510.102	190.38426
510.581	223.44883
511.059	143.30187
511.538	204.44433
512.016	220.43677
512.494	203.41291
512.972	194.38714
513.45	106.20671
513.928	169.34422
514.406	148.29795
514.884	181.39282
515.361	160.32344
515.839	182.34648
516.316	176.3566
516.793	169.36459
517.27	207.42354
517.747	173.37658
518.224	154.30288
518.701	171.32102
519.178	103.21877
519.654	126.25822
520.131	114.24272
520.607	128.27406
521.083	158.30621
521.56	113.22964
522.036	120.22611
522.512	178.37601
522.987	90.18394
523.463	141.28706
523.939	146.30841
524.414	177.34886
524.89	107.21993
525.365	165.31802
525.84	101.20628
526.315	135.2796
526.79	124.24089
527.265	120.23613
527.74	128.26944
528.215	100.20484
528.689	109.20836
529.164	112.21073
529.638	132.29544
530.112	49.1013
530.587	101.18559
531.061	96.20119
531.534	123.25977
532.008	107.2235
532.482	130.25894
532.956	69.15428
533.429	113.23886
533.903	133.25511
534.376	105.20198
534.849	141.28314
535.322	103.21256
535.795	106.22696
536.268	67.14187
536.741	98.20674
537.213	142.28495
537.686	65.13938
538.158	37.07306
538.631	75.16152
539.103	56.11035
539.575	102.18596
540.047	82.15839
540.519	97.20423
540.991	100.21587
541.463	86.18366
541.934	96.19264
542.406	85.17794
542.877	100.19761
543.348	98.20856
543.82	116.25009
544.291	150.30504
544.762	114.23564
545.233	127.27751
545.703	115.22069
546.174	173.34627
546.645	113.23352
547.115	158.32805
547.585	176.34713
548.056	128.26529
548.526	185.36875
548.996	190.39008
549.466	285.58393
549.935	208.41334
550.405	263.47501
550.875	234.46305
551.344	291.57814
551.814	260.49618
552.283	284.50914
552.752	238.45839
553.221	231.41273
553.69	314.56525
554.159	275.55451
554.628	290.52498
555.096	302.62813
555.565	305.55313
556.033	333.64368
556.502	267.54135
556.97	265.49063
557.438	220.44412
557.906	238.48222
558.374	216.42483
558.842	206.42408
559.31	131.25747
559.777	138.29164
560.245	189.38759
560.712	248.49421
561.18	169.3251
561.647	172.33573
562.114	142.28429
562.581	251.53497
563.048	255.50756
563.514	204.43565
563.981	279.54835
564.448	220.42882
564.914	318.63193
565.381	333.64461
565.847	365.72279
566.313	383.75027
566.779	400.75375
567.245	345.68511
567.711	421.84149
568.176	395.73866
568.642	347.73892
569.108	458.93221
569.573	479.93169
570.038	517.87677
570.504	518.93594
570.969	581.1746
571.434	538.94234
571.899	658.22876
572.363	707.24073
572.828	757.32452
573.293	811.39694
573.757	731.28698
574.222	790.31622
574.686	788.31864
575.15	864.52372
575.614	915.52725
576.078	861.49671
576.542	939.54775
577.006	951.5399
577.469	1063.88884
577.933	938.50471
578.396	1003.71585
578.86	1062.76822
579.323	994.70086
579.786	1028.54748
580.249	1000.61638
580.712	1064.85703
581.175	995.7823
581.637	1069.73956
582.1	1032.59914
582.563	1080.60872
583.025	938.67006
583.487	941.34114
583.95	856.34473
584.412	955.43232
584.874	943.68374
585.336	875.54518
585.797	870.38101
586.259	893.57131
586.721	777.391
587.182	909.58371
587.643	812.39457
588.105	779.41394
588.566	813.27952
589.027	733.36538
589.488	721.27397
589.949	782.45936
590.41	657.98036
590.87	771.35262
591.331	670.13233
591.791	662.19964
592.252	630.13573
592.712	613.18107
593.172	624.11283
593.632	675.15967
594.092	610.0822
594.552	610.04018
595.011	536.9962
595.471	543.98489
595.931	551.99229
596.39	506.99381
596.849	554.04391
597.308	516.91424
597.768	471.99552
598.227	538.05843
598.685	484.92147
599.144	450.87548
599.603	537.03736
600.062	490.83703
600.52	465.85368
600.978	466.91741
601.437	522.97789
601.895	477.82863
602.353	481.87995
602.811	486.88573
603.269	533.04045
603.727	556.07901
604.184	501.92025
604.642	536.07084
605.099	533.005
605.557	532.05988
606.014	510.88904
606.471	498.01734
606.928	549.93662
607.385	599.15681
607.842	689.2249
608.299	776.38386
608.755	662.25701
609.212	612.07225
609.668	694.17872
610.125	726.36671
610.581	772.42572
611.037	772.36465
611.493	618.17788
611.949	608.17619
612.405	569.91035
612.861	626.19085
613.316	592.14409
613.772	618.14082
614.227	621.17816
614.683	677.14698
615.138	572.08952
615.593	605.13658
616.048	684.24715
616.503	644.28463
616.958	590.21109
617.412	590.14022
617.867	533.96822
618.321	662.09093
618.776	636.13662
619.23	546.0626
619.684	599.11037
620.138	605.15781
620.592	548.11157
621.046	552.08348
621.5	554.1253
621.954	570.06991
622.407	531.9955
622.861	542.1084
623.314	550.0521
623.768	483.96184
624.221	461.77498
624.674	484.95509
625.127	480.96542
625.58	500.98064
626.033	479.91439
626.485	432.9009
626.938	436.90763
627.39	449.91077
627.843	426.8655
628.295	411.83826
628.747	395.83271
629.199	403.81112
629.651	373.75558
630.103	340.70087
630.555	372.70442
631.006	352.74451
631.458	375.79402
631.909	408.84027
632.361	377.79232
632.812	299.63228
633.263	394.76288
633.714	357.69437
634.165	348.76984
634.616	301.65963
635.067	351.71264
635.518	367.79848
635.968	367.67135
636.419	311.62508
636.869	347.75818
637.319	302.6466
637.769	232.48814
638.219	322.71322
638.669	263.58704
639.119	330.74555
639.569	308.69046
640.019	323.6938
640.468	234.49495
640.918	334.7472
641.367	261.55193
641.816	261.55072
642.265	283.61469
642.714	297.64372
643.163	242.52777
643.612	214.48803
644.061	292.57864
644.51	292.62411
644.958	318.65227
645.406	300.6728
645.855	321.73629
646.303	351.76399
646.751	258.55574
647.199	289.61943
647.647	290.62842
648.095	328.70256
648.543	313.60357
648.99	310.69523
649.438	365.79918
649.885	317.7376
650.333	336.6092
650.78	325.7362
651.227	290.66667
651.674	338.72085
652.121	327.74735
652.568	290.66613
653.015	303.725
653.461	316.70752
653.908	323.70873
654.354	294.66585
654.801	281.6254
655.247	319.66157
655.693	354.86585
656.139	297.67524
656.585	334.75458
657.031	291.64282
657.477	263.54275
657.922	344.74383
658.368	379.87522
658.813	368.80388
659.259	302.68786
659.704	282.62646
660.149	311.68728
660.594	332.74486
661.039	309.66859
661.484	309.70309
661.929	355.78254
662.373	316.75624
662.818	317.7469
663.262	310.7095
663.707	358.85575
664.151	346.79982
664.595	303.69669
665.039	395.9223
665.483	363.87216
665.927	429.94127
666.371	272.60349
666.814	370.83419
667.258	325.72991
667.701	443.88916
668.145	411.95965
668.588	407.93687
669.031	331.73911
669.474	324.74422
669.917	399.8308
670.36	388.90685
670.803	426.96277
671.245	379.75403
671.688	438.99874
672.13	338.72085
672.573	433.02862
673.015	432.97036
673.457	378.77779
673.899	447.00919
674.341	423.95735
674.783	439.98264
675.225	446.02186
675.666	391.88531
676.108	416.84827
676.549	495.08316
676.991	467.95593
677.432	455.84036
677.873	472.01294
678.314	455.01181
678.755	461.04339
679.196	440.94202
679.637	486.10164
680.078	486.05425
680.518	470.01948
680.959	462.03017
681.399	476.09639
681.839	476.07631
682.28	518.17667
682.72	445.9521
683.16	462.0717
683.6	521.09354
684.039	455.88374
684.479	468.06849
684.919	456.9788
685.358	534.24826
685.798	495.20404
686.237	523.16619
686.676	553.17511
687.115	540.16363
687.554	511.11964
687.993	545.1022
688.432	479.01584
688.871	532.1061
689.309	566.2333
689.748	548.04523
690.186	561.22627
690.625	519.11998
691.063	574.25446
691.501	568.28415
691.939	596.35081
692.377	556.24167
692.815	575.25215
693.253	613.33501
693.69	603.1952
694.128	562.24372
694.565	610.31694
695.003	605.39589
695.44	613.3011
695.877	605.27684
696.314	587.14336
696.751	613.26376
697.188	594.23577
697.625	655.34805
698.061	624.35066
698.498	692.49291
698.934	683.46749
699.371	621.31753
699.807	612.30942
700.243	639.38346
700.679	668.34862
701.115	700.46501
701.551	650.37404
701.987	714.41657
702.422	700.4747
702.858	696.47332
703.294	698.40025
703.729	706.53614
704.164	719.53167
704.599	675.33565
705.035	628.26079
705.47	708.52746
705.904	669.38987
706.339	771.56789
706.774	753.54514
707.209	680.39361
707.643	760.60123
708.078	692.50119
708.512	690.53936
708.946	715.51918
709.38	739.54161
709.814	783.55547
710.248	814.72334
710.682	742.55164
711.116	736.54315
711.549	746.70608
711.983	760.53392
712.416	788.62322
712.85	754.6573
713.283	755.56666
713.716	774.71053
714.149	752.57604
714.582	764.49335
715.015	770.69673
715.448	784.73408
715.881	780.47862
716.313	787.60337
716.746	710.4781
717.178	738.563
717.61	793.76236
718.043	742.635
718.475	793.67556
718.907	817.80522
719.339	723.43879
719.77	742.54411
720.202	791.75211
720.634	695.50354
721.065	803.65081
721.497	758.63332
721.928	731.58553
722.359	673.44723
722.79	717.51683
723.221	755.67718
723.652	792.79608
724.083	729.44133
724.514	748.50415
724.945	698.45438
725.375	712.45599
725.806	763.67744
726.236	751.70273
726.666	655.38915
727.096	707.54189
727.526	694.57439
727.956	655.32748
728.386	734.59778
728.816	709.59642
729.246	694.49914
729.675	704.53891
730.105	692.51902
730.534	698.44729
730.964	688.55699
731.393	718.58538
731.822	686.56943
732.251	638.46305
732.68	734.52338
733.109	695.52529
733.537	678.46018
733.966	701.54943
734.395	693.4174
734.823	685.37002
735.251	641.38779
735.68	703.57
736.108	688.55699
736.536	700.46372
736.964	660.36658
737.392	691.54381
737.82	699.48967
738.247	730.542
738.675	680.44945
739.102	684.52596
739.53	617.42417
739.957	652.51187
740.384	667.47606
740.811	681.54644
741.238	655.43381
741.665	615.28379
742.092	668.42569
742.519	573.29363
742.945	661.41957
743.372	678.50011
743.798	619.44406
744.225	579.2518
744.651	599.36668
745.077	637.43243
745.503	642.40917
745.929	581.26791
746.355	606.3696
746.781	591.33268
747.207	547.17193
747.632	565.25634
748.058	587.33442
748.483	644.32627
748.908	592.33793
749.334	552.24236
749.759	560.20421
750.184	579.25287
750.609	616.3696
751.033	621.32383
751.458	612.23484
751.883	609.36829
752.307	562.20541
752.732	534.22579
753.156	559.26301
753.58	602.2941
754.005	561.30555
754.429	498.08079
754.853	544.23631
755.277	543.17636
755.7	594.33918
756.124	475.09604
756.548	515.1232
756.971	543.21634
757.394	539.27889
757.818	506.20625
758.241	491.15635
758.664	492.15264
759.087	434.90507
759.51	489.12929
759.933	489.08891
760.356	488.16284
760.778	524.18599
761.201	507.13931
761.623	532.18653
762.046	534.16298
762.468	532.1743
762.89	547.23837
763.312	517.16371
763.734	528.1674
764.156	502.14625
764.578	487.03599
765	483.09327
765.421	457.08282
765.843	524.26969
766.264	511.13892
766.686	479.11886
767.107	435.98851
767.528	405.96491
767.949	460.09182
768.37	444.01849
768.791	453.02234
769.212	423.99888
769.632	405.88787
770.053	411.02059
770.473	401.92085
770.894	427.00382
771.314	473.0493
771.734	377.83207
772.154	398.96728
772.575	405.88413
772.994	331.71802
773.414	418.94431
773.834	362.86134
774.254	352.82112
774.673	402.92407
775.093	343.81003
775.512	324.76443
775.931	351.84878
776.351	343.81285
776.77	292.6876
777.189	330.75041
777.607	382.92493
778.026	333.79311
778.445	315.75572
778.864	365.89092
779.282	319.73523
779.701	301.73009
780.119	298.72458
780.537	274.66075
780.955	301.73721
781.373	262.62775
781.791	288.62222
782.209	308.6808
782.627	277.70547
783.045	259.57668
783.462	240.59643
783.88	296.73717
784.297	257.62666
784.715	253.62999
785.132	213.50384
785.549	167.41163
785.966	240.58685
786.383	214.51413
786.8	224.50712
787.217	197.45751
787.633	150.3698
788.05	270.61995
788.466	256.58498
788.883	189.4727
789.299	213.50091
789.715	203.48279
790.131	200.48687
790.547	172.42278
790.963	191.46488
791.379	172.42777
791.795	193.4317
792.21	145.33542
792.626	164.38351
793.041	206.49697
793.457	151.36863
793.872	136.31679
794.287	119.28204
794.702	198.47768
795.117	154.37742
795.532	122.30332
795.947	220.51627
796.362	209.48768
796.776	203.46529
797.191	182.43725
797.605	111.25912
798.02	138.33231
798.434	127.28079
798.848	109.26699
799.262	102.25193
799.676	137.33096
800.09	138.33595
800.504	150.35942
800.918	149.34084
801.331	167.43105
801.745	106.24252
802.158	116.28798
802.572	124.29848
802.985	105.2528
803.398	111.26329
803.811	112.28623
804.224	139.34224
804.637	86.20466
805.05	105.24241
805.462	121.29506
805.875	89.22997
806.288	69.16669
806.7	77.19349
807.112	118.27172
807.525	97.23857
807.937	53.13155
808.349	118.29337
808.761	86.21124
809.173	61.14831
809.584	105.25824
809.996	49.12056
810.408	106.27185
810.819	94.22042
811.231	104.26709
811.642	148.34786
812.053	254.58322
812.464	268.61363
812.875	248.61406
813.286	162.41036
813.697	187.42827
814.108	89.21695
814.519	133.29332
814.929	127.32085
815.34	88.21295
815.75	68.17287
816.16	73.18199
816.571	73.18954
816.981	105.24665
817.391	50.12131
817.801	67.16655
818.211	61.14586
818.62	45.10892
819.03	57.14014
819.44	107.27772
819.849	109.27282
820.259	112.28462
820.668	54.13323
821.077	55.13697
821.486	76.18301
821.895	116.2844
822.304	73.19324
822.713	60.14224
823.122	65.1624
823.531	55.13086
823.939	75.18262
824.348	97.23477
824.756	75.18772
825.164	61.15378
825.573	45.11341
825.981	113.27812
826.389	68.17091
826.797	55.13811
827.205	54.1244
827.612	113.27669
828.02	34.08041
828.428	87.22082
828.835	60.15806
829.243	94.22309
829.65	50.12472
830.057	44.10732
830.464	41.10043
830.871	88.21006
831.278	82.19776
831.685	69.15415
832.092	49.12043
832.499	41.09031
832.905	78.1971
833.312	29.06674
833.718	84.20869
834.124	32.07372
834.531	34.08622
834.937	52.13378
835.343	91.21868
835.749	61.14279
836.155	49.12862
836.561	16.03972
836.966	53.12997
837.372	69.1755
837.777	42.10507
838.183	52.1161
838.588	43.1072
838.993	52.12697
839.399	44.108
839.804	16.03934
840.209	49.12503
840.613	37.08287
841.018	82.20698
841.423	41.10557
841.828	47.11921
842.232	61.15125
842.637	60.14174
843.041	17.04391
843.445	75.18772
843.849	7.01751
844.253	67.15923
844.657	14.03555
845.061	20.04582
845.465	22.05356
845.869	51.11887
846.272	12.0295
846.676	69.16675
847.079	58.14755
847.483	71.17688
847.886	103.24883
848.289	42.11239
848.692	47.11934
849.095	65.15608
849.498	100.25178
849.901	55.12642
850.304	66.15767
850.707	53.13533
851.109	56.14186
851.512	101.24639
851.914	4.01018
852.316	49.12419
852.718	6.01563
853.121	49.12034
853.523	40.09391
853.925	44.11505
854.326	9.02271
854.728	37.09551
855.13	10.026
855.531	9.02172
855.933	42.10122
856.334	29.07269
856.736	-11.02501
857.137	29.06786
857.538	31.07832
857.939	35.08684
858.34	32.0784
858.741	17.04475
859.142	11.02667
859.542	34.09005
859.943	34.08487
860.343	4.01
860.744	30.07361
861.144	46.11249
861.544	-26.06349
861.945	33.08447
862.345	40.09818
862.745	21.05254
863.145	43.10313
863.544	53.13404
863.944	33.07837
864.344	52.12933
864.743	76.18799
865.143	13.03365
865.542	73.16887
865.941	28.06969
866.34	69.16499
866.74	68.18214
867.139	4.00968
867.537	35.08953
867.936	59.14199
868.335	33.08432
868.734	59.15071
869.132	33.07707
869.531	73.17609
869.929	-9.02079
870.327	67.16033
870.726	79.19623
871.124	40.09383
871.522	39.09965
871.92	55.13572
872.318	53.12968
872.715	56.13867
873.113	17.04173
873.511	7.0176
873.908	-11.0281
874.306	25.06253
874.703	36.09042
875.1	60.15339
875.497	13.03143
875.894	0
876.291	54.13259
876.688	67.17246
877.085	35.08433
877.482	55.13771
877.878	2.00486
878.275	41.10443
878.671	70.15551
879.068	76.1828
879.464	31.07529
879.86	31.07367
880.256	42.10393
880.652	51.12981
881.048	49.12158
881.444	17.04077
881.84	48.12216
882.236	59.14826
882.631	29.07154
883.027	45.1092
883.422	4.01032
883.817	5.01268
884.213	79.20186
884.608	-6.01488
885.003	3.0073
885.398	5.01263
885.793	13.03288
886.188	12.03006
886.582	80.20431
886.977	55.13056
887.371	38.0964
887.766	15.03757
888.16	39.09762
888.554	102.25008
888.949	81.20245
889.343	16.03937
889.737	-7.01884
890.131	36.09061
890.525	31.0796
890.918	11.0279
891.312	41.09838
891.706	41.10781
892.099	53.1349
892.492	38.08231
892.886	26.06396
893.279	72.18284
893.672	17.04356
894.065	23.05792
894.458	55.13831
894.851	68.16623
895.244	42.10749
895.637	39.09422
896.029	36.08833
896.422	51.12469
896.814	29.07243
897.206	5.01202
897.599	45.11149
897.991	48.1162
898.383	36.08537
898.775	41.09281
899.167	8.01883
899.559	28.07121
899.951	63.14828
900.342	41.10451
900.734	14.03498
901.125	46.12085
901.517	49.12038
901.908	68.16263
902.299	-3.00741
902.69	44.10402
903.082	64.1547
903.473	23.0554
903.863	27.06921
904.254	5.01172
904.645	81.20047
905.036	-11.02695
905.426	33.07588
905.817	54.13249
906.207	-19.0459
906.597	20.04708
906.987	54.13994
907.378	2.0051
907.768	23.06111
908.158	41.10021
908.547	30.0778
908.937	70.17909
909.327	38.09255
909.717	89.22453
910.106	9.0218
910.495	31.0777
910.885	66.16677
911.274	36.09025
911.663	46.1169
912.052	67.16491
912.441	-8.02056
912.83	0
913.219	83.2161
913.608	34.08358
913.997	-27.06865
914.385	-12.02903
914.774	52.12664
915.162	-8.01929
915.55	47.11384
915.939	-2.0051
916.327	37.09261
916.715	9.02311
917.103	80.19592
917.491	33.08194
917.878	39.09613
918.266	51.13228
918.654	8.0206
919.041	43.11241
919.429	39.09229
919.816	33.08394
920.203	49.11891
920.591	25.0623
920.978	68.16604
921.365	25.06589
921.752	32.07659
922.139	27.05895
922.525	20.04833
922.912	72.17495
923.299	38.09468
923.685	17.04461
924.072	50.11537
924.458	33.08203
924.844	7.01746
925.231	44.10257
925.617	26.06642
926.003	9.02317
926.389	39.0986
926.774	33.08391
927.16	12.03002
927.546	9.02314
927.931	52.12975
928.317	36.0832
928.702	71.16737
929.088	35.08305
929.473	81.20501
929.858	-1.00244
930.243	-16.03889
930.628	41.09994
931.013	25.06226
931.398	13.03013
931.783	63.16554
932.167	1.00247
932.552	39.09793
932.937	17.04246
933.321	22.05549
933.705	15.03806
934.09	64.16137
934.474	45.10703
934.858	-3.00785
935.242	22.05129
935.626	29.07452
936.009	13.03479
936.393	51.12977
936.777	37.09498
937.16	50.13011
937.544	49.11551
937.927	48.12185
938.311	83.20142
938.694	65.17149
939.077	55.13156
939.46	84.20503
939.843	106.21851
940.226	17.04387
940.609	18.0416
940.991	19.04863
941.374	29.07117
941.757	9.02238
942.139	20.04521
942.522	84.19728
942.904	33.0796
943.286	69.17476
943.668	13.03389
944.05	31.07664
944.432	48.11851
944.814	65.15969
945.196	-25.06178
945.578	-24.05786
945.959	15.0354
946.341	65.15916
946.722	43.10109
947.104	24.05766
947.485	-4.00941
947.866	4.01016
948.247	31.07849
948.628	28.0686
949.009	17.04379
949.39	26.06502
949.771	12.02813
950.152	0
950.532	-7.0174
950.913	14.03401
951.293	31.084
951.674	45.10896
952.054	36.08944
952.434	19.04744
952.814	36.0859
953.194	58.1516
953.574	78.19117
953.954	10.02393
954.334	39.0974
954.714	-17.04195
955.093	59.14484
955.473	14.03524
955.853	27.07018
956.232	47.12888
956.611	80.19082
956.99	23.05809
957.37	28.07163
957.749	31.07424
958.128	7.01777
958.506	54.13999
958.885	24.06086
959.264	-6.01486
959.643	20.0458
960.021	54.13372
960.4	31.07054
960.778	47.11585
961.156	21.05292
961.535	52.12117
961.913	94.21809
962.291	1.00259
962.669	32.08132
963.047	31.07938
963.424	22.05642
963.802	52.12782
964.18	62.15655
964.557	35.08087
964.935	46.10909
965.312	18.04713
965.69	70.17467
966.067	15.03677
966.444	58.14273
966.821	48.12379
967.198	46.11169
967.575	98.23884
967.952	44.10382
968.329	36.08784
968.705	34.07318
969.082	7.01809
969.458	-30.07306
969.835	39.09514
970.211	46.11814
970.587	33.08242
970.963	49.12573
971.339	32.08381
971.715	55.13722
972.091	43.10603
972.467	42.10492
972.843	33.08215
973.219	75.17927
973.594	27.0709
973.97	52.12375
974.345	16.03854
974.721	69.1665
975.096	-5.01222
975.471	55.13036
975.846	26.06275
976.221	37.09418
976.596	37.08891
976.971	33.08173
977.346	12.02815
977.72	36.09194
978.095	51.13178
978.469	42.10041
978.844	64.16051
979.218	11.02656
979.593	47.11269
979.967	39.09521
980.341	39.09
980.715	28.07083
981.089	26.06537
981.463	47.10799
981.837	9.02216
982.21	67.15542
982.584	-26.0637
982.957	8.02013
983.331	35.08299
983.704	13.03216
984.078	46.11345
984.451	77.1914
984.824	26.0636
985.197	73.17655
985.57	47.11794
985.943	51.12594
986.316	43.1058
986.688	39.09425
987.061	43.10093
987.434	17.04455
987.806	26.06334
988.179	-7.0167
988.551	67.16945
988.923	44.10848
989.295	29.07274
989.667	4.00964
990.039	23.05711
990.411	22.05092
990.783	61.14016
991.155	3.00727
991.527	59.14506
991.898	25.06257
992.27	-28.07025
992.641	54.13538
993.012	48.113
993.384	18.0432
993.755	47.11988
994.126	47.11311
994.497	12.02966
994.868	38.0875
995.239	44.10676
995.61	1.00254
995.98	-18.04428
996.351	7.01747
996.722	-4.00938
997.092	38.09019
997.462	-31.07356
997.833	8.01912
998.203	38.09234
998.573	-4.01006
998.943	16.03777
999.313	18.04339
999.683	35.08423
1000.053	17.03937
1000.423	38.09255
1000.792	42.10899
1001.162	-15.03735
1001.531	35.08653
1001.901	31.07754
1002.27	48.10735
1002.639	3.00773
1003.009	11.02635
1003.378	7.01803
1003.747	50.11812
1004.116	3.00724
1004.485	19.04568
1004.853	51.12917
1005.222	17.04312
1005.591	25.05964
1005.959	-9.02052
1006.328	-8.01822
1006.696	17.04125
1007.064	25.06316
1007.433	55.13732
1007.801	35.08615
1008.169	24.06088
1008.537	38.08435
1008.905	-4.00942
1009.273	37.09161
1009.64	-25.06049
1010.008	70.1662
1010.375	83.20028
1010.743	23.0534
1011.11	13.03098
1011.478	3.00749
1011.845	48.11291
1012.212	34.0772
1012.579	41.1008
1012.946	84.19859
1013.313	42.1001
1013.68	54.12126
1014.047	-13.03135
1014.414	-11.02628
1014.78	43.10697
1015.147	33.08005
1015.513	20.04845
1015.88	77.19592
1016.246	45.11117
1016.612	4.00924
1016.978	21.05173
1017.344	42.10393
1017.71	73.17722
1018.076	35.08276
1018.442	43.11072
1018.808	30.07524
1019.174	-4.01013
1019.539	91.20774
1019.905	0
1020.27	-15.03745
1020.636	44.10559
1021.001	58.13861
1021.366	-25.06087
1021.731	38.0979
1022.096	-28.07158
1022.461	41.09718
1022.826	18.04303
1023.191	45.11812
1023.556	69.16107
1023.92	31.07647
1024.285	18.04418
1024.649	30.07377
1025.014	73.18001
1025.378	25.06312
1025.742	23.05738
1026.107	52.11754
1026.471	50.1167
1026.835	41.10177
1027.199	5.01213
1027.562	13.03043
1027.926	44.10768
1028.29	46.11644
1028.654	58.13318
1029.017	19.04695
1029.381	16.03846
1029.744	44.11229
1030.107	81.19042
1030.471	34.08163
1030.834	50.11371
1031.197	83.19862
1031.56	33.07809
1031.923	40.10355
1032.286	43.10109
1032.648	39.09343
1033.011	3.00695
1033.374	61.14301
1033.736	51.13401
1034.099	29.07093
1034.461	20.05077
1034.823	7.01756
1035.185	17.04303
1035.548	37.09023
1035.91	41.09834
1036.272	38.08666
1036.634	61.14886
1036.995	-6.01425
1037.357	27.06594
1037.719	57.13838
1038.08	58.13744
1038.442	19.04535
1038.803	18.04346
1039.165	32.08098
1039.526	19.04616
1039.887	28.06725
1040.248	32.07907
1040.609	68.1674
1040.97	42.10275
1041.331	46.11649
1041.692	-15.03544
1042.053	45.10252
1042.413	42.09799
1042.774	73.17669
1043.134	19.04548
1043.495	35.08817
1043.855	53.12842
1044.215	75.18521
1044.576	-4.00966
1044.936	24.05529
1045.296	77.19113
1045.656	46.11291
1046.016	57.13734
1046.375	52.12602
1046.735	-10.02294
1047.095	43.10073
1047.454	49.1038
1047.814	-7.017
1048.173	93.22025
1048.533	2.00462
1048.892	24.05786
1049.251	53.1329
1049.61	37.09127
1049.969	46.10846
1050.328	37.0804
1050.687	21.05134
1051.046	55.13372
1051.405	39.09716
1051.763	27.06233
1052.122	42.10484
1052.48	20.04929
1052.839	2.00475
1053.197	35.08257
1053.555	32.07319
1053.914	46.11253
1054.272	49.11842
1054.63	18.04425
1054.988	-2.0048
1055.345	40.08628
1055.703	51.12265
1056.061	35.09022
1056.419	20.05201
1056.776	57.13796
1057.134	54.12484
1057.491	35.08783
1057.848	12.03006
1058.206	16.03786
1058.563	16.0355
1058.92	50.11518
1059.277	31.07669
1059.634	40.09424
1059.991	70.16697
1060.348	19.04318
1060.704	5.01201
1061.061	94.21637
1061.418	9.02198
1061.774	-5.01246
1062.131	20.05311
1062.487	21.04935
1062.843	27.06756
1063.199	42.10454
1063.555	12.028
1063.911	28.07095
1064.267	79.16362
1064.623	-8.01963
1064.979	89.20915
1065.335	90.21335
1065.691	23.05537
1066.046	23.05083
1066.402	6.01374
1066.757	44.1111
1067.112	64.15656
1067.468	5.0119
1067.823	46.1106
1068.178	3.00732
1068.533	64.15464
1068.888	52.12413
1069.243	28.06934
1069.598	27.06584
1069.952	-25.05712
1070.307	8.01994
1070.662	34.08091
1071.016	-21.04771
1071.371	-10.02301
1071.725	46.11006
1072.079	63.15105
1072.434	-11.02701
1072.788	24.0574
1073.142	73.17868
1073.496	19.04531
1073.85	32.07442
1074.203	47.11401
1074.557	29.07733
1074.911	74.17569
1075.265	53.12304
1075.618	48.11716
1075.971	-12.02886
1076.325	16.04088
1076.678	-19.04402
1077.031	12.02735
1077.385	38.08386
1077.738	6.01366
1078.091	-14.03223
1078.444	48.11141
1078.796	14.03455
1079.149	56.13903
1079.502	6.01428
1079.855	16.03753
1080.207	37.0913
1080.56	-3.00782
1080.912	44.10716
1081.264	51.12269
1081.617	3.00737
1081.969	38.09599
1082.321	53.12924
1082.673	-5.01153
1083.025	57.13494
1083.377	25.05391
1083.728	18.04223
1084.08	10.02512
1084.432	21.05089
1084.783	44.10314
1085.135	9.02271
1085.486	20.046
1085.838	40.09862
1086.189	-4.0098
1086.54	27.06471
1086.891	25.06345
1087.242	31.07568
1087.593	48.11681
1087.944	6.01369
1088.295	40.09104
1088.646	26.06325
1088.996	5.01214
1089.347	51.12502
1089.698	5.01191
1090.048	72.18614
1090.398	2.00468
1090.749	27.06483
1091.099	-10.0254
1091.449	44.10963
1091.799	48.12012
1092.149	-22.05432
1092.499	47.11461
1092.849	28.07138
1093.199	47.11777
1093.548	18.04348
1093.898	46.11507
1094.248	60.15377
1094.597	-36.0932
1094.947	18.04823
1095.296	11.02733
1095.645	67.1736
1095.994	32.07706
1096.343	45.11324
1096.692	17.04487
1097.041	17.04623
1097.39	60.1501
1097.739	20.05221
1098.088	46.12321
1098.437	-6.0159
1098.785	43.11596
1099.134	51.13528
1099.482	30.0827
1099.83	24.06329
1100.179	19.04977
1100.527	27.07195
1100.875	12.0319
1101.223	48.12738
1101.571	6.01668
1101.919	-8.02109
1102.267	-6.01702
1102.615	1.00322
1102.962	24.07715
1103.31	7.02249
1103.658	23.07398
