Data from N2 R7 sample 7_Subt2__0__15-23-19-584.txt Node

Date: Fri Aug 29 15:23:19 PDT 2025
User: uwsun
Spectrometer: HDX01956
Trigger mode: 0
Integration Time (sec): 5.000000E-1
Scans to average: 1
Nonlinearity correction enabled: true
Boxcar width: 0
Storing dark spectrum: false
XAxis mode: Wavelengths
Number of Pixels in Spectrum: 2068
>>>>>Begin Spectral Data<<<<<
194.03	219.59378
194.578	217.66761
195.127	223.67491
195.676	209.63577
196.225	253.64254
196.773	232.61234
197.321	365.91999
197.87	562.24372
198.418	533.16939
198.966	530.17134
199.513	431.92335
200.061	435.9484
200.609	508.15858
201.156	432.79887
201.704	484.03562
202.251	446.0194
202.798	428.96335
203.345	500.05331
203.892	490.04984
204.438	553.10615
204.985	510.00654
205.532	497.11498
206.078	543.11822
206.624	496.02791
207.17	557.07504
207.716	472.97251
208.262	521.8468
208.808	444.92921
209.354	515.05142
209.899	536.15055
210.445	518.07981
210.99	485.98649
211.535	542.06582
212.08	539.0472
212.625	557.17128
213.17	549.17318
213.715	403.76071
214.259	565.09416
214.804	557.1574
215.348	534.02094
215.892	541.0881
216.436	629.19743
216.98	510.95022
217.524	527.0443
218.068	612.28345
218.612	562.19297
219.155	499.99416
219.698	531.06451
220.242	502.07143
220.785	400.81231
221.328	490.04532
221.871	483.05641
222.414	480.02882
222.956	404.84252
223.499	447.86157
224.041	485.96852
224.583	463.85728
225.126	472.88464
225.668	436.9153
226.21	456.98933
226.751	407.76336
227.293	444.87368
227.835	407.86328
228.376	515.00858
228.918	475.0345
229.459	444.95222
230	437.89655
230.541	496.97142
231.082	479.99247
231.622	412.82293
232.163	474.98058
232.704	478.01129
233.244	444.94976
233.784	488.02528
234.324	374.70579
234.864	434.84315
235.404	453.92728
235.944	515.03333
236.484	506.07718
237.023	431.87466
237.563	489.95431
238.102	554.09304
238.641	531.13662
239.18	449.89247
239.719	455.98317
240.258	470.89699
240.797	454.92659
241.335	503.045
241.874	443.71225
242.412	448.92016
242.95	433.88273
243.488	451.87638
244.026	430.84534
244.564	486.83422
245.102	521.97337
245.64	529.0737
246.177	452.8597
246.715	485.99008
247.252	456.8918
247.789	549.84484
248.326	449.91368
248.863	473.86837
249.4	510.97004
249.936	471.80737
250.473	487.95356
251.009	492.94171
251.546	494.90716
252.082	487.89138
252.618	451.84507
253.154	505.01369
253.69	486.91583
254.226	518.0305
254.761	510.95164
255.297	481.87639
255.832	463.92415
256.367	416.83632
256.903	505.91734
257.438	495.97611
257.972	546.99865
258.507	461.88216
259.042	543.96485
259.576	486.85972
260.111	514.98954
260.645	548.97046
261.179	470.91744
261.713	496.91267
262.247	541.02711
262.781	449.78039
263.315	492.00506
263.849	543.12374
264.382	525.99881
264.915	523.00639
265.449	485.9784
265.982	518.97423
266.515	557.11519
267.048	491.85161
267.58	540.96724
268.113	479.85109
268.646	522.06501
269.178	490.89936
269.71	543.96485
270.243	543.01387
270.775	512.08336
271.307	539.07161
271.838	581.1295
272.37	536.0857
272.902	514.96195
273.433	491.88057
273.965	562.11717
274.496	554.13503
275.027	522.06791
275.558	581.14185
276.089	491.99278
276.62	534.12654
277.15	575.1598
277.681	609.0516
278.211	568.13804
278.741	490.87764
279.272	549.00889
279.802	543.11271
280.332	509.98062
280.861	528.03823
281.391	509.9373
281.921	511.01254
282.45	577.17343
282.98	573.22137
283.509	579.0364
284.038	519.95812
284.567	590.1059
285.096	526.03527
285.625	508.93335
286.153	552.03657
286.682	560.02011
287.21	587.12601
287.739	566.06866
288.267	547.06328
288.795	608.293
289.323	557.03236
289.851	609.12501
290.378	547.9765
290.906	556.06977
291.433	596.18378
291.961	607.06877
292.488	617.21558
293.015	549.02256
293.542	585.17514
294.069	587.13902
294.596	572.13074
295.122	597.11767
295.649	598.02351
296.175	672.26302
296.702	623.18427
297.228	648.22799
297.754	637.09423
298.28	589.03376
298.806	642.18876
299.332	550.94212
299.857	588.022
300.383	713.38858
300.908	566.06657
301.433	596.12102
301.958	673.18279
302.483	627.20462
303.008	684.29382
303.533	679.36929
304.058	659.18479
304.582	656.16581
305.107	619.24927
305.631	739.24622
306.155	687.18664
306.679	666.15853
307.203	649.12621
307.727	672.19307
308.251	681.26709
308.775	658.15606
309.298	669.18435
309.822	751.40175
310.345	734.26836
310.868	710.24308
311.391	762.37215
311.914	666.2425
312.437	715.18537
312.96	695.18965
313.482	725.23848
314.005	697.28728
314.527	717.38645
315.049	740.36788
315.571	730.12762
316.093	770.35899
316.615	789.33222
317.137	781.15977
317.659	838.42017
318.18	768.31037
318.702	848.33442
319.223	807.0903
319.744	811.21912
320.265	777.29272
320.786	829.38783
321.307	891.48463
321.828	873.28836
322.348	849.32022
322.869	817.27102
323.389	793.76366
323.909	857.27775
324.43	984.5253
324.95	915.31453
325.47	854.36328
325.989	933.3698
326.509	875.17493
327.029	940.27234
327.548	964.282
328.067	968.41147
328.587	998.52637
329.106	969.29769
329.625	1036.70778
330.144	962.30145
330.662	1029.35591
331.181	1040.38842
331.7	1055.3951
332.218	969.16432
332.736	1119.43129
333.255	1095.38305
333.773	1165.4683
334.291	1107.55565
334.808	1158.30567
335.326	1148.32279
335.844	1144.34077
336.361	1182.55679
336.879	1144.32993
337.396	1184.42507
337.913	1242.34362
338.43	1275.30097
338.947	1235.3985
339.464	1187.12269
339.981	1285.3806
340.497	1277.4895
341.014	1245.40893
341.53	1282.22771
342.046	1280.41586
342.562	1368.52196
343.078	1344.33191
343.594	1342.36009
344.11	1416.36862
344.626	1356.47039
345.141	1379.21392
345.657	1435.23803
346.172	1376.33241
346.687	1469.22113
347.202	1440.14055
347.717	1540.31884
348.232	1481.41913
348.747	1545.18753
349.261	1487.99015
349.776	1542.21611
350.29	1518.28711
350.805	1634.37774
351.319	1616.17218
351.833	1579.04384
352.347	1519.13808
352.861	1655.11105
353.374	1683.11184
353.888	1650.21099
354.401	1618.04599
354.915	1626.9239
355.428	1665.2155
355.941	1676.01168
356.454	1849.95512
356.967	1728.06742
357.48	1719.98292
357.993	1758.15619
358.505	1698.0922
359.018	1893.0892
359.53	1887.00019
360.042	1919.78619
360.554	1907.02301
361.066	1905.99832
361.578	1908.68944
362.09	1907.92311
362.602	1810.69107
363.113	1921.7911
363.625	1937.68041
364.136	2001.60701
364.647	1887.66086
365.158	2001.69941
365.669	2054.7611
366.18	2048.69959
366.691	2041.50431
367.201	2090.68134
367.712	2098.49734
368.222	2032.51231
368.733	2125.28742
369.243	2153.2925
369.753	2209.3947
370.263	2187.46326
370.773	2188.52805
371.282	2223.33755
371.792	2167.12639
372.301	2356.19135
372.811	2405.38937
373.32	2442.70325
373.829	2336.93999
374.338	2558.63475
374.847	2636.58543
375.356	2659.57022
375.865	2833.13693
376.373	2879.16939
376.882	3074.30138
377.39	3063.12387
377.898	3112.96807
378.407	3174.75846
378.915	3425.60867
379.423	3528.59714
379.93	3629.53642
380.438	3742.52362
380.946	4026.5989
381.453	4060.67618
381.96	4248.96674
382.468	4335.47197
382.975	4823.10265
383.482	5161.4
383.989	5025.74588
384.495	5084.9966
385.002	5304.42175
385.509	5697.84809
386.015	6130.92604
386.521	6434.54309
387.028	6836.99825
387.534	6842.0925
388.04	7229.21882
388.546	7217.80485
389.051	7347.01104
389.557	8057.19473
390.063	9074.48648
390.568	9203.1903
391.073	9316.91443
391.578	9768.62866
392.084	10018.02722
392.589	9784.19399
393.093	10391.026
393.598	11596.48712
394.103	12639.50248
394.607	14313.45313
395.112	15298.41574
395.616	15757.18558
396.12	16680.01806
396.624	18139.9417
397.128	19909.58928
397.632	22590.93105
398.136	24569.57993
398.639	24203.48673
399.143	26184.58111
399.646	27551.00537
400.15	24673.06978
400.653	20124.16724
401.156	13866.23708
401.659	5169.95759
402.162	1054.15589
402.664	0
403.167	0
403.67	0
404.172	0
404.674	0
405.176	0
405.678	0
406.18	0
406.682	0
407.184	0
407.686	0
408.187	0
408.688	0
409.19	0
409.691	0
410.192	0
410.693	0
411.194	435.30976
411.694	4082.94878
412.195	8864.71461
412.696	12089.80453
413.196	12760.96929
413.696	12863.67595
414.196	13703.56671
414.696	17261.84252
415.196	21764.24417
415.696	29583.19008
416.196	36460.31858
416.695	40057.39798
417.195	32508.73052
417.694	30279.2408
418.194	29378.91146
418.693	26501.93166
419.192	25817.44804
419.691	25295.55973
420.19	25057.98615
420.688	24604.78993
421.187	24045.60196
421.685	22574.7798
422.184	20926.61687
422.682	18119.58098
423.18	14663.64188
423.678	12720.40317
424.176	11791.65721
424.674	11086.46646
425.172	10926.21942
425.669	10265.74695
426.167	9616.24189
426.664	8690.25528
427.161	8004.8977
427.659	7388.82625
428.156	6745.67325
428.652	6345.35625
429.149	5993.83237
429.646	5956.56376
430.143	5835.83087
430.639	5325.38552
431.135	5010.40283
431.632	4590.98213
432.128	4377.65222
432.624	3930.51872
433.12	3746.53233
433.616	3756.5268
434.111	3453.57827
434.607	3239.70733
435.103	3320.65098
435.598	3279.687
436.093	3116.001
436.588	3105.03918
437.083	2948.22218
437.578	2775.43838
438.073	2418.80464
438.568	2553.89468
439.062	2460.64399
439.557	2444.99445
440.051	2207.02026
440.546	2074.11431
441.04	2037.30548
441.534	2096.50459
442.028	2056.43023
442.522	1929.47341
443.015	1908.29425
443.509	1909.61793
444.002	1842.63923
444.496	1833.39508
444.989	1784.70529
445.482	1722.76479
445.975	1722.51434
446.468	1705.44238
446.961	1608.47572
447.454	1680.61294
447.947	1573.71139
448.439	1651.83623
448.931	1481.64011
449.424	1517.96846
449.916	1496.87401
450.408	1468.68965
450.9	1432.86446
451.392	1438.9852
451.884	1447.80992
452.375	1271.92421
452.867	1383.82146
453.358	1275.76877
453.849	1280.67544
454.341	1244.78931
454.832	1279.71684
455.323	1273.9697
455.814	1330.8939
456.304	1228.8867
456.795	1156.86137
457.285	1201.86804
457.776	1256.9529
458.266	1170.96419
458.756	1179.02806
459.247	1021.9175
459.737	996.91477
460.226	1000.83448
460.716	990.94932
461.206	954.95741
461.695	987.07831
462.185	1024.99257
462.674	1017.96415
463.163	895.84052
463.653	925.78335
464.142	853.94669
464.63	947.06738
465.119	838.88881
465.608	877.92121
466.096	847.84586
466.585	845.94427
467.073	866.02574
467.561	796.97918
468.05	834.96889
468.538	859.08818
469.026	799.99722
469.513	751.78352
470.001	749.88099
470.489	684.88113
470.976	766.94277
471.463	713.01104
471.951	702.01899
472.438	605.82175
472.925	525.72742
473.412	666.9785
473.899	589.80785
474.385	615.9237
474.872	589.82575
475.359	568.86201
475.845	516.64063
476.331	602.79439
476.817	572.89093
477.303	553.81247
477.789	508.79947
478.275	444.73885
478.761	514.81922
479.247	516.75455
479.732	460.77435
480.218	544.96137
480.703	455.77952
481.188	430.61744
481.673	409.64487
482.158	307.44861
482.643	431.78606
483.128	343.5514
483.612	363.60584
484.097	445.77917
484.581	368.61909
485.066	378.66513
485.55	304.48189
486.034	360.55528
486.518	332.56888
487.002	286.5225
487.486	299.5475
487.969	283.52134
488.453	290.56177
488.936	282.47748
489.42	282.47153
489.903	291.56843
490.386	273.32472
490.869	236.39763
491.352	255.49267
491.835	241.38387
492.318	266.46214
492.8	217.34821
493.283	217.43877
493.765	176.34746
494.247	223.4172
494.73	198.34746
495.212	234.45546
495.694	168.31516
496.175	87.16833
496.657	179.34517
497.139	228.31113
497.62	97.18839
498.102	156.31666
498.583	135.28086
499.064	115.20961
499.545	95.18002
500.026	125.23015
500.507	125.24034
500.988	149.30763
501.469	113.23593
501.949	119.24724
502.43	71.14119
502.91	44.07624
503.39	128.27027
503.87	137.26672
504.35	158.31163
504.83	77.14156
505.31	94.19203
505.79	80.16157
506.269	117.2306
506.749	68.13128
507.228	72.14308
507.707	92.17173
508.187	131.265
508.666	5.01061
509.145	58.11547
509.623	51.1026
510.102	33.06914
510.581	83.17244
511.059	32.0692
511.538	92.20515
512.016	56.11544
512.494	89.18574
512.972	57.11737
513.45	-30.0604
513.928	45.09425
514.406	-41.08613
514.884	30.0672
515.361	45.09337
515.839	45.08853
516.316	78.16159
516.793	42.09307
517.27	55.11641
517.747	30.06729
518.224	6.01221
518.701	20.03895
519.178	-15.03268
519.654	80.16566
520.131	32.06935
520.607	14.03071
521.083	24.048
521.56	5.01041
522.036	46.08825
522.512	42.09137
522.987	-6.01253
523.463	0
523.939	46.0993
524.414	47.09547
524.89	-3.00632
525.365	21.04188
525.84	-29.06098
526.315	-31.06659
526.79	56.11056
527.265	1.00202
527.74	29.06237
528.215	41.08511
528.689	-5.00982
529.164	12.02313
529.638	17.03895
530.112	-36.07585
530.587	-34.0646
531.061	8.01709
531.534	7.01516
532.008	19.04046
532.482	23.04695
532.956	-29.06615
533.429	20.04314
533.903	52.10169
534.376	50.09746
534.849	31.06383
535.322	-3.00634
535.795	52.11264
536.268	36.07675
536.741	48.10237
537.213	14.02892
537.686	-13.02835
538.158	7.01392
538.631	62.1339
539.103	-15.03005
539.575	-4.00749
540.047	38.07417
540.519	42.0895
540.991	89.19258
541.463	49.10548
541.934	70.14131
542.406	39.08247
542.877	50.09996
543.348	110.23349
543.82	19.04182
544.291	85.17542
544.762	23.04851
545.233	70.1548
545.703	62.1205
546.174	133.26868
546.645	113.23352
547.115	150.31199
547.585	131.26111
548.056	143.29538
548.526	176.35154
548.996	202.41359
549.466	236.4889
549.935	257.50487
550.405	282.50685
550.875	264.51874
551.344	324.63875
551.814	305.57571
552.283	316.56184
552.752	335.63017
553.221	339.58884
553.69	414.72621
554.159	430.83617
554.628	454.78762
555.096	454.91229
555.565	493.85145
556.033	544.99851
556.502	500.95981
556.97	506.88067
557.438	510.96107
557.906	557.04469
558.374	520.94964
558.842	573.08058
559.31	597.04344
559.777	553.06066
560.245	664.21428
560.712	676.212
561.18	704.17964
561.647	721.22371
562.114	781.33225
562.581	784.4761
563.048	870.48411
563.514	874.59439
563.981	976.60496
564.448	982.57023
564.914	1109.80092
565.381	1169.81633
565.847	1156.86974
566.313	1170.87023
566.779	1252.87463
567.245	1314.0274
567.711	1277.05105
568.176	1368.957
568.642	1369.27167
569.108	1426.27095
569.573	1518.23802
570.038	1621.96312
570.504	1618.13065
570.969	1746.61446
571.434	1704.10868
571.899	1761.42507
572.363	1810.30086
572.828	1857.35487
573.293	1940.38877
573.757	1948.39557
574.222	1928.26498
574.686	2000.30334
575.15	1984.52805
575.614	2052.42101
576.078	2063.51074
576.542	2160.43518
577.006	2064.36069
577.469	2115.78661
577.933	2017.30576
578.396	2011.55912
578.86	2028.53002
579.323	1947.52247
579.786	1961.17835
580.249	1837.30353
580.712	1843.58382
581.175	1853.616
581.637	1795.3537
582.1	1807.19817
582.563	1694.07705
583.025	1600.37606
583.487	1618.84104
583.95	1599.99666
584.412	1576.94217
584.874	1539.33728
585.336	1511.23902
585.797	1418.91015
586.259	1418.16128
586.721	1335.05466
587.182	1384.11644
587.643	1275.92591
588.105	1256.00858
588.566	1236.71488
589.027	1214.99707
589.488	1172.83318
589.949	1141.94343
590.41	1084.41324
590.87	1115.7834
591.331	1057.60327
591.791	1049.71737
592.252	929.549
592.712	948.68182
593.172	947.55063
593.632	1003.57531
594.092	915.49722
594.552	862.37218
595.011	838.44011
595.471	866.44165
595.931	867.43502
596.39	835.51196
596.849	840.47359
597.308	903.43974
597.768	822.60234
598.227	822.51068
598.685	889.52597
599.144	834.47375
599.603	852.52363
600.062	855.31798
600.52	815.36432
600.978	867.54534
601.437	871.491
601.895	814.28812
602.353	911.48651
602.811	922.49571
603.269	944.66605
603.727	971.70093
604.184	865.44354
604.642	964.73769
605.099	954.61651
605.557	892.63058
606.014	933.44633
606.471	941.73202
606.928	934.42973
607.385	1101.87505
607.842	1143.79841
608.299	1207.91824
608.755	1151.93012
609.212	1131.71821
609.668	1084.65177
610.125	1265.07172
610.581	1229.01464
611.037	1183.8724
611.493	1141.90393
611.949	1051.82129
612.405	1066.46872
612.861	1140.90278
613.316	1108.88146
613.772	1115.80767
614.227	1079.82269
614.683	1137.69264
615.138	1061.7854
615.593	1049.75939
616.048	1100.79872
616.503	1110.97819
616.958	1026.90154
617.412	1037.79316
617.867	1019.62456
618.321	993.4896
618.776	974.59191
619.23	940.66069
619.684	955.61603
620.138	1005.74042
620.592	981.79589
621.046	929.6638
621.5	946.75211
621.954	933.59745
622.407	861.48251
622.861	828.58504
623.314	857.51961
623.768	800.47459
624.221	817.24072
624.674	829.5026
625.127	820.51908
625.58	779.42612
626.033	756.34534
626.485	687.34992
626.938	751.45231
627.39	690.3211
627.843	718.36023
628.295	676.29425
628.747	640.27487
629.199	653.23718
629.651	601.15236
630.103	599.16124
630.555	560.01031
631.006	570.14627
631.458	583.1765
631.909	584.15342
632.361	545.1012
632.812	540.07985
633.263	485.91866
633.714	484.91296
634.165	515.09756
634.616	472.99698
635.067	449.89122
635.518	496.04761
635.968	510.89937
636.419	456.88589
636.869	423.90934
637.319	410.85731
637.769	380.77345
638.219	399.86956
638.669	354.77527
639.119	384.85797
639.569	358.79427
640.019	347.74149
640.468	327.67755
640.918	371.82362
641.367	298.62506
641.816	311.64901
642.265	327.7036
642.714	319.68816
643.163	312.67031
643.612	238.54013
644.061	244.48895
644.51	273.5859
644.958	272.56372
645.406	255.57718
645.855	290.66933
646.303	273.60407
646.751	255.54963
647.199	269.57906
647.647	259.56496
648.095	215.47177
648.543	257.50225
648.99	259.58695
649.438	208.47052
649.885	229.5421
650.333	297.54384
650.78	235.54208
651.227	182.42743
651.674	260.5639
652.121	256.59345
652.568	199.46544
653.015	232.56265
653.461	233.53061
653.908	257.57176
654.354	285.64665
654.801	214.48291
655.247	267.56017
655.693	189.47645
656.139	196.45474
656.585	208.482
657.031	201.45237
657.477	161.33987
657.922	242.5347
658.368	204.4875
658.813	242.54274
659.259	184.42909
659.704	197.44537
660.149	203.45874
660.594	189.4365
661.039	206.45554
661.484	219.50739
661.929	245.55252
662.373	173.42532
662.818	157.38142
663.262	178.4182
663.707	221.54211
664.151	240.56649
664.595	191.44901
665.039	208.5035
665.483	194.48107
665.927	218.49956
666.371	160.36327
666.814	222.51566
667.258	142.33089
667.701	247.51821
668.145	257.61824
668.588	232.5527
669.031	131.3046
669.474	167.39565
669.917	222.48046
670.36	199.48236
670.803	212.50002
671.245	206.42637
671.688	257.60743
672.13	216.47287
672.573	240.59252
673.015	234.54697
673.457	147.31821
673.899	242.57032
674.341	215.50719
674.783	210.49222
675.225	229.54859
675.666	210.49299
676.108	231.49085
676.549	258.59382
676.991	216.46727
677.432	218.42654
677.873	266.5973
678.314	257.59613
678.755	251.59348
679.196	279.61812
679.637	330.77314
680.078	262.59652
680.518	268.60747
680.959	265.61614
681.399	266.63952
681.839	243.57657
682.28	278.66329
682.72	240.53626
683.16	247.59846
683.6	323.70873
684.039	274.55517
684.479	273.64899
684.919	238.53487
685.358	309.75539
685.798	310.78154
686.237	306.71412
686.676	350.77782
687.115	306.69359
687.554	318.72634
687.993	281.60359
688.432	317.69732
688.871	278.61167
689.309	291.67204
689.748	342.68597
690.186	349.79826
690.625	292.66186
691.063	325.74875
691.501	336.79673
691.939	326.78046
692.377	321.75279
692.815	324.74422
693.253	389.88865
693.69	344.72409
694.128	371.85505
694.565	385.87244
695.003	317.77437
695.44	326.73621
695.877	316.71014
696.314	341.70403
696.751	359.7834
697.188	384.83741
697.625	405.88151
698.061	369.84332
698.498	413.94536
698.934	362.83248
699.371	321.72655
699.807	404.9045
700.243	384.87776
700.679	367.79305
701.115	417.92841
701.551	390.87245
701.987	416.88371
702.422	323.73761
702.858	408.91909
703.294	389.83698
703.729	397.92151
704.164	359.82542
704.599	386.81642
705.035	376.7998
705.47	395.91034
705.904	359.79831
706.339	402.88705
706.774	381.84828
707.209	364.80019
707.643	370.84713
708.078	362.84145
708.512	344.82323
708.946	414.93832
709.38	393.88368
709.814	395.85646
710.248	340.795
710.682	373.84456
711.116	283.65331
711.549	330.81854
711.983	326.72419
712.416	342.7758
712.85	342.81751
713.283	322.73341
713.716	365.8763
714.149	311.71593
714.582	327.70602
715.015	348.83534
715.448	332.80421
715.881	309.65372
716.313	292.6624
716.746	297.67579
717.178	281.65514
717.61	276.67962
718.043	324.77716
718.475	238.56438
718.907	338.82212
719.339	227.50439
719.77	234.54246
720.202	261.64234
720.634	247.58606
721.065	240.55637
721.497	285.67699
721.928	244.58463
722.359	192.45601
722.79	238.55676
723.221	238.58585
723.652	298.74404
724.083	208.46189
724.514	214.4837
724.945	181.42085
725.375	201.45904
725.806	211.51796
726.236	202.50931
726.666	222.51587
727.096	189.45777
727.526	187.4682
727.956	171.38533
728.386	222.53618
728.816	191.47597
729.246	164.39476
729.675	186.45144
730.105	188.45681
730.534	206.47453
730.964	198.49314
731.393	232.56476
731.822	181.45645
732.251	167.41949
732.68	171.3998
733.109	157.38385
733.537	170.40641
733.966	174.42722
734.395	152.34931
734.823	169.3788
735.251	157.3754
735.68	213.52423
736.108	189.4715
736.536	182.4246
736.964	146.3374
737.392	176.43533
737.82	142.33947
738.247	142.33883
738.675	156.37066
739.102	82.2058
739.53	143.36153
739.957	176.44693
740.384	201.48848
740.811	150.37753
741.238	110.26869
741.665	150.34581
742.092	149.3541
742.519	110.27209
742.945	120.28798
743.372	152.37349
743.798	184.46642
744.225	107.25497
744.651	135.33716
745.077	106.2645
745.503	166.40124
745.929	168.39917
746.355	196.48052
746.781	153.37629
747.207	77.18194
747.632	52.12806
748.058	136.33775
748.483	143.32803
748.908	96.23911
749.334	89.21954
749.759	87.20636
750.184	83.19884
750.609	146.35662
751.033	191.44568
751.458	174.38687
751.883	124.3066
752.307	114.26847
752.732	51.12853
753.156	123.30296
753.58	145.34273
754.005	132.33354
754.429	103.24271
754.853	114.28198
755.277	157.36865
755.7	120.29704
756.124	92.22881
756.548	103.24459
756.971	114.27825
757.394	123.31561
757.818	80.20653
758.241	126.31827
758.664	111.27983
759.087	52.11763
759.51	113.28089
759.933	162.3858
760.356	111.28402
760.778	105.25824
761.201	144.3482
761.623	150.36147
762.046	154.36295
762.468	134.32084
762.89	156.38175
763.312	127.30912
763.734	112.26949
764.156	126.30995
764.578	130.29851
765	143.34663
765.421	120.30333
765.843	137.35656
766.264	147.35284
766.686	147.36633
767.107	84.20442
767.528	54.13728
767.949	132.33366
768.37	120.29366
768.791	143.34376
769.212	66.1666
769.632	76.17815
770.053	87.22922
770.473	131.31706
770.894	157.38926
771.314	120.28622
771.734	114.26544
772.154	134.34173
772.575	158.36295
772.994	66.15125
773.414	129.30857
773.834	107.26704
774.254	152.36851
774.673	102.2485
775.093	109.26907
775.512	113.27751
775.931	120.30279
776.351	102.25295
776.77	105.25624
777.189	67.16045
777.607	132.33461
778.026	112.27805
778.445	45.11349
778.864	135.34361
779.282	77.18602
779.701	116.29113
780.119	107.26946
780.537	53.13314
780.955	114.28888
781.373	109.26877
781.791	48.10903
782.209	138.31586
782.627	74.1952
783.045	98.22548
783.462	83.21216
783.88	69.17891
784.297	69.17414
784.715	65.16737
785.132	84.20365
785.549	70.17562
785.966	89.22373
786.383	59.14591
786.8	80.18642
787.217	47.11238
787.633	54.13548
788.05	147.34584
788.466	118.27713
788.883	73.1864
789.299	63.15248
789.715	95.23063
790.131	78.19421
790.547	83.20737
790.963	75.1865
791.379	75.18982
791.795	57.13107
792.21	102.23797
792.626	86.20418
793.041	67.16588
793.457	62.15387
793.872	49.11609
794.287	19.0459
794.702	66.16319
795.117	44.11003
795.532	14.03549
795.947	116.27774
796.362	80.1914
796.776	114.26596
797.191	48.11825
797.605	-11.02629
798.02	46.1127
798.434	69.15441
798.848	55.13607
799.262	32.08005
799.676	61.14947
800.09	44.109
800.504	69.16788
800.918	44.10277
801.331	55.14472
801.745	53.12255
802.158	32.08066
802.572	58.14136
802.985	96.23152
803.398	86.20497
803.811	92.23595
804.224	92.22848
804.637	49.11744
805.05	80.18561
805.462	39.09656
805.875	20.05229
806.288	8.01955
806.7	47.11874
807.112	75.17418
807.525	75.18521
807.937	12.03001
808.349	53.13333
808.761	68.16758
809.173	23.05632
809.584	84.2074
809.996	22.0544
810.408	18.04687
810.819	26.06178
811.231	17.04432
811.642	64.15289
812.053	140.3288
812.464	169.39466
812.875	184.46094
813.286	145.36841
813.697	138.31916
814.108	115.27897
814.519	65.14539
814.929	71.18117
815.34	55.13392
815.75	54.13762
816.16	72.17953
816.571	78.20235
816.981	48.11401
817.391	48.11651
817.801	50.12467
818.211	45.10793
818.62	42.10171
819.03	54.13284
819.44	52.13624
819.849	60.1515
820.259	77.19689
820.668	4.00996
821.077	-3.00755
821.486	50.121
821.895	72.17796
822.304	72.19063
822.713	66.15628
823.122	58.14509
823.531	68.16139
823.939	44.10776
824.348	69.16788
824.756	74.18525
825.164	79.19852
825.573	48.1209
825.981	46.11462
826.389	77.19321
826.797	76.19012
827.205	30.06944
827.612	31.07706
828.02	-5.01191
828.428	52.1328
828.835	36.09522
829.243	82.19506
829.65	0
830.057	57.13869
830.464	45.11015
830.871	102.24282
831.278	59.14291
831.685	36.08097
832.092	68.16653
832.499	25.05525
832.905	48.12194
833.312	18.04151
833.718	81.20135
834.124	51.11704
834.531	57.14396
834.937	23.05947
835.343	51.12349
835.749	89.20719
836.155	24.06327
836.561	28.06936
836.966	41.10076
837.372	75.19056
837.777	50.1249
838.183	60.13374
838.588	49.12203
838.993	21.05157
839.399	40.09825
839.804	17.0418
840.209	27.06916
840.613	34.07619
841.018	63.15956
841.423	53.13619
841.828	36.09149
842.232	70.17327
842.637	65.1534
843.041	-11.02855
843.445	28.07068
843.849	26.06481
844.253	23.05512
844.657	32.081
845.061	19.04353
845.465	28.06809
845.869	14.03287
846.272	71.17262
846.676	36.08754
847.079	38.09701
847.483	69.17196
847.886	68.16536
848.289	34.0911
848.692	34.08653
849.095	32.07732
849.498	106.2666
849.901	55.12642
850.304	29.06977
850.707	36.0922
851.109	71.17938
851.512	29.07169
851.914	1.00255
852.316	46.11665
852.718	17.0442
853.121	35.08618
853.523	6.01418
853.925	35.09166
854.326	36.09038
854.728	49.12622
855.13	39.10091
855.531	7.0169
855.933	46.11077
856.334	-11.02777
856.736	14.03167
857.137	33.07716
857.538	27.06826
857.939	-6.015
858.34	54.13176
858.741	95.24674
859.142	24.05806
859.542	14.0372
859.943	28.06997
860.343	-20.05023
860.744	19.04671
861.144	42.10278
861.544	7.01699
861.945	35.08956
862.345	56.13704
862.745	24.06002
863.145	99.23491
863.544	44.11146
863.944	77.1813
864.344	76.1882
864.743	49.1218
865.143	49.12604
865.542	-5.01175
865.941	6.01499
866.34	83.19793
866.74	43.11565
867.139	13.03139
867.537	22.0564
867.936	62.14913
868.335	26.06652
868.734	44.11269
869.132	49.11407
869.531	70.16895
869.929	4.00922
870.327	8.01936
870.726	61.15202
871.124	28.06584
871.522	61.15527
871.92	31.07683
872.318	24.05904
872.715	55.13622
873.113	-4.00986
873.511	41.10244
873.908	-1.00255
874.306	18.04508
874.703	53.13271
875.1	49.12551
875.497	7.01694
875.894	-12.02977
876.291	38.09358
876.688	40.10345
877.085	52.12489
877.482	52.13027
877.878	-20.04884
878.275	34.08671
878.671	54.12037
879.068	12.02921
879.464	8.01951
879.86	-44.10608
880.256	32.07933
880.652	29.0741
881.048	59.14613
881.444	48.11445
881.84	58.14734
882.236	67.16812
882.631	12.02969
883.027	36.08751
883.422	15.03862
883.817	-12.03052
884.213	27.06962
884.608	-32.07973
885.003	7.01703
885.398	16.04033
885.793	27.06812
886.188	-16.04029
886.582	88.22442
886.977	56.13291
887.371	33.08379
887.766	41.10221
888.16	29.07272
888.554	26.06464
888.949	47.11819
889.343	45.11015
889.737	22.05893
890.131	77.19238
890.525	30.07705
890.918	35.08839
891.312	66.15761
891.706	54.14168
892.099	49.12481
892.492	41.08875
892.886	61.14909
893.279	27.06911
893.672	15.03845
894.065	86.21413
894.458	36.09084
894.851	63.15415
895.244	18.04626
895.637	25.06055
896.029	38.0932
896.422	60.14645
896.814	17.04255
897.206	-20.04831
897.599	85.20905
897.991	20.04867
898.383	-12.02872
898.775	14.03186
899.167	17.03993
899.559	63.15922
899.951	22.05219
900.342	12.03074
900.734	-24.06039
901.125	39.10258
901.517	37.0911
901.908	35.08423
902.299	5.01233
902.69	38.08994
903.082	4.00978
903.473	-41.09994
903.863	24.06155
904.254	-26.0613
904.645	68.16869
905.036	-28.06883
905.426	33.07588
905.817	21.05184
906.207	-16.03863
906.597	18.04239
906.987	75.19366
907.378	41.10392
907.768	4.01066
908.158	4.00984
908.547	25.06489
908.937	22.05676
909.327	20.04887
909.717	84.21211
910.106	17.04112
910.495	47.11747
910.885	35.08893
911.274	23.0578
911.663	33.08406
912.052	49.121
912.441	35.08928
912.83	46.10576
913.219	75.19554
913.608	-3.00742
913.997	10.02526
914.385	37.08868
914.774	47.11457
915.162	35.08369
915.55	51.12344
915.939	2.00509
916.327	3.00755
916.715	33.08438
917.103	54.13289
917.491	55.13602
917.878	75.18364
918.266	19.04955
918.654	30.07694
919.041	24.06295
919.429	-4.00954
919.816	47.11925
920.203	3.00734
920.591	1.0025
920.978	36.08843
921.365	34.08948
921.752	45.10744
922.139	23.05026
922.525	1.00242
922.912	46.11232
923.299	8.02004
923.685	43.11234
924.072	39.09018
924.458	23.05728
924.844	36.08934
925.231	29.0678
925.617	2.00513
926.003	51.13036
926.389	14.03555
926.774	21.05351
927.16	24.05991
927.546	10.02571
927.931	34.08512
928.317	61.14027
928.702	66.15573
929.088	4.00955
929.473	34.08677
929.858	6.01463
930.243	11.0266
930.628	-7.01722
931.013	50.12395
931.398	50.11504
931.783	61.16034
932.167	23.05653
932.552	35.08795
932.937	51.12659
933.321	28.07055
933.705	21.05323
934.09	67.16885
934.474	34.08104
934.858	31.08068
935.242	1.00234
935.626	47.12039
936.009	56.14881
936.393	55.13985
936.777	-1.00258
937.16	43.11203
937.544	24.05685
937.927	7.0179
938.311	48.11725
938.694	64.16888
939.077	19.04576
939.46	45.11064
939.843	36.07538
940.226	-2.00518
940.609	45.10344
940.991	13.03331
941.374	-6.01482
941.757	33.0817
942.139	-15.03415
942.522	64.1509
942.904	66.15821
943.286	76.19225
943.668	35.09091
944.05	24.05941
944.432	10.02486
944.814	8.01986
945.196	-2.00492
945.578	-41.09916
945.959	19.04481
946.341	82.20015
946.722	40.09409
947.104	69.16436
947.485	40.09328
947.866	15.03803
948.247	-2.00509
948.628	54.13166
949.009	21.05406
949.39	71.1761
949.771	30.07007
950.152	43.10568
950.532	-49.12273
950.913	45.10867
951.293	5.01361
951.674	47.11376
952.054	42.10423
952.434	42.10442
952.814	33.07879
953.194	57.14901
953.574	58.14268
953.954	29.06916
954.334	29.07256
954.714	-3.00738
955.093	64.15697
955.473	33.08278
955.853	28.07276
956.232	52.14248
956.611	56.13419
956.99	52.13065
957.37	26.06654
957.749	38.09088
958.128	41.10347
958.506	16.04175
958.885	27.06843
959.264	-11.02726
959.643	48.10929
960.021	11.02745
960.4	12.02741
960.778	60.14754
961.156	28.07048
961.535	1.00235
961.913	27.06347
962.291	20.05158
962.669	12.0306
963.047	59.15033
963.424	-5.01288
963.802	23.05684
964.18	30.07619
964.557	71.16287
964.935	29.069
965.312	33.08618
965.69	37.09288
966.067	37.09033
966.444	80.19607
966.821	77.19758
967.198	61.1477
967.575	47.11564
967.952	39.09211
968.329	18.04407
968.705	39.08385
969.082	25.0644
969.458	-27.06572
969.835	35.08545
970.211	62.15879
970.587	31.07745
970.963	55.14098
971.339	27.07078
971.715	51.12733
972.091	63.15478
972.467	37.09251
972.843	9.0225
973.219	72.1722
973.594	18.04734
973.97	61.14491
974.345	59.14097
974.721	50.12109
975.096	28.06804
975.471	59.13973
975.846	86.20521
976.221	-4.01026
976.596	13.03138
976.971	66.16248
977.346	-2.0047
977.72	46.11727
978.095	32.08296
978.469	43.10278
978.844	41.10325
979.218	1.00242
979.593	52.12455
979.967	40.09763
980.341	42.09687
980.715	24.06075
981.089	35.08786
981.463	7.01621
981.837	38.09306
982.21	84.1942
982.584	-16.03913
982.957	10.02515
983.331	66.15555
983.704	-9.02236
984.078	14.03473
984.451	51.12737
984.824	-12.02956
985.197	29.07072
985.57	55.13781
985.943	99.24232
986.316	100.24345
986.688	72.17292
987.061	10.02362
987.434	47.12254
987.806	4.00979
988.179	20.04747
988.551	62.15695
988.923	4.00993
989.295	63.15706
989.667	22.05284
990.039	42.10393
990.411	26.06013
990.783	37.08542
991.155	8.01937
991.527	68.1669
991.898	14.03511
992.27	33.08188
992.641	57.14282
993.012	66.15483
993.384	39.09322
993.755	40.10216
994.126	11.02665
994.497	21.05182
994.868	57.13076
995.239	48.11637
995.61	52.13079
995.98	-3.00736
996.351	14.0349
996.722	1.00234
997.092	0
997.462	-20.04736
997.833	25.05955
998.203	29.07059
998.573	24.06004
998.943	4.00946
999.313	0
999.683	32.07706
1000.053	35.08077
1000.423	23.05617
1000.792	2.00523
1001.162	36.08882
1001.531	33.08161
1001.901	27.06758
1002.27	23.0517
1002.639	44.11253
1003.009	28.06686
1003.378	-10.02583
1003.747	9.02143
1004.116	-4.00967
1004.485	40.09577
1004.853	23.05854
1005.222	42.10605
1005.591	56.1328
1005.959	-32.0733
1006.328	8.01816
1006.696	-6.01462
1007.064	36.09077
1007.433	30.07524
1007.801	64.15668
1008.169	45.11373
1008.537	43.09535
1008.905	-9.02121
1009.273	25.06203
1009.64	4.00962
1010.008	23.0551
1010.375	88.21215
1010.743	74.17006
1011.11	8.01908
1011.478	37.09177
1011.845	46.10825
1012.212	11.02509
1012.579	55.13487
1012.946	44.10483
1013.313	83.19626
1013.68	47.10569
1014.047	-12.02893
1014.414	18.04277
1014.78	24.05991
1015.147	1.00244
1015.513	27.06533
1015.88	54.13796
1016.246	46.11362
1016.612	42.09629
1016.978	54.1322
1017.344	49.12109
1017.71	44.1074
1018.076	56.13188
1018.442	72.18446
1018.808	28.07025
1019.174	1.00253
1019.539	98.22341
1019.905	7.01664
1020.27	13.03229
1020.636	57.13645
1021.001	59.14097
1021.366	16.03866
1021.731	21.05426
1022.096	-10.02549
1022.461	6.01432
1022.826	24.05731
1023.191	-2.00529
1023.556	39.09158
1023.92	65.15933
1024.285	59.14371
1024.649	28.06888
1025.014	48.1189
1025.378	37.09321
1025.742	62.15358
1026.107	59.13317
1026.471	46.10745
1026.835	20.04983
1027.199	8.0194
1027.562	72.16659
1027.926	39.09553
1028.29	24.06099
1028.654	39.0899
1029.017	48.11799
1029.381	31.0743
1029.744	22.05636
1030.107	86.20198
1030.471	23.05533
1030.834	44.10019
1031.197	59.14183
1031.56	13.03088
1031.923	51.13178
1032.286	36.08475
1032.648	14.0337
1033.011	20.04616
1033.374	58.13606
1033.736	22.05809
1034.099	49.1194
1034.461	37.09365
1034.823	3.00753
1035.185	32.08077
1035.548	36.08781
1035.91	16.03856
1036.272	41.09345
1036.634	77.18735
1036.995	27.06372
1037.357	5.01226
1037.719	50.12154
1038.08	63.14915
1038.442	36.08564
1038.803	23.05548
1039.165	43.1086
1039.526	24.05825
1039.887	37.08871
1040.248	24.05939
1040.609	66.16254
1040.97	25.06135
1041.331	39.09888
1041.692	17.03992
1042.053	27.06174
1042.413	34.07945
1042.774	54.13117
1043.134	40.09537
1043.495	27.06812
1043.855	15.03661
1044.215	65.16081
1044.576	-12.02902
1044.936	74.16877
1045.296	25.06264
1045.656	31.0763
1046.016	48.11585
1046.375	1.00245
1046.735	-4.00916
1047.095	39.09144
1047.454	14.02989
1047.814	33.07954
1048.173	62.14771
1048.533	17.03919
1048.892	-21.05106
1049.251	61.15274
1049.61	17.04209
1049.969	45.10612
1050.328	18.03927
1050.687	62.15043
1051.046	33.08056
1051.405	30.07486
1051.763	15.03471
1052.122	24.0601
1052.48	38.09334
1052.839	21.04966
1053.197	25.05909
1053.555	81.18342
1053.914	28.06873
1054.272	41.09924
1054.63	7.01724
1054.988	12.0287
1055.345	14.03036
1055.703	29.07003
1056.061	21.05426
1056.419	10.02605
1056.776	45.10916
1057.134	29.06738
1057.491	39.09779
1057.848	26.06497
1058.206	33.07782
1058.563	-2.00445
1058.92	34.07857
1059.277	61.15008
1059.634	52.12222
1059.991	40.09596
1060.348	20.04545
1060.704	-16.03859
1061.061	81.18693
1061.418	9.02198
1061.774	3.00747
1062.131	-34.0911
1062.487	48.11221
1062.843	24.06008
1063.199	48.11934
1063.555	-16.03753
1063.911	51.12871
1064.267	20.04197
1064.623	24.05854
1064.979	58.13712
1065.335	53.12654
1065.691	27.06496
1066.046	41.09027
1066.402	8.01832
1066.757	34.08601
1067.112	39.09585
1067.468	2.00476
1067.823	48.11537
1068.178	29.07038
1068.533	18.04387
1068.888	38.09095
1069.243	16.03971
1069.598	7.01713
1069.952	-5.01138
1070.307	-37.09298
1070.662	14.03344
1071.016	-24.05456
1071.371	27.06166
1071.725	25.06005
1072.079	45.10826
1072.434	12.02934
1072.788	4.0096
1073.142	80.19556
1073.496	-5.01198
1073.85	89.20465
1074.203	57.13801
1074.557	31.08264
1074.911	95.22464
1075.265	23.05371
1075.618	69.16776
1075.971	45.10707
1076.325	16.04088
1076.678	-1.00231
1077.031	-8.0183
1077.385	35.07729
1077.738	7.01593
1078.091	25.0571
1078.444	1.00234
1078.796	-2.00495
1079.149	60.14885
1079.502	42.0993
1079.855	-23.05437
1080.207	43.10599
1080.56	38.09834
1080.912	-6.01475
1081.264	22.05322
1081.617	24.05873
1081.969	37.09348
1082.321	32.07834
1082.673	-1.0023
1083.025	8.01912
1083.377	35.07531
1083.728	20.0469
1084.08	-2.00504
1084.432	17.04122
1084.783	74.17244
1085.135	25.06289
1085.486	3.00692
1085.838	39.09617
1086.189	-10.02453
1086.54	48.11458
1086.891	21.05334
1087.242	1.00245
1087.593	41.09991
1087.944	0
1088.295	7.01604
1088.646	42.10187
1088.996	18.04359
1089.347	42.10313
1089.698	-9.0215
1090.048	48.12461
1090.398	8.01869
1090.749	27.06483
1091.099	-12.03048
1091.449	15.03757
1091.799	59.14735
1092.149	-23.0568
1092.499	18.04413
1092.849	26.06631
1093.199	84.20907
1093.548	6.01452
1093.898	6.01512
1094.248	40.10287
1094.597	4.01028
1094.947	30.08023
1095.296	23.05703
1095.645	14.03661
1095.994	36.08662
1096.343	23.05811
1096.692	-23.06111
1097.041	-13.03552
1097.39	37.09294
1097.739	3.00785
1098.088	61.16299
1098.437	-12.03182
1098.785	36.09719
1099.134	44.11685
1099.482	62.17004
1099.83	39.10258
1100.179	1.00263
1100.527	46.1222
1100.875	4.01065
1101.223	36.09573
1101.571	30.08309
1101.919	-14.03694
1102.267	34.09587
1102.615	5.01607
1102.962	6.01933
1103.31	8.0257
1103.658	13.04186
