Data from N2 R7 sample 7_Subt2__2__15-23-21-585.txt Node

Date: Fri Aug 29 15:23:21 PDT 2025
User: uwsun
Spectrometer: HDX01956
Trigger mode: 0
Integration Time (sec): 5.000000E-1
Scans to average: 1
Nonlinearity correction enabled: true
Boxcar width: 0
Storing dark spectrum: false
XAxis mode: Wavelengths
Number of Pixels in Spectrum: 2068
>>>>>Begin Spectral Data<<<<<
194.03	192.52286
194.578	197.60766
195.127	193.58649
195.676	217.6594
196.225	280.7077
196.773	274.71805
197.321	365.91999
197.87	509.13867
198.418	468.04056
198.966	469.04947
199.513	383.82903
200.061	433.94444
200.609	469.07787
201.156	379.71014
201.704	440.95219
202.251	403.93099
202.798	474.0548
203.345	479.01363
203.892	463.9996
204.438	489.99417
204.985	463.92544
205.532	494.10891
206.078	486.01344
206.624	459.96081
207.17	486.95543
207.716	427.8887
208.262	451.7474
208.808	434.9103
209.354	443.92076
209.899	500.08145
210.445	499.04451
210.99	453.92812
211.535	513.01556
212.08	540.0489
212.625	505.07388
213.17	502.08347
213.715	435.81468
214.259	530.03483
214.804	525.09855
215.348	502.96876
215.892	522.0544
216.436	518.01231
216.98	513.9551
217.524	433.87832
218.068	475.02575
218.612	510.09465
219.155	508.00822
219.698	472.9607
220.242	514.09424
220.785	397.80677
221.328	429.92898
221.871	441.97492
222.414	391.85574
222.956	374.78515
223.499	406.79025
224.041	497.98972
224.583	463.85728
225.126	398.75956
225.668	421.88674
226.21	405.88825
226.751	398.74814
227.293	457.89651
227.835	392.83419
228.376	469.93005
228.918	454.99506
229.459	429.92303
230	422.86871
230.541	426.84813
231.082	457.95155
231.622	447.88559
232.163	418.87558
232.704	430.92101
233.244	416.89526
233.784	413.88365
234.324	383.72118
234.864	381.74953
235.404	427.8792
235.944	463.94174
236.484	474.01593
237.023	419.85264
237.563	416.82591
238.102	449.90911
238.641	434.95003
239.18	428.85489
239.719	383.84036
240.258	462.88343
240.797	450.91926
241.335	469.98348
241.874	473.75404
242.412	478.97513
242.95	454.92112
243.488	450.87465
244.026	462.9014
244.564	482.82823
245.102	431.82315
245.64	484.99409
246.177	479.90508
246.715	454.93332
247.252	468.91267
247.789	510.7938
248.326	433.88434
248.863	447.826
249.4	475.91115
249.936	491.83716
250.473	423.84079
251.009	457.88212
251.546	477.87968
252.082	490.89619
252.618	448.84007
253.154	476.96355
253.69	450.85548
254.226	451.91274
254.761	428.81484
255.297	449.82471
255.832	430.86486
256.367	475.94195
256.903	483.88227
257.438	504.99175
257.972	484.89908
258.507	413.79948
259.042	456.82851
259.576	397.71854
260.111	528.0114
260.645	539.95675
261.179	445.87379
261.713	444.82764
262.247	473.91432
262.781	448.77885
263.315	474.97399
263.849	512.06681
264.382	512.97716
264.915	486.94508
265.449	458.92966
265.982	511.96272
266.515	496.00683
267.048	492.85312
267.58	560.99792
268.113	431.77532
268.646	488.00319
269.178	514.93773
269.71	489.88104
270.243	491.93003
270.775	529.11524
271.307	490.9869
271.838	512.01144
272.37	484.99364
272.902	554.02499
273.433	478.86011
273.965	497.00266
274.496	488.01446
275.027	531.08415
275.558	533.05917
276.089	476.96576
276.62	520.10031
277.15	520.06189
277.681	585.01651
278.211	555.11528
278.741	440.79822
279.272	424.80487
279.802	557.13784
280.332	491.95003
280.861	569.10823
281.391	485.89847
281.921	544.06976
282.45	499.03253
282.98	573.22137
283.509	503.91928
284.038	588.06527
284.567	591.1075
285.096	525.03354
285.625	547.99518
286.153	518.98238
286.682	538.98699
287.21	521.01505
287.739	538.02264
288.267	536.04458
288.795	569.22018
289.323	532.99368
289.851	587.09024
290.378	553.98569
290.906	536.03616
291.433	549.10219
291.961	565.00557
292.488	595.17821
293.015	546.01772
293.542	524.06717
294.069	604.16733
294.596	598.17505
295.122	570.07412
295.649	594.01774
296.175	558.07775
296.702	576.10726
297.228	568.0971
297.754	570.99789
298.28	546.97044
298.806	569.0725
299.332	537.92304
299.857	632.08591
300.383	644.27452
300.908	551.04206
301.433	594.1178
301.958	608.08647
302.483	530.04169
303.008	665.26364
303.533	650.31943
304.058	632.144
304.582	593.0708
305.107	618.24753
305.631	690.17886
306.155	581.03144
306.679	597.05716
307.203	646.12188
307.727	634.13654
308.251	676.25933
308.775	636.12375
309.298	604.08709
309.822	685.29919
310.345	661.16408
310.868	680.1998
311.391	678.24681
311.914	692.28281
312.437	681.13944
312.96	761.27994
313.482	696.19807
314.005	679.2596
314.527	712.37841
315.049	731.35424
315.571	714.108
316.093	725.29438
316.615	753.28368
317.137	724.09343
317.659	825.40299
318.18	788.33737
318.702	761.22716
319.223	740.02141
319.744	769.17033
320.265	748.25425
320.786	765.30279
321.307	794.35776
321.828	804.2111
322.348	793.25297
322.869	835.29232
323.389	778.75397
323.909	852.27218
324.43	916.44766
324.95	830.22351
325.47	878.39216
325.989	840.26782
326.509	800.10035
327.029	912.24554
327.548	905.22668
328.067	924.36524
328.587	960.48446
329.106	940.27067
329.625	950.60277
330.144	937.27781
330.662	943.27768
331.181	1002.35417
331.7	983.33049
332.218	1047.22362
332.736	1091.40854
333.255	1038.33635
333.773	1036.36292
334.291	1122.5694
334.808	1070.24571
335.326	1103.29169
335.844	1074.29034
336.361	1131.51443
336.879	1112.30763
337.396	1101.36379
337.913	1135.27794
338.43	1215.26927
338.947	1162.35112
339.464	1180.11935
339.981	1101.26657
340.497	1183.42641
341.014	1224.39582
341.53	1245.21061
342.046	1260.40412
342.562	1346.50965
343.078	1235.27806
343.594	1301.34002
344.11	1304.31861
344.626	1290.4337
345.141	1398.22038
345.657	1393.22435
346.172	1345.31896
346.687	1315.17103
347.202	1351.11561
347.717	1363.26058
348.232	1428.39824
348.747	1446.165
349.261	1383.97315
349.776	1415.1838
350.29	1413.25507
350.805	1561.3595
351.319	1548.16141
351.833	1434.02315
352.347	1465.12697
352.861	1447.08076
353.374	1524.09393
353.888	1496.18309
354.401	1514.03501
354.915	1517.91932
355.428	1570.20084
355.941	1542.00335
356.454	1714.9628
356.967	1700.06669
357.48	1637.98222
357.993	1676.15101
358.505	1587.08337
359.018	1710.09143
359.53	1723.00832
360.042	1745.81124
360.554	1773.03088
361.066	1719.00833
361.578	1727.72085
362.09	1755.93722
362.602	1757.69978
363.113	1808.80896
363.625	1758.71416
364.136	1965.61665
364.647	1780.68156
365.158	1982.704
365.669	1943.78559
366.18	1962.72055
366.691	1918.54056
367.201	1890.72914
367.712	1931.54824
368.222	1998.52276
368.733	1948.35287
369.243	1987.35504
369.753	2141.42054
370.263	2088.49807
370.773	2117.55217
371.282	2147.36763
371.792	2154.13216
372.301	2147.28233
372.811	2274.44366
373.32	2096.88316
373.829	2283.96649
374.338	2507.66308
374.847	2434.69766
375.356	2459.68176
375.865	2624.2536
376.373	2765.23281
376.882	2919.38833
377.39	2877.2257
377.898	2884.08782
378.407	3022.82582
378.915	3231.67154
379.423	3355.64895
379.93	3473.56351
380.438	3435.55897
380.946	3774.55381
381.453	3868.61694
381.96	3982.80819
382.468	4158.29604
382.975	4688.90469
383.482	4823.71663
383.989	4836.40568
384.495	4955.69146
385.002	4965.36388
385.509	5388.72302
386.015	5669.65402
386.521	6123.85478
387.028	6246.32911
387.534	6405.15568
388.04	6765.92293
388.546	6686.63704
389.051	6888.01449
389.557	7541.02268
390.063	8659.77399
390.568	8608.17602
391.073	8781.245
391.578	9235.72132
392.084	9215.2135
392.589	8925.37823
393.093	9505.33836
393.598	10854.72023
394.103	12134.43301
394.607	13094.03109
395.112	14313.23902
395.616	15081.28862
396.12	15712.61117
396.624	17474.64759
397.128	18765.50503
397.632	20915.55178
398.136	22983.75869
398.639	22699.52849
399.143	24125.32117
399.646	26908.07923
400.15	24417.49623
400.653	20124.16724
401.156	13866.23708
401.659	5169.95759
402.162	1054.15589
402.664	0
403.167	0
403.67	0
404.172	0
404.674	0
405.176	0
405.678	0
406.18	0
406.682	0
407.184	0
407.686	0
408.187	0
408.688	0
409.19	0
409.691	0
410.192	0
410.693	0
411.194	435.30976
411.694	4082.94878
412.195	8864.71461
412.696	12089.80453
413.196	12760.96929
413.696	12863.67595
414.196	13703.56671
414.696	17261.84252
415.196	21764.24417
415.696	29583.19008
416.196	36460.31858
416.695	38387.125
417.195	30849.4424
417.694	28882.03839
418.194	27426.46748
418.693	25268.98739
419.192	24564.83648
419.691	23973.10048
420.19	23727.48279
420.688	23406.67233
421.187	22697.9813
421.685	21681.68106
422.184	19819.80343
422.682	17243.42907
423.18	14242.68526
423.678	12227.25126
424.176	11054.30393
424.674	10548.2318
425.172	10289.09064
425.669	10027.95869
426.167	9280.72992
426.664	8177.77923
427.161	7603.95782
427.659	6850.77816
428.156	6556.7042
428.652	6039.2534
429.149	5873.4486
429.646	5681.73994
430.143	5392.83077
430.639	4941.77697
431.135	4659.04666
431.632	4410.85301
432.128	4163.58031
432.624	3798.52557
433.12	3488.54473
433.616	3490.54547
434.111	3256.63383
434.607	3125.75347
435.103	3302.65711
435.598	3112.75327
436.093	2988.06775
436.588	2801.20352
437.083	2716.35254
437.578	2583.54719
438.073	2313.85969
438.568	2411.96871
439.062	2193.78713
439.557	2247.09113
440.051	2005.11086
440.546	1974.15608
441.04	1959.33366
441.534	1845.57612
442.028	1955.46313
442.522	1847.49628
443.015	1804.32834
443.509	1916.61623
444.002	1726.66034
444.496	1691.43256
444.989	1606.72606
445.482	1610.7738
445.975	1563.54217
446.468	1668.45076
446.961	1580.48072
447.454	1602.62354
447.947	1459.7149
448.439	1550.83782
448.931	1433.6419
449.424	1437.95856
449.916	1403.86556
450.408	1343.68747
450.9	1361.85591
451.392	1330.96392
451.884	1318.79734
452.375	1187.90053
452.867	1297.81002
453.358	1151.74545
453.849	1272.67474
454.341	1189.77815
454.832	1171.70108
455.323	1159.93309
455.814	1176.85728
456.304	1174.87145
456.795	1109.84608
457.285	1178.86155
457.776	1196.93453
458.266	1038.90883
458.756	1121.00295
459.247	979.89612
459.737	946.88779
460.226	975.82315
460.716	979.94311
461.206	923.93801
461.695	889.00755
462.185	894.91391
462.674	940.92039
463.163	898.84225
463.653	867.75408
464.142	810.91361
464.63	844.98861
465.119	763.83314
465.608	785.85463
466.096	737.76945
466.585	873.96531
467.073	795.96649
467.561	739.92721
468.05	811.95009
468.538	781.01561
469.026	734.93672
469.513	678.728
470.001	654.79586
470.489	682.87915
470.976	717.89761
471.463	642.93161
471.951	665.97732
472.438	638.85731
472.925	548.75371
473.412	594.89184
473.899	601.82112
474.385	547.83828
474.872	571.80507
475.359	569.86327
475.845	605.72787
476.331	586.77739
476.817	425.69029
477.303	482.7235
477.789	471.74913
478.275	453.75197
478.761	407.66849
479.247	483.71343
479.732	410.69956
480.218	415.75803
480.703	422.72936
481.188	384.55929
481.673	369.5885
482.158	330.47881
482.643	405.7435
483.128	326.5266
483.612	375.62381
484.097	375.66867
484.581	317.54069
485.066	323.57653
485.55	309.48911
486.034	310.48518
486.518	246.43124
487.002	237.43835
487.486	235.43726
487.969	232.43286
488.453	255.4981
488.936	262.44602
489.42	249.42011
489.903	278.54471
490.386	346.40065
490.869	247.41492
491.352	250.48358
491.835	247.39275
492.318	210.37026
492.8	245.39002
493.283	169.34548
493.765	201.39449
494.247	213.39948
494.73	168.29713
495.212	212.4148
495.694	108.2056
496.175	109.20978
496.657	207.39647
497.139	228.31113
497.62	91.17699
498.102	147.299
498.583	137.28489
499.064	88.16149
499.545	138.25875
500.026	112.20689
500.507	102.19721
500.988	124.25745
501.469	62.13091
501.949	137.28349
502.43	34.0682
502.91	71.12213
503.39	134.28257
503.87	64.12676
504.35	91.18231
504.83	42.07789
505.31	89.18202
505.79	41.08355
506.269	108.21331
506.749	4.00784
507.228	15.0302
507.707	77.14427
508.187	148.29822
508.666	32.06748
509.145	59.11744
509.623	53.10658
510.102	40.08368
510.581	60.1253
511.059	29.06275
511.538	32.07224
512.016	68.1398
512.494	76.15906
512.972	49.10108
513.45	-24.04825
513.928	29.06095
514.406	0
514.884	32.07165
515.361	32.06659
515.839	34.06706
516.316	2.00421
516.793	8.01785
517.27	53.11223
517.747	-4.00903
518.224	37.07478
518.701	67.12901
519.178	18.03894
519.654	42.08771
520.131	27.05857
520.607	-6.01322
521.083	11.02207
521.56	29.06006
522.036	9.01742
522.512	45.09783
522.987	-4.00835
523.463	25.05224
523.939	67.14398
524.414	64.1295
524.89	56.11643
525.365	34.0676
525.84	-44.09282
526.315	0
526.79	12.02394
527.265	-14.02842
527.74	4.00865
528.215	-20.04208
528.689	13.02543
529.164	13.02506
529.638	-1.0023
530.112	-21.0441
530.587	-49.09344
531.061	-27.05812
531.534	13.02812
532.008	-14.03003
532.482	41.08336
532.956	-35.07993
533.429	35.07525
533.903	65.12673
534.376	-26.05159
534.849	-6.01246
535.322	-20.04242
535.795	63.13615
536.268	-13.02801
536.741	25.05359
537.213	6.01242
537.686	10.0217
538.158	-26.0521
538.631	32.06955
539.103	16.03182
539.575	55.10147
540.047	66.12797
540.519	47.10005
540.991	48.10477
541.463	55.11825
541.934	40.08131
542.406	15.03189
542.877	32.06424
543.348	38.08193
543.82	85.18447
544.291	119.24371
544.762	53.11105
545.233	58.12859
545.703	84.1624
546.174	127.25691
546.645	68.14194
547.115	198.40742
547.585	186.36599
548.056	131.27132
548.526	181.36111
548.996	190.39008
549.466	274.56279
549.935	233.46032
550.405	276.49683
550.875	283.55359
551.344	279.55585
551.814	337.63112
552.283	357.62801
552.752	320.60417
553.221	292.51351
553.69	446.77579
554.159	385.75669
554.628	428.74762
555.096	462.92665
555.565	444.7768
556.033	453.85049
556.502	432.84286
556.97	426.75708
557.438	509.95942
557.906	538.0137
558.374	506.92733
558.842	499.9595
559.31	522.93161
559.777	549.05399
560.245	648.18974
560.712	642.16096
561.18	656.11342
561.647	690.18076
562.114	723.25229
562.581	826.53934
563.048	817.41329
563.514	892.61992
563.981	887.49414
564.448	876.44237
564.914	943.60169
565.381	1030.66414
565.847	1068.76949
566.313	1103.79614
566.779	1128.75074
567.245	1148.85674
567.711	1219.9904
568.176	1256.85816
568.642	1279.17371
569.108	1308.15147
569.573	1424.15776
570.038	1467.8711
570.504	1481.0365
570.969	1563.4651
571.434	1545.0147
571.899	1577.29593
572.363	1637.19977
572.828	1740.29144
573.293	1718.27387
573.757	1809.32851
574.222	1807.21212
574.686	1790.21462
575.15	1870.47135
575.614	1894.35654
576.078	1889.43402
576.542	1930.35461
577.006	1825.26453
577.469	1947.70192
577.933	1854.24183
578.396	1859.48317
578.86	1815.42473
579.323	1745.40876
579.786	1772.10367
580.249	1719.24004
580.712	1721.50249
581.175	1582.41815
581.637	1642.25919
582.1	1634.10513
582.563	1541.98853
583.025	1486.28058
583.487	1491.77446
583.95	1439.89395
584.412	1444.85958
584.874	1391.20288
585.336	1353.0984
585.797	1284.80376
586.259	1260.00819
586.721	1239.96043
587.182	1266.00182
587.643	1180.83192
588.105	1176.92359
588.566	1145.63394
589.027	975.70885
589.488	1013.65636
589.949	1021.79437
590.41	934.27826
590.87	1087.75221
591.331	941.47582
591.791	932.57486
592.252	874.47897
592.712	869.57287
593.172	876.46235
593.632	825.36153
594.092	847.41186
594.552	842.34788
595.011	773.35117
595.471	780.32876
595.931	777.31759
596.39	795.45401
596.849	745.33907
597.308	741.23537
597.768	719.43547
598.227	815.50042
598.685	769.36181
599.144	721.31111
599.603	776.41455
600.062	679.10012
600.52	694.19971
600.978	757.38716
601.437	830.43622
601.895	764.2261
602.353	753.2823
602.811	739.25975
603.269	735.36708
603.727	794.45474
604.184	719.24732
604.642	804.5079
605.099	824.4447
605.557	837.55102
606.014	861.36237
606.471	772.48052
606.928	810.28471
607.385	894.60631
607.842	998.63491
608.299	1051.74361
608.755	999.74371
609.212	983.55801
609.668	949.50304
610.125	1011.77212
610.581	1083.84725
611.037	984.64506
611.493	1016.75256
611.949	951.69108
612.405	867.27012
612.861	1011.74622
613.316	875.57812
613.772	947.60678
614.227	875.55883
614.683	1034.58638
615.138	943.63706
615.593	876.53771
616.048	887.53552
616.503	904.6958
616.958	912.73771
617.412	895.60523
617.867	835.40019
618.321	875.35843
618.776	923.5297
619.23	824.4992
619.684	905.55186
620.138	858.54306
620.592	794.52132
621.046	767.43025
621.5	774.49436
621.954	789.40238
622.407	734.3061
622.861	728.42691
623.314	799.43782
623.768	650.24259
624.221	699.09828
624.674	646.22479
625.127	713.35568
625.58	655.23614
626.033	716.28717
626.485	607.21492
626.938	613.22411
627.39	596.1667
627.843	604.17569
628.295	535.0587
628.747	544.10747
629.199	534.04068
629.651	488.96253
630.103	485.96717
630.555	439.8177
631.006	519.05576
631.458	446.92968
631.909	463.94174
632.361	462.95276
632.812	444.90906
633.263	420.80816
633.714	443.84402
634.165	453.9801
634.616	424.90502
635.067	424.84651
635.518	419.90152
635.968	409.74026
636.419	380.75162
636.869	355.77434
637.319	346.73375
637.769	295.61207
638.219	406.8835
638.669	304.6728
639.119	318.7202
639.569	339.7551
640.019	307.6617
640.468	286.59804
640.918	353.7866
641.367	320.66794
641.816	270.56859
642.265	272.59218
642.714	260.56798
643.163	230.50288
643.612	236.53581
644.061	240.48138
644.51	236.51054
644.958	222.46524
645.406	256.57933
645.855	218.51037
646.303	246.5474
646.751	179.39212
647.199	240.51986
647.647	186.41201
648.095	207.45498
648.543	242.47462
648.99	152.35196
649.438	181.4117
649.885	204.48526
650.333	198.37162
650.78	199.46234
651.227	197.4613
651.674	211.46241
652.121	245.5692
652.568	199.46544
653.015	273.65697
653.461	188.43203
653.908	222.49748
654.354	192.44387
654.801	168.38267
655.247	227.48046
655.693	174.43982
656.139	175.4077
656.585	195.45304
657.031	152.34553
657.477	159.3358
657.922	147.33125
658.368	226.53779
658.813	188.42632
659.259	175.40883
659.704	177.40179
660.149	170.38676
660.594	156.36265
661.039	176.39164
661.484	173.40447
661.929	196.44645
662.373	171.42056
662.818	165.40025
663.262	165.38864
663.707	134.334
664.151	161.38585
664.595	130.30924
665.039	181.44038
665.483	154.38468
665.927	192.44228
666.371	115.26349
666.814	167.39213
667.258	123.28769
667.701	193.40975
668.145	201.48867
668.588	185.44471
669.031	120.27963
669.474	200.4708
669.917	194.42238
670.36	161.39304
670.803	223.52484
671.245	134.28182
671.688	159.38294
672.13	138.30709
672.573	201.4998
673.015	151.35871
673.457	147.31821
673.899	198.47063
674.341	174.41374
674.783	156.36952
675.225	157.38127
675.666	170.40221
676.108	194.41555
676.549	224.51908
676.991	143.31418
677.432	173.3421
677.873	197.44863
678.314	201.47141
678.755	186.44533
679.196	169.383
679.637	209.50126
680.078	217.49857
680.518	226.51665
680.959	178.42097
681.399	179.43747
681.839	184.44155
682.28	225.54229
682.72	209.46999
683.16	226.54975
683.6	293.64697
684.039	202.41603
684.479	210.50528
684.919	166.37857
685.358	276.67887
685.798	210.53892
686.237	237.5606
686.676	258.58433
687.115	244.56003
687.554	272.62704
687.993	233.50566
688.432	218.48952
688.871	255.56378
689.309	283.65461
689.748	261.5333
690.186	262.60977
690.625	262.59749
691.063	261.609
691.501	301.71857
691.939	241.58634
692.377	281.66415
692.815	277.64226
693.253	307.71293
693.69	306.64949
694.128	255.60131
694.565	312.71752
695.003	282.69337
695.44	340.76563
695.877	298.67216
696.314	334.69066
696.751	311.68556
697.188	306.67835
697.625	343.75641
698.061	253.59172
698.498	339.78754
698.934	287.66992
699.371	313.7096
699.807	318.72459
700.243	297.6908
700.679	341.74097
701.115	317.72041
701.551	318.72196
701.987	315.6839
702.422	319.72907
702.858	348.79357
703.294	348.75537
703.729	359.83958
704.164	346.7976
704.599	307.66057
705.035	316.68095
705.47	337.78567
705.904	365.81064
706.339	342.76414
706.774	305.68978
707.209	328.72651
707.643	374.8556
708.078	317.74341
708.512	237.57876
708.946	308.71313
709.38	288.66154
709.814	338.74179
710.248	312.73355
710.682	306.70232
711.116	244.56766
711.549	272.68184
711.983	266.59828
712.416	304.69493
712.85	263.63818
713.283	264.60836
713.716	324.78395
714.149	343.78454
714.582	265.57976
715.015	267.6508
715.448	296.72187
715.881	316.6675
716.313	244.55891
716.746	283.64576
717.178	246.5775
717.61	259.63977
718.043	276.66808
718.475	221.52579
718.907	288.70708
719.339	217.48317
719.77	203.47349
720.202	276.67737
720.634	218.52015
721.065	221.51425
721.497	279.66351
721.928	166.40366
722.359	166.39624
722.79	198.46682
723.221	204.50532
723.652	239.60312
724.083	196.43633
724.514	179.40748
724.945	164.38261
725.375	126.29211
725.806	186.45871
726.236	194.48984
726.666	164.38546
727.096	189.45777
727.526	164.41232
727.956	139.31527
728.386	197.47805
728.816	157.39366
729.246	169.40641
729.675	161.3926
730.105	185.44977
730.534	171.39666
730.964	196.48834
731.393	237.57639
731.822	146.37049
732.251	143.36075
732.68	169.39528
733.109	90.22278
733.537	122.29433
733.966	150.36993
734.395	120.27753
734.823	183.40899
735.251	137.32883
735.68	168.41691
736.108	105.26593
736.536	135.31786
736.964	110.25602
737.392	143.35585
737.82	113.27164
738.247	137.32721
738.675	161.38217
739.102	127.31615
739.53	116.29468
739.957	106.27252
740.384	212.51415
740.811	170.42633
741.238	79.19408
741.665	103.23968
742.092	144.34254
742.519	118.29145
742.945	126.30203
743.372	109.26996
743.798	124.31768
744.225	60.14426
744.651	128.32008
745.077	82.2055
745.503	121.29495
745.929	138.32979
746.355	152.37569
746.781	134.33072
747.207	58.13755
747.632	63.15483
748.058	108.26958
748.483	72.16751
748.908	103.25622
749.334	89.21954
749.759	78.18533
750.184	84.2012
750.609	136.33281
751.033	154.36196
751.458	143.32
751.883	128.31626
752.307	78.18498
752.732	79.19809
753.156	95.2352
753.58	74.17732
754.005	111.28153
754.429	88.20797
754.853	88.21871
755.277	104.24673
755.7	122.30188
756.124	85.21167
756.548	67.16021
756.971	116.28303
757.394	104.26775
757.818	90.23195
758.241	98.24878
758.664	112.2823
759.087	49.11092
759.51	86.21483
759.933	80.19352
760.356	105.26896
760.778	103.25342
761.201	134.32463
761.623	122.29556
762.046	112.26612
762.468	124.29746
762.89	162.396
763.312	99.24223
763.734	112.26949
764.156	88.21799
764.578	63.1466
765	141.34191
765.421	72.18356
765.843	77.20246
766.264	105.25404
766.686	96.24145
767.107	79.19243
767.528	49.12468
767.949	90.2292
768.37	58.14357
768.791	93.22569
769.212	101.25334
769.632	60.14108
770.053	91.2396
770.473	71.17378
770.894	77.1937
771.314	105.25117
771.734	68.15977
772.154	114.29175
772.575	98.22782
772.994	61.13993
773.414	119.2852
773.834	129.32066
774.254	59.14554
774.673	71.17398
775.093	78.19364
775.512	87.21468
775.931	88.22332
776.351	104.25781
776.77	83.20338
777.189	61.14625
777.607	82.20971
778.026	89.22188
778.445	11.02791
778.864	120.30624
779.282	61.14781
779.701	62.15711
780.119	46.11711
780.537	78.19505
780.955	100.25404
781.373	91.22513
781.791	54.12251
782.209	104.23967
782.627	60.15864
783.045	79.18246
783.462	85.21719
783.88	109.28067
784.297	53.13414
784.715	23.05966
785.132	67.16296
785.549	35.08836
785.966	78.19646
786.383	59.14591
786.8	129.2977
787.217	42.10053
787.633	31.0781
788.05	109.25834
788.466	87.20556
788.883	34.08741
789.299	62.15009
789.715	88.21391
790.131	75.18684
790.547	83.20737
790.963	52.12985
791.379	65.1648
791.795	62.14243
792.21	105.24482
792.626	40.09581
793.041	65.16099
793.457	38.09472
793.872	64.15119
794.287	20.04831
794.702	68.16808
795.117	29.07272
795.532	53.13342
795.947	105.25193
796.362	99.236
796.776	93.21787
797.191	70.17175
797.605	7.01667
798.02	55.13452
798.434	93.20708
798.848	47.11645
799.262	68.169
799.676	55.13492
800.09	49.12127
800.504	66.16068
800.918	20.04694
801.331	77.20185
801.745	29.06738
802.158	82.20483
802.572	44.10752
802.985	69.16726
803.398	31.07466
803.811	89.22837
804.224	70.17454
804.637	33.07933
805.05	51.11901
805.462	59.14554
805.875	42.10941
806.288	49.11882
806.7	70.17612
807.112	36.08425
807.525	68.16814
807.937	27.06734
808.349	79.1978
808.761	43.10646
809.173	42.10248
809.584	70.17327
809.996	39.09613
810.408	37.09604
810.819	76.17884
811.231	31.08063
811.642	69.16467
812.053	142.33337
812.464	206.47756
812.875	173.43425
813.286	107.27369
813.697	134.31016
814.108	107.25995
814.519	51.11441
814.929	90.22888
815.34	29.07096
815.75	45.11486
816.16	31.07787
816.571	39.10185
816.981	42.09987
817.391	60.1453
817.801	30.07508
818.211	84.19997
818.62	24.05832
819.03	68.16684
819.44	80.20861
819.849	51.12899
820.259	42.10805
820.668	23.05707
821.077	-1.00252
821.486	69.16638
821.895	92.22656
822.304	67.17754
822.713	51.12111
823.122	18.04535
823.531	3.00721
823.939	21.05165
824.348	51.12451
824.756	68.17042
825.164	36.09116
825.573	7.01776
825.981	60.14912
826.389	44.11106
826.797	38.09571
827.205	63.14487
827.612	78.19223
828.02	-4.00953
828.428	71.18072
828.835	26.06888
829.243	40.09592
829.65	36.09003
830.057	37.09036
830.464	21.05163
830.871	96.2288
831.278	64.15487
831.685	15.03388
832.092	17.04203
832.499	29.06404
832.905	48.12194
833.312	36.08273
833.718	47.11755
834.124	79.18028
834.531	48.12142
834.937	89.22749
835.343	25.06083
835.749	88.2049
836.155	37.09732
836.561	29.07183
836.966	35.08611
837.372	42.10734
837.777	35.08767
838.183	50.11168
838.588	7.01757
838.993	70.17035
839.399	16.03948
839.804	-30.0744
840.209	14.03594
840.613	33.07397
841.018	35.08909
841.423	24.06198
841.828	10.02553
842.232	57.14143
842.637	44.10427
843.041	19.04906
843.445	6.0152
843.849	44.10931
844.253	60.14278
844.657	6.01526
845.061	55.1251
845.465	17.04143
845.869	79.18311
846.272	37.09053
846.676	82.19768
847.079	32.08178
847.483	71.17688
847.886	44.10748
848.289	32.08577
848.692	57.14447
849.095	64.15371
849.498	109.274
849.901	37.08535
850.304	66.15767
850.707	30.07691
851.109	80.20179
851.512	38.09379
851.914	-15.0383
852.316	43.1091
852.718	-20.05233
853.121	41.10084
853.523	43.10089
853.925	6.01579
854.326	14.03529
854.728	16.04145
855.13	9.02341
855.531	-2.00484
855.933	65.15596
856.334	17.0427
856.736	8.01812
857.137	-19.04488
857.538	40.1009
857.939	11.02741
858.34	74.17988
858.741	78.20318
859.142	37.08928
859.542	-21.05613
859.943	37.09231
860.343	-17.04267
860.744	87.2112
861.144	12.02953
861.544	-2.00486
861.945	36.0921
862.345	-11.02725
862.745	20.05005
863.145	105.24886
863.544	50.12652
863.944	53.12537
864.344	33.08236
864.743	77.19043
865.143	-2.00519
865.542	16.03743
865.941	-3.00751
866.34	33.07945
866.74	56.1503
867.139	-34.08283
867.537	46.11744
867.936	-7.01706
868.335	49.12485
868.734	18.04631
869.132	29.06778
869.531	25.06085
869.929	-7.01617
870.327	17.04107
870.726	49.12238
871.124	75.17473
871.522	46.1174
871.92	49.12105
872.318	56.13694
872.715	94.23115
873.113	50.122
873.511	73.18133
873.908	-11.0281
874.306	23.05755
874.703	46.11532
875.1	54.1382
875.497	67.16033
875.894	-12.02977
876.291	39.09603
876.688	25.06482
877.085	38.09151
877.482	17.04286
877.878	6.01458
878.275	29.07402
878.671	67.14894
879.068	17.04135
879.464	2.00488
879.86	10.02386
880.256	67.16503
880.652	42.10707
881.048	35.08707
881.444	44.10499
881.84	37.09434
882.236	78.19534
882.631	53.13016
883.027	87.20946
883.422	24.0617
883.817	40.10079
884.213	43.11057
884.608	-7.01736
885.003	26.06304
885.398	7.01767
885.793	16.04044
886.188	27.06746
886.582	57.14616
886.977	35.0834
887.371	25.06357
887.766	-45.11393
888.16	9.02265
888.554	84.20663
888.949	16.04046
889.343	56.13679
889.737	-12.03232
890.131	60.15037
890.525	42.10764
890.918	52.13093
891.312	85.20224
891.706	45.11824
892.099	47.11976
892.492	32.06941
892.886	26.06396
893.279	25.06402
893.672	23.05887
894.065	42.10541
894.458	54.13582
894.851	72.17587
895.244	37.09478
895.637	38.09182
896.029	50.12236
896.422	39.09557
896.814	18.04505
897.206	1.00241
897.599	69.1702
897.991	30.07287
898.383	17.04046
898.775	30.06806
899.167	-11.02598
899.559	57.14421
899.951	53.12499
900.342	51.12977
900.734	-3.00752
901.125	38.09997
901.517	16.03955
901.908	20.04827
902.299	31.0761
902.69	30.07112
903.082	45.10916
903.473	19.0458
903.863	53.13524
904.254	16.03742
904.645	50.12445
905.036	17.04144
905.426	26.05987
905.817	-13.03229
906.207	9.02163
906.597	3.00709
906.987	31.08066
907.378	32.08124
907.768	21.05581
908.158	37.0905
908.547	12.03122
908.937	59.15124
909.327	28.06832
909.717	60.15215
910.106	25.06037
910.495	17.04272
910.885	54.13674
911.274	38.09523
911.663	56.14206
912.052	29.07188
912.441	41.10447
912.83	5.01159
913.219	51.13351
913.608	36.08846
913.997	27.06799
914.385	48.1148
914.774	29.07093
915.162	44.10503
915.55	53.12823
915.939	-5.01275
916.327	41.10255
916.715	19.0487
917.103	76.18626
917.491	39.09673
917.878	61.14975
918.266	33.08586
918.654	51.13032
919.041	3.0079
919.429	7.01667
919.816	5.01278
920.203	17.0415
920.591	0
920.978	70.17086
921.365	33.08686
921.752	14.03362
922.139	30.06546
922.525	-10.0243
922.912	65.15815
923.299	44.10951
923.685	28.07334
924.072	64.14726
924.458	0
924.844	-13.03255
925.231	16.0375
925.617	-5.01284
926.003	69.17581
926.389	-3.00764
926.774	11.02808
927.16	52.12914
927.546	5.01287
927.931	30.07516
928.317	15.03481
928.702	48.11366
929.088	4.00955
929.473	53.13481
929.858	-16.03917
930.243	20.04829
930.628	16.03918
931.013	42.10427
931.398	57.13097
931.783	15.03973
932.167	-10.02473
932.552	40.10043
932.937	11.0275
933.321	42.10556
933.705	6.01525
934.09	77.1937
934.474	47.11174
934.858	8.0209
935.242	31.07214
935.626	25.06428
936.009	18.04814
936.393	8.02051
936.777	21.05406
937.16	44.11462
937.544	21.04977
937.927	0
938.311	79.19186
938.694	53.14011
939.077	6.01449
939.46	39.09599
939.843	55.11468
940.226	26.06698
940.609	31.07146
940.991	36.09188
941.374	-5.01235
941.757	39.09645
942.139	-12.0273
942.522	31.07356
942.904	34.082
943.286	43.10941
943.668	37.09607
944.05	27.0668
944.432	57.1405
944.814	69.16939
945.196	14.03435
945.578	0
945.959	44.10326
946.341	78.19053
946.722	37.08709
947.104	22.05288
947.485	-1.00235
947.866	-5.01272
948.247	44.11114
948.628	42.10263
949.009	15.03865
949.39	65.1614
949.771	64.14849
950.152	32.07881
950.532	-23.05734
950.913	21.05094
951.293	14.03804
951.674	23.05592
952.054	26.06471
952.434	3.00751
952.814	37.08827
953.194	61.15936
953.574	43.10607
953.954	-2.0048
954.334	24.0601
954.714	-2.00492
955.093	22.05438
955.473	27.0678
955.853	30.07793
956.232	27.07428
956.611	57.13656
956.99	28.07065
957.37	6.01541
957.749	32.07662
958.128	3.00762
958.506	15.03915
958.885	-4.01019
959.264	14.03454
959.643	60.13628
960.021	39.09684
960.4	-3.00687
960.778	69.16939
961.156	-10.02534
961.535	41.09575
961.913	22.05177
962.291	-1.00259
962.669	24.06108
963.047	10.0257
963.424	18.0462
963.802	21.05192
964.18	72.18148
964.557	33.07628
964.935	44.10439
965.312	23.06017
965.69	15.0378
966.067	71.17223
966.444	65.15975
966.821	46.11868
967.198	23.05609
967.575	55.13512
967.952	18.04269
968.329	60.14574
968.705	24.05177
969.082	-5.01295
969.458	-22.0535
969.835	60.1458
970.211	33.08494
970.587	43.1072
970.963	30.07724
971.339	-19.0502
971.715	18.04521
972.091	53.13045
972.467	28.07012
972.843	6.01501
973.219	84.20043
973.594	6.01581
973.97	92.21725
974.345	40.09592
974.721	15.03657
975.096	15.03654
975.471	18.04297
975.846	79.18876
976.221	15.03833
976.596	-1.00242
976.971	54.13323
977.346	62.14402
977.72	17.04356
978.095	33.08554
978.469	42.10041
978.844	68.17042
979.218	9.02174
979.593	34.08172
979.967	3.00737
980.341	6.01394
980.715	13.03297
981.089	44.11027
981.463	22.0508
981.837	-24.05945
982.21	90.20782
982.584	-1.00244
982.957	28.0702
983.331	54.12757
983.704	33.08134
984.078	25.0619
984.451	84.20854
984.824	24.05873
985.197	6.01469
985.57	52.13037
985.943	62.1528
986.316	56.13745
986.688	51.12297
987.061	15.0354
987.434	31.08104
987.806	54.13087
988.179	28.06635
988.551	39.09913
988.923	2.00497
989.295	52.1299
989.667	-38.0923
990.039	25.06205
990.411	43.09912
990.783	24.05555
991.155	-6.01457
991.527	60.14749
991.898	2.00503
992.27	0
992.641	44.11051
993.012	67.15714
993.384	60.14284
993.755	16.04103
994.126	7.01697
994.497	-5.0124
994.868	82.18716
995.239	0
995.61	-4.01016
995.98	13.0318
996.351	37.09184
996.722	17.03968
997.092	-11.02635
997.462	18.04231
997.833	34.08085
998.203	31.07543
998.573	9.02258
998.943	-3.00711
999.313	1.00242
999.683	0
1000.053	53.12187
1000.423	26.06346
1000.792	34.08836
1001.162	41.10106
1001.531	43.10615
1001.901	-1.00252
1002.27	37.08293
1002.639	11.0283
1003.009	19.04545
1003.378	51.13036
1003.747	39.09233
1004.116	7.01689
1004.485	61.14547
1004.853	31.07879
1005.222	41.10355
1005.591	50.11871
1005.959	-43.09872
1006.328	-12.02735
1006.696	16.03884
1007.064	59.14815
1007.433	23.05776
1007.801	74.18082
1008.169	51.12876
1008.537	39.08655
1008.905	-22.05197
1009.273	25.06203
1009.64	-20.04834
1010.008	39.09315
1010.375	89.21452
1010.743	68.15646
1011.11	5.01193
1011.478	14.03487
1011.845	35.08254
1012.212	35.07945
1012.579	8.01979
1012.946	27.06454
1013.313	75.17762
1013.68	99.22026
1014.047	0
1014.414	6.01429
1014.78	-14.03519
1015.147	69.16625
1015.513	20.04845
1015.88	37.09481
1016.246	52.12829
1016.612	47.10764
1016.978	53.12977
1017.344	34.08425
1017.71	64.15563
1018.076	36.08511
1018.442	45.11583
1018.808	36.09019
1019.174	11.02778
1019.539	90.2055
1019.905	3.00714
1020.27	22.05456
1020.636	44.10559
1021.001	39.09354
1021.366	21.05069
1021.731	31.07996
1022.096	-33.08444
1022.461	27.06417
1022.826	39.09286
1023.191	42.1103
1023.556	31.07291
1023.92	49.12047
1024.285	34.08321
1024.649	24.05908
1025.014	42.10416
1025.378	17.04298
1025.742	37.09207
1026.107	57.12871
1026.471	100.2311
1026.835	31.07709
1027.199	13.0315
1027.562	26.06071
1027.926	37.09066
1028.29	38.09633
1028.654	39.0899
1029.017	46.11312
1029.381	2.00482
1029.744	40.10216
1030.107	50.11826
1030.471	31.07447
1030.834	51.11596
1031.197	43.10368
1031.56	14.03325
1031.923	26.06747
1032.286	55.129
1032.648	70.16671
1033.011	11.02544
1033.374	69.16152
1033.736	30.07911
1034.099	22.05388
1034.461	8.02035
1034.823	26.065
1035.185	49.12331
1035.548	67.16247
1035.91	25.06014
1036.272	6.01377
1036.634	42.10286
1036.995	-12.02854
1037.357	35.08535
1037.719	26.06349
1038.08	36.08567
1038.442	80.18869
1038.803	28.06748
1039.165	32.08098
1039.526	51.12316
1039.887	2.00483
1040.248	11.02728
1040.609	54.13328
1040.97	27.06623
1041.331	14.03565
1041.692	-13.0307
1042.053	71.16091
1042.413	45.10492
1042.774	22.05376
1043.134	56.13311
1043.495	50.12562
1043.855	17.04147
1044.215	-23.05782
1044.576	-8.01933
1044.936	53.12139
1045.296	55.13707
1045.656	53.12992
1046.016	58.13972
1046.375	19.04633
1046.735	-4.00916
1047.095	24.05643
1047.454	42.08911
1047.814	21.05073
1048.173	55.13121
1048.533	52.11902
1048.892	-19.04618
1049.251	28.07053
1049.61	35.08637
1049.969	28.06625
1050.328	21.04579
1050.687	21.05134
1051.046	15.03674
1051.405	63.15626
1051.763	-19.04427
1052.122	25.0626
1052.48	42.10309
1052.839	30.07082
1053.197	7.0166
1053.555	87.19677
1053.914	44.10768
1054.272	69.16612
1054.63	11.02707
1054.988	11.02631
1055.345	29.0627
1055.703	49.11788
1056.061	46.11835
1056.419	45.11652
1056.776	31.0754
1057.134	48.1111
1057.491	67.16715
1057.848	21.05252
1058.206	41.09654
1058.563	53.11669
1058.92	62.14248
1059.277	44.1086
1059.634	19.04495
1059.991	65.15519
1060.348	-15.03433
1060.704	-14.03375
1061.061	68.15733
1061.418	10.02442
1061.774	18.04467
1062.131	12.03191
1062.487	29.06804
1062.843	68.16888
1063.199	26.0649
1063.555	-11.02578
1063.911	52.13121
1064.267	85.17581
1064.623	16.03908
1064.979	33.0784
1065.335	95.22499
1065.691	77.18349
1066.046	32.07059
1066.402	24.05478
1066.757	38.09606
1067.112	59.14447
1067.468	-6.01431
1067.823	15.03628
1068.178	39.09447
1068.533	6.01466
1068.888	5.01204
1069.243	-11.02743
1069.598	28.06827
1069.952	-40.09167
1070.307	-4.00999
1070.662	25.0596
1071.016	-50.11426
1071.371	19.04346
1071.725	43.10294
1072.079	39.09393
1072.434	-11.02701
1072.788	20.04787
1073.142	29.07156
1073.496	62.14664
1073.85	49.11358
1074.203	46.11161
1074.557	10.02675
1074.911	54.1287
1075.265	18.04208
1075.618	54.13166
1075.971	22.05258
1076.325	9.02302
1076.678	-16.03705
1077.031	6.01369
1077.385	63.1383
1077.738	9.02047
1078.091	-11.0253
1078.444	43.09991
1078.796	25.06158
1079.149	24.05993
1079.502	-30.07191
1079.855	4.00941
1080.207	45.11088
1080.56	20.05192
1080.912	46.11199
1081.264	36.08685
1081.617	21.05142
1081.969	-15.03825
1082.321	15.03684
1082.673	-27.06253
1083.025	38.09029
1083.377	42.09024
1083.728	32.07486
1084.08	44.10987
1084.432	20.04847
1084.783	66.15404
1085.135	16.04031
1085.486	-1.00231
1085.838	41.10106
1086.189	32.07787
1086.54	35.08375
1086.891	10.02545
1087.242	25.0611
1087.593	32.07811
1087.944	38.08614
1088.295	46.10457
1088.646	51.12349
1088.996	-19.04633
1089.347	-5.01238
1089.698	4.00953
1090.048	43.11172
1090.398	20.04662
1090.749	52.12427
1091.099	-24.0611
1091.449	36.08983
1091.799	-23.05829
1092.149	-35.08662
1092.499	17.04169
1092.849	21.0536
1093.199	46.11528
1093.548	10.02419
1093.898	36.09022
1094.248	64.16391
1094.597	2.00514
1094.947	44.11739
1095.296	24.0595
1095.645	49.12736
1095.994	29.06987
1096.343	23.05811
1096.692	8.02115
1097.041	15.04081
1097.39	8.0202
1097.739	-3.00786
1098.088	46.12321
1098.437	-26.06911
1098.785	45.12131
1099.134	59.15629
1099.482	41.11282
1099.83	57.14947
1100.179	-7.01842
1100.527	45.11956
1100.875	-7.01867
1101.223	22.05864
1101.571	26.07206
1101.919	-14.03694
1102.267	13.03677
1102.615	8.02571
1102.962	15.04827
1103.31	3.00964
1103.658	16.0515
