Data from N2 R7 sample 9_Subt2__4__15-20-41-594.txt Node

Date: Fri Aug 29 15:20:41 PDT 2025
User: uwsun
Spectrometer: HDX01956
Trigger mode: 0
Integration Time (sec): 5.000000E-1
Scans to average: 1
Nonlinearity correction enabled: true
Boxcar width: 0
Storing dark spectrum: false
XAxis mode: Wavelengths
Number of Pixels in Spectrum: 2068
>>>>>Begin Spectral Data<<<<<
194.03	53.14755
194.578	55.17275
195.127	58.17941
195.676	62.19228
196.225	110.28644
196.773	83.22455
197.321	117.30795
197.87	192.4583
198.418	185.43626
198.966	91.21984
199.513	79.18209
200.061	105.24492
200.609	222.53638
201.156	111.22176
201.704	105.24347
202.251	163.39451
202.798	108.25898
203.345	156.35405
203.892	130.30066
204.438	171.37286
204.985	101.21883
205.532	138.33293
206.078	161.36057
206.624	135.30284
207.17	158.33464
207.716	138.30569
208.262	189.33593
208.808	94.21195
209.354	136.30201
209.899	167.38753
210.445	107.24378
210.99	83.18428
211.535	176.37651
212.08	126.26931
212.625	153.35083
213.17	197.45371
213.715	100.2028
214.259	165.35061
214.804	186.41904
215.348	122.25692
215.892	171.3738
216.436	181.38259
216.98	165.33378
217.524	112.24385
218.068	187.42947
218.612	171.39446
219.155	149.32103
219.698	132.28947
220.242	150.34512
220.785	122.26348
221.328	163.37301
221.871	171.39933
222.414	157.36058
222.956	108.24003
223.499	110.2292
224.041	202.42988
224.583	170.33782
225.126	141.28588
225.668	119.26728
226.21	109.25395
226.751	80.16217
227.293	135.28499
227.835	130.2924
228.376	186.39325
228.918	135.31576
229.459	88.2032
230	144.31498
230.541	126.26838
231.082	132.29471
231.622	158.3342
232.163	120.26792
232.704	134.30535
233.244	136.31029
233.784	172.38719
234.324	81.16386
234.864	122.25466
235.404	157.34291
235.944	148.32264
236.484	157.36015
237.023	124.26929
237.563	113.24022
238.102	182.39103
238.641	162.37497
239.18	77.16633
239.719	151.34749
240.258	159.32636
240.797	123.2699
241.335	144.32363
241.874	115.20217
242.412	164.35843
242.95	110.24072
243.488	166.3445
244.026	126.26546
244.564	118.22256
245.102	112.23046
245.64	143.3163
246.177	146.29839
246.715	174.38028
247.252	197.40893
247.789	139.23988
248.326	104.22826
248.863	134.26703
249.4	149.30832
249.936	111.20869
250.473	122.25952
251.009	117.24428
251.546	142.28389
252.082	110.22053
252.618	126.25506
253.154	96.21123
253.69	136.27833
254.226	104.2272
254.761	178.3595
255.297	115.22901
255.832	134.2879
256.367	127.27233
256.903	124.2471
257.438	202.42577
257.972	113.22932
258.507	102.21216
259.042	138.27103
259.576	83.16228
260.111	187.38834
260.645	154.30074
261.179	162.33936
261.713	149.2981
262.247	135.28211
262.781	158.29581
263.315	120.26626
263.849	166.37307
264.382	99.20789
264.915	154.32317
265.449	77.16989
265.982	170.34713
266.515	189.41123
267.048	187.35054
267.58	176.34485
268.113	120.23312
268.646	89.19973
269.178	46.09389
269.71	160.31261
270.243	126.25997
270.775	160.36519
271.307	140.30468
271.838	214.45304
272.37	154.3397
272.902	174.35304
273.433	89.17616
273.965	149.32516
274.496	159.35536
275.027	136.30301
275.558	143.31048
276.089	106.23324
276.62	184.41861
277.15	149.3304
277.681	154.2986
278.211	185.40406
278.741	84.16622
279.272	113.23079
279.802	178.39544
280.332	135.28349
280.861	174.37126
281.391	125.2524
281.921	164.3519
282.45	213.46974
282.98	124.29043
283.509	136.27165
284.038	172.34515
284.567	213.437
285.096	132.28434
285.625	141.28301
286.153	119.24768
286.682	159.31958
287.21	113.24189
287.739	165.34266
288.267	123.26364
288.795	161.37612
289.323	152.31066
289.851	137.28337
290.378	193.3761
290.906	135.28649
291.433	172.37591
291.961	135.26746
292.488	163.35586
293.015	114.23564
293.542	96.21487
294.069	151.32394
294.596	161.34941
295.122	167.34635
295.649	135.26019
296.175	217.45406
296.702	215.44988
297.228	180.38056
297.754	133.25967
298.28	188.36522
298.806	171.35432
299.332	128.24415
299.857	131.25564
300.383	223.48541
300.908	146.30394
301.433	163.33971
301.958	214.42189
302.483	146.31341
303.008	182.38698
303.533	208.46534
304.058	200.40245
304.582	141.28445
305.107	105.23719
305.631	173.33712
306.155	137.27167
306.679	151.29888
307.203	172.33669
307.727	185.37046
308.251	165.34679
308.775	134.26815
309.298	128.25887
309.822	181.38595
310.345	187.37065
310.868	183.36527
311.391	234.47889
311.914	212.44055
312.437	193.36662
312.96	189.36795
313.482	204.39782
314.005	185.38591
314.527	191.41629
315.049	161.34107
315.571	206.36777
316.093	214.433
316.615	227.44236
317.137	225.39121
317.659	226.44701
318.18	256.49756
318.702	158.29874
319.223	200.32486
319.744	217.38511
320.265	194.37508
320.786	177.34968
321.307	209.41406
321.828	207.36831
322.348	173.32269
322.869	225.41115
323.389	231.27716
323.909	245.43367
324.43	271.50851
324.95	240.41829
325.47	252.47204
325.989	200.36038
326.509	170.28221
327.029	203.34212
327.548	258.42476
328.067	246.43941
328.587	235.44139
329.106	192.3242
329.625	310.61459
330.144	233.39161
330.662	161.27488
331.181	255.43024
331.7	287.47818
332.218	283.42555
332.736	293.48253
333.255	285.46257
333.773	294.48431
334.291	324.56979
334.808	271.41045
335.326	319.48318
335.844	267.4158
336.361	258.44657
336.879	208.32741
337.396	255.41153
337.913	344.50565
338.43	314.44965
338.947	315.48312
339.464	281.37334
339.981	271.41021
340.497	330.52191
341.014	314.48287
341.53	245.34255
342.046	222.34803
342.562	346.53871
343.078	336.47724
343.594	356.51079
344.11	367.51784
344.626	311.47812
345.141	348.45578
345.657	332.43863
346.172	374.52085
346.687	342.44337
347.202	403.48937
347.717	369.49527
348.232	390.55365
348.747	314.399
349.261	226.26417
349.776	366.46448
350.29	324.43526
350.805	405.54724
351.319	399.48451
351.833	290.34028
352.347	389.46895
352.861	338.40402
353.374	468.53284
353.888	376.46924
354.401	454.50045
354.915	385.40239
355.428	427.52417
355.941	373.41439
356.454	537.54169
356.967	435.48788
357.48	375.40889
357.993	450.5279
358.505	364.42562
359.018	438.49787
359.53	436.4716
360.042	513.47112
360.554	471.50974
361.066	431.4671
361.578	479.41653
362.09	485.49195
362.602	432.3789
363.113	389.37835
363.625	455.39932
364.136	542.43744
364.647	374.33314
365.158	486.43081
365.669	543.49339
366.18	495.44065
366.691	448.353
367.201	437.39751
367.712	457.36176
368.222	483.37546
368.733	454.30399
369.243	470.31658
369.753	568.40387
370.263	590.43543
370.773	473.38897
371.282	535.37084
371.792	414.24629
372.301	484.31968
372.811	539.41276
373.32	463.18432
373.829	432.22567
374.338	643.21518
374.847	577.20377
375.356	565.20102
375.865	571.07684
376.373	703.09534
376.882	704.20354
377.39	646.12236
377.898	472.07017
378.407	637.96718
378.915	734.89454
379.423	771.9016
379.93	797.82728
380.438	662.85166
380.946	758.75611
381.453	754.72333
381.96	788.65177
382.468	815.57894
382.975	963.49538
383.482	1054.41848
383.989	988.46554
384.495	966.46313
385.002	914.53664
385.509	1108.46507
386.015	1200.66343
386.521	1293.66207
387.028	1198.81935
387.534	1345.05985
388.04	1568.1017
388.546	1231.39268
389.051	1175.77066
389.557	1276.2781
390.063	1948.80213
390.568	1845.25327
391.073	1765.10896
391.578	1833.68777
392.084	1763.72089
392.589	1264.89483
393.093	1237.01952
393.598	1745.01215
394.103	1991.19158
394.607	2357.10148
395.112	2524.28733
395.616	2663.85053
396.12	2595.09389
396.624	2592.66738
397.128	3215.49509
397.632	3693.27444
398.136	4243.0632
398.639	2728.6212
399.143	1943.10105
399.646	2860.89289
400.15	2764.97454
400.653	1943.54187
401.156	1766.26343
401.659	1117.4031
402.162	189.73808
402.664	0
403.167	0
403.67	0
404.172	0
404.674	0
405.176	0
405.678	0
406.18	0
406.682	0
407.184	0
407.686	0
408.187	0
408.688	0
409.19	0
409.691	0
410.192	0
410.693	0
411.194	435.30976
411.694	4082.94878
412.195	8864.71461
412.696	12089.80453
413.196	12760.96929
413.696	12766.26573
414.196	13528.27362
414.696	17231.07447
415.196	21164.32636
415.696	23127.25786
416.196	19556.65282
416.695	12503.66258
417.195	8562.80995
417.694	8219.83091
418.194	7959.91564
418.693	7132.06247
419.192	6861.18532
419.691	6651.99916
420.19	6494.58758
420.688	6874.91974
421.187	6601.05163
421.685	6612.68669
422.184	6161.84585
422.682	5468.67596
423.18	4166.97091
423.678	3336.53576
424.176	3027.47243
424.674	2797.71809
425.172	2873.8132
425.669	2982.26467
426.167	2730.64807
426.664	2343.44586
427.161	2195.80699
427.659	1882.29843
428.156	1720.34451
428.652	1661.13332
429.149	1510.18914
429.646	1500.1916
430.143	1558.18277
430.639	1294.35489
431.135	1184.4974
431.632	1150.51866
432.128	1106.63805
432.624	823.84508
433.12	735.79416
433.616	782.78913
434.111	570.91728
434.607	590.96156
435.103	746.90025
435.598	686.93517
436.093	723.07284
436.588	761.08579
437.083	653.1377
437.578	556.17664
438.073	400.19039
438.568	589.29827
439.062	447.16631
439.557	535.29481
440.051	457.23932
440.546	382.2188
441.04	273.1991
441.534	389.32001
442.028	362.28187
442.522	365.28435
443.015	325.218
443.509	401.34295
444.002	280.25438
444.496	249.1875
444.989	236.22752
445.482	246.24481
445.975	230.18971
446.468	258.19582
446.961	185.14756
447.454	305.2622
447.947	173.16915
448.439	188.20046
448.931	157.14525
449.424	200.2322
449.916	243.26048
450.408	104.10259
450.9	99.11188
451.392	104.12726
451.884	141.15051
452.375	137.16268
452.867	184.19556
453.358	84.09006
453.849	81.08014
454.341	104.11301
454.832	53.05504
455.323	87.10864
455.814	100.11661
456.304	111.13045
456.795	74.08783
457.285	151.17327
457.776	182.21779
458.266	66.08471
458.756	102.13508
459.247	20.02643
459.737	-12.01616
460.226	79.09615
460.716	109.14537
461.206	42.05862
461.695	122.17929
462.185	29.04046
462.674	39.05323
463.163	31.04049
463.653	79.0947
464.142	23.03387
464.63	95.14257
465.119	-5.00713
465.608	16.02278
466.096	-14.01916
466.585	5.00743
467.073	60.09247
467.561	19.02993
468.05	49.07385
468.538	24.03938
469.026	-8.01286
469.513	6.00819
470.001	-35.05329
470.489	-1.00159
470.976	-21.0332
471.463	38.06556
471.951	43.07536
472.438	-54.08939
472.925	-82.13612
473.412	12.0212
473.899	-31.05119
474.385	10.01778
474.872	-38.06406
475.359	-34.06095
475.845	-6.00884
476.331	-63.10195
476.817	-54.0996
477.303	-59.10312
477.789	-71.13059
478.275	-78.14856
478.761	-55.10203
479.247	-70.12103
479.732	-127.24819
480.218	-70.14358
480.703	-29.05616
481.188	-22.0361
481.673	-97.17545
482.158	-111.18329
482.643	-61.12515
483.128	-120.21844
483.612	-93.17476
484.097	-15.02945
484.581	-44.08238
485.066	-52.10184
485.55	-128.22828
486.034	-136.24066
486.518	-123.23661
487.002	-115.23146
487.486	-82.16462
487.969	-135.27485
488.453	-105.22263
488.936	-58.1073
489.42	-104.1924
489.903	-54.11412
490.386	-61.08151
490.869	-29.0524
491.352	-107.22469
491.835	-103.18031
492.318	-137.26354
492.8	-159.28261
493.283	-144.31525
493.765	-165.35183
494.247	-57.11404
494.73	-93.17571
495.212	-124.26194
495.694	-141.28471
496.175	-217.45044
496.657	-116.23955
497.139	-93.14033
497.62	-185.3835
498.102	-142.30785
498.583	-130.2864
499.064	-180.35269
499.545	-148.29713
500.026	-156.30754
500.507	-140.28639
500.988	-160.35323
501.469	-178.3956
501.949	-147.32352
502.43	-208.44053
502.91	-197.36327
503.39	-123.27399
503.87	-120.24793
504.35	-155.32821
504.83	-219.43266
505.31	-183.39733
505.79	-170.36304
506.269	-151.31638
506.749	-256.5327
507.228	-215.45585
507.707	-156.30913
508.187	-125.2677
508.666	-220.48955
509.145	-177.37168
509.623	-174.3682
510.102	-130.2822
510.581	-129.28068
511.059	-194.43975
511.538	-159.37291
512.016	-149.3213
512.494	-136.29799
512.972	-179.38815
513.45	-238.50208
513.928	-177.38888
514.406	-244.53551
514.884	-151.35082
515.361	-153.33149
515.839	-186.38584
516.316	-197.43319
516.793	-145.33382
517.27	-115.25245
517.747	-157.36563
518.224	-187.39736
518.701	-214.43995
519.178	-219.49772
519.654	-147.31985
520.131	-151.33999
520.607	-154.34979
521.083	-161.33584
521.56	-214.4673
522.036	-134.26827
522.512	-149.33727
522.987	-207.45154
523.463	-153.33233
523.939	-162.36527
524.414	-160.34036
524.89	-197.43264
525.365	-152.31531
525.84	-222.48662
526.315	-171.37839
526.79	-200.41858
527.265	-182.38361
527.74	-194.43724
528.215	-154.33358
528.689	-179.36609
529.164	-145.29009
529.638	-179.4262
530.112	-206.45021
530.587	-230.45791
531.061	-221.49555
531.534	-192.43344
532.008	-225.50451
532.482	-154.32702
532.956	-171.40121
533.429	-120.26659
533.903	-123.25053
534.376	-181.37219
534.849	-139.29716
535.322	-162.35421
535.795	-93.20768
536.268	-173.38553
536.741	-171.38202
537.213	-119.2532
537.686	-183.41338
538.158	-147.30282
538.631	-129.28998
539.103	-166.34419
539.575	-133.25696
540.047	-153.3122
540.519	-128.28283
540.991	-145.32942
541.463	-147.32976
541.934	-148.31373
542.406	-189.41961
542.877	-171.3594
543.348	-124.27662
543.82	-93.20948
544.291	-69.14732
544.762	-145.3171
545.233	-125.28766
545.703	-136.27682
546.174	-51.10738
546.645	-131.28552
547.115	-54.11742
547.585	-54.11227
548.056	-120.26249
548.526	-39.08179
548.996	-18.03869
549.466	2.00436
549.935	-3.00626
550.405	0
550.875	-11.02302
551.344	51.107
551.814	43.08639
552.283	61.11565
552.752	42.08471
553.221	53.09905
553.69	82.15641
554.159	94.19743
554.628	97.18426
555.096	127.27445
555.565	128.24261
556.033	188.37603
556.502	255.51844
556.97	209.39236
557.438	209.42298
557.906	238.48222
558.374	244.47673
558.842	266.54019
559.31	303.57137
559.777	296.60386
560.245	353.69706
560.712	408.7828
561.18	412.74627
561.647	392.72525
562.114	463.85814
562.581	493.99545
563.048	528.98426
563.514	552.08807
563.981	694.22966
564.448	601.06426
564.914	678.23307
565.381	752.3092
565.847	785.40103
566.313	785.39093
566.779	820.38583
567.245	870.51598
567.711	887.58107
568.176	898.47135
568.642	938.73985
569.108	967.74001
569.573	1094.81872
570.038	1026.50389
570.504	1079.6738
570.969	1219.10898
571.434	1087.63338
571.899	1221.96934
572.363	1247.88667
572.828	1281.94079
573.293	1319.97279
573.757	1247.90685
574.222	1298.8698
574.686	1309.88754
575.15	1351.08677
575.614	1297.94428
576.078	1351.05161
576.542	1335.96587
577.006	1267.87399
577.469	1344.21714
577.933	1272.85245
578.396	1330.0798
578.86	1303.02846
579.323	1208.951
579.786	1254.76346
580.249	1140.77153
580.712	1220.04243
581.175	1148.97687
581.637	1183.86491
582.1	1143.71497
582.563	1077.60568
583.025	1050.81619
583.487	1001.40037
583.95	988.49408
584.412	1031.51172
584.874	1021.7869
585.336	905.58584
585.797	937.45934
586.259	992.70106
586.721	898.55832
587.182	945.63103
587.643	888.49461
588.105	894.57594
588.566	868.34477
589.027	860.55219
589.488	872.48115
589.949	877.59866
590.41	785.12554
590.87	843.45143
591.331	903.43154
591.791	862.48384
592.252	793.37094
592.712	861.56152
593.172	885.47379
593.632	941.50398
594.092	878.45128
594.552	902.41973
595.011	916.54189
595.471	982.5836
595.931	1029.62845
596.39	1019.76008
596.849	1051.74361
597.308	1082.63896
597.768	1118.02702
598.227	1181.97849
598.685	1289.98196
599.144	1233.95757
599.603	1323.08485
600.062	1332.77536
600.52	1361.9487
600.978	1571.30662
601.437	1576.20587
601.895	1601.98673
602.353	1790.23775
602.811	1794.23205
603.269	1961.58691
603.727	2020.61354
604.184	2054.37827
604.642	2229.79249
605.099	2226.55964
605.557	2361.81655
606.014	2486.2683
606.471	2472.91916
606.928	2513.22647
607.385	2739.79421
607.842	2989.49552
608.299	3005.60543
608.755	3025.76348
609.212	3131.31015
609.668	3175.25554
610.125	3390.71392
610.581	3358.68331
611.037	3399.45615
611.493	3493.60905
611.949	3414.70145
612.405	3525.71592
612.861	3617.56269
613.316	3462.66046
613.772	3561.41842
614.227	3518.5797
614.683	3629.04947
615.138	3543.5296
615.593	3527.5051
616.048	3514.45689
616.503	3545.87328
616.958	3415.00657
617.412	3405.67647
617.867	3318.31816
618.321	3320.04007
618.776	3216.40315
619.23	3214.71214
619.684	3234.52733
620.138	3095.72317
620.592	3056.95943
621.046	3082.78998
621.5	2919.98558
621.954	2894.62168
622.407	2843.57129
622.861	2757.00656
623.314	2670.69757
623.768	2687.80205
624.221	2528.08569
624.674	2446.73795
625.127	2418.8117
625.58	2505.73643
626.033	2441.59196
626.485	2224.86494
626.938	2309.89066
627.39	2224.76419
627.843	2121.71075
628.295	2100.70383
628.747	2063.80558
629.199	2066.63032
629.651	1968.58359
630.103	1962.61805
630.555	1852.29175
631.006	1838.65188
631.458	1727.5956
631.909	1733.52941
632.361	1687.54071
632.812	1624.45409
633.263	1655.26646
633.714	1597.21388
634.165	1565.588
634.616	1467.42876
635.067	1445.21253
635.518	1481.46416
635.968	1483.97219
636.419	1347.06965
636.869	1309.27856
637.319	1338.22658
637.769	1294.09082
638.219	1359.35984
638.669	1319.30085
639.119	1320.37782
639.569	1276.28893
640.019	1268.17049
640.468	1243.05125
640.918	1223.23208
641.367	1147.95683
641.816	1179.98908
642.265	1187.08152
642.714	1163.05413
643.163	1152.02673
643.612	1109.06808
644.061	1121.79508
644.51	1061.89014
644.958	1157.92653
645.406	1106.06602
645.855	1101.12588
646.303	1058.95611
646.751	1098.93865
647.199	1095.93885
647.647	1057.91497
648.095	1066.9191
648.543	1139.76637
648.99	1026.96001
649.438	1078.00269
649.885	1102.16171
650.333	1061.57406
650.78	1031.99756
651.227	1034.01855
651.674	992.8147
652.121	1032.01938
652.568	1031.0122
653.015	1055.15514
653.461	970.87698
653.908	992.8685
654.354	983.91167
654.801	918.77114
655.247	960.7058
655.693	927.01932
656.139	923.8297
656.585	859.73041
657.031	846.64997
657.477	873.55446
657.922	878.6801
658.368	818.72127
658.813	853.67033
659.259	806.64621
659.704	807.59502
660.149	781.55438
660.594	741.52049
661.039	770.50012
661.484	746.54487
661.929	742.50097
662.373	625.40485
662.818	688.50137
663.262	664.40918
663.707	677.51686
664.151	705.51091
664.595	661.4086
665.039	649.43738
665.483	658.48965
665.927	716.47409
666.371	520.09215
666.814	598.28329
667.258	563.20055
667.701	619.19037
668.145	605.35651
668.588	579.28485
669.031	525.12327
669.474	571.24448
669.917	551.10672
670.36	522.18577
670.803	582.27143
671.245	524.00566
671.688	513.14998
672.13	494.016
672.573	563.30455
673.015	483.07153
673.457	505.00763
673.899	507.13092
674.341	505.12181
674.783	478.05932
675.225	515.16393
675.666	482.06908
676.108	501.00009
676.549	526.1436
676.991	509.03021
677.432	468.86156
677.873	492.05141
678.314	493.08785
678.755	488.09856
679.196	522.09588
679.637	488.10573
680.078	473.02883
680.518	484.04678
680.959	398.90097
681.399	428.99717
681.839	454.03106
682.28	420.97468
682.72	427.91715
683.16	464.07592
683.6	439.93967
684.039	433.84542
684.479	401.92969
684.919	397.863
685.358	485.14441
685.798	463.13281
686.237	465.04905
686.676	444.9674
687.115	411.91164
687.554	406.91085
687.993	427.8883
688.432	446.95445
688.871	381.82012
689.309	400.90366
689.748	407.80408
690.186	460.02655
690.625	402.89076
691.063	404.91604
691.501	427.99464
691.939	457.06446
692.377	460.04724
692.815	440.98711
693.253	452.01738
693.69	389.8107
694.128	416.95012
694.565	437.97977
695.003	441.05006
695.44	433.95644
695.877	401.8854
696.314	446.89911
696.751	501.05842
697.188	451.96952
697.625	411.89343
698.061	408.9251
698.498	443.00583
698.934	427.96915
699.371	388.86619
699.807	434.96565
700.243	439.99234
700.679	399.85628
701.115	457.00701
701.551	417.92764
701.987	445.93934
702.422	448.9972
702.858	442.98874
703.294	410.87818
703.729	443.0168
704.164	426.9663
704.599	405.85304
705.035	393.83286
705.47	430.98407
705.904	413.90808
706.339	450.98297
706.774	471.02708
707.209	360.79206
707.643	427.9664
708.078	462.05053
708.512	367.8744
708.946	453.01652
709.38	420.93915
709.814	439.94292
710.248	443.01274
710.682	404.90897
711.116	344.78445
711.549	414.00878
711.983	337.74691
712.416	450.99833
712.85	384.91051
713.283	399.8946
713.716	441.04122
714.149	441.98874
714.582	412.87331
715.015	390.92865
715.448	398.95205
715.881	440.90413
716.313	365.81569
716.746	387.86449
717.178	393.89598
717.61	375.90645
718.043	354.84425
718.475	381.87844
718.907	420.0036
719.339	315.6871
719.77	286.65616
720.202	399.95681
720.634	371.85913
721.065	345.78308
721.497	366.85578
721.928	315.74449
722.359	293.68231
722.79	336.77085
723.221	358.86162
723.652	381.93688
724.083	355.76417
724.514	329.72615
724.945	291.66187
725.375	247.55885
725.806	338.81011
726.236	317.78271
726.666	306.69922
727.096	326.76914
727.526	298.73108
727.956	290.63753
728.386	291.69363
728.816	246.60688
729.246	262.61889
729.675	261.62452
730.105	324.76709
730.534	285.64613
730.964	327.79522
731.393	356.84641
731.822	265.65819
732.251	288.7076
732.68	271.62113
733.109	240.57768
733.537	243.57279
733.966	218.53088
734.395	290.64797
734.823	232.51325
735.251	246.57817
735.68	337.81033
736.108	278.68228
736.536	240.5535
736.964	228.51828
737.392	264.64241
737.82	260.6075
738.247	242.56633
738.675	248.57878
739.102	206.50541
739.53	196.49082
739.957	205.51789
740.384	279.66809
740.811	195.48682
741.238	188.45252
741.665	173.39701
742.092	206.48417
742.519	175.42769
742.945	196.46354
743.372	158.3878
743.798	180.4566
744.225	181.42517
744.651	193.47693
745.077	167.41208
745.503	185.44556
745.929	166.39457
746.355	235.57196
746.781	216.52503
747.207	125.2926
747.632	115.27991
748.058	172.42434
748.483	169.38565
748.908	113.28058
749.334	178.43186
749.759	82.19469
750.184	130.30865
750.609	159.38743
751.033	183.42768
751.458	172.38258
751.883	161.39538
752.307	95.22455
752.732	63.15843
753.156	128.31498
753.58	170.39988
754.005	141.35571
754.429	100.23578
754.853	98.24312
755.277	99.23509
755.7	141.34767
756.124	59.14762
756.548	70.16729
756.971	148.35895
757.394	119.30556
757.818	87.22433
758.241	123.31086
758.664	93.23521
759.087	8.01826
759.51	110.27358
759.933	117.28104
760.356	129.32904
760.778	101.24859
761.201	134.32463
761.623	134.3239
762.046	105.24982
762.468	83.20066
762.89	121.29803
763.312	139.33756
763.734	77.18651
764.156	88.21799
764.578	130.29851
765	103.25155
765.421	79.20115
765.843	116.30299
766.264	133.32008
766.686	88.22165
767.107	88.21399
767.528	41.10447
767.949	91.23171
768.37	75.18507
768.791	94.22807
769.212	63.15911
769.632	44.10378
770.053	61.16142
770.473	109.26491
770.894	66.16636
771.314	78.18754
771.734	67.15745
772.154	101.25907
772.575	69.16133
772.994	15.03473
773.414	95.22872
773.834	48.12107
774.254	36.08918
774.673	85.20774
775.093	57.14205
775.512	40.09956
775.931	63.16058
776.351	66.16475
776.77	23.05699
777.189	81.19346
777.607	62.15912
778.026	52.13051
778.445	1.00254
778.864	48.12405
779.282	62.1502
779.701	68.17213
780.119	17.0435
780.537	44.11071
780.955	118.29881
781.373	44.10979
781.791	14.03202
782.209	118.27117
782.627	109.28583
783.045	53.12304
783.462	13.03364
783.88	15.03925
784.297	69.17414
784.715	20.0519
785.132	11.02703
785.549	44.11091
785.966	39.09892
786.383	29.07211
786.8	85.19788
787.217	55.13131
787.633	16.04042
788.05	91.21643
788.466	58.13781
788.883	29.07462
789.299	84.20251
789.715	36.08836
790.131	49.12265
790.547	65.16293
790.963	57.14221
791.379	52.13215
791.795	42.09687
792.21	36.08508
792.626	31.07438
793.041	38.09458
793.457	55.13667
793.872	40.09493
794.287	11.02661
794.702	93.22881
795.117	40.1001
795.532	41.10344
795.947	66.15953
796.362	37.08925
796.776	58.1368
797.191	57.14019
797.605	-10.0239
798.02	11.02712
798.434	43.09674
798.848	33.08197
799.262	32.08005
799.676	91.22174
800.09	34.08438
800.504	40.09785
800.918	19.0446
801.331	63.16554
801.745	6.014
802.158	31.07815
802.572	74.17981
802.985	75.1816
803.398	78.18619
803.811	65.16749
804.224	58.14494
804.637	-9.02181
805.05	49.11439
805.462	58.1431
805.875	4.01049
806.288	13.03174
806.7	29.0735
807.112	35.08193
807.525	64.15836
807.937	16.03998
808.349	36.09084
808.761	36.08924
809.173	32.07822
809.584	32.07976
809.996	-17.04234
810.408	13.03388
810.819	55.12995
811.231	11.02871
811.642	29.06974
812.053	84.19944
812.464	151.35387
812.875	140.3535
813.286	76.19546
813.697	95.22159
814.108	53.13006
814.519	58.12992
814.929	57.1458
815.34	52.12669
815.75	65.16533
816.16	54.13509
816.571	56.14583
816.981	58.13749
817.391	16.03907
817.801	10.02512
818.211	65.15531
818.62	24.05832
819.03	65.15957
819.44	58.15181
819.849	44.11142
820.259	62.15895
820.668	21.05213
821.077	28.07007
821.486	27.06562
821.895	71.17552
822.304	14.03743
822.713	26.06204
823.122	17.04284
823.531	-8.01926
823.939	40.09803
824.348	55.13417
824.756	80.20006
825.164	59.14879
825.573	-16.04076
825.981	29.07248
826.389	57.14354
826.797	18.0455
827.205	49.11299
827.612	12.02993
828.02	-2.00476
828.428	61.15554
828.835	52.13717
829.243	35.08401
829.65	17.04266
830.057	52.12664
830.464	17.04183
830.871	56.13449
831.278	21.05123
831.685	46.10326
832.092	81.19789
832.499	22.04865
832.905	78.1971
833.312	84.19118
833.718	59.14725
834.124	52.11931
834.531	43.10887
834.937	-1.0026
835.343	38.09223
835.749	70.16357
836.155	45.1182
836.561	-7.01745
836.966	31.07633
837.372	41.1048
837.777	-3.00757
838.183	34.07619
838.588	11.02758
838.993	2.00493
839.399	-5.01238
839.804	5.01232
840.209	23.05896
840.613	15.03375
841.018	30.07643
841.423	51.13109
841.828	28.07126
842.232	69.17083
842.637	29.06892
843.041	-7.01816
843.445	16.04047
843.849	1.0025
844.253	22.05274
844.657	-13.03317
845.061	16.03668
845.465	26.06325
845.869	54.12578
846.272	5.01231
846.676	-3.00735
847.079	8.02053
847.483	53.13247
847.886	91.22033
848.289	-5.01348
848.692	62.157
849.095	52.12517
849.498	87.21956
849.901	34.07848
850.304	52.12455
850.707	26.0667
851.109	30.07635
851.512	37.09134
851.914	5.01272
852.316	12.03061
852.718	-15.03921
853.121	13.03214
853.523	14.03303
853.925	-12.03168
854.326	5.01262
854.728	24.06209
855.13	-21.0549
855.531	41.09834
855.933	51.12269
856.334	16.0402
856.736	-30.06847
857.137	15.03519
857.538	31.07832
857.939	1.0025
858.34	29.07109
858.741	33.08662
859.142	19.046
859.542	34.09005
859.943	49.12198
860.343	-23.0578
860.744	26.06384
861.144	31.07602
861.544	-15.03655
861.945	35.08956
862.345	21.05173
862.745	9.02257
863.145	20.04818
863.544	58.14656
863.944	34.08072
864.344	48.11947
864.743	61.1513
865.143	37.09537
865.542	2.00469
865.941	31.07712
866.34	49.11761
866.74	63.16889
867.139	18.04343
867.537	77.19551
867.936	3.0073
868.335	4.01027
868.734	48.12285
869.132	27.06313
869.531	58.1403
869.929	-24.05562
870.327	42.10099
870.726	45.11247
871.124	42.09849
871.522	28.07168
871.92	50.1235
872.318	4.00988
872.715	71.17533
873.113	41.10021
873.511	6.01509
873.908	19.04828
874.306	25.06253
874.703	22.05539
875.1	41.10517
875.497	38.09144
875.894	-9.02232
876.291	4.00991
876.688	36.09317
877.085	12.02904
877.482	58.14515
877.878	23.05571
878.275	38.09684
878.671	21.04713
879.068	7.01706
879.464	35.08494
879.86	18.04288
880.256	37.09164
880.652	45.11466
881.048	54.13387
881.444	54.1286
881.84	26.06642
882.236	40.10086
882.631	-36.08986
883.027	20.04876
883.422	32.08216
883.817	-11.02797
884.213	45.11567
884.608	9.02226
885.003	15.03644
885.398	-6.01518
885.793	32.08066
886.188	-8.02011
886.582	88.22442
886.977	16.03827
887.371	16.04075
887.766	-12.0302
888.16	49.12242
888.554	6.01497
888.949	55.13811
889.343	51.12469
889.737	-33.08919
890.131	46.11557
890.525	0
890.918	38.09592
891.312	16.03857
891.706	32.08427
892.099	42.10711
892.492	34.07371
892.886	-22.0546
893.279	-12.03093
893.672	31.07924
894.065	44.11039
894.458	20.05061
894.851	43.1056
895.244	-6.01548
895.637	29.07019
896.029	-15.03715
896.422	17.04183
896.814	5.01254
897.206	14.0336
897.599	84.20663
897.991	37.08976
898.383	-2.00478
898.775	11.02505
899.167	-1.00236
899.559	67.16921
899.951	53.12499
900.342	64.16247
900.734	-34.0857
901.125	45.11824
901.517	-4.00992
901.908	69.16499
902.299	4.00987
902.69	-20.04787
903.082	26.0633
903.473	-9.02181
903.863	44.11245
904.254	21.04906
904.645	61.15152
905.036	-4.00979
905.426	66.15076
905.817	68.16641
906.207	7.01683
906.597	-1.00236
906.987	46.11937
907.378	50.12652
907.768	-1.00267
908.158	-12.02962
908.547	4.01042
908.937	36.09265
909.327	36.08771
909.717	75.18968
910.106	7.01696
910.495	36.09016
910.885	61.15428
911.274	20.05029
911.663	43.10933
912.052	31.07681
912.441	15.0384
912.83	28.0646
913.219	87.22635
913.608	60.14678
913.997	5.01264
914.385	27.06483
914.774	58.14109
915.162	-27.06533
915.55	20.04869
915.939	-2.0051
916.327	31.07768
916.715	-7.01802
917.103	50.12313
917.491	95.23322
917.878	30.07407
918.266	-4.01047
918.654	40.10241
919.041	12.03154
919.429	6.01429
919.816	50.12679
920.203	31.07548
920.591	39.09695
920.978	47.11521
921.365	33.08686
921.752	18.0432
922.139	5.01097
922.525	-2.00485
922.912	14.03439
923.299	-2.00502
923.685	0
924.072	-1.00233
924.458	15.03741
924.844	1.0025
925.231	12.02815
925.617	-14.03602
926.003	49.12529
926.389	48.12116
926.774	38.09654
927.16	40.09956
927.546	18.04621
927.931	65.16181
928.317	-1.00233
928.702	56.13239
929.088	26.0618
929.473	35.08931
929.858	9.02193
930.243	18.04348
930.628	6.01472
931.013	38.09441
931.398	84.19196
931.783	46.12122
932.167	15.03692
932.552	56.14019
932.937	40.09949
933.321	-2.00507
933.705	20.0507
934.09	75.18874
934.474	29.06918
934.858	43.11169
935.242	16.03734
935.626	11.02835
936.009	32.08538
936.393	32.0817
936.777	8.02064
937.16	22.05752
937.544	66.15507
937.927	12.03066
938.311	46.1124
938.694	53.14011
939.077	25.06014
939.46	27.0666
939.843	66.13728
940.226	-1.00259
940.609	31.07146
940.991	31.07918
941.374	33.08092
941.757	21.05211
942.139	-11.02502
942.522	47.11118
942.904	68.16294
943.286	58.14719
943.668	25.06505
944.05	17.04214
944.432	50.12341
944.814	41.10117
945.196	-23.05682
945.578	4.00959
945.959	13.03069
946.341	28.06903
946.722	25.05898
947.104	56.13373
947.485	23.05382
947.866	-4.01018
948.247	45.11365
948.628	60.14612
949.009	40.10262
949.39	32.07994
949.771	55.12784
950.152	25.06165
950.532	-15.03734
950.913	5.01217
951.293	11.0299
951.674	21.05108
952.054	-4.01001
952.434	32.0797
952.814	31.07404
953.194	90.23396
953.574	69.16939
953.954	-2.0048
954.334	28.07007
954.714	-25.06178
955.093	72.17633
955.473	12.03021
955.853	30.07793
956.232	46.12616
956.611	37.08898
956.99	26.06563
957.37	45.11478
957.749	58.13818
958.128	28.07083
958.506	40.10395
958.885	49.12371
959.264	-3.00742
959.643	17.03895
960.021	30.07461
960.4	22.05015
960.778	46.11341
961.156	-7.01773
961.535	53.12348
961.913	13.03065
962.291	-16.04152
962.669	36.09142
963.047	37.09464
963.424	53.13519
963.802	18.04452
964.18	84.21127
964.557	65.14929
964.935	54.12786
965.312	17.04452
965.69	66.16481
966.067	30.07333
966.444	41.10121
966.821	50.12891
967.198	17.0415
967.575	58.14241
967.952	53.12484
968.329	36.08784
968.705	61.13052
969.082	14.03613
969.458	-20.04862
969.835	72.17456
970.211	42.10794
970.587	48.11956
970.963	45.11555
971.339	14.03678
971.715	42.10503
972.091	71.17417
972.467	60.14939
972.843	59.14618
973.219	30.07232
973.594	36.09439
973.97	89.21029
974.345	-15.03635
974.721	33.08017
975.096	30.07287
975.471	22.05248
975.846	50.12013
976.221	28.07138
976.596	-3.00726
976.971	23.05707
977.346	46.10719
977.72	41.10462
978.095	36.09326
978.469	2.00482
978.844	50.12571
979.218	25.06021
979.593	43.10317
979.967	48.11699
980.341	38.08771
980.715	44.11098
981.089	28.07037
981.463	12.02776
981.837	16.03934
982.21	48.11176
982.584	5.01218
982.957	5.01259
983.331	52.12289
983.704	39.09603
984.078	15.03721
984.451	65.16193
984.824	-23.05678
985.197	17.04155
985.57	28.0705
985.943	39.09652
986.316	71.17378
986.688	14.03399
987.061	29.06826
987.434	14.03671
987.806	28.06819
988.179	38.08987
988.551	57.14442
988.923	25.06185
989.295	64.15952
989.667	-49.11927
990.039	45.11129
990.411	6.01393
990.783	80.18311
991.155	-14.03404
991.527	83.20316
991.898	-12.03024
992.27	2.00499
992.641	59.14778
993.012	64.15019
993.384	28.06707
993.755	23.05892
994.126	43.10357
994.497	4.0099
994.868	42.09664
995.239	33.08023
995.61	19.04807
995.98	33.08041
996.351	-15.03759
996.722	-38.08967
997.092	-19.04559
997.462	-6.01417
997.833	-4.00958
998.203	41.09957
998.573	20.05007
998.943	35.08231
999.313	59.14113
999.683	-8.01941
1000.053	33.07619
1000.423	52.12631
1000.792	42.10899
1001.162	-18.04485
1001.531	14.03474
1001.901	14.03512
1002.27	29.06511
1002.639	34.08711
1003.009	29.06924
1003.378	43.11007
1003.747	2.00477
1004.116	-24.05823
1004.485	30.07197
1004.853	28.07121
1005.222	32.08095
1005.591	20.04776
1005.959	-16.03653
1006.328	-42.09629
1006.696	33.07984
1007.064	32.08075
1007.433	61.15213
1007.801	31.07636
1008.169	28.07098
1008.537	43.09535
1008.905	9.02113
1009.273	42.10389
1009.64	-4.00964
1010.008	32.07653
1010.375	59.14302
1010.743	78.17911
1011.11	-1.00239
1011.478	63.15552
1011.845	44.10358
1012.212	-14.0321
1012.579	4.0099
1012.946	38.09064
1013.313	79.18695
1013.68	26.05872
1014.047	32.0765
1014.414	7.01667
1014.78	25.06239
1015.147	30.07282
1015.513	22.05328
1015.88	78.19843
1016.246	67.16485
1016.612	50.11445
1016.978	47.11521
1017.344	30.0744
1017.71	33.08071
1018.076	22.05215
1018.442	35.09025
1018.808	49.12247
1019.174	13.03282
1019.539	73.16726
1019.905	-2.00476
1020.27	-1.00249
1020.636	58.13882
1021.001	53.12678
1021.366	28.0675
1021.731	47.1209
1022.096	21.05323
1022.461	5.01193
1022.826	45.10703
1023.191	32.08418
1023.556	1.00237
1023.92	48.11803
1024.285	42.10263
1024.649	4.00988
1025.014	53.13117
1025.378	-16.04069
1025.742	9.02251
1026.107	42.09513
1026.471	70.16273
1026.835	37.09191
1027.199	-20.04876
1027.562	76.1757
1027.926	18.04426
1028.29	32.08121
1028.654	36.08303
1029.017	52.12773
1029.381	24.0576
1029.744	33.08438
1030.107	1.00239
1030.471	24.05773
1030.834	67.15184
1031.197	39.09411
1031.56	35.08279
1031.923	24.0623
1032.286	48.11273
1032.648	17.0409
1033.011	44.10108
1033.374	42.09883
1033.736	-19.05052
1034.099	50.12182
1034.461	25.06341
1034.823	26.065
1035.185	51.1283
1035.548	15.03673
1035.91	40.09596
1036.272	27.06171
1036.634	10.02464
1036.995	27.06372
1037.357	-4.00983
1037.719	21.05132
1038.08	54.12806
1038.442	23.05485
1038.803	32.07706
1039.165	9.02287
1039.526	38.09199
1039.887	11.0265
1040.248	1.00248
1040.609	70.17226
1040.97	-4.00987
1041.331	14.03565
1041.692	-21.04968
1042.053	3.00689
1042.413	52.12108
1042.774	46.1119
1043.134	59.14016
1043.495	38.09568
1043.855	38.09234
1044.215	24.05982
1044.576	-3.00724
1044.936	31.07131
1045.296	35.08754
1045.656	31.0763
1046.016	20.04853
1046.375	-1.00245
1046.735	-7.01604
1047.095	22.05175
1047.454	27.05747
1047.814	40.09629
1048.173	69.16417
1048.533	-5.01158
1048.892	-19.04618
1049.251	53.1329
1049.61	23.05688
1049.969	0
1050.328	29.06313
1050.687	-3.00737
1051.046	7.01717
1051.405	38.09468
1051.763	-19.04427
1052.122	15.03763
1052.48	16.03946
1052.839	24.05672
1053.197	-13.03095
1053.555	30.06864
1053.914	59.14398
1054.272	55.13277
1054.63	-13.03214
1054.988	-24.05779
1055.345	8.01737
1055.703	7.01697
1056.061	42.10813
1056.419	8.02085
1056.776	12.02929
1057.134	25.05813
1057.491	36.09032
1057.848	37.09228
1058.206	40.0942
1058.563	-3.00668
1058.92	48.11062
1059.277	25.06192
1059.634	23.05437
1059.991	69.16461
1060.348	-4.00913
1060.704	-1.0024
1061.061	83.19147
1061.418	-12.02942
1061.774	2.00498
1062.131	14.03722
1062.487	35.08203
1062.843	39.09737
1063.199	17.0425
1063.555	18.04194
1063.911	49.12371
1064.267	36.07528
1064.623	-9.02209
1064.979	77.18137
1065.335	81.19235
1065.691	1.00242
1066.046	34.07497
1066.402	-27.06226
1066.757	48.12112
1067.112	36.08853
1067.468	-1.00238
1067.823	33.07954
1068.178	34.08243
1068.533	55.13312
1068.888	79.1876
1069.243	-11.02743
1069.598	15.03666
1069.952	-18.04107
1070.307	1.0025
1070.662	0
1071.016	-26.05913
1071.371	-1.0023
1071.725	31.07438
1072.079	12.02905
1072.434	-5.01227
1072.788	42.1001
1073.142	68.1666
1073.496	-38.09161
1073.85	19.0443
1074.203	18.0439
1074.557	16.04276
1074.911	70.16633
1075.265	35.08154
1075.618	38.09293
1075.971	48.11414
1076.325	5.0128
1076.678	40.09159
1077.031	-1.00228
1077.385	19.0421
1077.738	14.03181
1078.091	-13.02992
1078.444	56.12977
1078.796	38.09337
1079.149	35.08722
1079.502	1.00238
1079.855	0
1080.207	51.12553
1080.56	-8.02087
1080.912	35.08538
1081.264	15.03633
1081.617	5.01228
1081.969	42.10602
1082.321	26.06372
1082.673	-1.0023
1083.025	14.03342
1083.377	-188.4239
1083.728	49.11425
1084.08	18.04516
1084.432	17.04122
1084.783	14.03301
1085.135	1.00253
1085.486	35.08026
1085.838	18.04456
1086.189	23.05607
1086.54	44.10511
1086.891	21.05334
1087.242	15.03673
1087.593	28.0684
1087.944	11.02507
1088.295	16.03659
1088.646	8.01953
1088.996	-31.07577
1089.347	1.00247
1089.698	-30.07194
1090.048	18.04697
1090.398	35.08135
1090.749	27.06483
1091.099	-6.01523
1091.449	22.05504
1091.799	28.07032
1092.149	-27.06672
1092.499	4.00983
1092.849	-12.03081
1093.199	62.15493
1093.548	33.07948
1093.898	-6.01515
1094.248	48.12328
1094.597	-36.0932
1094.947	-2.00538
1095.296	43.10623
1095.645	30.07823
1095.994	10.02418
1096.343	21.05307
1096.692	1.00265
1097.041	12.03266
1097.39	25.06294
1097.739	25.0652
1098.088	68.18148
1098.437	-14.03714
1098.785	44.11863
1099.134	26.06925
1099.482	17.04696
1099.83	45.11824
1100.179	-10.02633
1100.527	14.03739
1100.875	-14.03738
1101.223	25.0666
1101.571	0
1101.919	-10.02637
1102.267	46.12947
1102.615	-6.01931
1102.962	4.01289
1103.31	-3.00965
1103.658	4.01289
