Data from N2 R7 sample 3_Subt2__1__15-24-53-584.txt Node

Date: Fri Aug 29 15:24:53 PDT 2025
User: uwsun
Spectrometer: HDX01956
Trigger mode: 0
Integration Time (sec): 5.000000E-1
Scans to average: 1
Nonlinearity correction enabled: true
Boxcar width: 0
Storing dark spectrum: false
XAxis mode: Wavelengths
Number of Pixels in Spectrum: 2068
>>>>>Begin Spectral Data<<<<<
194.03	62.17236
194.578	66.20702
195.127	37.11476
195.676	54.16764
196.225	113.2941
196.773	77.20852
197.321	112.29504
197.87	189.45139
198.418	154.36534
198.966	126.30238
199.513	79.18209
200.061	90.21055
200.609	139.3411
201.156	106.21202
201.704	98.22755
202.251	160.38747
202.798	118.28242
203.345	146.33202
203.892	131.30291
204.438	139.30514
204.985	111.23998
205.532	121.29286
206.078	162.36273
206.624	91.20598
207.17	123.2625
207.716	154.33999
208.262	161.28825
208.808	110.24722
209.354	121.26954
209.899	213.48977
210.445	128.29038
210.99	113.24932
211.535	184.39294
212.08	136.29006
212.625	159.36415
213.17	167.38692
213.715	68.13891
214.259	152.3239
214.804	138.31396
215.348	115.24255
215.892	150.32936
216.436	226.473
216.98	165.33378
217.524	150.32394
218.068	157.36274
218.612	162.37437
219.155	175.37494
219.698	122.2681
220.242	155.35627
220.785	96.20848
221.328	150.34416
221.871	173.40384
222.414	161.36947
222.956	63.14133
223.499	145.29978
224.041	137.29568
224.583	157.31294
225.126	116.23654
225.668	126.28259
226.21	110.25623
226.751	34.06965
227.293	143.30134
227.835	112.25285
228.376	140.29898
228.918	165.38365
229.459	79.18275
230	135.29586
230.541	134.28492
231.082	131.29254
231.622	118.25178
232.163	112.25047
232.704	122.27868
233.244	95.21854
233.784	139.31502
234.324	53.1079
234.864	96.20155
235.404	146.31963
235.944	118.25888
236.484	153.35125
237.023	54.11902
237.563	173.36296
238.102	134.29088
238.641	122.28462
239.18	112.24012
239.719	143.32961
240.258	134.2766
240.797	109.23989
241.335	157.3519
241.874	126.22087
242.412	162.35421
242.95	109.23858
243.488	123.25772
244.026	108.22844
244.564	104.19683
245.102	121.24848
245.64	182.39928
246.177	107.22062
246.715	100.22197
247.252	122.25749
247.789	198.33633
248.326	72.15909
248.863	94.18906
249.4	110.22961
249.936	165.30609
250.473	160.33754
251.009	55.11641
251.546	116.23331
252.082	133.26522
252.618	129.26096
253.154	117.2563
253.69	72.14949
254.226	110.24
254.761	188.37882
255.297	132.26182
255.832	116.2502
256.367	163.34681
256.903	147.29137
257.438	145.30945
257.972	127.25691
258.507	89.18565
259.042	136.26723
259.576	78.15269
260.111	135.28361
260.645	186.36047
261.179	111.23515
261.713	146.2923
262.247	144.30031
262.781	97.18435
263.315	156.34354
263.849	128.28991
264.382	159.32946
264.915	128.27015
265.449	112.2453
265.982	126.25985
266.515	162.35451
267.048	161.30374
267.58	161.31658
268.113	122.23689
268.646	125.27845
269.178	132.26415
269.71	162.31637
270.243	154.31574
270.775	166.37842
271.307	226.48284
271.838	170.36336
272.37	131.29036
272.902	135.27635
273.433	113.2224
273.965	141.30823
274.496	180.40054
275.027	137.30518
275.558	121.26395
276.089	106.23324
276.62	134.30794
277.15	149.3304
277.681	157.3042
278.211	134.29583
278.741	108.21251
279.272	165.33301
279.802	170.37829
280.332	168.35021
280.861	161.3445
281.391	167.33395
281.921	197.4197
282.45	155.34599
282.98	141.32914
283.509	158.31398
284.038	114.23183
284.567	165.3422
285.096	164.35084
285.625	95.19271
286.153	149.30805
286.682	112.22755
287.21	132.28141
287.739	157.32663
288.267	160.34021
288.795	175.4077
289.323	86.1784
289.851	190.38832
290.378	142.28007
290.906	149.31523
291.433	165.36115
291.961	162.31892
292.488	143.31352
293.015	133.27374
293.542	145.32126
294.069	144.30939
294.596	176.38074
295.122	113.23718
295.649	132.2546
296.175	194.40801
296.702	164.34704
297.228	212.44507
297.754	216.41341
298.28	152.29782
298.806	104.21873
299.332	133.25338
299.857	147.28578
300.383	217.47295
300.908	83.17521
301.433	163.33971
301.958	216.42563
302.483	132.28422
303.008	239.50187
303.533	166.3746
304.058	215.43114
304.582	116.23536
305.107	133.29872
305.631	248.47466
306.155	170.33451
306.679	186.36513
307.203	187.36475
307.727	151.30476
308.251	197.41112
308.775	111.22331
309.298	161.32315
309.822	175.37364
310.345	224.44015
310.868	184.36718
311.391	223.45752
311.914	218.45242
312.437	173.33023
312.96	204.39574
313.482	173.33985
314.005	183.3819
314.527	204.44339
315.049	223.466
315.571	177.31836
316.093	231.46558
316.615	221.43128
317.137	231.40101
317.659	209.41503
318.18	246.47927
318.702	235.43595
319.223	161.26439
319.744	219.38845
320.265	198.38245
320.786	165.32689
321.307	209.41406
321.828	206.36663
322.348	261.47622
322.869	201.36953
323.389	7.00909
323.909	248.43864
324.43	271.50851
324.95	200.35226
325.47	277.51567
325.989	244.43472
326.509	192.31679
327.029	211.35483
327.548	200.33458
328.067	203.36663
328.587	240.45023
329.106	241.40152
329.625	334.65846
330.144	193.32793
330.662	177.3009
331.181	223.37952
331.7	283.47203
332.218	197.3039
332.736	263.43673
333.255	238.39139
333.773	251.41842
334.291	386.66783
334.808	278.42018
335.326	265.40786
335.844	234.36791
336.361	284.48819
336.879	270.4174
337.396	233.37837
337.913	295.44013
338.43	284.4105
338.947	311.47755
339.464	240.32322
339.981	251.3822
340.497	354.55601
341.014	271.42203
341.53	264.36688
342.046	307.46946
342.562	292.46179
343.078	302.43354
343.594	329.47603
344.11	352.49903
344.626	317.48648
345.141	341.44766
345.657	329.43511
346.172	286.40953
346.687	290.3826
347.202	341.42328
347.717	350.47271
348.232	354.50824
348.747	421.51531
349.261	293.33402
349.776	360.45782
350.29	282.38409
350.805	437.5843
351.319	324.40401
351.833	377.42827
352.347	368.44699
352.861	377.44428
353.374	439.50527
353.888	337.42631
354.401	445.49223
354.915	379.39708
355.428	405.50103
355.941	406.44536
356.454	451.47113
356.967	371.42626
357.48	465.48935
357.993	465.5425
358.505	336.39694
359.018	419.47967
359.53	459.49202
360.042	499.46111
360.554	476.51415
361.066	406.44431
361.578	401.36137
362.09	431.4469
362.602	369.33309
363.113	460.43394
363.625	505.43303
364.136	465.38953
364.647	321.29287
365.158	510.44714
365.669	561.50565
366.18	537.46893
366.691	489.37741
367.201	431.3931
367.712	512.39422
368.222	513.39275
368.733	496.3242
369.243	460.3116
369.753	535.3872
370.263	620.45039
370.773	532.42504
371.282	505.35585
371.792	399.2396
372.301	485.32016
372.811	554.421
373.32	476.18737
373.829	419.22086
374.338	529.1972
374.847	585.20503
375.356	583.20392
375.865	554.07734
376.373	648.09839
376.882	745.20564
377.39	664.12214
377.898	523.06979
378.407	664.96127
378.915	736.89392
379.423	737.91175
379.93	803.825
380.438	725.82832
380.946	781.74571
381.453	736.73194
381.96	756.66868
382.468	728.62795
382.975	984.48346
383.482	1032.43051
383.989	955.48417
384.495	957.46781
385.002	931.52979
385.509	1060.48173
386.015	1111.66627
386.521	1170.66113
387.028	1150.81188
387.534	1215.00446
388.04	1415.02236
388.546	1150.3324
389.051	1105.69201
389.557	1207.16982
390.063	1950.80707
390.568	1860.29522
391.073	1474.18142
391.578	1757.41196
392.084	1471.501
392.589	1217.67432
393.093	1093.21285
393.598	1388.42058
394.103	1740.98958
394.607	2119.56419
395.112	2461.54778
395.616	2438.98257
396.12	2248.28067
396.624	2314.63857
397.128	2743.68037
397.632	3518.92514
398.136	3642.96951
398.639	2254.50764
399.143	1379.06736
399.646	2043.34882
400.15	1958.21757
400.653	1261.53714
401.156	676.14611
401.659	130.68728
402.162	76.48717
402.664	0
403.167	0
403.67	0
404.172	0
404.674	0
405.176	0
405.678	0
406.18	0
406.682	0
407.184	0
407.686	0
408.187	0
408.688	0
409.19	0
409.691	0
410.192	0
410.693	0
411.194	435.30976
411.694	4082.94878
412.195	8864.71461
412.696	12089.80453
413.196	12760.96929
413.696	12760.11564
414.196	13471.9354
414.696	17039.42881
415.196	20342.27956
415.696	22740.96956
416.196	19366.89721
416.695	12457.2939
417.195	8402.17515
417.694	7810.26309
418.194	7781.71207
418.693	6568.45466
419.192	6256.74118
419.691	6267.57169
420.19	6410.37952
420.688	6854.62667
421.187	6539.1515
421.685	6396.58495
422.184	6067.58468
422.682	5138.92597
423.18	3978.37594
423.678	3141.33586
424.176	2860.64727
424.674	2619.0092
425.172	2839.70271
425.669	2800.81586
426.167	2716.62307
426.664	2270.37252
427.161	2147.7809
427.659	1934.29892
428.156	1668.34798
428.652	1570.16942
429.149	1476.20454
429.646	1402.23797
430.143	1398.26979
430.639	1288.3583
431.135	1164.50841
431.632	1122.53394
432.128	1025.67773
432.624	802.85261
433.12	698.80933
433.616	731.80992
434.111	547.92353
434.607	600.9594
435.103	725.90656
435.598	739.92081
436.093	677.07714
436.588	678.09276
437.083	631.13735
437.578	641.1859
438.073	331.16575
438.568	520.27623
439.062	435.16362
439.557	459.26574
440.051	390.21376
440.546	341.20052
441.04	355.24759
441.534	384.31667
442.028	342.269
442.522	273.22267
443.015	317.21361
443.509	359.31312
444.002	276.2512
444.496	278.20616
444.989	236.22752
445.482	243.24213
445.975	181.15287
446.468	306.22648
446.961	170.13662
447.454	206.1854
447.947	121.12094
448.439	139.15111
448.931	125.1173
449.424	213.2461
449.916	197.21503
450.408	168.16123
450.9	148.16414
451.392	49.06114
451.884	101.10954
452.375	55.06728
452.867	148.15957
453.358	56.06071
453.849	78.07727
454.341	53.05875
454.832	102.1038
455.323	91.11347
455.814	183.20683
456.304	51.06127
456.795	68.08089
457.285	150.17219
457.776	150.18159
458.266	34.04412
458.756	106.14019
459.247	38.04992
459.737	2.00268
460.226	38.04693
460.716	92.12339
461.206	15.02112
461.695	4.00609
462.185	12.01683
462.674	48.06532
463.163	11.01446
463.653	-21.02609
464.142	-10.01488
464.63	22.03375
465.119	14.01985
465.608	-3.0043
466.096	-36.04963
466.585	44.06458
467.073	17.02653
467.561	-6.00952
468.05	2.00306
468.538	57.09266
469.026	-4.00642
469.513	-18.02477
470.001	-31.04714
470.489	-3.00479
470.976	10.01567
471.463	29.05015
471.951	-18.03205
472.438	-48.07933
472.925	-114.19091
473.412	5.00885
473.899	-21.03458
474.385	-62.11229
474.872	-71.12076
475.359	-88.15995
475.845	-103.15626
476.331	-43.06919
476.817	-72.1334
477.303	-52.09072
477.789	-39.07116
478.275	-140.27067
478.761	-40.07392
479.247	-63.10872
479.732	-133.26029
480.218	-98.20229
480.703	-84.16482
481.188	-81.13509
481.673	-64.11479
482.158	-123.20379
482.643	-71.146
483.128	-113.20534
483.612	-50.09296
484.097	-65.12914
484.581	-56.10515
485.066	-91.17986
485.55	-96.16979
486.034	-128.22603
486.518	-111.21291
487.002	-133.2688
487.486	-116.23471
487.969	-108.21852
488.453	-95.20099
488.936	-127.23901
489.42	-110.2038
489.903	-96.20475
490.386	-126.17203
490.869	-63.11483
491.352	-73.15214
491.835	-120.21102
492.318	-135.25957
492.8	-113.19845
493.283	-128.27928
493.765	-166.35404
494.247	-124.25193
494.73	-135.25769
495.212	-100.21013
495.694	-190.38797
496.175	-174.35772
496.657	-80.16387
497.139	-130.19835
497.62	-194.40297
498.102	-140.30339
498.583	-133.2932
499.064	-185.36291
499.545	-152.30544
500.026	-140.27496
500.507	-171.35226
500.988	-126.27619
501.469	-181.40252
501.949	-141.30992
502.43	-210.44496
502.91	-195.3594
503.39	-172.38703
503.87	-187.39216
504.35	-113.23708
504.83	-142.27546
505.31	-201.43808
505.79	-182.38968
506.269	-161.33808
506.749	-189.38741
507.228	-205.4337
507.707	-145.2866
508.187	-152.32742
508.666	-191.42246
509.145	-194.4089
509.623	-241.51745
510.102	-181.39717
510.581	-136.29635
511.059	-179.40451
511.538	-157.36808
512.016	-134.28803
512.494	-155.34098
512.972	-154.33216
513.45	-220.46228
513.928	-223.49468
514.406	-236.51708
514.884	-196.45941
515.361	-195.42627
515.839	-215.44888
516.316	-197.43319
516.793	-179.41489
517.27	-146.3226
517.747	-213.5015
518.224	-167.35331
518.701	-173.35237
519.178	-214.48587
519.654	-171.37396
520.131	-216.49279
520.607	-175.39918
521.083	-224.47379
521.56	-199.43317
522.036	-209.4257
522.512	-160.36298
522.987	-229.50185
523.463	-223.49159
523.939	-183.41439
524.414	-174.37126
524.89	-186.40754
525.365	-185.38659
525.84	-222.48662
526.315	-215.48011
526.79	-172.35775
527.265	-168.35301
527.74	-220.49848
528.215	-227.49936
528.689	-198.40669
529.164	-210.42647
529.638	-177.42128
530.112	-227.49831
530.587	-241.48104
531.061	-217.48618
531.534	-162.36348
532.008	-245.55162
532.482	-199.42672
532.956	-233.55327
533.429	-164.36767
533.903	-185.38213
534.376	-203.4195
534.849	-178.38375
535.322	-208.4592
535.795	-208.4755
536.268	-236.53277
536.741	-199.44714
537.213	-185.39927
537.686	-238.54364
538.158	-235.49369
538.631	-216.49419
539.103	-273.57958
539.575	-134.25895
540.047	-163.33336
540.519	-149.33067
540.991	-173.39525
541.463	-216.4914
541.934	-173.36873
542.406	-227.50795
542.877	-200.42303
543.348	-174.39217
543.82	-116.26252
544.291	-176.38449
544.762	-218.48409
545.233	-212.49633
545.703	-215.44549
546.174	-167.36058
546.645	-234.52113
547.115	-175.39031
547.585	-191.40922
548.056	-219.48904
548.526	-169.36459
548.996	-180.40038
549.466	-98.21817
549.935	-187.40584
550.405	-147.29341
550.875	-197.42918
551.344	-130.28364
551.814	-152.31911
552.283	-91.17893
552.752	-175.37056
553.221	-156.30667
553.69	-101.20122
554.159	-152.33656
554.628	-196.39894
555.096	-111.25207
555.565	-182.37112
556.033	-151.32575
556.502	-99.21751
556.97	-114.23109
557.438	-143.31273
557.906	-82.17831
558.374	-111.23515
558.842	-141.31292
559.31	-131.27339
559.777	-185.41858
560.245	-124.27227
560.712	-111.23967
561.18	-116.23848
561.647	-131.27411
562.114	-135.28761
562.581	-27.06102
563.048	-50.10659
563.514	-84.19057
563.981	-54.11447
564.448	-49.10162
564.914	-17.03642
565.381	-6.01256
565.847	-26.0562
566.313	50.10567
566.779	73.14862
567.245	30.06396
567.711	47.10209
568.176	40.08138
568.642	67.15135
569.108	109.23948
569.573	158.33083
570.038	155.28869
570.504	119.23697
570.969	188.41487
571.434	130.25218
571.899	244.50298
572.363	304.59058
572.828	341.66262
573.293	307.60053
573.757	356.68896
574.222	323.60789
574.686	348.65317
575.15	446.87307
575.614	439.82908
576.078	454.87486
576.542	470.87611
577.006	491.8987
577.469	575.1497
577.933	444.81286
578.396	531.02231
578.86	458.88978
579.323	464.90745
579.786	489.85579
580.249	467.86901
580.712	552.09215
581.175	451.92151
581.637	490.92745
582.1	492.8835
582.563	552.95417
583.025	429.86504
583.487	421.69882
583.95	454.79682
584.412	423.73674
584.874	474.9494
585.336	427.8428
585.797	394.71147
586.259	437.86132
586.721	349.69434
587.182	430.84454
587.643	356.68666
588.105	357.7182
588.566	341.61055
589.027	280.58082
589.488	327.63784
589.949	340.70465
590.41	255.42696
590.87	324.63574
591.331	324.59973
591.791	272.54254
592.252	280.5507
592.712	256.53626
593.172	252.49329
593.632	357.66627
594.092	298.57229
594.552	313.57719
595.011	248.49397
595.471	272.5274
595.931	291.55898
596.39	253.52657
596.849	314.62748
597.308	344.63675
597.768	249.55189
598.227	437.88157
598.685	408.79112
599.144	384.75882
599.603	420.83541
600.062	415.72318
600.52	476.87146
600.978	447.88393
601.437	505.95001
601.895	510.87825
602.353	561.00411
602.811	568.01223
603.269	600.15293
603.727	657.24477
604.184	666.17137
604.642	754.43134
605.099	742.32855
605.557	841.5569
606.014	812.30265
606.471	867.62508
606.928	894.38441
607.385	1011.76287
607.842	1098.74961
608.299	1141.84691
608.755	1166.94742
609.212	1195.78172
609.668	1239.80345
610.125	1342.15194
610.581	1382.17172
611.037	1400.08099
611.493	1383.15775
611.949	1328.13533
612.405	1437.75242
612.861	1536.2936
613.316	1491.27698
613.772	1568.22915
614.227	1481.23639
614.683	1591.05632
615.138	1532.25754
615.593	1509.22258
616.048	1572.24327
616.503	1593.49431
616.958	1528.48569
617.412	1625.38549
617.867	1526.09321
618.321	1566.96214
618.776	1580.16145
619.23	1509.28181
619.684	1467.14828
620.138	1634.37351
620.592	1412.30964
621.046	1501.30315
621.5	1455.36013
621.954	1464.16014
622.407	1385.06033
622.861	1389.30507
623.314	1419.15837
623.768	1349.15168
624.221	1318.71366
624.674	1298.07738
625.127	1272.09535
625.58	1207.97619
626.033	1292.98835
626.485	1178.05008
626.938	1179.04914
627.39	1100.90096
627.843	1119.91603
628.295	1090.88163
628.747	1038.87904
629.199	1071.82573
629.651	983.7139
630.103	1004.7612
630.555	984.58684
631.006	954.75117
631.458	896.67995
631.909	950.71763
632.361	946.7382
632.812	880.62316
633.263	896.52696
633.714	858.46987
634.165	886.7379
634.616	818.59529
635.067	880.57059
635.518	819.60895
635.968	850.36614
636.419	853.49997
636.869	778.54301
637.319	755.45657
637.769	730.36618
638.219	736.48746
638.669	678.38136
639.119	746.54005
639.569	736.50241
640.019	749.45949
640.468	682.29947
640.918	712.4665
641.367	625.21462
641.816	701.33476
642.265	685.35864
642.714	657.31273
643.163	686.35334
643.612	617.29024
644.061	670.20923
644.51	651.28148
644.958	680.27933
645.406	642.33637
645.855	679.44324
646.303	670.35762
646.751	600.19561
647.199	684.33928
647.647	648.29502
648.095	643.28174
648.543	685.20204
648.99	578.22271
649.438	683.39314
649.885	618.35018
650.333	658.09454
650.78	575.23413
651.227	623.33442
651.674	609.22061
652.121	568.23296
652.568	552.19919
653.015	639.42813
653.461	536.14363
653.908	567.17821
654.354	562.20126
654.801	524.10541
655.247	514.01778
655.693	511.21097
656.139	480.04873
656.585	513.11458
657.031	515.08235
657.477	445.8808
657.922	505.05243
658.368	568.26015
658.813	494.0484
659.259	469.03005
659.704	475.01085
660.149	470.00214
660.594	455.99494
661.039	476.99309
661.484	448.99059
661.929	449.97021
662.373	393.92663
662.818	427.98446
663.262	431.96235
663.707	448.05022
664.151	423.9628
664.595	390.88107
665.039	442.02037
665.483	417.99158
665.927	462.00465
666.371	347.75785
666.814	401.89834
667.258	394.87231
667.701	443.88916
668.145	434.00663
668.588	450.02485
669.031	398.87639
669.474	414.93375
669.917	408.84783
670.36	424.98396
670.803	521.15262
671.245	407.80446
671.688	455.03188
672.13	402.84542
672.573	446.05691
673.015	436.97854
673.457	417.8505
673.899	493.10282
674.341	424.95942
674.783	412.92734
675.225	396.91828
675.666	413.93092
676.108	404.82605
676.549	408.91082
676.991	424.87637
677.432	438.8124
677.873	430.93293
678.314	429.96105
678.755	388.89297
679.196	410.88349
679.637	424.97501
680.078	418.92157
680.518	429.94047
680.959	385.87385
681.399	405.94787
681.839	418.95815
682.28	416.96617
682.72	387.83841
683.16	396.93243
683.6	439.93967
684.039	376.74405
684.479	316.74498
684.919	367.80288
685.358	440.04708
685.798	417.02874
686.237	400.91617
686.676	425.92975
687.115	419.92784
687.554	395.88818
687.993	402.84095
688.432	454.96988
688.871	397.85162
689.309	437.97977
689.748	412.813
690.186	439.98587
690.625	383.85202
691.063	410.92851
691.501	424.98824
691.939	370.87834
692.377	407.93836
692.815	390.88394
693.253	411.93474
693.69	429.8861
694.128	364.84009
694.565	417.93879
695.003	413.99074
695.44	405.89983
695.877	372.82636
696.314	417.84625
696.751	439.9417
697.188	449.96564
697.625	470.00691
698.061	392.89172
698.498	388.89261
698.934	419.95254
699.371	356.80001
699.807	410.9168
700.243	373.85451
700.679	401.8602
701.115	396.8855
701.551	379.84977
701.987	438.92598
702.422	356.80755
702.858	390.88179
703.294	366.79139
703.729	410.94923
704.164	434.98284
704.599	388.82029
705.035	339.72691
705.47	369.85484
705.904	374.82907
706.339	416.91525
706.774	373.83185
707.209	385.84261
707.643	411.93323
708.078	323.75659
708.512	301.72625
708.946	412.93417
709.38	365.82544
709.814	408.8822
710.248	350.81678
710.682	347.78986
711.116	331.75679
711.549	356.87881
711.983	305.6805
712.416	386.86777
712.85	362.862
713.283	389.87397
713.716	386.923
714.149	349.7973
714.582	353.7579
715.015	390.92865
715.448	383.9188
715.881	351.73574
716.313	359.80328
716.746	271.61988
717.178	325.75114
717.61	383.92439
718.043	361.85978
718.475	362.8378
718.907	396.95268
719.339	316.68914
719.77	342.7758
720.202	314.76519
720.634	305.71556
721.065	342.77675
721.497	355.83186
721.928	345.81064
722.359	259.60718
722.79	318.73219
723.221	349.8414
723.652	413.00728
724.083	295.64321
724.514	347.76298
724.945	324.73199
725.375	297.66512
725.806	323.77638
726.236	369.90236
726.666	307.70136
727.096	322.7603
727.526	310.75882
727.956	272.60023
728.386	342.8072
728.816	307.74883
729.246	343.79746
729.675	322.76148
730.105	335.79144
730.534	332.74548
730.964	373.89924
731.393	326.77957
731.822	337.82597
732.251	337.82045
732.68	346.78105
733.109	337.79617
733.537	283.66188
733.966	384.90594
734.395	332.73537
734.823	344.74319
735.251	318.73686
735.68	356.85292
736.108	355.85877
736.536	337.76213
736.964	255.57648
737.392	315.75916
737.82	305.70633
738.247	307.70927
738.675	358.81736
739.102	317.76167
739.53	285.70217
739.957	287.71437
740.384	346.8179
740.811	367.88746
741.238	303.71336
741.665	308.68762
742.092	353.80578
742.519	287.68672
742.945	269.62717
743.372	293.70108
743.798	305.75641
744.225	292.67099
744.651	268.65311
745.077	256.62131
745.503	320.75089
745.929	269.62667
746.355	371.87986
746.781	323.7693
747.207	237.54255
747.632	235.5591
748.058	301.72488
748.483	268.59932
748.908	286.68759
749.334	236.56633
749.759	241.55459
750.184	228.53106
750.609	296.70271
751.033	308.70209
751.458	237.52004
751.883	243.58766
752.307	191.44305
752.732	198.48578
753.156	259.62186
753.58	249.57666
754.005	239.59232
754.429	199.46014
754.853	202.49156
755.277	209.48576
755.7	238.57633
756.124	196.47821
756.548	197.45932
756.971	228.54463
757.394	241.60556
757.818	215.54198
758.241	199.49608
758.664	142.35599
759.087	187.41137
759.51	225.54783
759.933	194.45917
760.356	182.45987
760.778	195.47159
761.201	176.423
761.623	202.48198
762.046	221.51405
762.468	234.54954
762.89	168.4102
763.312	183.44074
763.734	130.31174
764.156	158.38636
764.578	194.43975
765	180.43327
765.421	138.34771
765.843	163.42233
766.264	150.35983
766.686	158.39296
767.107	125.30186
767.528	109.27439
767.949	132.33366
768.37	133.32469
768.791	168.40193
769.212	110.27547
769.632	126.29245
770.053	154.40114
770.473	149.3594
770.894	150.37238
771.314	155.36722
771.734	139.32205
772.154	148.3765
772.575	134.3093
772.994	110.24985
773.414	147.35042
773.834	110.27438
774.254	111.27118
774.673	138.33394
775.093	123.30285
775.512	94.23166
775.931	109.27557
776.351	108.26753
776.77	85.20821
777.189	84.20051
777.607	79.20215
778.026	101.25124
778.445	100.24971
778.864	95.24351
779.282	78.1884
779.701	61.15461
780.119	60.15237
780.537	68.17036
780.955	123.31119
781.373	58.14436
781.791	59.13371
782.209	100.23064
782.627	56.14817
783.045	102.2345
783.462	66.16921
783.88	73.18915
784.297	51.12912
784.715	64.16483
785.132	54.13166
785.549	81.20281
785.966	60.15161
786.383	70.17277
786.8	108.25028
787.217	69.1643
787.633	49.12304
788.05	153.35954
788.466	100.23568
788.883	50.12819
789.299	52.12612
789.715	76.18516
790.131	77.19175
790.547	63.15797
790.963	78.19385
791.379	59.14975
791.795	62.14243
792.21	80.18745
792.626	46.11006
793.041	81.20003
793.457	82.20276
793.872	33.07843
794.287	-2.00485
794.702	62.15342
795.117	26.06523
795.532	26.06577
795.947	76.18336
796.362	80.1914
796.776	114.26596
797.191	48.11825
797.605	7.01667
798.02	18.04433
798.434	58.13008
798.848	19.04732
799.262	35.08751
799.676	86.20976
800.09	50.12372
800.504	65.15827
800.918	18.04226
801.331	91.23798
801.745	51.11798
802.158	36.09068
802.572	57.13895
802.985	71.17204
803.398	24.05788
803.811	99.25359
804.224	69.17208
804.637	41.09841
805.05	13.03056
805.462	55.13577
805.875	39.10164
806.288	35.0851
806.7	0
807.112	43.1005
807.525	67.1657
807.937	28.06982
808.349	22.05565
808.761	44.10892
809.173	56.13628
809.584	58.14389
809.996	19.04701
810.408	28.07279
810.819	25.05941
811.231	-7.01833
811.642	-15.03637
812.053	67.1596
812.464	112.26448
812.875	106.26928
813.286	95.24351
813.697	127.29437
814.108	44.10816
814.519	84.18716
814.929	68.1736
815.34	39.09525
815.75	11.02825
816.16	34.08536
816.571	36.09407
816.981	55.13046
817.391	-6.01471
817.801	13.03263
818.211	74.17651
818.62	35.08487
819.03	61.14986
819.44	45.11804
819.849	24.06099
820.259	46.11826
820.668	-3.00748
821.077	40.09988
821.486	21.0511
821.895	17.04244
822.304	29.07733
822.713	21.05016
823.122	16.04033
823.531	32.07647
823.939	6.0148
824.348	36.08813
824.756	36.09074
825.164	13.03305
825.573	25.06323
825.981	42.10473
826.389	51.12857
826.797	23.05809
827.205	13.03019
827.612	36.08941
828.02	-3.00715
828.428	18.04624
828.835	7.0186
829.243	37.08878
829.65	-36.0912
830.057	20.049
830.464	33.08095
830.871	52.12498
831.278	7.01712
831.685	28.06308
832.092	13.03216
832.499	-9.02003
832.905	33.08406
833.312	69.15752
833.718	59.14725
834.124	53.12158
834.531	27.06855
834.937	24.06205
835.343	-5.01223
835.749	55.1289
836.155	16.04223
836.561	23.05703
836.966	43.10564
837.372	53.13519
837.777	14.0352
838.183	9.02027
838.588	0
838.993	57.13905
839.399	-18.04469
839.804	9.02216
840.209	-17.04388
840.613	-11.02488
841.018	61.15455
841.423	51.13109
841.828	27.06872
842.232	79.19523
842.637	57.13473
843.041	-25.06505
843.445	39.09825
843.849	24.05984
844.253	41.09793
844.657	22.05579
845.061	10.02295
845.465	49.11869
845.869	55.12809
846.272	-20.04945
846.676	29.07061
847.079	24.06142
847.483	50.12504
847.886	60.14612
848.289	19.05104
848.692	59.14948
849.095	44.10608
849.498	110.27647
849.901	15.03475
850.304	39.09365
850.707	34.08711
851.109	61.15439
851.512	27.06677
851.914	-33.08453
852.316	22.05603
852.718	-31.08126
853.121	8.0198
853.523	46.10787
853.925	2.00527
854.326	9.02271
854.728	-14.03646
855.13	-16.04179
855.531	6.01449
855.933	46.11077
856.334	-22.05565
856.736	10.02264
857.137	26.06087
857.538	-8.02035
857.939	7.01746
858.34	4.00985
858.741	25.06571
859.142	19.046
859.542	21.05574
859.943	39.09726
860.343	-23.0578
860.744	25.0614
861.144	28.0687
861.544	-30.07331
861.945	7.018
862.345	27.06643
862.745	8.02006
863.145	76.18114
863.544	52.13154
863.944	46.10896
864.344	21.05252
864.743	69.17089
865.143	18.04655
865.542	15.0351
865.941	21.05233
866.34	37.08901
866.74	14.03783
867.139	34.08178
867.537	12.03082
867.936	-3.0073
868.335	8.02053
868.734	-18.0466
869.132	25.05847
869.531	44.10672
869.929	4.00922
870.327	61.14614
870.726	72.17907
871.124	66.15404
871.522	5.01285
871.92	43.10634
872.318	0
872.715	50.12395
873.113	5.0123
873.511	35.08754
873.908	-26.06659
874.306	13.03259
874.703	48.12029
875.1	66.16856
875.497	-12.02915
875.894	-17.04221
876.291	19.04695
876.688	-5.01303
877.085	-1.00243
877.482	35.08795
877.878	27.06535
878.275	15.03838
878.671	72.15989
879.068	54.13043
879.464	33.08011
879.86	1.00239
880.256	38.0941
880.652	17.04353
881.048	19.0474
881.444	23.0551
881.84	25.06388
882.236	20.05061
882.631	37.09114
883.027	74.1786
883.422	29.07449
883.817	-20.05093
884.213	45.11567
884.608	-17.04224
885.003	41.09912
885.398	-22.05583
885.793	-4.01015
886.188	-15.03776
886.582	48.12328
886.977	38.0905
887.371	37.09388
887.766	-17.04283
888.16	60.14961
888.554	27.06712
888.949	37.09321
889.343	71.17294
889.737	-47.12732
890.131	3.0076
890.525	11.02834
890.918	21.05317
891.312	25.06017
891.706	15.03961
892.099	34.08683
892.492	17.03699
892.886	17.04189
893.279	3.00771
893.672	-11.02832
894.065	48.12034
894.458	5.01269
894.851	59.14447
895.244	5.01288
895.637	21.0509
896.029	-5.01236
896.422	20.04918
896.814	20.05003
897.206	-16.03862
897.599	55.13602
897.991	-4.00978
898.383	10.02383
898.775	-13.02975
899.167	-39.09261
899.559	32.08132
899.951	21.04983
900.342	37.09438
900.734	-4.01003
901.125	33.08689
901.517	51.12525
901.908	63.15082
902.299	14.03448
902.69	9.02142
903.082	44.10676
903.473	11.02655
903.863	42.10738
904.254	-2.00469
904.645	53.13184
905.036	-21.05155
905.426	27.06216
905.817	47.11547
906.207	-37.08969
906.597	-27.06414
906.987	26.0677
907.378	-1.00255
907.768	10.02663
908.158	30.07347
908.547	-4.01043
908.937	73.18666
909.327	21.05131
909.717	49.1245
910.106	36.08676
910.495	58.14467
910.885	74.18672
911.274	61.15224
911.663	29.07392
912.052	46.11366
912.441	6.01538
912.83	21.04852
913.219	56.14647
913.608	46.11282
913.997	42.10549
914.385	34.08153
914.774	25.06119
915.162	-6.01446
915.55	53.12823
915.939	9.02289
916.327	0
916.715	0
917.103	82.20075
917.491	46.11395
917.878	34.08388
918.266	7.01829
918.654	31.07949
919.041	20.05249
919.429	0
919.816	73.18436
920.203	11.02688
920.591	19.0474
920.978	40.09818
921.365	17.04487
921.752	29.06945
922.139	63.1365
922.525	-15.03648
922.912	43.10505
923.299	15.03753
923.685	31.08115
924.072	39.09018
924.458	9.02247
924.844	-7.01751
925.231	44.10257
925.617	-2.00513
926.003	51.13036
926.389	5.01272
926.774	18.04589
927.16	63.15615
927.546	33.0845
927.931	14.03517
928.317	68.15615
928.702	70.16504
929.088	1.00239
929.473	20.05117
929.858	-32.07857
930.243	0
930.628	-7.01722
931.013	-20.05021
931.398	55.12642
931.783	34.08978
932.167	-15.03712
932.552	45.11288
932.937	21.05241
933.321	-4.01014
933.705	24.0608
934.09	78.19618
934.474	22.05256
934.858	48.12456
935.242	4.00936
935.626	17.04377
936.009	8.02143
936.393	13.0333
936.777	39.10007
937.16	3.00787
937.544	13.03086
937.927	18.04594
938.311	59.14382
938.694	35.09281
939.077	8.01931
939.46	71.17372
939.843	24.05039
940.226	9.02326
940.609	40.09203
940.991	15.03842
941.374	-14.03463
941.757	52.12829
942.139	4.00907
942.522	47.11118
942.904	40.09636
943.286	53.13462
943.668	13.03389
944.05	21.05201
944.432	53.13074
944.814	36.08892
945.196	-41.10162
945.578	16.03828
945.959	38.08928
946.341	45.1106
946.722	68.15908
947.104	34.08153
947.485	22.05149
947.866	8.02031
948.247	-9.02295
948.628	9.02213
949.009	-2.00517
949.39	36.08986
949.771	43.10018
950.152	26.0641
950.532	-17.04234
950.913	50.12063
951.293	1.00272
951.674	20.04865
952.054	4.01
952.434	52.12905
952.814	18.0431
953.194	43.11268
953.574	67.16454
953.954	-6.0144
954.334	37.09244
954.714	8.01965
955.093	44.10832
955.473	6.01512
955.853	1.00261
956.232	36.09889
956.611	28.06745
956.99	-19.04834
957.37	43.10972
957.749	36.08613
958.128	29.07335
958.506	-24.06305
958.885	42.10617
959.264	17.04192
959.643	28.06401
960.021	36.08944
960.4	4.00915
960.778	46.11341
961.156	21.05292
961.535	9.02115
961.913	35.08215
962.291	-2.00518
962.669	2.00511
963.047	24.06153
963.424	21.05387
963.802	35.0863
964.18	44.11146
964.557	82.18769
964.935	19.04529
965.312	29.07579
965.69	22.05537
966.067	45.1097
966.444	38.09386
966.821	53.13657
967.198	47.1141
967.575	75.18357
967.952	19.04505
968.329	38.09268
968.705	50.10724
969.082	26.06696
969.458	-29.07061
969.835	51.12414
970.211	24.06187
970.587	26.06502
970.963	36.09259
971.339	3.0079
971.715	61.15202
972.091	7.01738
972.467	47.1173
972.843	27.06729
973.219	44.10579
973.594	0
973.97	67.15898
974.345	20.04814
974.721	51.12349
975.096	33.08011
975.471	31.07381
975.846	50.12013
976.221	12.03068
976.596	-12.0291
976.971	40.09894
977.346	39.09101
977.72	52.13243
978.095	19.04937
978.469	26.06235
978.844	59.1481
979.218	-4.00969
979.593	39.09365
979.967	6.01474
980.341	-7.0163
980.715	17.04309
981.089	47.11772
981.463	2.00464
981.837	48.11734
982.21	83.19192
982.584	36.08718
982.957	-2.00504
983.331	42.09945
983.704	16.03956
984.078	14.03473
984.451	84.20854
984.824	-20.04934
985.197	29.07072
985.57	36.09051
985.943	54.13328
986.316	45.11068
986.688	66.15869
987.061	52.12184
987.434	38.09922
987.806	8.01956
988.179	-3.00715
988.551	72.18194
988.923	53.13045
989.295	76.18902
989.667	-26.06301
990.039	4.00997
990.411	34.07851
990.783	24.05555
991.155	-16.03892
991.527	53.13045
991.898	25.06257
992.27	12.02989
992.641	96.23885
993.012	21.0497
993.384	37.08847
993.755	29.07421
994.126	32.07723
994.497	-7.01736
994.868	4.00927
995.239	34.08265
995.61	24.06067
995.98	23.05615
996.351	-17.04261
996.722	11.02571
997.092	19.04526
997.462	-15.03548
997.833	63.14897
998.203	35.0851
998.573	19.04757
998.943	29.06828
999.313	22.053
999.683	11.02659
1000.053	49.11276
1000.423	43.10462
1000.792	36.09352
1001.162	12.02974
1001.531	66.16224
1001.901	15.03763
1002.27	-4.00904
1002.639	30.07691
1003.009	25.05973
1003.378	12.03088
1003.747	27.06407
1004.116	-7.01693
1004.485	27.06481
1004.853	33.08385
1005.222	41.10355
1005.591	56.1328
1005.959	0
1006.328	21.04754
1006.696	37.08945
1007.064	81.20259
1007.433	36.09019
1007.801	28.06901
1008.169	57.14375
1008.537	21.04678
1008.905	13.0305
1009.273	17.04224
1009.64	5.01203
1010.008	8.01922
1010.375	71.17172
1010.743	82.18814
1011.11	9.02146
1011.478	39.0967
1011.845	42.09891
1012.212	15.03419
1012.579	30.07391
1012.946	48.11427
1013.313	45.10719
1013.68	50.11237
1014.047	-18.04344
1014.414	35.08289
1014.78	31.07728
1015.147	29.0704
1015.513	28.06773
1015.88	56.14302
1016.246	24.05952
1016.612	48.10991
1016.978	15.03699
1017.344	56.13821
1017.71	45.10982
1018.076	19.04507
1018.442	59.1515
1018.808	21.05275
1019.174	15.03786
1019.539	84.19204
1019.905	0
1020.27	15.03725
1020.636	56.13408
1021.001	27.06491
1021.366	-24.05843
1021.731	9.0233
1022.096	3.00763
1022.461	42.09953
1022.826	18.04303
1023.191	26.06847
1023.556	11.02597
1023.92	51.12534
1024.285	4.00984
1024.649	17.0419
1025.014	63.15563
1025.378	16.04046
1025.742	53.13151
1026.107	37.08389
1026.471	87.20157
1026.835	1.0025
1027.199	-8.01946
1027.562	8.01874
1027.926	16.03936
1028.29	28.07111
1028.654	28.06468
1029.017	24.05926
1029.381	-4.00965
1029.744	13.03336
1030.107	32.07595
1030.471	22.05294
1030.834	30.0685
1031.197	37.08932
1031.56	33.07809
1031.923	23.05972
1032.286	48.11273
1032.648	23.05527
1033.011	-1.00232
1033.374	48.11282
1033.736	-29.07723
1034.099	-1.00246
1034.461	-29.07426
1034.823	15.03757
1035.185	35.0883
1035.548	10.02451
1035.91	18.04336
1036.272	10.02294
1036.634	40.098
1036.995	-5.01187
1037.357	-3.00737
1037.719	30.0732
1038.08	16.03822
1038.442	-7.01679
1038.803	43.10333
1039.165	6.01525
1039.526	-7.01709
1039.887	38.09109
1040.248	-6.01493
1040.609	56.13816
1040.97	26.06379
1041.331	36.09132
1041.692	25.05861
1042.053	28.06401
1042.413	60.13949
1042.774	47.11431
1043.134	34.08116
1043.495	47.11815
1043.855	33.08026
1044.215	43.10681
1044.576	24.05764
1044.936	29.06674
1045.296	48.11977
1045.656	22.05424
1046.016	17.04127
1046.375	35.0851
1046.735	-23.05289
1047.095	32.07513
1047.454	30.06382
1047.814	20.04833
1048.173	43.10282
1048.533	19.04378
1048.892	6.01451
1049.251	35.08805
1049.61	20.04949
1049.969	18.04267
1050.328	-24.05283
1050.687	-5.01228
1051.046	11.02696
1051.405	54.13416
1051.763	-6.01394
1052.122	47.11721
1052.48	33.08113
1052.839	42.09891
1053.197	39.09194
1053.555	77.17451
1053.914	21.05161
1054.272	58.13993
1054.63	-3.0074
1054.988	7.01676
1055.345	-13.02836
1055.703	28.06763
1056.061	41.10557
1056.419	24.06237
1056.776	52.12598
1057.134	30.06969
1057.491	43.10774
1057.848	13.03256
1058.206	20.04728
1058.563	-25.05594
1058.92	34.07857
1059.277	8.01988
1059.634	64.15008
1059.991	35.08404
1060.348	-7.01599
1060.704	-41.09935
1061.061	53.12299
1061.418	-6.01469
1061.774	-23.05751
1062.131	2.00533
1062.487	-1.00236
1062.843	53.13199
1063.199	2.00501
1063.555	5.01168
1063.911	37.09361
1064.267	86.17784
1064.623	11.02689
1064.979	50.11839
1065.335	73.17362
1065.691	47.11264
1066.046	4.00888
1066.402	4.00917
1066.757	-1.00255
1067.112	28.06895
1067.468	-1.00238
1067.823	38.09151
1068.178	61.14714
1068.533	74.17847
1068.888	73.17355
1069.243	40.09883
1069.598	40.09731
1069.952	-22.05023
1070.307	3.00748
1070.662	-2.00479
1071.016	-2.00453
1071.371	30.06847
1071.725	59.14081
1072.079	22.05316
1072.434	-12.02948
1072.788	3.0072
1073.142	66.16176
1073.496	-4.00958
1073.85	40.09288
1074.203	18.0439
1074.557	28.07468
1074.911	64.15224
1075.265	-34.08029
1075.618	60.14612
1075.971	8.01917
1076.325	15.03833
1076.678	1.00231
1077.031	5.01141
1077.385	43.09479
1077.738	31.0702
1078.091	-14.03223
1078.444	43.09991
1078.796	-24.05965
1079.149	60.14885
1079.502	-19.04545
1079.855	-20.04725
1080.207	47.11577
1080.56	10.026
1080.912	40.09749
1081.264	10.02424
1081.617	-3.00738
1081.969	-2.00509
1082.321	50.122
1082.673	-1.0023
1083.025	23.05481
1083.377	-195.44031
1083.728	28.06556
1084.08	3.00755
1084.432	23.05571
1084.783	12.0283
1085.135	26.06539
1085.486	12.02764
1085.838	11.02726
1086.189	-12.02944
1086.54	10.02404
1086.891	5.01274
1087.242	3.00736
1087.593	12.0294
1087.944	14.03189
1088.295	21.04798
1088.646	22.05356
1088.996	-7.01703
1089.347	-44.10975
1089.698	-35.08401
1090.048	19.04957
1090.398	-1.00234
1090.749	1.00241
1091.099	-5.01269
1091.449	7.01756
1091.799	24.06032
1092.149	-9.02217
1092.499	13.0319
1092.849	33.08406
1093.199	39.09786
1093.548	16.03866
1093.898	38.0952
1094.248	48.12328
1094.597	-13.03352
1094.947	55.14647
1095.296	38.09396
1095.645	62.16078
1095.994	14.03383
1096.343	48.12073
1096.692	6.01586
1097.041	33.08951
1097.39	44.11039
1097.739	-16.04202
1098.088	86.22884
1098.437	-54.14421
1098.785	50.13468
1099.134	34.09044
1099.482	67.18361
1099.83	44.11564
1100.179	-24.06333
1100.527	32.08521
1100.875	11.02925
1101.223	50.13265
1101.571	25.06929
1101.919	-10.02637
1102.267	9.02547
1102.615	-5.01609
1102.962	17.05469
1103.31	-2.00643
1103.658	7.02256
