Data from N2 R7 sample 5_Subt2__5__15-43-56-058.txt Node

Date: Fri Aug 29 15:43:56 PDT 2025
User: uwsun
Spectrometer: HDX01956
Trigger mode: 0
Integration Time (sec): 5.000000E-1
Scans to average: 1
Nonlinearity correction enabled: true
Boxcar width: 0
Storing dark spectrum: false
XAxis mode: Wavelengths
Number of Pixels in Spectrum: 2068
>>>>>Begin Spectral Data<<<<<
194.03	118.32517
194.578	128.39836
195.127	121.37123
195.676	115.3542
196.225	189.48546
196.773	159.42482
197.321	209.5415
197.87	302.70561
198.418	260.60416
198.966	269.62791
199.513	199.44769
200.061	219.49934
200.609	270.64642
201.156	224.43578
201.704	190.43313
202.251	212.50835
202.798	267.62079
203.345	322.70609
203.892	287.64299
204.438	265.56628
204.985	242.5085
205.532	283.66395
206.078	282.61578
206.624	243.53298
207.17	293.60222
207.716	283.60788
208.262	331.56671
208.808	252.54981
209.354	268.57877
209.899	318.7158
210.445	247.54677
210.99	258.55192
211.535	288.60115
212.08	309.63424
212.625	272.60876
213.17	288.6512
213.715	197.39066
214.259	285.58974
214.804	351.76399
215.348	255.52128
215.892	301.63986
216.436	355.72175
216.98	289.568
217.524	258.54427
218.068	329.73404
218.612	341.75986
219.155	256.53887
219.698	232.49802
220.242	284.63588
220.785	249.5231
221.328	223.50414
221.871	262.60086
222.414	299.66712
222.956	222.48169
223.499	321.63745
224.041	268.56214
224.583	301.57987
225.126	238.47185
225.668	223.49015
226.21	240.54467
226.751	187.36978
227.293	233.48128
227.835	242.5318
228.376	293.60494
228.918	257.58668
229.459	219.49248
230	258.55072
230.541	250.51813
231.082	231.50517
231.622	266.54932
232.163	249.54108
232.704	273.60458
233.244	245.54664
233.784	287.63081
234.324	219.429
234.864	210.42978
235.404	234.50275
235.944	266.56534
236.484	313.69546
237.023	282.59177
237.563	309.6288
238.102	301.6301
238.641	237.54037
239.18	176.37211
239.719	290.64878
240.258	272.54405
240.797	238.50958
241.335	281.61372
241.874	235.40016
242.412	268.57281
242.95	223.47633
243.488	256.52059
244.026	255.52199
244.564	274.49703
245.102	286.56542
245.64	309.65972
246.177	293.57885
246.715	300.63815
247.252	281.57234
247.789	313.51519
248.326	218.46696
248.863	262.50655
249.4	299.59792
249.936	297.53286
250.473	260.53644
251.009	233.47393
251.546	259.50376
252.082	269.51947
252.618	284.55409
253.154	275.5823
253.69	259.51528
254.226	238.50517
254.761	247.49095
255.297	245.47312
255.832	298.61761
256.367	299.61732
256.903	307.58574
257.438	270.56058
257.972	275.53743
258.507	226.45707
259.042	258.49236
259.576	250.46945
260.111	280.5694
260.645	287.54279
261.179	257.52704
261.713	260.50679
262.247	272.55111
262.781	296.5353
263.315	268.57629
263.849	271.59589
264.382	301.60387
264.915	285.58076
265.449	259.54962
265.982	329.64754
266.515	302.64128
267.048	265.4872
267.58	284.54225
268.113	272.50926
268.646	271.58537
269.178	227.44425
269.71	299.56493
270.243	298.59108
270.775	264.58989
271.307	285.6011
271.838	299.6212
272.37	259.55873
272.902	325.63665
273.433	301.5662
273.965	284.60201
274.496	286.6224
275.027	321.68772
275.558	295.61973
276.089	242.51725
276.62	287.63929
277.15	291.62614
277.681	295.55273
278.211	302.64324
278.741	256.48617
279.272	273.53732
279.802	267.58216
280.332	333.66869
280.861	315.65152
281.391	272.53068
281.921	302.62869
282.45	305.65965
282.98	287.65066
283.509	264.51165
284.038	332.64159
284.567	347.69036
285.096	306.63447
285.625	262.51117
286.153	295.58992
286.682	292.56889
287.21	272.56221
287.739	272.55137
288.267	248.5172
288.795	385.85967
289.323	266.52958
289.851	332.65667
290.378	312.5908
290.906	294.60223
291.433	326.68922
291.961	306.58199
292.488	305.64582
293.015	331.65086
293.542	302.64716
294.069	342.7034
294.596	340.70969
295.122	318.63724
295.649	313.57748
296.175	363.73498
296.702	313.64071
297.228	352.71614
297.754	307.57465
298.28	331.62111
298.806	346.68886
299.332	348.62839
299.857	350.64753
300.383	426.88721
300.908	266.53896
301.433	337.67516
301.958	390.73707
302.483	337.69359
303.008	380.7731
303.533	350.76004
304.058	352.68351
304.582	321.62078
305.107	317.68502
305.631	354.66018
306.155	357.67155
306.679	354.66739
307.203	347.65114
307.727	382.73008
308.251	355.71484
308.775	306.58794
309.298	351.6736
309.822	384.78266
310.345	393.74147
310.868	388.7376
311.391	424.8304
311.914	408.81078
312.437	367.66762
312.96	401.74135
313.482	354.66575
314.005	348.69961
314.527	392.81786
315.049	450.89299
315.571	370.63265
316.093	425.81838
316.615	387.72549
317.137	433.71161
317.659	458.8567
318.18	438.81442
318.702	428.7559
319.223	453.68383
319.744	461.76652
320.265	419.7665
320.786	426.7925
321.307	437.81964
321.828	432.72402
322.348	460.79718
322.869	466.79987
323.389	512.5527
323.909	437.73501
324.43	518.91301
324.95	478.78102
325.47	439.78444
325.989	481.80465
326.509	474.72136
327.029	500.77504
327.548	469.72716
328.067	479.80438
328.587	557.96359
329.106	496.76883
329.625	592.09491
330.144	508.79022
330.662	458.71988
331.181	567.87618
331.7	557.85969
332.218	574.78851
332.736	580.87972
333.255	542.81661
333.773	597.90149
334.291	596.974
334.808	598.81835
335.326	579.80963
335.844	567.80654
336.361	601.94627
336.879	539.7681
337.396	620.89851
337.913	621.83634
338.43	681.86496
338.947	636.88409
339.464	619.73129
339.981	600.82002
340.497	665.9516
341.014	685.93984
341.53	687.82747
342.046	681.92767
342.562	725.00481
343.078	625.80795
343.594	674.87238
344.11	774.95402
344.626	689.94289
345.141	755.8561
345.657	799.8946
346.172	748.91922
346.687	718.81425
347.202	743.7947
347.717	797.92187
348.232	807.99807
348.747	765.82423
349.261	675.66115
349.776	744.82343
350.29	719.84242
350.805	844.97985
351.319	836.86048
351.833	784.75721
352.347	844.85526
352.861	782.78802
353.374	798.79822
353.888	886.91388
354.401	878.81386
354.915	786.69225
355.428	874.9073
355.941	884.79544
356.454	973.81042
356.967	905.83878
357.48	942.80826
357.993	922.8995
358.505	938.87244
359.018	1003.90603
359.53	975.83976
360.042	977.71877
360.554	968.8506
361.066	967.83592
361.578	990.66484
362.09	984.80031
362.602	912.62911
363.113	932.70459
363.625	948.65
364.136	1058.64691
364.647	940.62985
365.158	994.68452
365.669	1062.74979
366.18	998.69276
366.691	1077.5947
367.201	1091.7155
367.712	1098.60548
368.222	1056.5941
368.733	1015.47334
369.243	1083.49006
369.753	1172.57575
370.263	1195.61672
370.773	1170.65541
371.282	1134.53986
371.792	1111.39143
372.301	1218.48778
372.811	1243.63
373.32	1186.2011
373.829	1224.31606
374.338	1274.18116
374.847	1348.16012
375.356	1382.1498
375.865	1356.90308
376.373	1515.88793
376.882	1587.05971
377.39	1627.88829
377.898	1398.86919
378.407	1640.57404
378.915	1781.41276
379.423	1756.45736
379.93	1908.26759
380.438	1890.23664
380.946	1890.14914
381.453	1979.05479
381.96	2119.9303
382.468	2018.95664
382.975	2443.82027
383.482	2576.897
383.989	2481.84757
384.495	2564.05212
385.002	2527.48516
385.509	2755.61491
386.015	2998.81343
386.521	3090.936
387.028	3274.92284
387.534	3322.76146
388.04	3571.12839
388.546	3403.4224
389.051	3495.35195
389.557	3837.19408
390.063	4488.11141
390.568	4615.9198
391.073	4507.35097
391.578	4701.73056
392.084	4697.41068
392.589	4401.37402
393.093	4655.46402
393.598	5426.29035
394.103	5839.20389
394.607	6768.56273
395.112	7429.74968
395.616	7558.65218
396.12	7783.5297
396.624	8501.76682
397.128	9477.21064
397.632	10927.13355
398.136	11727.92409
398.639	10932.00037
399.143	10746.49295
399.646	12407.0211
400.15	13295.02602
400.653	13983.47729
401.156	12643.90008
401.659	4819.56873
402.162	1054.15589
402.664	0
403.167	0
403.67	0
404.172	0
404.674	0
405.176	0
405.678	0
406.18	0
406.682	0
407.184	0
407.686	0
408.187	0
408.688	0
409.19	0
409.691	0
410.192	0
410.693	0
411.194	435.30976
411.694	4082.94878
412.195	8864.71461
412.696	12089.80453
413.196	12760.96929
413.696	12863.67595
414.196	13703.56671
414.696	17261.84252
415.196	21764.24417
415.696	29583.19008
416.196	32896.16792
416.695	23229.84566
417.195	17710.02386
417.694	16428.69526
418.194	15904.40467
418.693	14225.00241
419.192	13758.77104
419.691	13627.48886
420.19	13694.1136
420.688	13554.90306
421.187	13039.18734
421.685	12552.39015
422.184	11751.578
422.682	10368.29215
423.18	8033.00333
423.678	6891.31976
424.176	6280.16741
424.674	5930.18105
425.172	5808.09267
425.669	5653.70619
426.167	5384.59469
426.664	4922.67791
427.161	4326.1281
427.659	4150.23123
428.156	3676.60256
428.652	3471.26303
429.149	3290.08329
429.646	3106.9755
430.143	3052.7098
430.639	2865.68427
431.135	2564.77285
431.632	2473.81236
432.128	2312.97549
432.624	2075.215
433.12	1890.18982
433.616	1876.21932
434.111	1636.44688
434.607	1547.592
435.103	1716.46449
435.598	1791.45458
436.093	1656.7888
436.588	1629.83127
437.083	1480.97679
437.578	1395.09743
438.073	1168.26163
438.568	1318.35016
439.062	1201.16534
439.557	1236.38729
440.051	1102.33623
440.546	965.35595
441.04	974.45881
441.534	1063.60332
442.028	944.52798
442.522	1009.54254
443.015	935.42004
443.509	969.61656
444.002	834.57575
444.496	851.44862
444.989	882.62387
445.482	797.61608
445.975	831.49368
446.468	789.44046
446.961	839.4608
447.454	770.522
447.947	702.53663
448.439	757.63043
448.931	686.49013
449.424	755.70107
449.916	718.62894
450.408	616.47973
450.9	615.56219
451.392	573.58637
451.884	669.56853
452.375	547.55412
452.867	646.56334
453.358	590.50893
453.849	578.45504
454.341	552.49683
454.832	513.43532
455.323	532.56255
455.814	544.53209
456.304	596.57817
456.795	483.4891
457.285	580.56065
457.776	599.61055
458.266	450.50261
458.756	487.56316
459.247	444.5047
459.737	427.49291
460.226	429.4576
460.716	409.49167
461.206	465.56234
461.695	398.53582
462.185	341.42867
462.674	419.50188
463.163	441.49729
463.653	385.41092
464.142	339.45135
464.63	385.52775
465.119	356.45084
465.608	329.42257
466.096	408.48282
466.585	343.4576
467.073	277.39976
467.561	300.43445
468.05	374.50915
468.538	324.48738
469.026	344.49821
469.513	246.30973
470.001	275.38033
470.489	227.33845
470.976	313.44751
471.463	295.47422
471.951	261.43126
472.438	213.32665
472.925	261.39246
473.412	281.46174
473.899	270.40881
474.385	239.39972
474.872	216.33902
475.359	183.30976
475.845	214.29412
476.331	257.37854
476.817	206.35523
477.303	185.30261
477.789	148.25725
478.275	162.29056
478.761	200.34746
479.247	182.29362
479.732	98.1813
480.218	136.26597
480.703	155.28696
481.188	165.25663
481.673	139.2363
482.158	61.09593
482.643	137.2685
483.128	35.06121
483.612	64.11562
484.097	175.32821
484.581	133.23811
485.066	89.16848
485.55	76.12839
486.034	67.1123
486.518	73.1338
487.002	75.14434
487.486	38.07417
487.969	4.00789
488.453	82.16675
488.936	23.04169
489.42	53.0942
489.903	48.09917
490.386	42.0542
490.869	72.12674
491.352	62.12533
491.835	77.12842
492.318	-17.03176
492.8	20.0339
493.283	10.02118
493.765	22.045
494.247	51.09948
494.73	-13.02408
495.212	55.11162
495.694	-27.05309
496.175	-64.12831
496.657	-12.0242
497.139	19.02771
497.62	-68.13727
498.102	-44.09339
498.583	-51.1105
499.064	-74.14135
499.545	-4.00776
500.026	-63.12148
500.507	-62.12459
500.988	-57.12313
501.469	-83.18083
501.949	0
502.43	-117.24287
502.91	-25.04411
503.39	-44.09641
503.87	-44.08936
504.35	-34.07009
504.83	-56.1064
505.31	-67.14187
505.79	-112.23617
506.269	-18.0366
506.749	-119.24006
507.228	-90.18561
507.707	-103.20158
508.187	-61.12883
508.666	-97.21034
509.145	-72.14769
509.623	-126.26383
510.102	-58.12397
510.581	-75.16131
511.059	-119.26563
511.538	-63.14498
512.016	-64.13549
512.494	-80.17322
512.972	-67.14181
513.45	-147.30391
513.928	-132.28727
514.406	-183.39648
514.884	-97.22296
515.361	-50.10595
515.839	-114.23267
516.316	-61.1303
516.793	-62.14037
517.27	-26.05601
517.747	-111.25616
518.224	-67.13864
518.701	-123.24768
519.178	-142.31769
519.654	-86.18469
520.131	-137.30758
520.607	-69.15402
521.083	-73.1493
521.56	-81.17189
522.036	-92.18239
522.512	-53.11762
522.987	-142.30548
523.463	-144.31219
523.939	-106.23627
524.414	-95.19923
524.89	-80.17136
525.365	-168.34974
525.84	-138.29714
526.315	-96.2091
526.79	-84.17129
527.265	-92.19008
527.74	-94.20753
528.215	-133.2868
528.689	-115.23178
529.164	-60.11767
529.638	-84.19636
530.112	-107.22895
530.587	-170.33372
531.061	-103.22535
531.534	-95.21022
532.008	-134.29484
532.482	-129.27244
532.956	-153.35772
533.429	-109.2416
533.903	-72.14495
534.376	-106.21428
534.849	-101.21415
535.322	-108.23344
535.795	-95.21224
536.268	-90.19712
536.741	-47.10231
537.213	-90.19028
537.686	-144.3227
538.158	-142.29219
538.631	-137.30846
539.103	-166.34419
539.575	-62.11774
540.047	-79.15849
540.519	-69.15058
540.991	-71.15888
541.463	-87.19276
541.934	-156.33127
542.406	-155.34169
542.877	-87.17946
543.348	-119.26519
543.82	-95.21408
544.291	-62.13218
544.762	-142.31035
545.233	-83.18941
545.703	-74.14849
546.174	-109.23242
546.645	-116.25202
547.115	-111.24429
547.585	-65.13547
548.056	-129.28271
548.526	-63.13282
548.996	-67.14553
549.466	-19.0416
549.935	-67.14169
550.405	-61.11932
550.875	-41.08636
551.344	-34.07267
551.814	2.00406
552.283	-27.05229
552.752	-71.14692
553.221	-23.0438
553.69	-7.01364
554.159	12.02566
554.628	-72.14241
555.096	7.01552
555.565	21.04084
556.033	33.06838
556.502	-7.01508
556.97	-9.01781
557.438	-16.03405
557.906	36.07631
558.374	10.02062
558.842	-18.03892
559.31	-11.02234
559.777	-52.11447
560.245	35.07428
560.712	49.10217
561.18	2.004
561.647	38.07654
562.114	16.03297
562.581	55.12221
563.048	90.18603
563.514	80.17544
563.981	119.24271
564.448	122.24334
564.914	117.24341
565.381	160.32255
565.847	236.48146
566.313	202.41266
566.779	229.44965
567.245	276.55691
567.711	266.5508
568.176	301.57596
568.642	336.71721
569.108	331.6932
569.573	398.78906
570.038	480.82215
570.504	482.87888
570.969	544.10898
571.434	534.93631
571.899	630.18451
572.363	660.17232
572.828	782.3594
573.293	714.26125
573.757	773.3462
574.222	838.37808
574.686	806.34222
575.15	900.57252
575.614	937.55469
576.078	984.65584
576.542	1113.74795
577.006	1041.64375
577.469	1145.99207
577.933	1063.64597
578.396	1079.80892
578.86	1167.88815
579.323	1096.82505
579.786	1113.63373
580.249	1044.66696
580.712	1160.97433
581.175	1124.94771
581.637	1157.8373
582.1	1114.68572
582.563	1079.60771
583.025	1061.82995
583.487	1060.45569
583.95	998.50478
584.412	1099.57863
584.874	970.72006
585.336	928.61647
585.797	907.42475
586.259	924.61287
586.721	898.55832
587.182	912.58769
587.643	880.48432
588.105	806.45304
588.566	822.29038
589.027	753.39577
589.488	763.33365
589.949	770.44118
590.41	696.02527
590.87	749.3215
591.331	713.19117
591.791	688.23863
592.252	603.09445
592.712	602.1629
593.172	577.04132
593.632	639.10823
594.092	529.95949
594.552	541.94087
595.011	492.92441
595.471	558.00669
595.931	518.94072
596.39	522.01966
596.849	475.91379
597.308	545.95837
597.768	466.98603
598.227	480.95875
598.685	473.90293
599.144	513.9831
599.603	471.92572
600.062	446.77086
600.52	459.84393
600.978	477.93663
601.437	513.96317
601.895	457.79808
602.353	559.00104
602.811	515.93171
603.269	568.09972
603.727	511.00214
604.184	575.03505
604.642	570.12994
605.099	560.04904
605.557	619.20866
606.014	567.9736
606.471	576.15623
606.928	624.04183
607.385	637.21916
607.842	711.25691
608.299	785.3967
608.755	812.48629
609.212	787.3166
609.668	778.2919
610.125	835.5304
610.581	907.61931
611.037	919.56333
611.493	814.47872
611.949	795.47011
612.405	784.17732
612.861	901.60113
613.316	831.5154
613.772	867.5024
614.227	827.49136
614.683	868.39596
615.138	796.43497
615.593	881.54449
616.048	826.45276
616.503	877.65597
616.958	813.5859
617.412	833.51753
617.867	807.36343
618.321	856.33619
618.776	838.42094
619.23	827.50353
619.684	858.48951
620.138	860.54587
620.592	763.47273
621.046	784.45587
621.5	805.5428
621.954	805.42497
622.407	767.35333
622.861	687.35944
623.314	711.30795
623.768	664.26511
624.221	713.11582
624.674	671.26454
625.127	684.3096
625.58	679.274
626.033	662.20635
626.485	598.19936
626.938	652.29037
627.39	620.20689
627.843	671.28559
628.295	626.21281
628.747	643.27996
629.199	629.1986
629.651	532.03677
630.103	562.09899
630.555	599.07008
631.006	634.25645
631.458	622.24413
631.909	600.18065
632.361	570.14522
632.812	545.0886
633.263	554.03011
633.714	558.0319
634.165	529.12403
634.616	568.17268
635.067	596.14083
635.518	610.25672
635.968	608.04346
636.419	596.11772
636.869	612.26028
637.319	562.13379
637.769	549.07276
638.219	624.29309
638.669	540.13423
639.119	627.32854
639.569	548.16573
640.019	606.22047
640.468	625.20712
640.918	661.37689
641.367	564.11177
641.816	629.21834
642.265	665.32505
642.714	611.23366
643.163	675.33503
643.612	614.28481
644.061	599.10042
644.51	650.2798
644.958	642.21897
645.406	612.28232
645.855	602.30076
646.303	655.33172
646.751	613.21788
647.199	701.36711
647.647	630.26423
648.095	628.25615
648.543	660.16565
648.99	605.27238
649.438	679.38622
649.885	632.37672
650.333	630.05591
650.78	605.29024
651.227	579.2518
651.674	583.17542
652.121	577.25013
652.568	561.21645
653.015	603.35756
653.461	559.18685
653.908	588.21621
654.354	631.32888
654.801	526.10915
655.247	544.06976
655.693	552.29794
656.139	490.06836
656.585	533.15319
657.031	487.02969
657.477	505.98554
657.922	494.03198
658.368	520.16498
658.813	523.10305
659.259	439.97212
659.704	487.03374
660.149	454.97324
660.594	491.06353
661.039	463.96876
661.484	447.98859
661.929	418.90922
662.373	397.93533
662.818	438.0055
663.262	398.89474
663.707	417.98548
664.151	385.88306
664.595	396.89353
665.039	401.9352
665.483	384.91892
665.927	415.91324
666.371	410.88349
666.814	450.99792
667.258	404.89258
667.701	507.00084
668.145	440.01936
668.588	400.92205
669.031	383.84602
669.474	409.92342
669.917	398.8289
670.36	441.01785
670.803	480.07082
671.245	411.8116
671.688	442.00497
672.13	390.82235
672.573	459.08505
673.015	390.88358
673.457	421.85788
673.899	409.93245
674.341	415.94078
674.783	356.8105
675.225	400.92682
675.666	348.79485
676.108	426.86668
676.549	408.91082
676.991	424.87637
677.432	383.72011
677.873	404.88139
678.314	442.98752
678.755	409.93734
679.196	369.80214
679.637	411.94758
680.078	385.8547
680.518	454.99003
680.959	420.94651
681.399	342.81032
681.839	407.935
682.28	421.97681
682.72	412.8878
683.16	386.91066
683.6	439.93967
684.039	395.77817
684.479	388.90187
684.919	339.74602
685.358	404.97008
685.798	424.04471
686.237	374.8611
686.676	389.85747
687.115	390.86885
687.554	440.98021
687.993	432.8977
688.432	381.82682
688.871	412.88094
689.309	364.82838
689.748	380.75549
690.186	479.06484
690.625	441.96922
691.063	417.94301
691.501	447.035
691.939	402.94839
692.377	449.02442
692.815	393.8902
693.253	463.03985
693.69	450.9251
694.128	466.05152
694.565	404.91195
695.003	444.05661
695.44	460.00834
695.877	428.93967
696.314	517.02349
696.751	454.97072
697.188	459.98502
697.625	499.06248
698.061	446.00139
698.498	520.16259
698.934	470.05538
699.371	503.09421
699.807	542.17694
700.243	448.00877
700.679	517.0794
701.115	513.11741
701.551	519.12811
701.987	514.06671
702.422	497.09303
702.858	480.06331
703.294	520.08543
703.729	524.18358
704.164	485.08489
704.599	542.10539
705.035	542.1094
705.47	521.16842
705.904	503.08308
706.339	577.22459
706.774	523.12815
707.209	525.11309
707.643	550.21156
708.078	568.26432
708.512	470.09544
708.946	495.10138
709.38	502.10151
709.814	586.21694
710.248	577.28412
710.682	534.16741
711.116	518.13763
711.549	568.34493
711.983	555.17219
712.416	561.21386
712.85	554.26821
713.283	524.14262
713.716	593.35949
714.149	557.217
714.582	583.18781
715.015	558.28351
715.448	540.25441
715.881	596.17992
716.313	544.16875
716.746	558.20042
717.178	544.20032
717.61	567.3185
718.043	544.24778
718.475	523.16955
718.907	575.33397
719.339	513.07008
719.77	522.13873
720.202	534.24533
720.634	535.19643
721.065	584.25913
721.497	557.25132
721.928	495.12684
722.359	503.1206
722.79	492.0913
723.221	569.31222
723.652	620.4546
724.083	496.03341
724.514	550.15578
724.945	504.09476
725.375	481.03429
725.806	551.26461
726.236	566.3309
726.666	570.231
727.096	518.17429
727.526	518.21648
727.956	497.04307
728.386	574.29141
728.816	484.13918
729.246	513.15046
729.675	468.07321
730.105	551.24491
730.534	524.12813
730.964	561.30196
731.393	582.32118
731.822	557.30692
732.251	539.26021
732.68	599.28019
733.109	557.25746
733.537	562.2401
733.966	536.22498
734.395	544.14968
734.823	566.16279
735.251	546.20575
735.68	566.29934
736.108	507.189
736.536	530.14938
736.964	475.02356
737.392	555.27431
737.82	526.16249
738.247	528.164
738.675	567.23783
739.102	492.1405
739.53	505.19121
739.957	464.11527
740.384	550.24643
740.811	542.265
741.238	532.19435
741.665	508.08519
742.092	514.13309
742.519	520.18646
742.945	509.12837
743.372	542.23275
743.798	562.32558
744.225	511.12058
744.651	470.09974
745.077	518.19281
745.503	486.10119
745.929	544.19632
746.355	593.34373
746.781	503.1543
747.207	495.07221
747.632	472.06942
748.058	538.23498
748.483	506.07391
748.908	510.17156
749.334	498.13299
749.759	479.04764
750.184	477.05424
750.609	496.1298
751.033	495.08361
751.458	549.1235
751.883	512.17287
752.307	457.00197
752.732	413.97263
753.156	416.96884
753.58	483.06441
754.005	489.15386
754.429	431.95043
754.853	445.03117
755.277	430.95556
755.7	475.09647
756.124	397.93206
756.548	412.91975
756.971	446.01859
757.394	456.09891
757.818	452.08843
758.241	447.06153
758.664	424.00623
759.087	347.73763
759.51	434.01298
759.933	392.89208
760.356	412.99791
760.778	446.02513
761.201	424.97073
761.623	456.03268
762.046	458.01323
762.468	426.96277
762.89	446.03003
763.312	387.89582
763.734	392.8928
764.156	377.88408
764.578	406.8805
765	404.93089
765.421	349.84585
765.843	371.9264
766.264	382.87565
766.686	405.96158
767.107	335.77671
767.528	334.80662
767.949	360.87266
768.37	332.78026
768.791	378.86788
769.212	275.66804
769.632	319.71203
770.053	327.8263
770.473	349.8098
770.894	331.79439
771.314	355.80839
771.734	323.72095
772.154	335.8238
772.575	352.77706
772.994	301.65712
773.414	254.59301
773.834	315.75629
774.254	271.64225
774.673	289.67935
775.093	288.68741
775.512	262.6256
775.931	288.70472
776.351	274.658
776.77	253.6003
777.189	252.5821
777.607	288.70969
778.026	334.79534
778.445	231.56306
778.864	283.70135
779.282	251.58636
779.701	258.63086
780.119	228.56165
780.537	230.55927
780.955	297.72795
781.373	253.60723
781.791	182.40214
782.209	274.60995
782.627	220.56596
783.045	242.54073
783.462	234.58216
783.88	222.56033
784.297	195.48099
784.715	208.52218
785.132	193.4583
785.549	200.48996
785.966	210.51637
786.383	182.43991
786.8	198.45064
787.217	170.39691
787.633	170.41756
788.05	193.44999
788.466	214.49315
788.883	160.40227
789.299	223.52341
789.715	181.43229
790.131	201.48922
790.547	203.49611
790.963	200.48596
791.379	109.2742
791.795	119.27024
792.21	176.40462
792.626	156.36537
793.041	176.42701
793.457	158.38521
793.872	140.32585
794.287	111.26349
794.702	196.47303
795.117	171.41776
795.532	151.37343
795.947	157.37296
796.362	134.31729
796.776	193.44325
797.191	124.30119
797.605	67.15776
798.02	113.2734
798.434	130.28724
798.848	97.23813
799.262	83.20572
799.676	152.36615
800.09	118.28834
800.504	99.23952
800.918	89.20604
801.331	132.34278
801.745	111.25371
802.158	90.22449
802.572	144.34531
802.985	115.27635
803.398	104.24702
803.811	134.34113
804.224	106.26258
804.637	71.16945
805.05	90.2084
805.462	105.25681
805.875	80.20703
806.288	58.14041
806.7	112.27967
807.112	115.26497
807.525	88.21679
807.937	77.19029
808.349	97.24208
808.761	86.21124
809.173	32.07822
809.584	98.24134
809.996	33.08143
810.408	53.13718
810.819	31.07359
811.231	68.17574
811.642	56.13398
812.053	107.25292
812.464	190.44186
812.875	173.43425
813.286	139.35354
813.697	119.27626
814.108	100.24326
814.519	37.08324
814.929	85.21635
815.34	66.16038
815.75	60.15275
816.16	69.17214
816.571	72.18697
816.981	84.19813
817.391	56.13572
817.801	57.14195
818.211	87.207
818.62	25.06074
819.03	71.17411
819.44	106.27517
819.849	59.14901
820.259	88.22458
820.668	55.13567
821.077	45.11227
821.486	79.19013
821.895	108.26518
822.304	87.22976
822.713	53.12581
823.122	52.13022
823.531	59.14027
823.939	49.11989
824.348	80.19425
824.756	45.11324
825.164	61.15378
825.573	38.09588
825.981	65.1614
826.389	86.21545
826.797	29.07316
827.205	30.06944
827.612	66.16301
828.02	7.01664
828.428	80.2033
828.835	57.15023
829.243	81.19272
829.65	23.05765
830.057	34.08308
830.464	68.16573
830.871	51.1226
831.278	33.08032
831.685	52.11658
832.092	61.14959
832.499	35.07719
832.905	-9.02309
833.312	58.1327
833.718	77.19154
834.124	55.12612
834.531	91.22843
834.937	47.12102
835.343	22.05356
835.749	63.14741
836.155	43.11299
836.561	36.08905
836.966	36.08856
837.372	63.16041
837.777	56.13974
838.183	62.13814
838.588	26.06502
838.993	59.14388
839.399	46.11286
839.804	6.01478
840.209	16.04106
840.613	69.15351
841.018	78.19703
841.423	30.0774
841.828	12.03063
842.232	75.18548
842.637	43.10192
843.041	42.10802
843.445	60.15058
843.849	13.03248
844.253	53.1263
844.657	34.08604
845.061	34.07767
845.465	13.0317
845.869	30.07021
846.272	19.04664
846.676	60.14525
847.079	3.00771
847.483	19.04778
847.886	61.14853
848.289	35.09377
848.692	62.157
849.095	15.03636
849.498	95.23941
849.901	39.08993
850.304	38.09126
850.707	47.12014
851.109	72.18187
851.512	60.14749
851.914	8.02034
852.316	9.02297
852.718	8.02083
853.121	59.14463
853.523	15.03539
853.925	-3.00791
854.326	-3.00758
854.728	35.09037
855.13	9.02341
855.531	18.04336
855.933	65.15596
856.334	46.11495
856.736	-28.06388
857.137	-2.00471
857.538	-4.01017
857.939	14.03487
858.34	46.1124
858.741	39.10227
859.142	42.10125
859.542	17.04515
859.943	11.02757
860.343	16.03992
860.744	62.15122
861.144	22.05404
861.544	-39.09546
861.945	24.06153
862.345	54.1322
862.745	42.10469
863.145	59.14108
863.544	2.0051
863.944	30.07128
864.344	22.05502
864.743	57.14148
865.143	43.11072
865.542	12.0281
865.941	29.07217
866.34	77.18384
866.74	14.03783
867.139	36.08656
867.537	48.1225
867.936	8.01944
868.335	43.10968
868.734	37.09488
869.132	16.03749
869.531	71.17133
869.929	29.0665
870.327	49.11766
870.726	62.15448
871.124	78.18162
871.522	29.07423
871.92	45.11125
872.318	17.04187
872.715	64.15825
873.113	8.01967
873.511	30.0751
873.908	-30.07689
874.306	13.03259
874.703	59.14757
875.1	32.08221
875.497	65.1556
875.894	-24.05967
876.291	67.16412
876.688	21.05449
877.085	53.12726
877.482	26.06544
877.878	-29.07093
878.275	29.07402
878.671	52.11596
879.068	46.11127
879.464	44.1066
879.86	16.03813
880.256	37.09164
880.652	53.13486
881.048	-1.0025
881.444	3.00721
881.84	37.09434
882.236	48.12086
882.631	42.10336
883.027	51.12362
883.422	39.1
883.817	39.09829
884.213	25.06449
884.608	11.02719
885.003	17.04129
885.398	-30.07624
885.793	25.06309
886.188	40.0997
886.582	80.20431
886.977	65.154
887.371	40.10144
887.766	34.08487
888.16	46.11499
888.554	43.10658
888.949	50.12567
889.343	42.10286
889.737	29.07759
890.131	12.03033
890.525	29.07449
890.918	30.07583
891.312	46.11027
891.706	52.13648
892.099	73.18515
892.492	12.02614
892.886	43.10545
893.279	36.092
893.672	17.04356
894.065	33.08296
894.458	27.06824
894.851	48.11777
895.244	56.14297
895.637	26.06297
896.029	14.03449
896.422	42.10286
896.814	36.0898
897.206	-2.00481
897.599	52.12867
897.991	20.04867
898.383	48.11357
898.775	41.09281
899.167	-19.04495
899.559	47.11912
899.951	48.11331
900.342	46.11715
900.734	-18.04524
901.125	50.13127
901.517	29.07151
901.908	54.12949
902.299	50.12232
902.69	59.13908
903.082	55.13317
903.473	4.00967
903.863	60.15291
904.254	28.06532
904.645	34.08487
905.036	-24.05895
905.426	63.144
905.817	7.01732
906.207	11.02642
906.597	23.05411
906.987	32.08324
907.378	43.10895
907.768	31.08226
908.158	11.02703
908.547	19.04937
908.937	70.17909
909.327	28.06832
909.717	83.20962
910.106	8.01938
910.495	56.13974
910.885	46.11665
911.274	51.12751
911.663	35.08912
912.052	76.18675
912.441	55.1398
912.83	22.05082
913.219	85.22123
913.608	34.08358
913.997	16.04037
914.385	82.19484
914.774	20.049
915.162	2.00481
915.55	63.15214
915.939	36.09113
916.327	44.10999
916.715	38.09708
917.103	59.14506
917.491	59.14581
917.878	20.04947
918.266	63.16307
918.654	67.17072
919.041	15.0394
919.429	1.00238
919.816	44.1117
920.203	54.13092
920.591	21.05237
920.978	33.0811
921.365	46.12081
921.752	58.13813
922.139	32.06979
922.525	40.09629
922.912	44.10748
923.299	16.04003
923.685	35.09156
924.072	63.14498
924.458	17.04238
924.844	-21.05266
925.231	19.04451
925.617	16.04095
926.003	40.10244
926.389	25.06336
926.774	57.14431
927.16	96.2365
927.546	3.00772
927.931	45.11243
928.317	15.03481
928.702	68.16039
929.088	-17.04074
929.473	53.13481
929.858	-23.05638
930.243	6.01452
930.628	-3.00737
931.013	35.087
931.398	77.17621
931.783	68.17853
932.167	29.07119
932.552	32.08046
932.937	85.20967
933.321	8.02023
933.705	63.15848
934.09	83.20857
934.474	96.22608
934.858	40.10395
935.242	-12.02816
935.626	42.10768
936.009	39.10393
936.393	48.1222
936.777	36.09242
937.16	16.04188
937.544	66.15507
937.927	24.06119
938.311	45.10998
938.694	59.15582
939.077	30.07211
939.46	57.13983
939.843	60.12496
940.226	46.1181
940.609	31.07146
940.991	50.12729
941.374	3.0074
941.757	50.12341
942.139	50.11233
942.522	39.0924
942.904	13.03148
943.286	38.09677
943.668	50.12953
944.05	37.09137
944.432	63.15512
944.814	37.09137
945.196	32.07825
945.578	29.06921
945.959	55.1288
946.341	77.18812
946.722	62.14522
947.104	75.17845
947.485	55.12789
947.866	37.09345
948.247	48.12116
948.628	45.1099
949.009	36.09242
949.39	66.16385
949.771	36.08399
950.152	55.13487
950.532	-28.06987
950.913	53.1278
951.293	27.07321
951.674	28.06801
952.054	33.08203
952.434	47.11675
952.814	66.15658
953.194	64.16711
953.574	76.18633
953.954	21.05016
954.334	25.0626
954.714	-5.01231
955.093	42.10343
955.473	17.04277
955.853	36.09342
956.232	32.08796
956.611	80.19082
956.99	-20.0509
957.37	56.14256
957.749	42.10037
958.128	47.11849
958.506	13.03394
958.885	34.08607
959.264	-24.05963
959.643	31.07083
960.021	20.04983
960.4	21.04788
960.778	64.15726
961.156	17.04287
961.535	38.08879
961.913	18.04239
962.291	14.03614
962.669	21.05347
963.047	60.15286
963.424	44.11241
963.802	9.0223
964.18	33.08376
964.557	43.09919
964.935	17.04054
965.312	36.09397
965.69	39.09786
966.067	12.02943
966.444	47.11589
966.821	32.08276
967.198	70.1692
967.575	44.10832
967.952	64.15043
968.329	19.04651
968.705	66.14107
969.082	21.05413
969.458	9.02176
969.835	54.13136
970.211	5.01293
970.587	37.09234
970.963	14.03614
971.339	26.06817
971.715	40.10006
972.091	55.13532
972.467	44.10987
972.843	21.05239
973.219	32.07712
973.594	28.07351
973.97	91.21493
974.345	21.05054
974.721	34.08259
975.096	42.10179
975.471	10.02391
975.846	32.07715
976.221	12.03068
976.596	23.05542
976.971	58.14299
977.346	65.1509
977.72	12.03078
978.095	42.10869
978.469	12.02885
978.844	66.16546
979.218	11.02656
979.593	25.06019
979.967	60.14591
980.341	25.05785
980.715	18.04561
981.089	50.12517
981.463	14.03238
981.837	16.03934
982.21	51.11868
982.584	29.07032
982.957	11.02766
983.331	54.12757
983.704	34.08379
984.078	35.0865
984.451	82.20365
984.824	21.05142
985.197	44.107
985.57	52.13037
985.943	64.15767
986.316	73.17861
986.688	21.05092
987.061	38.08928
987.434	32.08364
987.806	63.15243
988.179	30.07106
988.551	81.20435
988.923	5.01242
989.295	76.18902
989.667	15.03607
990.039	18.04474
990.411	32.07392
990.783	52.11969
991.155	-8.01943
991.527	91.22241
991.898	-21.053
992.27	-4.00999
992.641	41.10303
993.012	83.19406
993.384	1.00241
993.755	29.07421
994.126	21.05079
994.497	44.10812
994.868	56.12849
995.239	45.10916
995.61	33.08328
995.98	31.07557
996.351	57.14097
996.722	31.07217
997.092	-5.01197
997.462	-12.02837
997.833	58.13728
998.203	38.09234
998.573	36.08986
998.943	-16.038
999.313	62.14822
999.683	10.02418
1000.053	22.0509
1000.423	45.10945
1000.792	37.0961
1001.162	34.08392
1001.531	18.04464
1001.901	28.07007
1002.27	36.08071
1002.639	35.08965
1003.009	34.0811
1003.378	35.08972
1003.747	24.05698
1004.116	27.06488
1004.485	31.07435
1004.853	43.10906
1005.222	23.05827
1005.591	65.15388
1005.959	-15.03424
1006.328	37.08348
1006.696	45.10863
1007.064	15.03796
1007.433	57.14226
1007.801	57.13972
1008.169	48.12125
1008.537	17.0379
1008.905	-28.06622
1009.273	49.12105
1009.64	38.09085
1010.008	27.06464
1010.375	69.16694
1010.743	97.22189
1011.11	21.04997
1011.478	10.02493
1011.845	41.09657
1012.212	43.09745
1012.579	50.12272
1012.946	52.1237
1013.313	102.2403
1013.68	19.04297
1014.047	29.06937
1014.414	39.09229
1014.78	51.12668
1015.147	63.15197
1015.513	12.02912
1015.88	63.1607
1016.246	89.21808
1016.612	86.19542
1016.978	14.03453
1017.344	26.06452
1017.71	98.23679
1018.076	32.07571
1018.442	43.11072
1018.808	11.02768
1019.174	23.05796
1019.539	142.32083
1019.905	29.06865
1020.27	-14.03495
1020.636	32.07697
1021.001	71.16925
1021.366	-10.02428
1021.731	48.12345
1022.096	-24.06131
1022.461	31.07362
1022.826	4.00959
1023.191	37.09726
1023.556	8.0189
1023.92	72.17626
1024.285	5.0123
1024.649	62.15156
1025.014	47.11645
1025.378	40.10071
1025.742	48.11921
1026.107	31.07037
1026.471	43.1005
1026.835	8.01998
1027.199	22.05322
1027.562	38.08852
1027.926	30.07361
1028.29	36.09129
1028.654	5.0116
1029.017	37.09114
1029.381	-15.03626
1029.744	27.06911
1030.107	69.16259
1030.471	89.21143
1030.834	58.13169
1031.197	63.15133
1031.56	-1.00238
1031.923	30.0778
1032.286	51.11971
1032.648	54.129
1033.011	4.00926
1033.374	19.04491
1033.736	5.01324
1034.099	-4.00984
1034.461	8.02035
1034.823	27.06748
1035.185	23.05815
1035.548	51.12404
1035.91	43.1031
1036.272	-9.02072
1036.634	43.10529
1036.995	58.13606
1037.357	32.07808
1037.719	4.00981
1038.08	35.08331
1038.442	0
1038.803	29.06987
1039.165	16.0406
1039.526	62.14941
1039.887	34.08156
1040.248	14.03471
1040.609	62.1528
1040.97	-7.01728
1041.331	48.12151
1041.692	0
1042.053	25.05719
1042.413	19.04453
1042.774	12.02938
1043.134	74.17529
1043.495	40.10068
1043.855	25.0609
1044.215	28.06974
1044.576	48.11475
1044.936	25.05758
1045.296	45.11235
1045.656	2.00495
1046.016	69.16587
1046.375	14.03417
1046.735	-22.05058
1047.095	50.11697
1047.454	38.08069
1047.814	28.06755
1048.173	75.17824
1048.533	21.04837
1048.892	7.01693
1049.251	36.09055
1049.61	-2.00497
1049.969	27.06389
1050.328	38.08256
1050.687	45.10953
1051.046	-23.05674
1051.405	27.06741
1051.763	-1.00232
1052.122	-3.00755
1052.48	17.04192
1052.839	-16.03811
1053.197	11.02607
1053.555	48.10943
1053.914	41.10039
1054.272	23.05586
1054.63	-10.02471
1054.988	-12.02883
1055.345	12.02604
1055.703	70.16773
1056.061	24.06198
1056.419	24.06237
1056.776	26.0633
1057.134	22.05119
1057.491	72.17946
1057.848	49.12194
1058.206	43.10121
1058.563	9.02
1058.92	21.04866
1059.277	45.11104
1059.634	53.12455
1059.991	81.1928
1060.348	12.02731
1060.704	8.01921
1061.061	75.17329
1061.418	-11.02696
1061.774	36.08905
1062.131	0
1062.487	23.05403
1062.843	31.07751
1063.199	45.11194
1063.555	20.04659
1063.911	45.11369
1064.267	57.11864
1064.623	24.05854
1064.979	64.15113
1065.335	13.03128
1065.691	51.12214
1066.046	59.12941
1066.402	17.03886
1066.757	44.1111
1067.112	20.04933
1067.468	-10.02387
1067.823	30.07235
1068.178	35.08484
1068.533	23.056
1068.888	46.10993
1069.243	48.11843
1069.598	55.13342
1069.952	-32.07322
1070.307	36.08928
1070.662	44.10451
1071.016	24.05403
1071.371	35.07981
1071.725	67.15966
1072.079	42.1011
1072.434	36.08764
1072.788	31.07404
1073.142	80.19556
1073.496	13.03104
1073.85	-17.03992
1074.203	35.0851
1074.557	21.05607
1074.911	109.25704
1075.265	51.11845
1075.618	52.12683
1075.971	36.0858
1076.325	39.09923
1076.678	-9.02081
1077.031	28.0636
1077.385	76.16638
1077.738	47.10609
1078.091	-30.06927
1078.444	30.06988
1078.796	43.10556
1079.149	54.13411
1079.502	-20.04785
1079.855	16.03753
1080.207	78.19102
1080.56	10.026
1080.912	29.07082
1081.264	17.04116
1081.617	3.00737
1081.969	11.02792
1082.321	53.12924
1082.673	-48.11163
1083.025	14.03342
1083.377	69.14739
1083.728	53.12348
1084.08	41.10244
1084.432	33.07978
1084.783	63.14712
1085.135	41.10284
1085.486	11.02534
1085.838	45.11084
1086.189	57.13806
1086.54	28.06709
1086.891	-11.0281
1087.242	42.10232
1087.593	80.19352
1087.944	21.04777
1088.295	41.0933
1088.646	39.09464
1088.996	-19.04633
1089.347	-9.02231
1089.698	-4.00954
1090.048	75.19379
1090.398	29.06748
1090.749	40.09581
1091.099	-5.01269
1091.449	50.12445
1091.799	76.18923
1092.149	3.00737
1092.499	-26.06427
1092.849	50.12697
1093.199	77.19189
1093.548	7.01694
1093.898	18.04526
1094.248	12.03101
1094.597	3.00771
1094.947	26.06957
1095.296	21.05209
1095.645	31.08082
1095.994	26.06268
1096.343	32.08072
1096.692	6.01586
1097.041	5.01362
1097.39	21.0529
1097.739	37.0963
1098.088	62.16563
1098.437	15.0396
1098.785	55.14802
1099.134	68.17986
1099.482	44.12102
1099.83	27.07116
1100.179	20.05238
1100.527	50.13274
1100.875	-9.02401
1101.223	31.0825
1101.571	22.06101
1101.919	-26.06875
1102.267	18.05088
1102.615	-3.00965
1102.962	5.01611
1103.31	2.00643
1103.658	11.03543
