Data from N2 R7 sample 12_Subt2__3__15-17-20-593.txt Node

Date: Fri Aug 29 15:17:20 PDT 2025
User: uwsun
Spectrometer: HDX01956
Trigger mode: 0
Integration Time (sec): 5.000000E-1
Scans to average: 1
Nonlinearity correction enabled: true
Boxcar width: 0
Storing dark spectrum: false
XAxis mode: Wavelengths
Number of Pixels in Spectrum: 2068
>>>>>Begin Spectral Data<<<<<
194.03	410.07438
194.578	368.10658
195.127	404.18951
195.676	403.19072
196.225	425.04391
196.773	514.28906
197.321	656.56421
197.87	903.85742
198.418	892.81052
198.966	883.80892
199.513	812.5948
200.061	840.67234
200.609	909.9066
201.156	837.39132
201.704	854.68292
202.251	869.81865
202.798	838.72554
203.345	939.78967
203.892	901.76113
204.438	877.62448
204.985	881.58978
205.532	951.93608
206.078	941.76664
206.624	921.72987
207.17	965.68332
207.716	885.65317
208.262	952.36244
208.808	939.74905
209.354	941.73808
209.899	944.85007
210.445	929.76203
210.99	925.6923
211.535	956.69955
212.08	958.67853
212.625	966.85055
213.17	951.85724
213.715	885.47379
214.259	949.67185
214.804	971.83378
215.348	951.63793
215.892	948.73055
216.436	980.70911
216.98	937.56153
217.524	943.6898
218.068	954.85125
218.612	990.90753
219.155	960.70756
219.698	871.61094
220.242	874.71674
220.785	870.57668
221.328	844.66397
221.871	867.74415
222.414	858.69081
222.956	823.55535
223.499	802.41339
224.041	831.52534
224.583	855.42836
225.126	825.41129
225.668	811.5603
226.21	798.60335
226.751	789.34016
227.293	833.48843
227.835	773.50704
228.376	859.54762
228.918	877.74892
229.459	800.58227
230	791.49186
230.541	855.53176
231.082	838.59572
231.622	841.51203
232.163	770.48591
232.704	834.62884
233.244	815.60183
233.784	817.59371
234.324	760.29808
234.864	766.36951
235.404	839.56632
235.944	835.55345
236.484	875.71508
237.023	809.49903
237.563	862.53285
238.102	822.52128
238.641	937.83159
239.18	829.50108
239.719	877.72224
240.258	868.49658
240.797	899.64877
241.335	885.68414
241.874	840.19988
242.412	807.52209
242.95	780.46352
243.488	865.51478
244.026	850.50522
244.564	928.40627
245.102	874.49016
245.64	883.64943
246.177	843.45066
246.715	889.64757
247.252	874.5398
247.789	921.26404
248.326	847.56646
248.863	789.33294
249.4	857.49209
249.936	882.34661
250.473	906.59798
251.009	843.47616
251.546	885.46571
252.082	879.45013
252.618	874.46699
253.154	929.68513
253.69	846.45313
254.226	906.64207
254.761	901.51862
255.297	822.36819
255.832	911.62898
256.367	929.64675
256.903	896.46643
257.438	949.67185
257.972	930.53668
258.507	892.5291
259.042	935.49351
259.576	897.41793
260.111	906.57971
260.645	890.43633
261.179	916.59887
261.713	889.47479
262.247	916.58293
262.781	830.29771
263.315	938.72519
263.849	953.79359
264.382	925.58879
264.915	943.63447
265.449	936.69226
265.982	996.6543
266.515	950.73159
267.048	853.33806
267.58	932.50182
268.113	896.42081
268.646	964.77223
269.178	907.4907
269.71	965.52849
270.243	1032.69835
270.775	1004.89853
271.307	1007.78723
271.838	988.73758
272.37	999.8124
272.902	1046.70245
273.433	943.49607
273.965	979.75986
274.496	1011.86021
275.027	954.76345
275.558	981.74906
276.089	899.64712
276.62	1054.9729
277.15	993.81334
277.681	985.53443
278.211	950.7377
278.741	980.53592
279.272	994.62653
279.802	1038.89237
280.332	1011.71388
280.861	1017.77336
281.391	974.5857
281.921	1032.80007
282.45	1067.93118
282.98	1017.96104
283.509	1029.63311
284.038	1065.70016
284.567	1030.72506
285.096	1029.78964
285.625	1034.65092
286.153	1001.67587
286.682	995.61686
287.21	1089.84063
287.739	1048.74959
288.267	1064.81813
288.795	1061.03482
289.323	1080.74626
289.851	1133.82466
290.378	1134.72229
290.906	1013.73857
291.433	1137.9781
291.961	1076.66767
292.488	1106.93259
293.015	1085.75783
293.542	1105.95762
294.069	1123.90549
294.596	1173.99815
295.122	1173.89046
295.649	1053.58769
296.175	1147.90877
296.702	1211.97947
297.228	1218.99373
297.754	1133.69478
298.28	1128.70703
298.806	1209.92909
299.332	1147.65627
299.857	1137.69672
300.383	1234.10976
300.908	1076.77888
301.433	1215.94531
301.958	1220.84499
302.483	1158.94559
303.008	1256.04949
303.533	1277.22609
304.058	1209.87449
304.582	1202.84137
305.107	1136.02339
305.631	1298.86633
306.155	1178.77577
306.679	1208.80828
307.203	1283.86345
307.727	1255.89999
308.251	1229.98231
308.775	1185.80184
309.298	1225.86307
309.822	1292.09458
310.345	1369.97854
310.868	1363.98923
311.391	1419.13678
311.914	1343.09485
312.437	1387.88804
312.96	1327.89837
313.482	1397.96977
314.005	1357.10221
314.527	1347.21907
315.049	1480.24346
315.571	1314.69459
316.093	1473.13751
316.615	1445.01953
317.137	1421.71785
317.659	1484.08983
318.18	1557.11377
318.702	1525.95028
319.223	1506.59228
319.744	1529.82582
320.265	1504.02028
320.786	1530.088
321.307	1578.15174
321.828	1608.86777
322.348	1646.99335
322.869	1591.94248
323.389	1639.04989
323.909	1686.91756
324.43	1714.11691
324.95	1754.89934
325.47	1728.10487
325.989	1690.93659
326.509	1715.705
327.029	1803.79584
327.548	1823.77905
328.067	1854.01099
328.587	1870.16455
329.106	1883.81393
329.625	1916.42753
330.144	1829.81825
330.662	1911.82811
331.181	1952.8764
331.7	1949.86463
332.218	1986.5865
332.736	2043.85184
333.255	2014.79895
333.773	2081.85833
334.291	2100.09134
334.808	2132.60112
335.326	2133.64067
335.844	2136.67551
336.361	2247.99908
336.879	2242.65532
337.396	2218.77125
337.913	2348.56452
338.43	2349.46515
338.947	2418.6552
339.464	2312.24844
339.981	2408.57746
340.497	2499.75458
341.014	2428.6611
341.53	2347.34217
342.046	2535.61948
342.562	2560.70878
343.078	2556.41946
343.594	2604.45504
344.11	2686.39281
344.626	2702.60222
345.141	2690.1644
345.657	2715.16469
346.172	2654.37061
346.687	2673.13783
347.202	2698.01625
347.717	2793.21416
348.232	2937.34697
348.747	2825.0018
349.261	2817.72098
349.776	2929.00187
350.29	2880.14096
350.805	3118.13344
351.319	3016.87605
351.833	2932.73214
352.347	3017.84773
352.861	3079.74924
353.374	3135.71924
353.888	3107.88327
354.401	3163.61483
354.915	3180.42542
355.428	3260.81034
355.941	3246.51628
356.454	3349.3896
356.967	3285.57398
357.48	3310.43989
357.993	3338.67133
358.505	3325.58959
359.018	3491.49638
359.53	3516.36145
360.042	3567.05661
360.554	3547.37712
361.066	3516.36145
361.578	3570.92755
362.09	3543.24654
362.602	3564.90815
363.113	3690.99318
363.625	3701.85058
364.136	3751.75233
364.647	3726.79794
365.158	3872.79856
365.669	3897.87615
366.18	3899.79862
366.691	3840.59638
367.201	3902.78881
367.712	3887.58513
368.222	3920.56046
368.733	4053.28411
369.243	4139.26264
369.753	4242.3459
370.263	4392.34499
370.773	4329.43943
371.282	4300.26916
371.792	4343.02949
372.301	4499.11432
372.811	4666.2602
373.32	4655.753
373.829	4650.86947
374.338	4950.75448
374.847	5085.7719
375.356	5116.77739
375.865	5378.88482
376.373	5641.05118
376.882	5742.05306
377.39	5917.27123
377.898	5995.47132
378.407	6347.35771
378.915	6605.15428
379.423	6816.53968
379.93	7062.68596
380.438	7389.99767
380.946	7895.77681
381.453	8072.2047
381.96	8169.93499
382.468	8811.87375
382.975	9539.01327
383.482	9859.98824
383.989	9917.15851
384.495	10036.03062
385.002	10516.98323
385.509	11199.29498
386.015	12050.92092
386.521	12788.28007
387.028	13387.48933
387.534	13535.59647
388.04	14116.46929
388.546	14118.91549
389.051	14822.99088
389.557	16309.54665
390.063	17871.98866
390.568	18339.1006
391.073	18386.42761
391.578	19410.0454
392.084	19813.80738
392.589	20009.28421
393.093	21443.51542
393.598	23551.85031
394.103	25864.3492
394.607	28448.39274
395.112	30290.04026
395.616	32238.78672
396.12	34596.08191
396.624	38172.89351
397.128	41538.32552
397.632	40696.64664
398.136	39172.79427
398.639	36273.96993
399.143	32503.66402
399.646	28888.45294
400.15	25083.82847
400.653	20124.16724
401.156	13866.23708
401.659	5169.95759
402.162	1054.15589
402.664	0
403.167	0
403.67	0
404.172	0
404.674	0
405.176	0
405.678	0
406.18	0
406.682	0
407.184	0
407.686	0
408.187	0
408.688	0
409.19	0
409.691	0
410.192	0
410.693	0
411.194	435.30976
411.694	4082.94878
412.195	8864.71461
412.696	12089.80453
413.196	12760.96929
413.696	12863.67595
414.196	13703.56671
414.696	17261.84252
415.196	21764.24417
415.696	29583.19008
416.196	36460.31858
416.695	40057.39798
417.195	41392.74103
417.694	42311.08144
418.194	43882.52025
418.693	44704.85811
419.192	45402.14938
419.691	45417.40891
420.19	45791.72246
420.688	45041.96089
421.187	43498.19226
421.685	40765.42778
422.184	37296.66544
422.682	32325.24967
423.18	27293.28105
423.678	24118.46661
424.176	22486.73494
424.674	21020.22784
425.172	20239.76446
425.669	19223.932
426.167	18012.7298
426.664	16175.63262
427.161	14972.13374
427.659	13876.41862
428.156	12875.40527
428.652	12101.42428
429.149	11627.41212
429.646	11311.66619
430.143	10645.02395
430.639	9798.83915
431.135	9488.42138
431.632	8870.4629
432.128	8231.65301
432.624	7713.60116
433.12	7358.24339
433.616	7126.29472
434.111	6817.86814
434.607	6539.82684
435.103	6548.9724
435.598	6369.50436
436.093	6170.655
436.588	5795.19305
437.083	5528.93758
437.578	5298.81635
438.073	4911.79535
438.568	4857.89067
439.062	4785.72425
439.557	4605.95855
440.051	4315.96091
440.546	4139.05282
441.04	4047.26996
441.534	3987.54104
442.028	3963.45407
442.522	3840.51971
443.015	3748.35076
443.509	3758.73274
444.002	3558.85212
444.496	3558.54248
444.989	3461.97958
445.482	3495.03012
445.975	3461.71179
446.468	3543.56761
446.961	3388.67121
447.454	3338.90295
447.947	3089.16508
448.439	3110.33776
448.931	3032.0849
449.424	3108.53938
449.916	3110.39554
450.408	2996.17783
450.9	2926.48463
451.392	2909.68144
451.884	2890.4167
452.375	2669.747
452.867	2821.47735
453.358	2723.46207
453.849	2579.37784
454.341	2562.57777
454.832	2582.44265
455.323	2519.88037
455.814	2537.73053
456.304	2560.74723
456.795	2470.77368
457.285	2554.73022
457.776	2564.84395
458.266	2400.96726
458.756	2391.07455
459.247	2269.03532
459.737	2171.07529
460.226	2195.91648
460.716	2193.14243
461.206	2126.20895
461.695	2046.40442
462.185	2068.20515
462.674	2010.16755
463.163	1963.07074
463.653	2062.91552
464.142	1851.33298
464.63	1960.4363
465.119	1824.24027
465.608	1862.25109
466.096	1854.14488
466.585	1849.33999
467.073	1850.46823
467.561	1838.49145
468.05	1842.40526
468.538	1696.56786
469.026	1682.49301
469.513	1602.13917
470.001	1697.35172
470.489	1550.44085
470.976	1573.41618
471.463	1458.60557
471.951	1461.64681
472.438	1403.43212
472.925	1420.42914
473.412	1427.62842
473.899	1380.42949
474.385	1399.62581
474.872	1312.43292
475.359	1343.58503
475.845	1230.16063
476.331	1311.33734
476.817	1239.56588
477.303	1190.41796
477.789	1179.50572
478.275	1118.52308
478.761	1102.46798
479.247	1077.31034
479.732	1037.47604
480.218	1063.62775
480.703	1038.50484
481.188	992.18059
481.673	1042.34978
482.158	895.07627
482.643	990.55256
483.128	943.26264
483.612	908.29183
484.097	925.41715
484.581	866.26126
485.066	871.33644
485.55	812.10177
486.034	852.1269
486.518	789.18735
487.002	761.2237
487.486	756.22492
487.969	746.21479
488.453	783.33783
488.936	660.00302
489.42	727.06816
489.903	699.23244
490.386	780.76113
490.869	695.02535
491.352	729.248
491.835	679.94796
492.318	590.93779
492.8	606.8662
493.283	599.10374
493.765	550.99074
494.247	578.98693
494.73	569.90205
495.212	577.03016
495.694	565.95668
496.175	458.80764
496.657	585.01704
497.139	540.66292
497.62	445.79271
498.102	524.97437
498.583	479.92015
499.064	399.6751
499.545	453.78359
500.026	470.79076
500.507	477.83962
500.988	473.90556
501.469	423.82236
501.949	448.86246
502.43	425.77551
502.91	372.5887
503.39	444.87245
503.87	385.70535
504.35	392.73069
504.83	374.6364
505.31	337.65047
505.79	337.64048
506.269	428.78198
506.749	411.72833
507.228	342.63685
507.707	378.65573
508.187	379.72312
508.666	288.57311
509.145	278.52512
509.623	293.55658
510.102	324.63514
510.581	296.58574
511.059	322.65302
511.538	361.76004
512.016	312.60612
512.494	356.69886
512.972	337.65016
513.45	232.43887
513.928	338.66196
514.406	267.52278
514.884	299.63256
515.361	300.58698
515.839	280.52035
516.316	303.59608
516.793	339.70462
517.27	299.59903
517.747	279.59361
518.224	251.48238
518.701	304.55202
519.178	285.58128
519.654	293.57777
520.131	313.63752
520.607	294.60686
521.083	243.46137
521.56	322.62316
522.036	232.42513
522.512	288.59368
522.987	211.4194
523.463	242.48135
523.939	277.56831
524.414	253.48974
524.89	266.52711
525.365	262.4932
525.84	188.37638
526.315	216.43925
526.79	265.4975
527.265	252.48045
527.74	194.40243
528.215	243.48165
528.689	226.41978
529.164	266.48153
529.638	213.46876
530.112	218.43361
530.587	188.33789
531.061	225.45808
531.534	247.50745
532.008	222.45187
532.482	254.49132
532.956	190.41419
533.429	245.50288
533.903	224.42021
534.376	185.34902
534.849	195.38669
535.322	181.36699
535.795	202.42352
536.268	205.42097
536.741	185.38282
537.213	226.4447
537.686	168.35224
538.158	143.27535
538.631	217.45306
539.103	143.27601
539.575	185.33019
540.047	189.35569
540.519	187.38592
540.991	237.49657
541.463	172.36046
541.934	155.30679
542.406	165.33929
542.877	198.38226
543.348	205.4261
543.82	186.39497
544.291	227.45351
544.762	211.42664
545.233	253.53806
545.703	207.38842
546.174	296.57559
546.645	241.48372
547.115	249.50647
547.585	321.61156
548.056	196.40004
548.526	273.53301
548.996	340.67439
549.466	372.74717
549.935	313.60676
550.405	389.68001
550.875	323.62585
551.344	378.73575
551.814	431.78845
552.283	440.75725
552.752	404.74708
553.221	424.71995
553.69	469.81085
554.159	436.84663
554.628	459.79524
555.096	428.8652
555.565	470.81668
556.033	452.84882
556.502	434.84636
556.97	409.73007
557.438	372.72476
557.906	367.72165
558.374	309.59442
558.842	250.50955
559.31	349.65069
559.777	236.48802
560.245	307.61277
560.712	290.57225
561.18	283.52946
561.647	300.5678
562.114	333.6372
562.581	349.72799
563.048	370.71675
563.514	327.67968
563.981	389.74473
564.448	399.74466
564.914	436.84259
565.381	502.93253
565.847	485.93348
566.313	527.99726
566.779	571.02941
567.245	566.06448
567.711	548.06143
568.176	646.13196
568.642	670.32482
569.108	672.29961
569.573	720.3189
570.038	753.19504
570.504	793.33174
570.969	830.58352
571.434	849.36569
571.899	875.54759
572.363	993.6145
572.828	1050.6985
573.293	1069.71724
573.757	1138.79514
574.222	1086.66561
574.686	1119.70693
575.15	1194.92827
575.614	1131.77841
576.078	1301.00426
576.542	1289.9241
577.006	1325.92618
577.469	1412.28669
577.933	1356.9252
578.396	1425.16886
578.86	1323.04793
579.323	1381.12358
579.786	1337.8322
580.249	1390.0065
580.712	1387.219
581.175	1355.20659
581.637	1372.04755
582.1	1387.93339
582.563	1391.88374
583.025	1325.12748
583.487	1227.59673
583.95	1282.77364
584.412	1323.77196
584.874	1271.08045
585.336	1239.98507
585.797	1196.72596
586.259	1211.95751
586.721	1166.88282
587.182	1151.87989
587.643	1129.77831
588.105	1082.81544
588.566	1080.57192
589.027	1005.74778
589.488	1044.69254
589.949	1044.82393
590.41	934.27826
590.87	1017.67125
591.331	970.50877
591.791	936.57993
592.252	869.47247
592.712	875.58134
593.172	882.46998
593.632	862.40825
594.092	830.38988
594.552	839.34421
595.011	774.35256
595.471	823.38603
595.931	733.25755
596.39	706.31988
596.849	693.262
597.308	726.21527
597.768	711.4221
598.227	731.37378
598.685	703.26601
599.144	627.167
599.603	679.26774
600.062	642.05085
600.52	671.16694
600.978	670.25431
601.437	706.26136
601.895	601.00856
602.353	663.15604
602.811	640.11966
603.269	652.23739
603.727	662.25274
604.184	642.13615
604.642	650.2648
605.099	735.31836
605.557	650.25999
606.014	706.16622
606.471	598.19439
606.928	659.08988
607.385	740.38152
607.842	896.50894
608.299	863.50494
608.755	857.5511
609.212	747.26316
609.668	808.33081
610.125	863.57071
610.581	839.52385
611.037	821.43302
611.493	766.40827
611.949	697.32006
612.405	683.05634
612.861	765.40678
613.316	665.26303
613.772	734.31622
614.227	691.28892
614.683	764.2644
615.138	747.3633
615.593	648.20467
616.048	687.25168
616.503	731.42909
616.958	690.38482
617.412	637.2174
617.867	633.11931
618.321	699.14027
618.776	646.15156
619.23	632.2052
619.684	657.20055
620.138	683.28278
620.592	583.17327
621.046	598.16123
621.5	594.19571
621.954	603.1228
622.407	621.13692
622.861	574.16547
623.314	603.13894
623.768	519.02314
624.221	546.89671
624.674	492.96905
625.127	486.97614
625.58	551.06598
626.033	538.01072
626.485	474.97926
626.938	520.06045
627.39	443.89983
627.843	451.91107
628.295	479.96186
628.747	406.85383
629.199	424.84926
629.651	412.82713
630.103	401.81527
630.555	394.74208
631.006	392.82185
631.458	349.74318
631.909	391.80834
632.361	357.7536
632.812	303.64018
633.263	364.70985
633.714	314.61699
634.165	363.80051
634.616	268.5914
635.067	353.71637
635.518	344.7521
635.968	306.56839
636.419	293.59135
636.869	309.68058
637.319	257.55561
637.769	268.55941
638.219	326.72148
638.669	240.53826
639.119	320.72443
639.569	245.55636
640.019	225.4935
640.468	230.48691
640.918	269.60986
641.367	228.48563
641.816	263.5547
642.265	247.54061
642.714	259.56592
643.163	245.53397
643.612	206.47055
644.061	190.3855
644.51	203.44225
644.958	216.45327
645.406	261.59004
645.855	217.50813
646.303	295.64975
646.751	227.49222
647.199	240.51986
647.647	232.50896
648.095	234.51141
648.543	235.46165
648.99	231.52648
649.438	263.58826
649.885	293.68499
650.333	179.33753
650.78	215.49793
651.227	212.49497
651.674	227.49579
652.121	218.50917
652.568	198.46319
653.015	238.57655
653.461	191.43866
653.908	202.45453
654.354	255.58211
654.801	186.42213
655.247	187.39926
655.693	221.55392
656.139	147.34436
656.585	222.51301
657.031	124.28348
657.477	158.33376
657.922	182.40718
658.368	204.4875
658.813	188.42632
659.259	173.40431
659.704	198.44754
660.149	160.36474
660.594	174.40306
661.039	143.32039
661.484	223.51625
661.929	213.4835
662.373	149.36794
662.818	162.39319
663.262	157.37038
663.707	217.53269
664.151	200.47574
664.595	137.32545
665.039	189.45915
665.483	154.38468
665.927	236.53885
666.371	142.32358
666.814	216.50232
667.258	117.27398
667.701	233.49035
668.145	232.56075
668.588	196.47017
669.031	137.31817
669.474	166.39336
669.917	228.49281
670.36	211.51029
670.803	221.52033
671.245	154.32245
671.688	190.45491
672.13	135.3006
672.573	215.53324
673.015	150.3564
673.457	210.44846
673.899	233.55008
674.341	172.40915
674.783	181.42666
675.225	191.46088
675.666	165.39076
676.108	219.46657
676.549	222.51464
676.991	181.39449
677.432	160.31736
677.873	194.44207
678.314	202.47366
678.755	166.39897
679.196	170.38519
679.637	207.49665
680.078	213.48977
680.518	214.4904
680.959	195.45966
681.399	191.46575
681.839	170.40905
682.28	191.46331
682.72	139.31707
683.16	166.40834
683.6	192.43291
684.039	207.42585
684.479	159.38628
684.919	142.32541
685.358	218.54196
685.798	197.50671
686.237	198.47189
686.676	265.59933
687.115	208.48086
687.554	189.44292
687.993	220.47878
688.432	221.49595
688.871	213.47505
689.309	218.51077
689.748	201.4163
690.186	257.59872
690.625	191.44182
691.063	239.56008
691.501	229.55423
691.939	192.47141
692.377	208.49857
692.815	221.51811
693.253	230.54226
693.69	193.41975
694.128	201.47895
694.565	240.55989
695.003	217.53997
695.44	195.45215
695.877	224.5129
696.314	264.55448
696.751	243.5433
697.188	193.43792
697.625	278.62142
698.061	243.56945
698.498	249.58876
698.934	245.57661
699.371	200.46383
699.807	237.54887
700.243	212.50138
700.679	211.47118
701.115	285.6519
701.551	256.58852
701.987	244.53777
702.422	243.56388
702.858	215.50345
703.294	202.45211
703.729	300.70973
704.164	249.58511
704.599	234.51141
705.035	204.45018
705.47	206.49265
705.904	208.47703
706.339	261.59293
706.774	272.61929
707.209	247.55635
707.643	244.5728
708.078	257.60979
708.512	208.51069
708.946	261.60995
709.38	261.60277
709.814	248.5546
710.248	223.5334
710.682	237.55148
711.116	218.50977
711.549	260.65317
711.983	265.59615
712.416	246.56892
712.85	279.67496
713.283	240.55571
713.716	345.83144
714.149	285.65949
714.582	241.52993
715.015	323.77903
715.448	299.72878
715.881	260.55596
716.313	226.51956
716.746	219.50618
717.178	257.60202
717.61	265.65387
718.043	260.63126
718.475	248.58696
718.907	314.76719
719.339	231.51285
719.77	255.58868
720.202	276.67737
720.634	243.57702
721.065	214.49865
721.497	235.56361
721.928	233.55945
722.359	200.47428
722.79	243.56789
723.221	271.66301
723.652	320.79577
724.083	215.47674
724.514	264.59062
724.945	262.59942
725.375	202.46123
725.806	294.71057
726.236	317.78271
726.666	240.55571
727.096	273.65074
727.526	207.5164
727.956	246.54581
728.386	274.65525
728.816	243.59981
729.246	250.59192
729.675	219.52823
730.105	289.68887
730.534	231.52946
730.964	280.68693
731.393	282.68004
731.822	263.65346
732.251	223.55449
732.68	285.65137
733.109	243.58456
733.537	212.50274
733.966	237.5751
734.395	219.49651
734.823	225.49849
735.251	230.54226
735.68	294.71272
736.108	252.62145
736.536	254.58415
736.964	236.53559
737.392	239.5843
737.82	266.62078
738.247	237.55518
738.675	302.6973
739.102	231.56411
739.53	215.53655
739.957	209.52761
740.384	258.62029
740.811	256.63201
741.238	264.62627
741.665	186.42572
742.092	307.70729
742.519	236.5702
742.945	217.51112
743.372	242.58469
743.798	259.64774
744.225	202.47255
744.651	225.55273
745.077	212.51878
745.503	268.63527
745.929	234.5489
746.355	305.73257
746.781	229.55527
747.207	193.44574
747.632	188.45132
748.058	212.51917
748.483	191.43391
748.908	220.53555
749.334	243.58235
749.759	222.51281
750.184	193.45265
750.609	223.53686
751.033	239.5524
751.458	231.50752
751.883	273.65647
752.307	170.39598
752.732	167.41208
753.156	204.49494
753.58	248.57446
754.005	211.52561
754.429	213.49114
754.853	212.51492
755.277	237.54778
755.7	217.52756
756.124	190.46409
756.548	193.45034
756.971	216.51716
757.394	221.55731
757.818	222.55893
758.241	218.54157
758.664	226.55796
759.087	206.45136
759.51	238.57807
759.933	231.54282
760.356	209.52554
760.778	222.53415
761.201	259.61264
761.623	221.52539
762.046	208.48506
762.468	217.51131
762.89	240.57811
763.312	201.48244
763.734	184.43668
764.156	222.53638
764.578	204.46147
765	185.44488
765.421	163.40885
765.843	211.54214
766.264	244.57481
766.686	184.45545
767.107	183.43707
767.528	161.40151
767.949	169.42436
768.37	188.45424
768.791	180.42965
769.212	160.39706
769.632	133.30827
770.053	201.51933
770.473	174.41772
770.894	203.49906
771.314	218.51017
771.734	177.407
772.154	183.46265
772.575	185.42267
772.994	143.32263
773.414	198.46736
773.834	170.41941
774.254	162.39201
774.673	167.4019
775.093	139.34123
775.512	158.38478
775.931	156.39108
776.351	188.45886
776.77	160.38645
777.189	163.38319
777.607	152.38394
778.026	159.39133
778.445	102.25461
778.864	165.41774
779.282	160.38046
779.701	154.38384
780.119	149.37239
780.537	143.35338
780.955	170.42649
781.373	160.39082
781.791	141.31422
782.209	143.32698
782.627	107.28068
783.045	178.40299
783.462	125.31715
783.88	116.29833
784.297	138.34397
784.715	104.26597
785.132	104.25119
785.549	89.22252
785.966	132.32925
786.383	86.21163
786.8	125.2887
787.217	127.29903
787.633	91.22678
788.05	144.33899
788.466	141.32966
788.883	103.26161
789.299	113.27092
789.715	141.33934
790.131	92.22848
790.547	120.2978
790.963	101.24996
791.379	103.25938
791.795	90.20559
792.21	67.15739
792.626	79.18782
793.041	97.23883
793.457	100.24645
793.872	60.14185
794.287	50.12008
794.702	98.24089
795.117	81.2012
795.532	88.22014
795.947	114.27306
796.362	144.3403
796.776	127.29553
797.191	73.17901
797.605	59.13914
798.02	79.19236
798.434	90.20053
798.848	111.27179
799.262	85.2106
799.676	85.20736
800.09	98.24036
800.504	107.25849
800.918	62.14431
801.331	75.19667
801.745	70.16132
802.158	56.14055
802.572	113.27257
802.985	118.28339
803.398	82.19559
803.811	133.33864
804.224	93.23092
804.637	71.16945
805.05	62.14436
805.462	90.22074
805.875	42.10941
806.288	59.1428
806.7	50.12625
807.112	51.11901
807.525	73.18034
807.937	44.10939
808.349	81.20274
808.761	55.13587
809.173	47.11457
809.584	121.29671
809.996	74.18123
810.408	28.07279
810.819	55.12995
811.231	88.22663
811.642	164.38426
812.053	277.63309
812.464	332.75037
812.875	304.74497
813.286	200.50318
813.697	178.4084
814.108	117.28371
814.519	90.20028
814.929	104.26382
815.34	67.16277
815.75	56.14267
816.16	104.25781
816.571	87.22534
816.981	13.03109
817.391	69.16682
817.801	26.06511
818.211	62.14822
818.62	21.05106
819.03	110.26779
819.44	66.17251
819.849	56.14151
820.259	67.17162
820.668	45.11121
821.077	40.09988
821.486	80.1925
821.895	81.19988
822.304	26.06937
822.713	63.14926
823.122	44.11035
823.531	56.13321
823.939	75.18262
824.348	75.18228
824.756	59.1481
825.164	76.19108
825.573	23.05819
825.981	71.1761
826.389	80.20063
826.797	38.09571
827.205	36.08323
827.612	85.20921
828.02	11.02613
828.428	63.16058
828.835	42.11098
829.243	68.1622
829.65	-3.00755
830.057	54.13146
830.464	85.2065
830.871	59.14162
831.278	64.15487
831.685	10.02261
832.092	82.2003
832.499	46.10122
832.905	45.11438
833.312	83.18895
833.718	42.10514
834.124	75.17129
834.531	48.12142
834.937	83.21238
835.343	87.20922
835.749	62.1451
836.155	40.10516
836.561	-4.00997
836.966	50.12268
837.372	56.14277
837.777	49.12242
838.183	74.16447
838.588	44.10967
838.993	34.0833
839.399	24.05913
839.804	9.02216
840.209	44.11237
840.613	43.09618
841.018	18.04595
841.423	75.19198
841.828	37.09401
842.232	61.15125
842.637	37.0878
843.041	11.02844
843.445	45.11324
843.849	49.12163
844.253	49.11685
844.657	16.04062
845.061	34.07767
845.465	18.04385
845.869	34.07951
846.272	-5.01233
846.676	48.11646
847.079	-14.03607
847.483	78.19407
847.886	82.19888
848.289	38.10175
848.692	37.09411
849.095	29.07011
849.498	111.27893
849.901	38.08764
850.304	58.13877
850.707	42.10745
851.109	66.16689
851.512	6.0149
851.914	12.0305
852.316	27.0687
852.718	-47.12354
853.121	-20.04974
853.523	43.10089
853.925	43.11245
854.326	0
854.728	28.07239
855.13	10.026
855.531	26.06254
855.933	48.11554
856.334	54.13475
856.736	14.03167
857.137	33.07716
857.538	20.05063
857.939	34.08438
858.34	90.21812
858.741	29.07618
859.142	64.15365
859.542	43.11371
859.943	39.09726
860.343	19.04738
860.744	49.1198
861.144	7.01724
861.544	-1.00243
861.945	42.10734
862.345	84.2045
862.745	31.07742
863.145	69.16467
863.544	30.07619
863.944	57.13473
864.344	63.15638
864.743	59.14639
865.143	20.05171
865.542	-11.02587
865.941	24.05978
866.34	45.1081
866.74	79.21122
867.139	43.10325
867.537	31.07935
867.936	32.07741
868.335	40.10208
868.734	26.0668
869.132	59.13708
869.531	78.18797
869.929	-2.00461
870.327	24.0579
870.726	66.16433
871.124	52.1217
871.522	14.03593
871.92	43.10634
872.318	48.11755
872.715	70.17289
873.113	41.10021
873.511	33.08257
873.908	-5.01276
874.306	14.03509
874.703	33.08293
875.1	89.22637
875.497	38.09144
875.894	30.07385
876.291	58.14231
876.688	17.04414
877.085	40.09629
877.482	45.11288
877.878	30.07257
878.275	61.15483
878.671	44.09828
879.068	62.14953
879.464	52.12579
879.86	50.11839
880.256	60.14798
880.652	41.10454
881.048	64.15836
881.444	16.03838
881.84	24.06134
882.236	40.10086
882.631	11.02722
883.027	58.14041
883.422	47.12035
883.817	-36.09194
884.213	52.1335
884.608	5.01237
885.003	58.13977
885.398	40.10039
885.793	40.10068
886.188	6.01505
886.582	74.18919
886.977	26.06206
887.371	49.12406
887.766	22.05504
888.16	55.13727
888.554	86.21148
888.949	26.06563
889.343	49.11985
889.737	-4.01076
890.131	41.1031
890.525	63.16087
890.918	41.10344
891.312	36.08646
891.706	59.15466
892.099	50.12733
892.492	23.04998
892.886	30.07374
893.279	25.06402
893.672	5.01284
894.065	31.07796
894.458	40.10086
894.851	48.11777
895.244	24.06162
895.637	31.075
896.029	19.04676
896.422	30.07363
896.814	38.09475
897.206	25.05987
897.599	102.25008
897.991	48.1162
898.383	27.06414
898.775	33.07482
899.167	7.01648
899.559	43.10906
899.951	54.12732
900.342	63.15996
900.734	-21.05281
901.125	42.11042
901.517	39.09599
901.908	92.21902
902.299	9.02218
902.69	55.12975
903.082	33.08023
903.473	-5.01211
903.863	34.08705
904.254	10.02341
904.645	82.2029
905.036	2.00489
905.426	63.144
905.817	33.08128
906.207	-1.00241
906.597	46.10774
906.987	60.15533
907.378	36.09132
907.768	19.05052
908.158	55.13407
908.547	9.02342
908.937	63.16138
909.327	36.08771
909.717	66.16719
910.106	-12.02918
910.495	76.18895
910.885	59.14927
911.274	51.12751
911.663	63.15962
912.052	47.11611
912.441	23.05879
912.83	53.12168
913.219	73.19039
913.608	62.15161
913.997	8.02022
914.385	42.10056
914.774	13.03189
915.162	22.05274
915.55	5.01221
915.939	58.14625
916.327	33.08266
916.715	6.01541
917.103	52.12801
917.491	75.1848
917.878	33.08143
918.266	48.12456
918.654	53.13538
919.041	23.06033
919.429	17.0404
919.816	57.14437
920.203	38.09241
920.591	43.10681
920.978	80.1949
921.365	25.06589
921.752	43.1027
922.139	40.08709
922.525	17.0411
922.912	36.08807
923.299	-1.00251
923.685	31.08115
924.072	53.12221
924.458	17.04238
924.844	21.05226
925.231	21.04918
925.617	-1.00257
926.003	44.11261
926.389	45.11365
926.774	40.10158
927.16	23.05742
927.546	20.05133
927.931	75.18636
928.317	55.12662
928.702	47.11131
929.088	18.04285
929.473	57.14488
929.858	-6.01466
930.243	-2.00485
930.628	32.07814
931.013	44.1092
931.398	100.22778
931.783	63.16554
932.167	50.12227
932.552	45.11288
932.937	29.07227
933.321	4.01012
933.705	15.03806
934.09	79.19866
934.474	49.11645
934.858	13.03394
935.242	-5.01172
935.626	27.0694
936.009	3.00804
936.393	40.10198
936.777	-3.00775
937.16	37.0965
937.544	45.10616
937.927	45.1143
938.311	42.10271
938.694	48.127
939.077	8.01931
939.46	60.14711
939.843	47.09817
940.226	-5.01295
940.609	33.07603
940.991	36.09188
941.374	22.05406
941.757	38.09399
942.139	-2.00454
942.522	75.17645
942.904	25.0604
943.286	43.10941
943.668	26.06764
944.05	33.08155
944.432	34.08416
944.814	31.07664
945.196	6.01474
945.578	-24.05786
945.959	39.09161
946.341	88.21455
946.722	13.03074
947.104	42.10056
947.485	29.06778
947.866	26.06579
948.247	-5.01274
948.628	33.08077
949.009	27.06943
949.39	10.02508
949.771	54.12554
950.152	29.07146
950.532	5.0124
950.913	17.04127
951.293	74.19913
951.674	35.0849
952.054	35.08697
952.434	10.02501
952.814	46.10955
953.194	83.21602
953.574	52.12806
953.954	-1.0024
954.334	26.06509
954.714	-30.07421
955.093	48.11808
955.473	8.02016
955.853	60.15506
956.232	59.16148
956.611	80.19082
956.99	17.04298
957.37	45.11478
957.749	15.03603
958.128	15.03803
958.506	-19.04987
958.885	58.14619
959.264	13.03208
959.643	43.09801
960.021	-6.01502
960.4	31.07054
960.778	64.15726
961.156	16.04036
961.535	28.06556
961.913	70.16318
962.291	14.03614
962.669	8.02042
963.047	32.08193
963.424	24.06153
963.802	27.06668
964.18	95.23847
964.557	49.1129
964.935	35.08318
965.312	36.09397
965.69	81.20171
966.067	48.11694
966.444	59.14516
966.821	38.09817
967.198	73.17635
967.575	52.12782
967.952	70.16434
968.329	68.16493
968.705	32.0689
969.082	35.09
969.458	12.029
969.835	54.13136
970.211	39.10028
970.587	78.19322
970.963	56.14352
971.339	30.0786
971.715	51.12733
972.091	15.03718
972.467	42.10492
972.843	13.03248
973.219	81.19339
973.594	36.09439
973.97	35.08356
974.345	25.06012
974.721	37.08982
975.096	17.04139
975.471	48.11392
975.846	7.01696
976.221	-2.00513
976.596	56.13408
976.971	70.1722
977.346	59.13713
977.72	34.08686
978.095	42.10869
978.469	29.0695
978.844	50.12571
979.218	-2.00484
979.593	31.07455
979.967	22.05388
980.341	17.0394
980.715	17.04309
981.089	23.05786
981.463	44.10116
981.837	7.01724
982.21	41.0956
982.584	24.05825
982.957	20.05021
983.331	41.0971
983.704	59.14473
984.078	19.04709
984.451	97.24024
984.824	-1.00246
985.197	33.08041
985.57	48.12042
985.943	70.17226
986.316	58.14231
986.688	48.11581
987.061	49.11488
987.434	56.14578
987.806	38.09237
988.179	61.14363
988.551	69.17445
988.923	13.03223
989.295	59.14719
989.667	-24.05814
990.039	1.00249
990.411	51.11737
990.783	46.10601
991.155	-39.09528
991.527	89.2176
991.898	35.08745
992.27	25.06212
992.641	74.18485
993.012	80.18715
993.384	41.09796
993.755	30.07675
994.126	39.094
994.497	7.01732
994.868	-10.02325
995.239	38.0923
995.61	38.09582
995.98	29.07072
996.351	2.005
996.722	-5.01172
997.092	31.07367
997.462	-2.00472
997.833	29.06903
998.203	47.11401
998.573	29.07248
998.943	53.12421
999.313	11.02655
999.683	15.03624
1000.053	23.05321
1000.423	49.11909
1000.792	52.13471
1001.162	40.09862
1001.531	73.17921
1001.901	68.16894
1002.27	-1.00226
1002.639	34.08711
1003.009	12.02874
1003.378	54.13796
1003.747	27.06407
1004.116	-10.0242
1004.485	49.11712
1004.853	59.14922
1005.222	65.16346
1005.591	96.2259
1005.959	-11.02509
1006.328	41.09243
1006.696	-5.01218
1007.064	21.05309
1007.433	28.07025
1007.801	57.13972
1008.169	11.02797
1008.537	54.11947
1008.905	-14.03302
1009.273	52.12839
1009.64	-3.00723
1010.008	37.08841
1010.375	101.24289
1010.743	93.21291
1011.11	21.04997
1011.478	33.08191
1011.845	55.1292
1012.212	6.0137
1012.579	52.12759
1012.946	42.1001
1013.313	80.18928
1013.68	32.07218
1014.047	15.03598
1014.414	-19.04547
1014.78	26.06488
1015.147	66.15911
1015.513	18.04362
1015.88	73.18587
1016.246	52.12829
1016.612	43.09856
1016.978	44.10792
1017.344	47.11619
1017.71	44.1074
1018.076	38.0898
1018.442	39.10049
1018.808	73.18166
1019.174	31.07801
1019.539	91.20774
1019.905	4.00952
1020.27	25.06196
1020.636	48.1151
1021.001	66.15749
1021.366	-22.05354
1021.731	41.10557
1022.096	-7.01783
1022.461	43.10188
1022.826	53.12586
1023.191	36.09464
1023.556	28.06589
1023.92	62.15207
1024.285	62.15094
1024.649	57.13947
1025.014	69.17027
1025.378	28.07065
1025.742	51.12659
1026.107	40.09064
1026.471	44.10281
1026.835	59.14597
1027.199	22.05322
1027.562	28.06535
1027.926	34.08336
1028.29	27.06858
1028.654	37.08532
1029.017	25.06171
1029.381	7.01685
1029.744	63.16024
1030.107	33.07831
1030.471	0
1030.834	46.1047
1031.197	49.11802
1031.56	38.08984
1031.923	56.14457
1032.286	94.21878
1032.648	49.11717
1033.011	-7.01624
1033.374	80.18686
1033.736	14.03702
1034.099	51.12423
1034.461	28.07098
1034.823	50.12445
1035.185	4.01015
1035.548	21.05136
1035.91	15.03616
1036.272	23.05261
1036.634	82.19933
1036.995	24.05667
1037.357	-1.00245
1037.719	18.04402
1038.08	22.0525
1038.442	40.09508
1038.803	27.06508
1039.165	20.05072
1039.526	37.08959
1039.887	58.1385
1040.248	6.0149
1040.609	82.20134
1040.97	21.05157
1041.331	41.10392
1041.692	36.08422
1042.053	30.06856
1042.413	67.15554
1042.774	69.16713
1043.134	48.11427
1043.495	33.08316
1043.855	53.12842
1044.215	9.02249
1044.576	-13.03144
1044.936	63.144
1045.296	60.14939
1045.656	73.17828
1046.016	1.00243
1046.375	54.13082
1046.735	12.0274
1047.095	41.09609
1047.454	32.06804
1047.814	46.1106
1048.173	57.13593
1048.533	32.07354
1048.892	-54.1321
1049.251	37.09304
1049.61	43.10595
1049.969	60.14108
1050.328	0
1050.687	2.00491
1051.046	26.06356
1051.405	39.09716
1051.763	-1.00232
1052.122	15.03763
1052.48	22.0542
1052.839	19.04495
1053.197	-9.02141
1053.555	48.10943
1053.914	52.12707
1054.272	92.22053
1054.63	-15.0371
1054.988	-4.0096
1055.345	32.06914
1055.703	43.10357
1056.061	8.02072
1056.419	21.0546
1056.776	34.08265
1057.134	14.03262
1057.491	31.07784
1057.848	49.12194
1058.206	-13.03093
1058.563	30.06637
1058.92	30.06938
1059.277	31.07669
1059.634	34.0802
1059.991	83.19748
1060.348	12.02731
1060.704	4.00961
1061.061	86.19827
1061.418	-9.02205
1061.774	7.01741
1062.131	16.04252
1062.487	47.10989
1062.843	18.04511
1063.199	25.06242
1063.555	-8.01874
1063.911	21.05328
1064.267	53.11041
1064.623	15.03665
1064.979	60.1418
1065.335	78.18533
1065.691	33.0793
1066.046	-27.06029
1066.402	2.00459
1066.757	59.14858
1067.112	64.15656
1067.468	-4.00954
1067.823	29.06995
1068.178	43.10408
1068.533	63.15225
1068.888	50.1194
1069.243	15.03723
1069.598	51.12381
1069.952	-22.05023
1070.307	33.08188
1070.662	-12.02881
1071.016	-2.00453
1071.371	30.06847
1071.725	50.11954
1072.079	45.10826
1072.434	25.06099
1072.788	36.0859
1073.142	53.13021
1073.496	1.00239
1073.85	19.0443
1074.203	52.12602
1074.557	40.10647
1074.911	85.20138
1075.265	4.00938
1075.618	39.09535
1075.971	40.09526
1076.325	45.11438
1076.678	7.01614
1077.031	17.0387
1077.385	25.05532
1077.738	18.04087
1078.091	2.00459
1078.444	13.03038
1078.796	20.04931
1079.149	53.13165
1079.502	-8.0191
1079.855	-5.01178
1080.207	48.11821
1080.56	7.01821
1080.912	32.07811
1081.264	31.07486
1081.617	14.03432
1081.969	33.08343
1082.321	13.03194
1082.673	-2.00461
1083.025	-2.00479
1083.377	36.07745
1083.728	33.07719
1084.08	33.08257
1084.432	34.08218
1084.783	44.10314
1085.135	16.04031
1085.486	-1.00231
1085.838	23.05688
1086.189	38.09237
1086.54	69.16404
1086.891	6.01528
1087.242	28.0684
1087.593	57.13848
1087.944	11.02507
1088.295	48.10907
1088.646	55.13307
1088.996	-48.11768
1089.347	20.04931
1089.698	1.00238
1090.048	75.19379
1090.398	32.07442
1090.749	9.02168
1091.099	5.01266
1091.449	11.02757
1091.799	24.06032
1092.149	-36.08911
1092.499	8.01965
1092.849	3.00768
1093.199	75.18698
1093.548	-1.00242
1093.898	12.0302
1094.248	21.05419
1094.597	-16.04128
1094.947	-3.00807
1095.296	42.10377
1095.645	28.07304
1095.994	25.06028
1096.343	39.09825
1096.692	-5.01324
1097.041	11.02994
1097.39	44.11039
1097.739	36.09371
1098.088	90.23932
1098.437	-37.09854
1098.785	55.14802
1099.134	76.20075
1099.482	44.12102
1099.83	51.13387
1100.179	32.08364
1100.527	35.09315
1100.875	13.03455
1101.223	81.21377
1101.571	4.01112
1101.919	-21.05548
1102.267	30.08464
1102.615	-2.00643
1102.962	16.05148
1103.31	16.05135
1103.658	15.04829
