Data from N2 R7 sample 1_Subt2__1__15-41-58-563.txt Node

Date: Fri Aug 29 15:41:58 PDT 2025
User: uwsun
Spectrometer: HDX01956
Trigger mode: 0
Integration Time (sec): 5.000000E-1
Scans to average: 1
Nonlinearity correction enabled: true
Boxcar width: 0
Storing dark spectrum: false
XAxis mode: Wavelengths
Number of Pixels in Spectrum: 2068
>>>>>Begin Spectral Data<<<<<
194.03	7.01963
194.578	16.0505
195.127	16.04976
195.676	15.0468
196.225	84.21971
196.773	42.11438
197.321	1.00268
197.87	100.2429
198.418	10.02438
198.966	17.04164
199.513	7.01637
200.061	-25.0598
200.609	120.29551
201.156	-33.06813
201.704	7.01655
202.251	33.08182
202.798	35.0851
203.345	78.17983
203.892	19.04491
204.438	48.10739
204.985	6.01326
205.532	24.05915
206.078	54.1236
206.624	18.04135
207.17	72.15536
207.716	44.09937
208.262	43.07933
208.808	-39.09033
209.354	30.06809
209.899	85.20045
210.445	34.0786
210.99	0
211.535	79.17255
212.08	65.14077
212.625	50.11702
213.17	82.19319
213.715	-33.06896
214.259	90.19437
214.804	71.16372
215.348	19.04092
215.892	59.13203
216.436	73.15796
216.98	80.16499
217.524	23.05102
218.068	78.18305
218.612	78.18326
219.155	45.09912
219.698	40.08942
220.242	78.18205
220.785	47.10313
221.328	78.18155
221.871	70.16671
222.414	73.17048
222.956	6.01362
223.499	73.15336
224.041	71.1554
224.583	54.11021
225.126	21.04375
225.668	46.10487
226.21	29.06863
226.751	-16.03315
227.293	41.08834
227.835	32.07342
228.376	55.11962
228.918	112.26314
229.459	13.03047
230	52.11596
230.541	52.11254
231.082	49.11128
231.622	30.06523
232.163	35.07952
232.704	33.07673
233.244	52.12065
233.784	77.17671
234.324	8.01645
234.864	-3.00644
235.404	63.14034
235.944	43.09583
236.484	70.16338
237.023	47.10374
237.563	12.02607
238.102	61.13448
238.641	57.13468
239.18	7.01535
239.719	40.09409
240.258	56.11762
240.797	-11.02482
241.335	68.15521
241.874	73.12975
242.412	59.13181
242.95	8.01788
243.488	95.20028
244.026	29.0624
244.564	77.14669
245.102	48.10019
245.64	82.18368
246.177	3.00633
246.715	91.20238
247.252	45.09658
247.789	85.1488
248.326	-12.02698
248.863	4.00821
249.4	77.16191
249.936	44.08409
250.473	12.02614
251.009	37.07862
251.546	5.01031
252.082	15.03073
252.618	60.1233
253.154	58.12864
253.69	23.04828
254.226	35.07758
254.761	62.12856
255.297	-1.00205
255.832	28.06153
256.367	86.18605
256.903	48.09734
257.438	116.24912
257.972	38.07844
258.507	20.04236
259.042	21.04238
259.576	5.00996
260.111	98.20756
260.645	92.18231
261.179	53.1137
261.713	70.14261
262.247	41.08746
262.781	25.04835
263.315	43.09694
263.849	-13.03029
264.382	81.17077
264.915	36.07751
265.449	-27.06087
265.982	57.11938
266.515	19.04283
267.048	37.07193
267.58	84.16817
268.113	77.15112
268.646	35.07942
269.178	7.01441
269.71	24.04841
270.243	62.12976
270.775	73.16954
271.307	66.14589
271.838	85.18503
272.37	32.07239
272.902	33.06911
273.433	33.06617
273.965	41.09152
274.496	61.13909
275.027	36.08187
275.558	24.05343
276.089	-45.10215
276.62	8.01885
277.15	75.16887
277.681	69.13651
278.211	80.17861
278.741	17.03417
279.272	32.06656
279.802	78.17688
280.332	72.15329
280.861	26.05726
281.391	23.04753
281.921	35.07719
282.45	43.09821
282.98	32.0763
283.509	59.11995
284.038	21.04361
284.567	86.18151
285.096	88.19135
285.625	-22.04582
286.153	11.02345
286.682	50.10302
287.21	42.09129
287.739	42.08962
288.267	5.01099
288.795	52.12408
289.323	18.03791
289.851	53.11169
290.378	39.07879
290.906	13.02832
291.433	53.11875
291.961	23.04676
292.488	84.18646
293.015	11.02326
293.542	42.09505
294.069	18.03972
294.596	55.12206
295.122	-8.01724
295.649	29.05732
296.175	44.09559
296.702	81.17452
297.228	120.25705
297.754	12.0241
298.28	20.04041
298.806	18.03857
299.332	9.01766
299.857	48.09552
300.383	90.20144
300.908	17.03641
301.433	0
301.958	40.08209
302.483	17.03751
303.008	69.15032
303.533	92.21075
304.058	74.15323
304.582	-4.00834
305.107	-16.03703
305.631	69.13779
306.155	75.15088
306.679	34.06914
307.203	39.07875
307.727	44.09099
308.251	57.12265
308.775	-9.01861
309.298	44.0907
309.822	33.07263
310.345	61.12447
310.868	21.04349
311.391	97.20468
311.914	27.05842
312.437	88.17144
312.96	74.14801
313.482	51.10307
314.005	6.01301
314.527	77.17188
315.049	67.14485
315.571	-22.0416
316.093	90.18728
316.615	41.08343
317.137	46.08378
317.659	79.16164
318.18	79.16003
318.702	74.1428
319.223	3.00514
319.744	47.0871
320.265	37.07423
320.786	42.08561
321.307	24.04961
321.828	35.06506
322.348	75.1433
322.869	10.01927
323.389	-178.24575
323.909	63.11681
324.43	76.14948
324.95	43.07885
325.47	8.01589
325.989	31.05828
326.509	10.01734
327.029	38.06693
327.548	-10.0177
328.067	8.01517
328.587	69.13491
329.106	44.07729
329.625	102.21206
330.144	19.03381
330.662	12.02131
331.181	95.16727
331.7	-2.0036
332.218	36.05818
332.736	52.09139
333.255	64.11036
333.773	58.10183
334.291	56.10541
334.808	55.0887
335.326	34.05591
335.844	21.03506
336.361	23.0423
336.879	-50.08461
337.396	-1.00173
337.913	20.03234
338.43	20.0313
338.947	28.04661
339.464	12.01739
339.981	7.01144
340.497	65.11068
341.014	-10.01686
341.53	-12.01817
342.046	42.0693
342.562	27.04597
343.078	39.06062
343.594	61.09565
344.11	47.0731
344.626	-38.06448
345.141	26.03779
345.657	74.10628
346.172	-11.01723
346.687	14.02019
347.202	96.12953
347.717	42.06252
348.232	66.10334
348.747	9.01265
349.261	-7.00889
349.776	8.01142
350.29	-8.01194
350.805	143.20996
351.319	42.0576
351.833	16.02069
352.347	62.08365
352.861	3.00403
353.374	31.0412
353.888	11.01551
354.401	-3.0039
354.915	-17.0207
355.428	72.09965
355.941	16.02025
356.454	84.10095
356.967	22.02863
357.48	-13.01636
357.993	18.02453
358.505	-3.00399
359.018	50.06528
359.53	18.02272
360.042	17.01915
360.554	76.0952
361.066	-20.02558
361.578	36.03792
362.09	21.02547
362.602	24.02512
363.113	26.02928
363.625	4.00426
364.136	26.02648
364.647	-63.06762
365.158	46.0492
365.669	72.0796
366.18	16.01744
366.691	0
367.201	-28.03093
367.712	-39.03878
368.222	41.03922
368.733	-36.03109
369.243	-48.0422
369.753	15.01399
370.263	67.06354
370.773	7.0071
371.282	26.02329
371.792	-69.05397
372.301	-32.02766
372.811	-26.02589
373.32	-116.07063
373.829	-136.10048
374.338	-28.01603
374.847	-79.04644
375.356	-100.05944
375.865	-85.02936
376.373	-44.01655
376.882	-12.00646
377.39	1.0004
377.898	-211.07851
378.407	-108.01738
378.915	-80.00562
379.423	-69.00668
379.93	-90.99999
380.438	-146.99585
380.946	-98.98589
381.453	-193.96484
381.96	-192.94525
382.468	-409.84913
382.975	-148.9388
383.482	-140.93144
383.989	-215.90494
384.495	-327.82951
385.002	-393.77724
385.509	-309.8243
386.015	-282.85503
386.521	-302.84396
387.028	-423.80386
387.534	-354.86927
388.04	-260.90002
388.546	-611.86455
389.051	-829.97235
389.557	-642.15194
390.063	-280.1224
390.568	-375.26027
391.073	-654.69438
391.578	-748.87571
392.084	-807.40966
392.589	-1271.94816
393.093	-1606.86845
393.598	-1363.7277
394.103	-1400.42955
394.607	-1388.5758
395.112	-1233.94003
395.616	-1475.59056
396.12	-1983.95566
396.624	-2284.00172
397.128	-1996.39082
397.632	-2239.24895
398.136	-2304.17196
398.639	-4057.37423
399.143	-5554.67572
399.646	-5777.23823
400.15	-6561.56879
400.653	-7939.63298
401.156	-10055.61587
401.659	-12755.18709
402.162	-6129.83243
402.664	-1216.22343
403.167	0
403.67	0
404.172	0
404.674	0
405.176	0
405.678	0
406.18	0
406.682	0
407.184	0
407.686	0
408.187	0
408.688	0
409.19	0
409.691	0
410.192	0
410.693	0
411.194	435.30976
411.694	4058.33382
412.195	6839.62847
412.696	4512.21693
413.196	2043.83718
413.696	61.01373
414.196	1810.02472
414.696	4828.31947
415.196	6735.22092
415.696	10416.68419
416.196	9220.07389
416.695	4525.54887
417.195	1659.9961
417.694	1596.18834
418.194	1708.42388
418.693	1141.83251
419.192	856.45646
419.691	843.11243
420.19	1084.79167
420.688	1294.60726
421.187	1504.45463
421.685	1610.83982
422.184	1966.50544
422.682	1587.87068
423.18	883.12969
423.678	661.56493
424.176	403.64246
424.674	443.49831
425.172	547.30385
425.669	723.10638
426.167	839.93335
426.664	592.81563
427.161	347.83345
427.659	351.8037
428.156	230.87126
428.652	177.90457
429.149	161.91502
429.646	252.86718
430.143	329.8543
430.639	138.94849
431.135	139.96376
431.632	122.96901
432.128	66.99228
432.624	-31.00078
433.12	-230.98645
433.616	-40.99654
434.111	-174.0089
434.607	-203.03266
435.103	-65.00528
435.598	75.0052
436.093	-10.00331
436.588	5.00176
437.083	-64.0289
437.578	12.00609
438.073	-202.14194
438.568	-59.04436
439.062	-95.05385
439.557	-44.03401
440.051	-120.08922
440.546	-204.1633
441.04	-156.14077
441.534	-176.18601
442.028	-85.08167
442.522	-144.14218
443.015	-139.11886
443.509	-122.1309
444.002	-175.19251
444.496	-161.14801
444.989	-162.18358
445.482	-223.26678
445.975	-178.17681
446.468	-176.16466
446.961	-172.16235
447.454	-246.26823
447.947	-248.2871
448.439	-248.31137
448.931	-191.20472
449.424	-161.21244
449.916	-224.28557
450.408	-237.2683
450.9	-270.34878
451.392	-254.35116
451.884	-230.2825
452.375	-279.38262
452.867	-138.16585
453.358	-281.34579
453.849	-219.2447
454.341	-259.32234
454.832	-232.26937
455.323	-279.39386
455.814	-218.28467
456.304	-225.29771
456.795	-239.31667
457.285	-168.21624
457.776	-215.29501
458.266	-253.36078
458.756	-247.36581
459.247	-285.41568
459.737	-235.33997
460.226	-217.29253
460.716	-253.3786
461.206	-259.39674
461.695	-219.35583
462.185	-191.28545
462.674	-217.32118
463.163	-190.26691
463.653	-253.3404
464.142	-257.41124
464.63	-190.30984
465.119	-240.36796
465.608	-250.38602
466.096	-226.33093
466.585	-202.31907
467.073	-190.31454
467.561	-187.31223
468.05	-186.30025
468.538	-210.36716
469.026	-214.3643
469.513	-220.32274
470.001	-239.38614
470.489	-229.3891
470.976	-198.32906
471.463	-206.37862
471.951	-171.31659
472.438	-221.38283
472.925	-284.49787
473.412	-182.33788
473.899	-183.31498
474.385	-250.47455
474.872	-233.41372
475.359	-201.37585
475.845	-232.36561
476.331	-172.28695
476.817	-239.46131
477.303	-242.44345
477.789	-166.31263
478.275	-203.39841
478.761	-160.3046
479.247	-178.31663
479.732	-214.42685
480.218	-221.46878
480.703	-245.49902
481.188	-218.37733
481.673	-207.38497
482.158	-293.50838
482.643	-169.35519
483.128	-251.47214
483.612	-199.38373
484.097	-208.42704
484.581	-211.41137
485.066	-203.41178
485.55	-232.42491
486.034	-238.43238
486.518	-229.45178
487.002	-249.51663
487.486	-206.42541
487.969	-207.42834
488.453	-219.47589
488.936	-257.49915
489.42	-180.33934
489.903	-213.46581
490.386	-160.22089
490.869	-172.32218
491.352	-164.34871
491.835	-159.28246
492.318	-250.49402
492.8	-202.36305
493.283	-234.522
493.765	-222.47923
494.247	-169.34689
494.73	-216.42042
495.212	-222.47902
495.694	-198.40504
496.175	-267.56041
496.657	-152.31643
497.139	-182.282
497.62	-285.604
498.102	-218.48027
498.583	-226.5079
499.064	-243.48323
499.545	-268.55295
500.026	-262.52939
500.507	-225.46913
500.988	-225.50348
501.469	-282.64024
501.949	-219.48924
502.43	-289.62291
502.91	-276.51905
503.39	-166.37307
503.87	-246.5226
504.35	-191.40762
504.83	-227.4493
505.31	-280.62046
505.79	-208.44785
506.269	-222.47244
506.749	-266.55474
507.228	-260.55668
507.707	-276.56229
508.187	-199.43298
508.666	-247.5527
509.145	-246.52443
509.623	-274.59248
510.102	-235.52151
510.581	-176.38677
511.059	-274.63115
511.538	-224.53201
512.016	-197.42918
512.494	-214.47659
512.972	-223.48809
513.45	-313.67116
513.928	-231.51328
514.406	-300.66616
514.884	-251.59463
515.361	-232.51111
515.839	-210.43796
516.316	-234.51854
516.793	-256.60238
517.27	-241.54305
517.747	-277.66027
518.224	-227.48655
518.701	-226.46588
519.178	-282.64906
519.654	-157.34233
520.131	-297.68862
520.607	-243.56187
521.083	-243.51612
521.56	-261.57559
522.036	-218.44494
522.512	-178.40528
522.987	-223.48809
523.463	-263.58462
523.939	-222.50669
524.414	-242.52396
524.89	-242.53649
525.365	-262.55684
525.84	-273.60483
526.315	-263.59311
526.79	-250.52902
527.265	-249.53255
527.74	-245.55793
528.215	-229.50397
528.689	-246.51075
529.164	-241.49288
529.638	-248.59828
530.112	-301.67102
530.587	-280.56395
531.061	-265.59957
531.534	-252.57584
532.008	-228.51156
532.482	-239.51692
532.956	-248.59059
533.429	-243.5536
533.903	-226.47111
534.376	-223.4629
534.849	-249.54499
535.322	-224.49617
535.795	-233.53533
536.268	-241.54461
536.741	-241.54616
537.213	-251.54937
537.686	-274.63039
538.158	-247.52027
538.631	-181.4112
539.103	-269.57059
539.575	-190.3721
540.047	-264.55228
540.519	-206.46258
540.991	-201.46181
541.463	-257.58951
541.934	-222.4782
542.406	-216.48224
542.877	-207.43851
543.348	-219.49813
543.82	-218.50357
544.291	-232.51282
544.762	-247.55179
545.233	-244.57481
545.703	-238.49569
546.174	-239.52399
546.645	-257.57508
547.115	-262.59483
547.585	-232.50146
548.056	-229.51243
548.526	-248.54406
548.996	-203.45369
549.466	-179.40517
549.935	-233.51062
550.405	-229.46579
550.875	-217.47476
551.344	-202.44745
551.814	-203.43098
552.283	-192.38653
552.752	-256.55167
553.221	-260.52366
553.69	-234.48063
554.159	-237.53404
554.628	-274.56761
555.096	-217.50335
555.565	-217.44602
556.033	-187.40653
556.502	-190.42543
556.97	-171.35115
557.438	-192.42423
557.906	-187.41569
558.374	-187.40272
558.842	-183.40967
559.31	-161.33823
559.777	-209.47519
560.245	-177.39297
560.712	-170.3717
561.18	-167.34727
561.647	-234.5008
562.114	-141.30079
562.581	-129.29758
563.048	-155.33797
563.514	-191.4427
563.981	-156.33806
564.448	-143.3028
564.914	-111.24265
565.381	-130.27955
565.847	-94.20614
566.313	-159.35139
566.779	-86.18143
567.245	-91.1991
567.711	-83.18527
568.176	-131.27691
568.642	-90.20981
569.108	-67.15265
569.573	-23.05009
570.038	-39.07614
570.504	-18.03699
570.969	-3.00688
571.434	12.02394
571.899	18.03899
572.363	20.04149
572.828	66.13667
573.293	88.18108
573.757	99.20339
574.222	99.19659
574.686	94.18749
575.15	114.24071
575.614	123.2503
576.078	131.27205
576.542	111.22537
577.006	166.3288
577.469	227.49117
577.933	177.3459
578.396	149.31371
578.86	142.29667
579.323	176.3677
579.786	220.4123
580.249	176.35122
580.712	229.48808
581.175	180.3904
581.637	220.44392
582.1	188.364
582.563	187.3547
583.025	161.34464
583.487	154.2745
583.95	122.23282
584.412	148.27654
584.874	178.38095
585.336	146.30719
585.797	116.22438
586.259	169.3541
586.721	85.17952
587.182	176.3664
587.643	125.25449
588.105	97.20684
588.566	129.24361
589.027	48.10473
589.488	120.24559
589.949	141.30523
590.41	69.12143
590.87	148.30248
591.331	97.18974
591.791	57.11938
592.252	52.10777
592.712	72.15696
593.172	122.24617
593.632	118.23328
594.092	130.25978
594.552	113.21884
595.011	42.08767
595.471	103.20779
595.931	88.17732
596.39	104.22364
596.849	119.24856
597.308	154.2986
597.768	146.33054
598.227	142.30588
598.685	196.39931
599.144	152.31672
599.603	212.44213
600.062	214.39274
600.52	240.46558
600.978	266.54833
601.437	307.60566
601.895	318.57568
602.353	364.68557
602.811	436.80466
603.269	369.74953
603.727	411.82646
604.184	431.80559
604.642	500.00711
605.099	497.94691
605.557	542.07734
606.014	532.92203
606.471	585.17189
606.928	614.0279
607.385	669.27064
607.842	784.36001
608.299	824.4515
608.755	831.51388
609.212	863.41421
609.668	825.3525
610.125	981.73287
610.581	1042.7966
611.037	1041.71369
611.493	1035.77645
611.949	966.71118
612.405	1088.48864
612.861	1185.95398
613.316	1186.97234
613.772	1122.81551
614.227	1091.83707
614.683	1257.80519
615.138	1175.91714
615.593	1152.87892
616.048	1213.92234
616.503	1213.10408
616.958	1219.15123
617.412	1235.02453
617.867	1157.77358
618.321	1262.74459
618.776	1253.89244
619.23	1141.91224
619.684	1256.95633
620.138	1208.98167
620.592	1198.07412
621.046	1194.99548
621.5	1165.04066
621.954	1174.88304
622.407	1181.86387
622.861	1057.91303
623.314	1169.90837
623.768	1077.84977
624.221	1096.52984
624.674	1070.82256
625.127	1024.80201
625.58	1080.8298
626.033	1118.80697
626.485	1000.82202
626.938	1041.87541
627.39	1005.77999
627.843	1054.83566
628.295	998.76436
628.747	981.80129
629.199	930.64469
629.651	974.70218
630.103	1003.7599
630.555	906.49276
631.006	931.71871
631.458	914.70619
631.909	970.74497
632.361	932.71842
632.812	891.63899
633.263	904.53732
633.714	940.57555
634.165	995.90207
634.616	955.80264
635.067	915.61851
635.518	915.75734
635.968	1017.55879
636.419	949.62753
636.869	881.70574
637.319	936.72839
637.769	976.71731
638.219	1003.90447
638.669	954.82314
639.119	967.89832
639.569	994.91159
640.019	1062.91772
640.468	1040.81216
640.918	1091.05644
641.367	1053.84114
641.816	1097.89125
642.265	1114.99146
642.714	1092.96503
643.163	1110.97514
643.612	1068.0115
644.061	1037.69953
644.51	1046.87054
644.958	1110.87171
645.406	1174.15686
645.855	1119.15147
646.303	1160.08964
646.751	1117.96259
647.199	1098.94267
647.647	1171.05976
648.095	1135.00656
648.543	1112.73782
648.99	1082.03794
649.438	1136.08058
649.885	1121.18928
650.333	1115.62769
650.78	1048.0209
651.227	1086.09435
651.674	1066.91421
652.121	1071.07667
652.568	1015.98987
653.015	1064.16915
653.461	997.91691
653.908	1047.94583
654.354	962.88008
654.801	897.73925
655.247	925.65832
655.693	952.06292
656.139	891.77934
656.585	898.79292
657.031	845.64841
657.477	821.48127
657.922	856.64662
658.368	793.67776
658.813	827.62926
659.259	766.57856
659.704	723.45681
660.149	791.57065
660.594	789.60162
661.039	704.3928
661.484	738.53101
661.929	692.41567
662.373	667.48648
662.818	684.49389
663.262	652.38729
663.707	710.5801
664.151	663.43364
664.595	625.34217
665.039	697.5284
665.483	624.42234
665.927	645.34888
666.371	598.23472
666.814	639.35931
667.258	577.22672
667.701	664.26327
668.145	637.41897
668.588	598.32184
669.031	561.1911
669.474	579.2598
669.917	623.23087
670.36	541.22427
670.803	642.38493
671.245	562.06888
671.688	547.21777
672.13	462.95875
672.573	574.32718
673.015	556.21507
673.457	480.96498
673.899	542.20039
674.341	511.13375
674.783	520.1425
675.225	554.24229
675.666	454.01271
676.108	475.95559
676.549	525.14166
676.991	498.01043
677.432	446.82559
677.873	446.96434
678.314	468.03798
678.755	416.95204
679.196	428.9187
679.637	517.16466
680.078	481.04449
680.518	472.02339
680.959	429.965
681.399	431.00143
681.839	426.97491
682.28	403.93839
682.72	401.86614
683.16	438.02073
683.6	395.85354
684.039	425.83137
684.479	366.85444
684.919	368.8049
685.358	375.90543
685.798	377.93899
686.237	395.90563
686.676	404.88773
687.115	396.88112
687.554	394.88611
687.993	363.76593
688.432	343.75039
688.871	342.74235
689.309	350.79878
689.748	358.7154
690.186	398.90134
690.625	311.7022
691.063	354.81083
691.501	355.83868
691.939	333.79615
692.377	322.75499
692.815	330.75709
693.253	345.79514
693.69	331.69872
694.128	250.59009
694.565	329.75404
695.003	353.8565
695.44	314.71085
695.877	310.69751
696.314	315.65415
696.751	306.67525
697.188	348.7647
697.625	350.77071
698.061	309.71474
698.498	343.7962
698.934	340.78533
699.371	295.67124
699.807	297.67962
700.243	292.67984
700.679	317.69234
701.115	340.76907
701.551	286.65353
701.987	302.65749
702.422	248.57491
702.858	290.66906
703.294	284.62487
703.729	310.73197
704.164	281.65617
704.599	326.69858
705.035	267.58142
705.47	262.61985
705.904	291.65624
706.339	371.82396
706.774	264.60205
707.209	293.65373
707.643	272.63503
708.078	283.6681
708.512	233.56942
708.946	292.67824
709.38	275.63333
709.814	278.61783
710.248	290.68475
710.682	291.6699
711.116	212.49633
711.549	260.65317
711.983	271.6089
712.416	300.68634
712.85	270.6543
713.283	233.54025
713.716	318.7703
714.149	307.70729
714.582	258.56528
715.015	302.73128
715.448	267.65468
715.881	324.6832
716.313	268.61092
716.746	247.56771
717.178	267.62422
717.61	299.73313
718.043	292.70468
718.475	233.55306
718.907	322.78556
719.339	195.43617
719.77	222.51587
720.202	264.64936
720.634	253.5996
721.065	276.63525
721.497	281.66801
721.928	248.59376
722.359	167.39855
722.79	241.56344
723.221	296.7208
723.652	310.77231
724.083	229.5063
724.514	214.4837
724.945	268.6124
725.375	226.51353
725.806	252.6139
726.236	307.75942
726.666	276.63449
727.096	255.60993
727.526	245.60697
727.956	216.48224
728.386	274.65525
728.816	221.54772
729.246	200.47812
729.675	206.4981
730.105	239.57516
730.534	213.48997
730.964	279.6846
731.393	268.64799
731.822	250.62263
732.251	237.5878
732.68	247.56885
733.109	226.54542
733.537	233.55029
733.966	266.64194
734.395	286.63956
734.823	259.56975
735.251	212.50157
735.68	297.71958
736.108	258.63554
736.536	231.5337
736.964	231.52478
737.392	220.53975
737.82	201.47509
738.247	247.57747
738.675	235.54985
739.102	235.57345
739.53	212.52935
739.957	193.48862
740.384	265.63627
740.811	258.63671
741.238	219.52404
741.665	230.52177
742.092	234.54697
742.519	191.4654
742.945	194.45899
743.372	193.47062
743.798	245.61428
744.225	220.51284
744.651	217.53387
745.077	195.47869
745.503	224.53549
745.929	235.55114
746.355	271.65512
746.781	181.44285
747.207	165.3832
747.632	121.29418
748.058	167.41239
748.483	172.39226
748.908	160.39387
749.334	228.54796
749.759	154.36055
750.184	132.31328
750.609	189.45795
751.033	228.52813
751.458	199.44016
751.883	222.53901
752.307	189.43858
752.732	150.37129
753.156	163.39851
753.58	178.41804
754.005	167.41934
754.429	157.36606
754.853	156.38289
755.277	175.40947
755.7	205.49951
756.124	146.35954
756.548	171.40074
756.971	134.32585
757.394	188.47689
757.818	155.39493
758.241	156.39193
758.664	137.34376
759.087	94.21083
759.51	132.32698
759.933	146.34877
760.356	136.34646
760.778	144.35161
761.201	163.39272
761.623	175.41972
762.046	189.4424
762.468	157.37426
762.89	183.44558
763.312	146.3541
763.734	127.30472
764.156	119.29311
764.578	156.35634
765	136.33009
765.421	73.18607
765.843	155.40216
766.264	161.38541
766.686	114.2858
767.107	93.22594
767.528	74.18746
767.949	95.24172
768.37	82.20209
768.791	138.33205
769.212	64.16161
769.632	96.22414
770.053	130.34002
770.473	112.27205
770.894	113.28242
771.314	141.33496
771.734	82.19213
772.154	105.26914
772.575	126.2913
772.994	47.10812
773.414	147.35042
773.834	106.26459
774.254	93.22797
774.673	87.21255
775.093	115.28357
775.512	58.14389
775.931	96.24327
776.351	94.23345
776.77	77.18889
777.189	92.21927
777.607	92.23487
778.026	71.17758
778.445	9.02284
778.864	107.27369
779.282	80.19315
779.701	69.17463
780.119	95.23975
780.537	64.16045
780.955	99.25154
781.373	106.26152
781.791	73.16497
782.209	108.24869
782.627	66.17433
783.045	54.12534
783.462	105.26735
783.88	64.16609
784.297	50.12661
784.715	38.09831
785.132	58.14131
785.549	65.16322
785.966	80.20143
786.383	46.11403
786.8	59.13805
787.217	42.10053
787.633	57.14293
788.05	144.33899
788.466	95.22412
788.883	14.03612
789.299	63.15248
789.715	65.15868
790.131	80.19911
790.547	63.15797
790.963	43.10755
791.379	94.2371
791.795	69.15828
792.21	63.14811
792.626	57.13609
793.041	55.13647
793.457	45.11202
793.872	52.12313
794.287	-7.01699
794.702	69.17052
795.117	28.07022
795.532	43.10844
795.947	57.13801
796.362	91.21726
796.776	87.20405
797.191	35.08643
797.605	12.02856
798.02	35.08592
798.434	39.08781
798.848	61.15075
799.262	42.10488
799.676	97.2361
800.09	70.17258
800.504	75.18228
800.918	16.03758
801.331	93.24313
801.745	5.01167
802.158	36.09068
802.572	71.17262
802.985	73.17682
803.398	60.14372
803.811	83.2132
804.224	71.177
804.637	42.10079
805.05	68.15815
805.462	73.17961
805.875	26.06791
806.288	-15.03681
806.7	15.03811
807.112	-15.03546
807.525	47.11666
807.937	24.05989
808.349	41.10336
808.761	32.07939
809.173	27.06606
809.584	91.22439
809.996	28.06916
810.408	3.00783
810.819	13.03097
811.231	-11.02882
811.642	-22.05342
812.053	83.1971
812.464	93.22042
812.875	70.17896
813.286	68.17513
813.697	130.30114
814.108	65.15916
814.519	34.07654
814.929	45.11535
815.34	8.01965
815.75	-2.00515
816.16	56.14004
816.571	62.16128
816.981	69.16322
817.391	49.11891
817.801	-15.03784
818.211	29.06977
818.62	-7.01711
819.03	85.2079
819.44	60.15699
819.849	58.14651
820.259	82.20949
820.668	0
821.077	1.00251
821.486	37.08976
821.895	85.20959
822.304	69.18278
822.713	24.05729
823.122	68.1698
823.531	20.04791
823.939	38.09317
824.348	93.22526
824.756	39.09825
825.164	87.21831
825.573	0
825.981	84.20785
826.389	40.10104
826.797	36.09071
827.205	36.08323
827.612	25.06221
828.02	9.02139
828.428	70.1782
828.835	31.08206
829.243	27.06491
829.65	-5.0126
830.057	4.00983
830.464	8.01972
830.871	116.27541
831.278	17.0415
831.685	34.07651
832.092	21.05188
832.499	47.10339
832.905	8.02047
833.312	57.13044
833.718	-7.01768
834.124	64.14649
834.531	57.14396
834.937	57.14652
835.343	29.07051
835.749	32.07533
836.155	68.17792
836.561	5.01244
836.966	46.11295
837.372	50.1276
837.777	-7.01767
838.183	70.15571
838.588	43.1072
838.993	83.20149
839.399	-16.03971
839.804	-3.0074
840.209	4.01029
840.613	2.00451
841.018	58.14703
841.423	63.1616
841.828	5.01278
842.232	80.19767
842.637	2.00478
843.041	22.05678
843.445	58.14562
843.849	10.025
844.253	34.08132
844.657	36.09107
845.061	43.09805
845.465	14.03413
845.869	34.07951
846.272	-19.04697
846.676	107.25673
847.079	49.12485
847.483	34.08527
847.886	47.11474
848.289	55.14686
848.692	35.08906
849.095	10.02426
849.498	78.19717
849.901	72.16493
850.304	20.0482
850.707	56.14292
851.109	64.16189
851.512	66.16206
851.914	18.04569
852.316	46.11665
852.718	-21.05496
853.121	39.09596
853.523	51.11948
853.925	-9.02374
854.326	-4.01011
854.728	41.10576
855.13	3.00781
855.531	-17.04122
855.933	81.19376
856.334	29.07269
856.736	-26.0593
857.137	27.0632
857.538	-15.03821
857.939	3.00749
858.34	25.06133
858.741	59.15419
859.142	36.08689
859.542	3.00799
859.943	23.05753
860.343	22.05484
860.744	31.07605
861.144	36.0882
861.544	-6.0146
861.945	2.00515
862.345	42.10305
862.745	52.12938
863.145	85.20224
863.544	42.10643
863.944	36.08544
864.344	47.117
864.743	84.20747
865.143	10.0259
865.542	11.02576
865.941	59.14602
866.34	50.11999
866.74	42.11298
867.139	-12.02912
867.537	36.09207
867.936	-13.03171
868.335	47.1198
868.734	38.09742
869.132	46.10715
869.531	73.17609
869.929	-8.01848
870.327	-15.03646
870.726	39.09758
871.124	41.09616
871.522	32.08187
871.92	82.20134
872.318	48.11755
872.715	62.15336
873.113	15.03684
873.511	53.13213
873.908	-33.08462
874.306	26.06502
874.703	19.04787
875.1	51.13059
875.497	29.0699
875.894	14.03457
876.291	17.04203
876.688	31.0803
877.085	35.08433
877.482	16.04034
877.878	39.09418
878.275	35.08924
878.671	54.12037
879.068	15.0365
879.464	29.07046
879.86	22.05237
880.256	36.08918
880.652	48.12224
881.048	47.11666
881.444	66.15682
881.84	56.14231
882.236	35.08833
882.631	61.14959
883.027	30.07301
883.422	37.09491
883.817	-11.02797
884.213	46.11822
884.608	-5.0124
885.003	22.05338
885.398	-2.00506
885.793	52.1306
886.188	-9.02263
886.582	61.15631
886.977	46.10938
887.371	24.06103
887.766	12.03007
888.16	47.11747
888.554	42.10412
888.949	51.12816
889.343	34.08339
889.737	-15.04042
890.131	41.1031
890.525	47.12035
890.918	54.13592
891.312	34.08169
891.706	59.15466
892.099	35.08937
892.492	38.08231
892.886	28.06885
893.279	14.03592
893.672	18.04612
894.065	48.12034
894.458	37.09334
894.851	54.13235
895.244	26.06673
895.637	34.08222
896.029	33.08101
896.422	30.07363
896.814	24.06
897.206	-4.00963
897.599	62.15313
897.991	20.04867
898.383	9.02145
898.775	34.07707
899.167	-5.0118
899.559	45.1141
899.951	70.16453
900.342	39.09944
900.734	4.01001
901.125	51.13387
901.517	29.07151
901.908	57.13661
902.299	-32.07947
902.69	77.18088
903.082	56.13557
903.473	4.00967
903.863	25.06411
904.254	32.0746
904.645	56.13923
905.036	28.06811
905.426	39.08957
905.817	31.07638
906.207	21.05035
906.597	14.033
906.987	65.16813
907.378	59.14906
907.768	52.13749
908.158	59.14371
908.547	9.02342
908.937	34.08753
909.327	51.1239
909.717	70.1772
910.106	13.03146
910.495	47.11747
910.885	46.11665
911.274	18.04527
911.663	89.22445
912.052	39.09649
912.441	34.08674
912.83	21.04852
913.219	70.18266
913.608	26.06401
913.997	6.01517
914.385	30.072
914.774	42.10248
915.162	5.01202
915.55	36.08738
915.939	-11.02808
916.327	23.05771
916.715	10.02567
917.103	34.08398
917.491	69.1702
917.878	62.15218
918.266	30.07809
918.654	29.07439
919.041	15.0394
919.429	25.05932
919.816	44.1117
920.203	-4.0098
920.591	3.00751
920.978	48.11764
921.365	7.01851
921.752	25.05992
922.139	59.12794
922.525	6.01454
922.912	47.11474
923.299	36.08973
923.685	47.1227
924.072	80.18348
924.458	33.08203
924.844	14.03488
925.231	-3.00706
925.617	7.01794
926.003	47.12022
926.389	5.01272
926.774	29.07379
927.16	64.1586
927.546	4.01029
927.931	103.25463
928.317	42.09695
928.702	34.08072
929.088	2.00478
929.473	22.05626
929.858	-16.03917
930.243	17.04107
930.628	6.01472
931.013	-2.00501
931.398	68.1559
931.783	51.13428
932.167	18.04428
932.552	56.14019
932.937	49.12167
933.321	12.03032
933.705	34.08598
934.09	64.16137
934.474	58.1376
934.858	33.08586
935.242	17.03967
935.626	28.07196
936.009	32.08538
936.393	22.05626
936.777	10.02579
937.16	39.10168
937.544	30.07098
937.927	31.07893
938.311	46.1124
938.694	56.14797
939.077	36.08643
939.46	63.15437
939.843	40.08368
940.226	14.03614
940.609	13.03007
940.991	-8.02057
941.374	19.04671
941.757	56.13806
942.139	28.06319
942.522	30.0712
942.904	34.082
943.286	81.20471
943.668	32.08316
944.05	-8.01992
944.432	35.08662
944.814	63.15483
945.196	-33.08167
945.578	10.02395
945.959	20.04716
946.341	111.26947
946.722	31.07305
947.104	47.11243
947.485	13.03048
947.866	0
948.247	15.03809
948.628	10.02458
949.009	7.01806
949.39	73.181
949.771	9.02111
950.152	14.03459
950.532	-11.02736
950.913	63.15162
951.293	29.07861
951.674	15.03652
952.054	7.01748
952.434	60.14868
952.814	50.11899
953.194	64.16711
953.574	57.14024
953.954	32.07627
954.334	25.0626
954.714	-20.04938
955.093	42.10343
955.473	25.0628
955.853	44.11403
956.232	50.13704
956.611	24.05786
956.99	39.09821
957.37	20.05124
957.749	32.07662
958.128	73.18318
958.506	10.02612
958.885	49.12371
959.264	-17.04218
959.643	37.08443
960.021	9.02247
960.4	4.00915
960.778	48.11829
961.156	0
961.535	90.20815
961.913	11.02594
962.291	3.00776
962.669	10.02551
963.047	9.02313
963.424	45.11495
963.802	0
964.18	88.22117
964.557	32.07398
964.935	58.13723
965.312	43.11211
965.69	58.14504
966.067	34.08305
966.444	62.15246
966.821	39.10074
967.198	58.14051
967.575	46.1132
967.952	53.12484
968.329	9.02207
968.705	61.13052
969.082	3.00776
969.458	9.02176
969.835	34.08302
970.211	27.06957
970.587	24.06004
970.963	29.07467
971.339	5.01316
971.715	50.12485
972.091	36.08888
972.467	71.17643
972.843	29.07225
973.219	95.2262
973.594	16.04209
973.97	49.11667
974.345	-3.00725
974.721	56.13546
975.096	24.05836
975.471	63.14909
975.846	29.06995
976.221	-10.02566
976.596	7.01692
976.971	36.08911
977.346	51.11873
977.72	47.1198
978.095	37.09584
978.469	29.0695
978.844	48.12073
979.218	-9.02182
979.593	49.11744
979.967	19.04656
980.341	19.04402
980.715	34.08591
981.089	28.07037
981.463	39.08975
981.837	-9.02223
982.21	85.19647
982.584	49.11837
982.957	25.06271
983.331	18.04282
983.704	21.05188
984.078	36.08895
984.451	55.13727
984.824	26.0636
985.197	20.04885
985.57	7.01769
985.943	50.1235
986.316	52.12773
986.688	26.06299
987.061	32.07527
987.434	25.06542
987.806	50.12127
988.179	-11.02626
988.551	49.12433
988.923	44.10848
989.295	70.17429
989.667	-24.05814
990.039	0
990.411	18.0417
990.783	61.14016
991.155	-9.02187
991.527	79.19351
991.898	-16.04034
992.27	46.11387
992.641	21.05296
993.012	31.07322
993.384	33.07897
993.755	26.06656
994.126	10.02424
994.497	21.05182
994.868	18.04161
995.239	-18.04418
995.61	65.1631
995.98	23.05615
996.351	49.12136
996.722	2.00468
997.092	-16.03837
997.462	-10.02363
997.833	26.06192
998.203	62.14998
998.573	-5.01257
998.943	49.11492
999.313	22.053
999.683	50.11999
1000.053	39.08993
1000.423	23.05617
1000.792	55.14241
1001.162	14.03468
1001.531	44.1086
1001.901	44.10979
1002.27	48.10735
1002.639	31.07946
1003.009	49.11654
1003.378	26.06675
1003.747	54.12747
1004.116	23.05531
1004.485	29.06958
1004.853	35.0889
1005.222	20.0507
1005.591	55.13046
1005.959	8.01818
1006.328	43.0969
1006.696	24.05817
1007.064	42.10579
1007.433	31.07773
1007.801	56.1373
1008.169	58.14625
1008.537	71.15652
1008.905	1.00235
1009.273	34.08422
1009.64	-18.04349
1010.008	64.15213
1010.375	66.15977
1010.743	107.24427
1011.11	-20.04796
1011.478	59.14575
1011.845	92.21455
1012.212	12.02737
1012.579	43.10568
1012.946	63.14955
1013.313	73.17295
1013.68	41.09232
1014.047	5.01202
1014.414	-2.00477
1014.78	35.08719
1015.147	80.19235
1015.513	42.10133
1015.88	78.19843
1016.246	65.15998
1016.612	22.05064
1016.978	43.10548
1017.344	60.14798
1017.71	93.22492
1018.076	40.09449
1018.442	70.1794
1018.808	30.07524
1019.174	26.06549
1019.539	108.24571
1019.905	13.03087
1020.27	14.03477
1020.636	44.10559
1021.001	32.07685
1021.366	49.11766
1021.731	35.09022
1022.096	13.033
1022.461	35.08305
1022.826	13.03111
1023.191	57.14932
1023.556	35.08225
1023.92	54.13264
1024.285	19.04663
1024.649	23.05663
1025.014	50.12381
1025.378	33.08319
1025.742	2.00501
1026.107	45.10186
1026.471	65.15126
1026.835	51.12636
1027.199	-2.00486
1027.562	46.10698
1027.926	49.1198
1028.29	33.08373
1028.654	24.05549
1029.017	86.20991
1029.381	22.05282
1029.744	21.05381
1030.107	59.1393
1030.471	31.07447
1030.834	-1.0023
1031.197	47.11324
1031.56	19.04508
1031.923	25.06489
1032.286	36.08475
1032.648	43.10294
1033.011	-22.05121
1033.374	44.1035
1033.736	-16.04252
1034.099	46.11215
1034.461	-5.01275
1034.823	28.06997
1035.185	11.02787
1035.548	32.07811
1035.91	15.03616
1036.272	4.00919
1036.634	53.12953
1036.995	38.08949
1037.357	17.0416
1037.719	42.10225
1038.08	87.20501
1038.442	37.088
1038.803	46.11048
1039.165	-9.02294
1039.526	25.06067
1039.887	13.03131
1040.248	-9.0224
1040.609	28.06944
1040.97	8.01969
1041.331	32.08124
1041.692	15.03524
1042.053	24.05491
1042.413	76.17612
1042.774	53.12876
1043.134	75.17762
1043.495	30.07564
1043.855	50.12122
1044.215	32.07965
1044.576	-13.03144
1044.936	47.10777
1045.296	55.13707
1045.656	20.04933
1046.016	16.03885
1046.375	7.01711
1046.735	21.04786
1047.095	9.02122
1047.454	31.06593
1047.814	18.04351
1048.173	56.13357
1048.533	23.05295
1048.892	20.04825
1049.251	60.15026
1049.61	-22.05486
1049.969	41.09676
1050.328	33.07177
1050.687	3.00736
1051.046	-10.02461
1051.405	41.1021
1051.763	-8.0186
1052.122	-8.02015
1052.48	23.05665
1052.839	11.02606
1053.197	49.11528
1053.555	62.14094
1053.914	21.05161
1054.272	50.12081
1054.63	13.03199
1054.988	17.04062
1055.345	13.0282
1055.703	15.03632
1056.061	28.07226
1056.419	16.04164
1056.776	72.17377
1057.134	8.01866
1057.491	65.16222
1057.848	54.13426
1058.206	4.00949
1058.563	58.12757
1058.92	92.21015
1059.277	49.12083
1059.634	32.07551
1059.991	46.11022
1060.348	35.07929
1060.704	-15.03617
1061.061	71.16418
1061.418	8.01954
1061.774	37.0915
1062.131	23.06105
1062.487	0
1062.843	22.0551
1063.199	34.08475
1063.555	-4.00936
1063.911	7.0178
1064.267	34.07113
1064.623	-14.03439
1064.979	71.16743
1065.335	71.16893
1065.691	-7.01695
1066.046	42.09245
1066.402	19.04341
1066.757	59.14858
1067.112	64.15656
1067.468	-10.02387
1067.823	36.08672
1068.178	54.13043
1068.533	51.12353
1068.888	66.15712
1069.243	-1.00249
1069.598	38.09248
1069.952	-31.07091
1070.307	2.00499
1070.662	-7.01679
1071.016	5.0113
1071.371	42.09563
1071.725	63.15024
1072.079	56.13444
1072.434	42.10213
1072.788	43.10247
1073.142	60.14721
1073.496	-30.07221
1073.85	21.04895
1074.203	50.12122
1074.557	27.07202
1074.911	60.14284
1075.265	29.06764
1075.618	31.07591
1075.971	51.1212
1076.325	46.1169
1076.678	24.05513
1077.031	46.1041
1077.385	49.10789
1077.738	14.03181
1078.091	-48.11124
1078.444	53.1229
1078.796	-8.01982
1079.149	42.10454
1079.502	26.06166
1079.855	15.03519
1080.207	59.145
1080.56	20.05192
1080.912	19.04649
1081.264	11.02666
1081.617	11.02698
1081.969	9.02285
1082.321	18.04418
1082.673	-33.07652
1083.025	45.10678
1083.377	55.11784
1083.728	43.10038
1084.08	24.06015
1084.432	29.07016
1084.783	46.10778
1085.135	26.06539
1085.486	-24.05568
1085.838	21.05195
1086.189	3.00734
1086.54	61.14525
1086.891	37.09371
1087.242	47.1144
1087.593	54.13127
1087.944	14.03189
1088.295	26.05934
1088.646	20.04871
1088.996	4.00971
1089.347	30.07383
1089.698	-34.08159
1090.048	65.16825
1090.398	54.12504
1090.749	12.0289
1091.099	26.06561
1091.449	33.08239
1091.799	17.04278
1092.149	-45.11157
1092.499	29.07096
1092.849	-12.03081
1093.199	69.17221
1093.548	-44.10752
1093.898	6.01512
1094.248	39.10032
1094.597	-47.12191
1094.947	40.10679
1095.296	26.06443
1095.645	80.20682
1095.994	32.07706
1096.343	49.12322
1096.692	-16.04246
1097.041	-12.03279
1097.39	38.09544
1097.739	38.09889
1098.088	67.17884
1098.437	5.01322
1098.785	26.07031
1099.134	49.13002
1099.482	52.14284
1099.83	52.13648
1100.179	17.04455
1100.527	49.1301
1100.875	8.02128
1101.223	32.08515
1101.571	15.04164
1101.919	-3.0079
1102.267	9.02547
1102.615	-5.01609
1102.962	20.06432
1103.31	-5.01609
1103.658	7.02256
