Data from N2 R7 sample 1_Subt2__2__15-41-59-560.txt Node

Date: Fri Aug 29 15:41:59 PDT 2025
User: uwsun
Spectrometer: HDX01956
Trigger mode: 0
Integration Time (sec): 5.000000E-1
Scans to average: 1
Nonlinearity correction enabled: true
Boxcar width: 0
Storing dark spectrum: false
XAxis mode: Wavelengths
Number of Pixels in Spectrum: 2068
>>>>>Begin Spectral Data<<<<<
194.03	16.0448
194.578	23.07253
195.127	7.02179
195.676	27.08411
196.225	38.10017
196.773	28.07643
197.321	57.15155
197.87	87.21184
198.418	60.14492
198.966	27.06601
199.513	-42.09914
200.061	-19.0454
200.609	47.1173
201.156	-28.05775
201.704	19.04481
202.251	26.06455
202.798	27.06574
203.345	86.19795
203.892	29.06842
204.438	91.20179
204.985	-4.00886
205.532	19.04687
206.078	80.18215
206.624	17.03906
207.17	70.15111
207.716	3.00683
208.262	57.10479
208.808	-28.06471
209.354	44.09958
209.899	101.23744
210.445	9.02091
210.99	-23.05219
211.535	78.1704
212.08	29.06329
212.625	97.22492
213.17	96.22555
213.715	6.01243
214.259	77.16676
214.804	76.17507
215.348	2.00432
215.892	49.10988
216.436	77.16647
216.98	76.15688
217.524	63.13859
218.068	73.17148
218.612	87.20405
219.155	61.13391
219.698	42.09385
220.242	129.29805
220.785	40.0879
221.328	89.2067
221.871	88.20885
222.414	101.23457
222.956	48.10801
223.499	59.12433
224.041	36.07938
224.583	61.1243
225.126	12.02505
225.668	35.07997
226.21	44.10382
226.751	-1.00206
227.293	44.09474
227.835	4.00923
228.376	86.18581
228.918	54.12831
229.459	34.07935
230	25.05606
230.541	39.08464
231.082	41.09326
231.622	38.08249
232.163	67.15123
232.704	17.03965
233.244	26.06063
233.784	59.13589
234.324	-12.02479
234.864	21.04482
235.404	83.18412
235.944	81.17909
236.484	75.17487
237.023	52.11466
237.563	-5.0109
238.102	63.13883
238.641	39.09247
239.18	13.02847
239.719	53.12435
240.258	48.101
240.797	32.07156
241.335	34.07814
241.874	10.01806
242.412	17.03831
242.95	16.03571
243.488	72.15256
244.026	35.07522
244.564	89.16906
245.102	47.09813
245.64	23.05215
246.177	55.11473
246.715	85.18927
247.252	34.07314
247.789	72.12648
248.326	17.03799
248.863	75.15151
249.4	93.19486
249.936	28.05372
250.473	49.10589
251.009	22.0469
251.546	33.06764
252.082	13.02665
252.618	51.10501
253.154	61.13521
253.69	15.03154
254.226	67.14752
254.761	32.0668
255.297	33.06697
255.832	28.06153
256.367	48.10468
256.903	68.13727
257.438	43.0938
257.972	52.107
258.507	-15.03201
259.042	52.1042
259.576	-1.00199
260.111	31.06662
260.645	106.20936
261.179	33.0711
261.713	-1.00207
262.247	48.10224
262.781	-6.01169
263.315	8.01816
263.849	56.12869
264.382	77.16248
264.915	53.1137
265.449	-33.07449
265.982	48.10073
266.515	43.09646
267.048	35.06807
267.58	65.13071
268.113	10.01994
268.646	42.09517
269.178	22.04515
269.71	78.15536
270.243	51.107
270.775	53.12358
271.307	127.27715
271.838	98.21273
272.37	53.11938
272.902	87.18003
273.433	42.08405
273.965	22.0493
274.496	54.1233
275.027	47.10665
275.558	30.0667
276.089	-48.10903
276.62	23.05403
277.15	73.16443
277.681	-12.02419
278.211	68.1522
278.741	16.03217
279.272	-2.00419
279.802	76.17242
280.332	-19.04125
280.861	67.14628
281.391	-9.01873
281.921	44.09686
282.45	68.15452
282.98	45.10703
283.509	40.08168
284.038	33.06835
284.567	78.16491
285.096	80.17425
285.625	39.08012
286.153	42.08892
286.682	33.06826
287.21	1.00219
287.739	29.06205
288.267	48.10455
288.795	34.08141
289.323	53.11075
289.851	45.095
290.378	43.08679
290.906	24.05216
291.433	31.06977
291.961	40.08101
292.488	8.01804
293.015	8.01693
293.542	24.05451
294.069	63.13772
294.596	103.2263
295.122	22.04711
295.649	30.05928
296.175	45.09775
296.702	92.19775
297.228	40.08716
297.754	27.05404
298.28	62.12407
298.806	65.13788
299.332	-6.01182
299.857	23.04604
300.383	78.17501
300.908	-13.02802
301.433	17.03658
301.958	40.08209
302.483	-17.03778
303.008	77.16747
303.533	73.16786
304.058	50.10409
304.582	11.02285
305.107	29.06653
305.631	73.14564
306.155	6.01226
306.679	18.03674
307.203	15.03046
307.727	81.16611
308.251	71.15232
308.775	-24.04979
309.298	-33.0692
309.822	-16.03558
310.345	4.00827
310.868	35.07226
311.391	36.07698
311.914	19.04118
312.437	33.06513
312.96	22.04453
313.482	21.04273
314.005	14.03031
314.527	16.03617
315.049	88.1894
315.571	19.03556
316.093	58.12155
316.615	67.13554
317.137	31.05667
317.659	83.16967
318.18	44.08985
318.702	72.139
319.223	70.11787
319.744	32.05953
320.265	31.06228
320.786	26.05319
321.307	9.01867
321.828	86.15782
322.348	25.04835
322.869	2.00386
323.389	-167.22974
323.909	84.15493
324.43	118.22978
324.95	81.14711
325.47	65.12739
325.989	29.05455
326.509	-22.03846
327.029	-9.01605
327.548	-51.09121
328.067	25.04721
328.587	97.18839
329.106	5.00887
329.625	88.18353
330.144	27.04794
330.662	27.04776
331.181	90.15868
331.7	29.05176
332.218	66.10575
332.736	26.04601
333.255	20.03489
333.773	20.03546
334.291	103.19164
334.808	39.06318
335.326	61.09955
335.844	-4.00672
336.361	30.05508
336.879	-19.03188
337.396	61.10387
337.913	11.01783
338.43	24.03751
338.947	5.00838
339.464	2.00291
339.981	-49.08132
340.497	-7.01215
341.014	-4.00673
341.53	-4.00604
342.046	11.01831
342.562	50.08461
343.078	-9.01419
343.594	19.03016
344.11	22.03447
344.626	0
345.141	70.10034
345.657	35.05088
346.172	8.01246
346.687	8.01156
347.202	43.05903
347.717	59.08737
348.232	6.00956
348.747	10.01406
349.261	-25.03197
349.776	-9.01292
350.29	-21.03146
350.805	43.06508
351.319	-4.00557
351.833	-31.04074
352.347	-1.00138
352.861	-16.02162
353.374	50.06604
353.888	64.0887
354.401	-8.01042
354.915	-15.01826
355.428	21.02955
355.941	37.04649
356.454	149.17485
356.967	60.07706
357.48	19.02364
357.993	63.08458
358.505	-60.08133
359.018	122.15541
359.53	24.03023
360.042	81.08903
360.554	47.05947
361.066	-19.02429
361.578	35.03688
362.09	10.01217
362.602	-35.03751
363.113	17.01921
363.625	67.06957
364.136	23.02345
364.647	-66.07093
365.158	9.00977
365.669	61.06773
366.18	-8.0088
366.691	48.04562
367.201	-47.0523
367.712	10.00974
368.222	-43.04265
368.733	-2.0017
369.243	-2.00172
369.753	1.00094
370.263	13.01262
370.773	17.01716
371.282	-27.02477
371.792	-100.07946
372.301	-21.01806
372.811	-34.03397
373.32	-100.06027
373.829	-113.08245
374.338	-72.04241
374.847	-41.02351
375.356	-95.05629
375.865	-23.00745
376.373	39.01355
376.882	-32.01745
377.39	-35.01451
377.898	-197.07233
378.407	-167.03
378.915	-38.0022
379.423	-53.00487
379.93	-81.99978
380.438	-153.99595
380.946	-171.97864
381.453	-129.97448
381.96	-288.92388
382.468	-315.87851
382.975	-89.96222
383.482	-149.92721
383.989	-287.87628
384.495	-319.83344
385.002	-358.79679
385.509	-348.80238
386.015	-381.80134
386.521	-325.83152
387.028	-361.83516
387.534	-341.87479
388.04	-232.91179
388.546	-638.85499
389.051	-626.01301
389.557	-687.15275
390.063	-288.12506
390.568	-542.34026
391.073	-711.73689
391.578	-695.83059
392.084	-877.50058
392.589	-1141.72897
393.093	-1574.80129
393.598	-1428.94118
394.103	-1390.38574
394.607	-1463.01403
395.112	-1239.98364
395.616	-1514.91398
396.12	-2038.49572
396.624	-2308.28512
397.128	-2187.88673
397.632	-2095.21413
398.136	-2470.59267
398.639	-4161.88374
399.143	-5712.83403
399.646	-5982.59823
400.15	-6781.64491
400.653	-8275.3254
401.156	-10018.28454
401.659	-12280.5693
402.162	-6197.79081
402.664	-1203.99582
403.167	0
403.67	0
404.172	0
404.674	0
405.176	0
405.678	0
406.18	0
406.682	0
407.184	0
407.686	0
408.187	0
408.688	0
409.19	0
409.691	0
410.192	0
410.693	0
411.194	435.30976
411.694	4063.46159
412.195	7019.5291
412.696	4310.29865
413.196	1862.87572
413.696	-169.81917
414.196	1701.21636
414.696	4649.34192
415.196	6654.94798
415.696	9981.27836
416.196	8832.99805
416.695	4557.93828
417.195	1799.99346
417.694	1480.51055
418.194	1686.10021
418.693	929.84536
419.192	949.73229
419.691	843.11243
420.19	991.56944
420.688	1304.73541
421.187	1507.49213
421.685	1584.55637
422.184	1920.08007
422.682	1681.50217
423.18	812.84387
423.678	489.10823
424.176	464.75454
424.674	359.38961
425.172	475.25024
425.669	690.09399
426.167	709.91817
426.664	449.84721
427.161	408.80741
427.659	285.83971
428.156	142.9198
428.652	206.88865
429.149	201.89344
429.646	242.87261
430.143	285.87536
430.639	230.91095
431.135	153.95969
431.632	77.98109
432.128	64.99255
432.624	-121.00621
433.12	-129.98887
433.616	-155.99159
434.111	-240.01699
434.607	-262.04708
435.103	-91.0081
435.598	-30.00302
436.093	16.00516
436.588	22.00762
437.083	19.00801
437.578	-62.03317
438.073	-230.16417
438.568	-34.02522
439.062	-56.03092
439.557	-77.06054
440.051	-140.10521
440.546	-195.15539
441.04	-166.15048
441.534	-136.14141
442.028	-95.09168
442.522	-229.23436
443.015	-166.14379
443.509	-102.10857
444.002	-207.23058
444.496	-163.14999
444.989	-119.13264
445.482	-167.19569
445.975	-267.27532
446.468	-144.1328
446.961	-198.18905
447.454	-170.17981
447.947	-260.30235
448.439	-192.23632
448.931	-261.28762
449.424	-212.28456
449.916	-175.21931
450.408	-277.31841
450.9	-254.3263
451.392	-237.32585
451.884	-233.28649
452.375	-326.45396
452.867	-162.1964
453.358	-285.35122
453.849	-188.20755
454.341	-231.28464
454.832	-263.30893
455.323	-292.41393
455.814	-224.29311
456.304	-228.30199
456.795	-228.30097
457.285	-146.1865
457.776	-133.17762
458.266	-236.33473
458.756	-233.3436
459.247	-281.40933
459.737	-257.37436
460.226	-257.35106
460.716	-270.40612
461.206	-221.33471
461.695	-243.3975
462.185	-199.29813
462.674	-198.29135
463.163	-264.37968
463.653	-239.32007
464.142	-230.36519
464.63	-224.36878
465.119	-237.36303
465.608	-251.38768
466.096	-231.33877
466.585	-226.35946
467.073	-246.41358
467.561	-230.38858
468.05	-163.2614
468.538	-137.23491
469.026	-214.3643
469.513	-279.41676
470.001	-262.42607
470.489	-221.37469
470.976	-240.40349
471.463	-274.51224
471.951	-227.42616
472.438	-209.36089
472.925	-310.54717
473.412	-224.42021
473.899	-216.37506
474.385	-169.31445
474.872	-252.44967
475.359	-234.44114
475.845	-261.41478
476.331	-221.37368
476.817	-209.4005
477.303	-208.37788
477.789	-227.43394
478.275	-245.48561
478.761	-195.37439
479.247	-243.43956
479.732	-259.52201
480.218	-227.48214
480.703	-212.42856
481.188	-288.5078
481.673	-223.41637
482.158	-269.46376
482.643	-183.3858
483.128	-242.45421
483.612	-222.43045
484.097	-180.36721
484.581	-200.38891
485.066	-216.43945
485.55	-259.4776
486.034	-216.39021
486.518	-219.43103
487.002	-253.5254
487.486	-244.50818
487.969	-222.46092
488.453	-227.49411
488.936	-219.42149
489.42	-199.37691
489.903	-168.36391
490.386	-179.24865
490.869	-218.413
491.352	-198.42412
491.835	-178.31778
492.318	-213.41725
492.8	-206.37062
493.283	-233.51966
493.765	-217.46793
494.247	-200.41339
494.73	-218.42451
495.212	-170.36273
495.694	-253.52399
496.175	-283.59609
496.657	-202.4252
497.139	-195.3033
497.62	-263.5547
498.102	-252.55912
498.583	-259.586
499.064	-249.49585
499.545	-217.44259
500.026	-289.58757
500.507	-222.46257
500.988	-197.43828
501.469	-283.64264
501.949	-241.54083
502.43	-292.62978
502.91	-245.45723
503.39	-199.45026
503.87	-266.56755
504.35	-199.42543
504.83	-221.43681
505.31	-237.52048
505.79	-255.55459
506.269	-227.48361
506.749	-258.5371
507.228	-260.55668
507.707	-239.48281
508.187	-227.49684
508.666	-218.4849
509.145	-238.50649
509.623	-218.46575
510.102	-229.50757
510.581	-212.4694
511.059	-279.64331
511.538	-202.47773
512.016	-195.42464
512.494	-229.51158
512.972	-270.59681
513.45	-338.72867
513.928	-267.5977
514.406	-304.6756
514.884	-219.51562
515.361	-250.55284
515.839	-268.56611
516.316	-245.54416
516.793	-195.4534
517.27	-219.49126
517.747	-275.65525
518.224	-219.46859
518.701	-221.45506
519.178	-310.71748
519.654	-237.52552
520.131	-244.55981
520.607	-223.51358
521.083	-234.49603
521.56	-242.53157
522.036	-227.46425
522.512	-209.47884
522.987	-258.56886
523.463	-237.52398
523.939	-240.54975
524.414	-223.48087
524.89	-256.56918
525.365	-235.49652
525.84	-275.60951
526.315	-262.59073
526.79	-251.53125
527.265	-258.55287
527.74	-262.59869
528.215	-210.46032
528.689	-261.54371
529.164	-219.44566
529.638	-240.57811
530.112	-263.5817
530.587	-278.55966
531.061	-273.61867
531.534	-213.48291
532.008	-209.4671
532.482	-186.39773
532.956	-293.70375
533.429	-234.53213
533.903	-227.4733
534.376	-253.52869
534.849	-233.50825
535.322	-200.4408
535.795	-228.52331
536.268	-217.48798
536.741	-236.53429
537.213	-196.42401
537.686	-268.61585
538.158	-265.56039
538.631	-231.53009
539.103	-255.53924
539.575	-198.38851
540.047	-233.48409
540.519	-191.42758
540.991	-183.41894
541.463	-237.54146
541.934	-182.38867
542.406	-262.59049
542.877	-233.49639
543.348	-231.52669
543.82	-260.60559
544.291	-182.3981
544.762	-273.61314
545.233	-250.58963
545.703	-268.56189
546.174	-194.4213
546.645	-303.68442
547.115	-248.56145
547.585	-185.39585
548.056	-252.56656
548.526	-229.50037
548.996	-214.47936
549.466	-230.526
549.935	-235.51522
550.405	-203.41046
550.875	-220.48162
551.344	-207.459
551.814	-239.51139
552.283	-186.37393
552.752	-268.57901
553.221	-239.47904
553.69	-217.444
554.159	-236.53168
554.628	-246.50642
555.096	-221.51304
555.565	-216.44386
556.033	-124.26596
556.502	-192.43008
556.97	-231.48079
557.438	-171.37617
557.906	-137.30138
558.374	-189.40721
558.842	-172.38417
559.31	-176.37097
559.777	-228.52038
560.245	-161.35626
560.712	-180.39439
561.18	-196.41021
561.647	-159.33477
562.114	-207.4479
562.581	-168.39055
563.048	-147.31998
563.514	-169.39
563.981	-118.25364
564.448	-142.30062
564.914	-123.26956
565.381	-136.29283
565.847	-88.19274
566.313	-95.20714
566.779	-84.17713
567.245	-121.26641
567.711	-111.24921
568.176	-104.21853
568.642	-81.18849
569.108	-62.14111
569.573	-26.05666
570.038	-5.00968
570.504	-74.15399
570.969	-22.05068
571.434	3.006
571.899	31.06696
572.363	30.06209
572.828	82.16919
573.293	86.17704
573.757	68.14068
574.222	77.15369
574.686	29.05872
575.15	116.24482
575.614	142.28771
576.078	152.31418
576.542	133.26868
577.006	156.30971
577.469	266.57076
577.933	116.22998
578.396	182.38041
578.86	157.32692
579.323	173.36168
579.786	158.30064
580.249	191.37982
580.712	177.38152
581.175	157.34218
581.637	175.35677
582.1	245.46789
582.563	179.34019
583.025	148.31771
583.487	140.25045
583.95	138.26233
584.412	175.3248
584.874	149.32089
585.336	129.27244
585.797	126.24314
586.259	160.33591
586.721	58.12322
587.182	168.35037
587.643	135.27422
588.105	107.22766
588.566	118.22344
589.027	39.08525
589.488	44.0916
589.949	111.24183
590.41	26.04627
590.87	77.15991
591.331	125.24289
591.791	109.22565
592.252	10.02092
592.712	99.21458
593.172	67.1369
593.632	131.2582
594.092	59.11984
594.552	86.16763
595.011	32.06694
595.471	105.21172
595.931	127.25361
596.39	102.21943
596.849	105.22
597.308	137.26672
597.768	102.233
598.227	131.28285
598.685	237.47833
599.144	180.37272
599.603	221.45997
600.062	185.34199
600.52	215.41957
600.978	208.43436
601.437	311.61297
601.895	245.45178
602.353	347.65628
602.811	300.57252
603.269	371.75325
603.727	379.76773
604.184	400.75338
604.642	434.88899
605.099	485.92674
605.557	531.05813
606.014	564.96923
606.471	567.14049
606.928	608.0195
607.385	627.20288
607.842	754.31822
608.299	783.39385
608.755	805.47604
609.212	863.41421
609.668	803.32438
610.125	893.61312
610.581	1056.81406
611.037	1017.68514
611.493	1005.73858
611.949	922.65165
612.405	1026.43147
612.861	1160.92575
613.316	1004.752
613.772	1170.86812
614.227	1123.8748
614.683	1183.7372
615.138	1153.89259
615.593	1136.86095
616.048	1122.82365
616.503	1198.08614
616.958	1204.13289
617.412	1263.05469
617.867	1192.8088
618.321	1176.66961
618.776	1179.8192
619.23	1169.94448
619.684	1177.87456
620.138	1195.96729
620.592	1149.01461
621.046	1139.9317
621.5	1133.00094
621.954	1165.87328
622.407	1110.78694
622.861	1061.91834
623.314	1100.82974
623.768	1039.80233
624.221	1046.48286
624.674	1044.79052
625.127	1012.78639
625.58	1069.81646
626.033	1045.72315
626.485	1036.87066
626.938	1022.85
627.39	983.75083
627.843	1002.76869
628.295	987.74983
628.747	961.77332
629.199	883.58041
629.651	882.57822
630.103	935.66942
630.555	920.51004
631.006	935.72439
631.458	938.74072
631.909	954.72313
632.361	885.65073
632.812	849.57799
633.263	953.59959
633.714	882.50141
634.165	883.73322
634.616	883.69579
635.067	921.62662
635.518	910.74982
635.968	954.48895
636.419	897.55946
636.869	938.79165
637.319	861.61936
637.769	903.61878
638.219	978.86818
638.669	926.78148
639.119	975.91046
639.569	974.88204
640.019	1004.83947
640.468	988.74482
640.918	1077.0369
641.367	1004.77775
641.816	1046.82743
642.265	1026.87515
642.714	1065.9295
643.163	1027.86615
643.612	1072.01708
644.061	1016.67469
644.51	1041.86396
644.958	1152.92079
645.406	1034.96676
645.855	1089.10865
646.303	1095.00475
646.751	997.80602
647.199	1087.92863
647.647	1112.98685
648.095	1111.97743
648.543	1053.67328
648.99	1045.98724
649.438	1053.96958
649.885	1080.12939
650.333	1004.51478
650.78	1025.98875
651.227	967.91881
651.674	1045.88647
652.121	992.96071
652.568	1014.98837
653.015	983.04036
653.461	951.84848
653.908	948.80467
654.354	878.7497
654.801	891.73006
655.247	911.63901
655.693	865.91051
656.139	817.65928
656.585	832.68632
657.031	786.55455
657.477	852.5252
657.922	847.63279
658.368	822.72818
658.813	794.57625
659.259	755.5597
659.704	715.44331
660.149	760.51989
660.594	739.51706
661.039	697.38118
661.484	731.51883
661.929	712.45007
662.373	642.43808
662.818	627.38573
663.262	685.44717
663.707	616.39731
664.151	672.45034
664.595	630.35147
665.039	617.37551
665.483	574.3214
665.927	631.32364
666.371	576.19508
666.814	627.33722
667.258	582.23602
667.701	653.24562
668.145	570.28711
668.588	577.28094
669.031	530.13276
669.474	579.2598
669.917	608.2054
670.36	502.14487
670.803	548.20563
671.245	508.98034
671.688	577.27669
672.13	478.98841
672.573	556.29009
673.015	431.96831
673.457	507.01116
673.899	548.21219
674.341	495.10184
674.783	445.99483
675.225	431.99249
675.666	445.99647
676.108	442.89596
676.549	466.02581
676.991	469.95959
677.432	430.79915
677.873	470.00908
678.314	443.98955
678.755	466.05366
679.196	422.907
679.637	424.97501
680.078	480.04254
680.518	444.97028
680.959	395.89473
681.399	411.96078
681.839	409.93922
682.28	365.85629
682.72	370.80449
683.16	370.87563
683.6	430.9222
684.039	380.75126
684.479	344.80656
684.919	306.67807
685.358	402.96565
685.798	348.87135
686.237	343.79462
686.676	360.79838
687.115	339.76322
687.554	354.80269
687.993	328.6974
688.432	340.7443
688.871	298.65292
689.309	322.73903
689.748	335.67301
690.186	336.77054
690.625	294.66612
691.063	314.725
691.501	329.78118
691.939	317.76023
692.377	307.72194
692.815	285.65976
693.253	333.76932
693.69	283.60369
694.128	291.68139
694.565	309.71105
695.003	314.76747
695.44	265.60591
695.877	233.53254
696.314	282.58994
696.751	378.82153
697.188	291.64712
697.625	341.75231
698.061	218.51337
698.498	288.67581
698.934	277.64785
699.371	257.58928
699.807	315.71819
700.243	262.61361
700.679	287.63081
701.115	307.69911
701.551	314.71345
701.987	267.58562
702.422	287.66017
702.858	293.67558
703.294	262.57913
703.729	279.66274
704.164	235.55372
704.599	262.5692
705.035	248.54223
705.47	223.53157
705.904	248.56419
706.339	293.66129
706.774	284.64504
707.209	247.55635
707.643	252.59066
708.078	265.62779
708.512	233.56942
708.946	278.64751
709.38	291.66803
709.814	282.6262
710.248	239.56992
710.682	224.52257
711.116	231.53879
711.549	255.64119
711.983	189.43181
712.416	248.57332
712.85	263.63818
713.283	220.51142
713.716	322.7794
714.149	314.72241
714.582	250.54868
715.015	256.62527
715.448	276.67562
715.881	286.60811
716.313	248.56762
716.746	220.50839
717.178	242.56855
717.61	252.62328
718.043	255.6197
718.475	249.58921
718.907	338.82212
719.339	208.464
719.77	218.50697
720.202	236.5835
720.634	255.60411
721.065	280.64394
721.497	263.62739
721.928	220.52954
722.359	198.46972
722.79	212.49847
723.221	252.61871
723.652	281.70376
724.083	222.49154
724.514	215.48586
724.945	233.53618
725.375	209.47654
725.806	259.63012
726.236	280.69607
726.666	245.56672
727.096	284.67553
727.526	227.56423
727.956	246.54581
728.386	245.58915
728.816	224.55485
729.246	239.56708
729.675	231.55591
730.105	243.58434
730.534	243.55562
730.964	276.67762
731.393	281.67775
731.822	262.65109
732.251	191.4777
732.68	243.56009
733.109	202.48972
733.537	214.50728
733.966	242.58668
734.395	220.49868
734.823	209.46459
735.251	239.56249
735.68	284.68977
736.108	231.57187
736.536	241.5557
736.964	220.50091
737.392	241.58897
737.82	237.55626
738.247	225.52831
738.675	293.67773
739.102	217.53131
739.53	219.54613
739.957	214.53975
740.384	259.62257
740.811	243.60135
741.238	219.52404
741.665	201.45867
742.092	242.56478
742.519	158.38737
742.945	241.56499
743.372	236.57085
743.798	222.55893
744.225	219.51061
744.651	203.50072
745.077	187.45973
745.503	226.54006
745.929	218.51297
746.355	282.68029
746.781	199.48525
747.207	118.27659
747.632	189.45364
748.058	212.51917
748.483	200.45353
748.908	165.4058
749.334	153.37295
749.759	169.3945
750.184	148.35016
750.609	164.39924
751.033	192.44792
751.458	203.44863
751.883	159.39061
752.307	118.27767
752.732	130.32297
753.156	164.40088
753.58	193.45194
754.005	154.3876
754.429	166.38636
754.853	175.42801
755.277	173.40495
755.7	145.35727
756.124	146.35954
756.548	138.32549
756.971	124.3021
757.394	156.39797
757.818	141.36015
758.241	179.44785
758.664	141.35355
759.087	85.19099
759.51	172.42294
759.933	89.21492
760.356	156.39601
760.778	128.31347
761.201	142.34349
761.623	165.39649
762.046	164.38576
762.468	200.47282
762.89	143.35079
763.312	164.3964
763.734	109.26243
764.156	121.29792
764.578	153.3497
765	135.32773
765.421	56.14317
765.843	114.29787
766.264	134.32243
766.686	157.39054
767.107	95.23071
767.528	71.17995
767.949	94.23922
768.37	94.23115
768.791	115.27792
769.212	52.13159
769.632	52.12246
770.053	113.29641
770.473	129.31234
770.894	113.28242
771.314	127.30251
771.734	73.17135
772.154	131.33426
772.575	124.28679
772.994	52.1195
773.414	90.21689
773.834	95.23761
774.254	75.18446
774.673	79.19329
775.093	81.20098
775.512	63.15615
775.931	102.2582
776.351	74.18445
776.77	78.19131
777.189	96.22863
777.607	58.14896
778.026	38.09561
778.445	30.07586
778.864	83.2132
779.282	29.07069
779.701	83.20954
780.119	16.04095
780.537	65.16293
780.955	111.28143
781.373	67.16649
781.791	59.13371
782.209	98.22611
782.627	51.13505
783.045	53.12304
783.462	64.16414
783.88	61.15838
784.297	57.14416
784.715	41.10601
785.132	65.15815
785.549	71.1781
785.966	113.28283
786.383	69.17033
786.8	85.19788
787.217	49.11712
787.633	44.11059
788.05	111.26298
788.466	79.18695
788.883	19.04898
789.299	45.10929
789.715	67.16351
790.131	54.13504
790.547	74.18519
790.963	48.11995
791.379	42.10692
791.795	74.16958
792.21	78.18283
792.626	20.04809
793.041	62.15364
793.457	63.15632
793.872	60.14185
794.287	25.06033
794.702	58.14362
795.117	22.05523
795.532	7.01777
795.947	53.12842
796.362	66.15833
796.776	59.13914
797.191	26.06431
797.605	10.02381
798.02	6.01481
798.434	70.15661
798.848	40.09923
799.262	31.07756
799.676	69.16883
800.09	29.07204
800.504	47.11483
800.918	14.03289
801.331	100.26111
801.745	49.1134
802.158	51.12811
802.572	63.1534
802.985	70.16965
803.398	66.15791
803.811	39.10095
804.224	104.25772
804.637	-9.02181
805.05	16.03759
805.462	75.18446
805.875	28.07311
806.288	4.00978
806.7	29.0735
807.112	8.01883
807.525	53.13141
807.937	1.00251
808.349	49.12335
808.761	79.1943
809.173	50.12182
809.584	69.17083
809.996	-28.06987
810.408	12.03128
810.819	40.09479
811.231	-19.04984
811.642	19.04578
812.053	61.14547
812.464	92.21809
812.875	83.21171
813.286	80.2056
813.697	83.19406
814.108	58.1422
814.519	77.17181
814.929	60.15339
815.34	55.13392
815.75	38.09712
816.16	43.10778
816.571	63.16386
816.981	35.08334
817.391	45.10929
817.801	25.06262
818.211	21.0506
818.62	38.0921
819.03	28.06921
819.44	43.11284
819.849	52.13149
820.259	39.10039
820.668	11.02735
821.077	10.02511
821.486	69.16638
821.895	75.18528
822.304	38.10118
822.713	24.05729
823.122	43.10786
823.531	9.0216
823.939	25.06144
824.348	79.19186
824.756	33.08322
825.164	32.08109
825.573	52.13088
825.981	63.15649
826.389	53.13357
826.797	19.04802
827.205	29.06714
827.612	47.11649
828.02	16.03797
828.428	6.01545
828.835	34.08996
829.243	98.23241
829.65	26.06514
830.057	6.01474
830.464	26.06386
830.871	34.082
831.278	17.0415
831.685	16.03614
832.092	62.15201
832.499	24.05305
832.905	49.12446
833.312	50.11458
833.718	83.20624
834.124	43.09884
834.531	34.08622
834.937	63.16177
835.343	27.06567
835.749	53.12426
836.155	44.1156
836.561	49.12092
836.966	59.14452
837.372	62.15789
837.777	36.09016
838.183	28.06283
838.588	42.10473
838.993	58.14146
839.399	12.02963
839.804	-41.10188
840.209	2.00515
840.613	12.02701
841.018	38.09667
841.423	22.05684
841.828	16.0408
842.232	69.17083
842.637	46.10896
843.041	-7.01816
843.445	23.05811
843.849	35.0871
844.253	64.15219
844.657	-11.02806
845.061	-10.02305
845.465	1.00244
845.869	16.03755
846.272	-23.0569
846.676	50.12127
847.079	17.04356
847.483	69.17196
847.886	51.12441
848.289	19.05104
848.692	45.1143
849.095	55.13232
849.498	69.1747
849.901	44.10136
850.304	13.03137
850.707	69.17569
851.109	53.13433
851.512	8.01985
851.914	-44.11292
852.316	35.08893
852.718	-37.09709
853.121	12.02967
853.523	4.00946
853.925	-2.00527
854.326	26.06539
854.728	26.06724
855.13	14.03638
855.531	20.04816
855.933	42.10122
856.334	25.06271
856.736	58.13003
857.137	32.07483
857.538	23.05819
857.939	4.00998
858.34	30.07353
858.741	41.10748
859.142	38.09168
859.542	2.00533
859.943	30.07494
860.343	-13.03261
860.744	43.10525
861.144	23.05648
861.544	-24.05858
861.945	51.13013
862.345	29.07133
862.745	4.01004
863.145	81.19287
863.544	27.0686
863.944	32.07601
864.344	40.0997
864.743	75.18555
865.143	57.14642
865.542	18.04209
865.941	-2.00501
866.34	74.17678
866.74	57.15296
867.139	6.01451
867.537	43.10984
867.936	47.11337
868.335	68.17269
868.734	29.07447
869.132	61.14167
869.531	43.10431
869.929	15.03449
870.327	45.10814
870.726	54.13475
871.124	23.05413
871.522	46.1174
871.92	28.06944
872.318	58.14178
872.715	38.09441
873.113	0
873.511	47.1173
873.908	-8.02042
874.306	12.03008
874.703	22.05539
875.1	56.14327
875.497	25.0603
875.894	8.01977
876.291	48.11799
876.688	12.03118
877.085	42.10106
877.482	40.10043
877.878	13.03155
878.275	-7.01798
878.671	54.12037
879.068	48.11607
879.464	17.04139
879.86	4.00956
880.256	62.15285
880.652	71.18008
881.048	44.10927
881.444	32.07653
881.84	49.12468
882.236	11.02788
882.631	17.04203
883.027	27.06574
883.422	48.12289
883.817	-25.06372
884.213	27.06962
884.608	-17.04224
885.003	21.05096
885.398	31.07793
885.793	31.07815
886.188	18.04505
886.582	78.19927
886.977	66.15634
887.371	37.09388
887.766	-12.0302
888.16	21.05273
888.554	47.11641
888.949	-9.02286
889.343	87.21128
889.737	-15.04042
890.131	8.02024
890.525	49.12543
890.918	-4.01017
891.312	37.08885
891.706	40.10519
892.099	62.15756
892.492	58.1251
892.886	9.02221
893.279	45.11482
893.672	36.09194
894.065	11.02776
894.458	7.01775
894.851	73.17828
895.244	24.06162
895.637	14.03398
896.029	35.08589
896.422	23.05653
896.814	30.07491
897.206	3.00721
897.599	47.11641
897.991	52.12579
898.383	23.05468
898.775	54.12191
899.167	-10.02361
899.559	51.12917
899.951	-4.00954
900.342	25.0639
900.734	-20.05029
901.125	38.09997
901.517	25.06169
901.908	45.1081
902.299	18.0443
902.69	7.01667
903.082	73.17615
903.473	12.02896
903.863	17.04365
904.254	21.04906
904.645	37.09231
905.036	-10.0245
905.426	64.14625
905.817	68.16641
906.207	4.00962
906.597	27.06347
906.987	37.09617
907.378	23.05848
907.768	34.09017
908.158	45.1099
908.547	12.03122
908.937	22.05676
909.327	19.04644
909.717	76.19218
910.106	-2.00485
910.495	57.14221
910.885	8.02042
911.274	23.0578
911.663	58.14708
912.052	43.1063
912.441	-2.00513
912.83	47.10803
913.219	56.14647
913.608	27.06646
913.997	5.01264
914.385	32.07677
914.774	16.03923
915.162	1.00241
915.55	59.14259
915.939	-3.00765
916.327	55.13722
916.715	23.05892
917.103	97.2368
917.491	50.12377
917.878	48.11812
918.266	36.09362
918.654	32.08204
919.041	6.01578
919.429	14.03329
919.816	34.08647
920.203	0
920.591	49.12158
920.978	74.18049
921.365	54.14163
921.752	42.10033
922.139	17.03719
922.525	17.0411
922.912	20.04907
923.299	18.04501
923.685	21.05507
924.072	41.09477
924.458	56.13862
924.844	35.08688
925.231	32.07477
925.617	14.03584
926.003	53.13543
926.389	32.081
926.774	32.08138
927.16	53.1316
927.546	10.02571
927.931	62.15443
928.317	73.16746
928.702	51.12069
929.088	14.03335
929.473	15.03841
929.858	16.03894
930.243	24.0579
930.628	23.05625
931.013	-1.0025
931.398	41.09451
931.783	61.16034
932.167	52.12711
932.552	40.10043
932.937	36.0896
933.321	5.01265
933.705	23.05827
934.09	68.17134
934.474	61.14463
934.858	12.03133
935.242	3.00702
935.626	24.06172
936.009	38.10128
936.393	16.04096
936.777	40.10262
937.16	12.03143
937.544	69.16202
937.927	31.07893
938.311	70.17029
938.694	50.13225
939.077	29.06971
939.46	41.10088
939.843	50.10437
940.226	44.113
940.609	1.00232
940.991	44.11213
941.374	3.0074
941.757	36.08908
942.139	28.06319
942.522	79.18572
942.904	34.082
943.286	53.13462
943.668	26.06764
944.05	0
944.432	33.0817
944.814	51.12562
945.196	13.0319
945.578	25.05971
945.959	34.07995
946.341	34.08373
946.722	41.09642
947.104	29.06961
947.485	29.06778
947.866	21.05319
948.247	59.14863
948.628	31.07591
949.009	1.00258
949.39	43.1072
949.771	21.04914
950.152	26.0641
950.532	-31.0774
950.913	62.14924
951.293	15.04075
951.674	4.00976
952.054	41.10177
952.434	0
952.814	74.17529
953.194	57.14901
953.574	52.12806
953.954	74.17495
954.334	25.0626
954.714	-25.06178
955.093	75.18357
955.473	38.09523
955.853	47.12174
956.232	58.15877
956.611	18.04344
956.99	-6.01523
957.37	59.15012
957.749	-25.06051
958.128	13.03297
958.506	26.06773
958.885	7.0178
959.264	-1.00247
959.643	53.12056
960.021	19.04735
960.4	-1.00229
960.778	63.15483
961.156	-7.01773
961.535	20.0469
961.913	70.16318
962.291	-26.06759
962.669	4.01022
963.047	38.09718
963.424	15.03852
963.802	36.08875
964.18	64.16155
964.557	53.12202
964.935	51.12083
965.312	23.06017
965.69	67.16727
966.067	7.01718
966.444	32.07912
966.821	39.10074
967.198	109.26153
967.575	30.07404
967.952	52.12251
968.329	37.09026
968.705	33.07104
969.082	-2.00518
969.458	-12.02913
969.835	40.09756
970.211	21.05417
970.587	24.06004
970.963	70.17896
971.339	24.06295
971.715	58.14462
972.091	60.14749
972.467	33.08257
972.843	-8.02006
973.219	82.19574
973.594	15.03947
973.97	84.19867
974.345	30.07208
974.721	61.14742
975.096	55.13297
975.471	51.12097
975.846	52.12489
976.221	39.09923
976.596	15.0362
976.971	63.15518
977.346	46.10719
977.72	28.07161
978.095	36.09326
978.469	43.10278
978.844	84.20991
979.218	-11.02667
979.593	55.13166
979.967	34.08308
980.341	3.00697
980.715	48.12099
981.089	27.06787
981.463	-3.00696
981.837	25.06137
982.21	68.15771
982.584	2.00487
982.957	55.13722
983.331	29.06884
983.704	29.07154
984.078	22.0545
984.451	68.16931
984.824	19.04654
985.197	40.09734
985.57	53.13285
985.943	28.06944
986.316	87.21231
986.688	60.14443
987.061	38.08928
987.434	55.1432
987.806	43.10443
988.179	45.10629
988.551	40.10165
988.923	34.08398
989.295	41.10262
989.667	9.02167
990.039	41.10147
990.411	43.09912
990.783	44.10144
991.155	-8.01943
991.527	65.15963
991.898	28.07005
992.27	21.05222
992.641	57.14282
993.012	52.12232
993.384	25.05992
993.755	52.13252
994.126	-4.00972
994.497	8.01979
994.868	51.11713
995.239	4.00978
995.61	26.0657
995.98	28.06829
996.351	35.08691
996.722	-3.00703
997.092	-2.00478
997.462	12.02824
997.833	19.04531
998.203	66.15953
998.573	23.05755
998.943	43.10097
999.313	-21.051
999.683	-1.00242
1000.053	31.0716
1000.423	40.09738
1000.792	32.08319
1001.162	-4.00994
1001.531	49.12083
1001.901	25.0626
1002.27	19.04275
1002.639	41.10491
1003.009	28.06686
1003.378	10.02575
1003.747	7.01667
1004.116	6.01448
1004.485	1.00241
1004.853	57.14421
1005.222	51.12857
1005.591	48.11401
1005.959	8.01818
1006.328	27.06104
1006.696	24.05817
1007.064	43.10829
1007.433	11.02768
1007.801	86.20968
1008.169	21.0533
1008.537	27.06007
1008.905	4.0094
1009.273	24.05956
1009.64	11.02643
1010.008	10.02402
1010.375	47.11419
1010.743	93.21291
1011.11	45.10657
1011.478	17.04232
1011.845	-1.00237
1012.212	28.06365
1012.579	20.04936
1012.946	61.14486
1013.313	77.18229
1013.68	73.16329
1014.047	42.10022
1014.414	57.13442
1014.78	28.06984
1015.147	57.13765
1015.513	29.07014
1015.88	84.21347
1016.246	85.20844
1016.612	92.2088
1016.978	58.14189
1017.344	35.08672
1017.71	55.13397
1018.076	-7.01669
1018.442	53.13624
1018.808	35.0877
1019.174	63.15763
1019.539	109.24793
1019.905	17.04034
1020.27	-6.01496
1020.636	77.18363
1021.001	61.14569
1021.366	-3.00727
1021.731	62.15906
1022.096	13.033
1022.461	43.10188
1022.826	19.04541
1023.191	56.14672
1023.556	33.07758
1023.92	47.1156
1024.285	42.10263
1024.649	50.1225
1025.014	51.12627
1025.378	32.08069
1025.742	39.09702
1026.107	58.13094
1026.471	60.13976
1026.835	49.12145
1027.199	5.01213
1027.562	36.08389
1027.926	36.08823
1028.29	45.11393
1028.654	31.07157
1029.017	81.19789
1029.381	17.04085
1029.744	52.13252
1030.107	26.06178
1030.471	15.03614
1030.834	36.0821
1031.197	39.09411
1031.56	27.06397
1031.923	5.01302
1032.286	24.05663
1032.648	76.18079
1033.011	19.04387
1033.374	43.10117
1033.736	26.06861
1034.099	45.10974
1034.461	-5.01275
1034.823	18.04506
1035.185	38.09582
1035.548	51.12404
1035.91	38.09119
1036.272	-3.0069
1036.634	80.19454
1036.995	17.0402
1037.357	9.02205
1037.719	41.09983
1038.08	51.12102
1038.442	4.00957
1038.803	14.03383
1039.165	24.06082
1039.526	38.09199
1039.887	11.0265
1040.248	-20.04989
1040.609	56.13816
1040.97	38.09303
1041.331	16.04073
1041.692	-1.00236
1042.053	48.10929
1042.413	51.11877
1042.774	34.0829
1043.134	53.12605
1043.495	40.10068
1043.855	-3.00735
1044.215	36.08954
1044.576	39.0934
1044.936	21.04841
1045.296	49.12225
1045.656	23.05669
1046.016	74.17772
1046.375	15.03661
1046.735	22.05013
1047.095	6.01416
1047.454	77.16212
1047.814	26.06275
1048.173	88.20861
1048.533	-1.00231
1048.892	18.04344
1049.251	58.1453
1049.61	46.11328
1049.969	48.11313
1050.328	18.03927
1050.687	42.10229
1051.046	22.05382
1051.405	28.06989
1051.763	10.02316
1052.122	13.03262
1052.48	19.04683
1052.839	13.03079
1053.197	58.13622
1053.555	85.19233
1053.914	63.15363
1054.272	99.23699
1054.63	-18.04454
1054.988	21.05014
1055.345	18.03901
1055.703	81.19368
1056.061	50.12855
1056.419	30.07788
1056.776	28.06814
1057.134	16.03727
1057.491	31.07784
1057.848	49.12194
1058.206	26.0614
1058.563	40.08831
1058.92	47.10834
1059.277	42.1037
1059.634	36.08488
1059.991	79.18811
1060.348	32.07254
1060.704	6.01441
1061.061	74.17101
1061.418	7.0171
1061.774	30.07429
1062.131	29.0769
1062.487	55.12839
1062.843	41.10233
1063.199	36.0897
1063.555	26.06049
1063.911	37.09361
1064.267	31.0649
1064.623	42.1021
1064.979	45.10666
1065.335	54.1289
1065.691	61.14581
1066.046	51.11205
1066.402	53.12026
1066.757	37.09355
1067.112	26.06405
1067.468	-11.02626
1067.823	38.09151
1068.178	22.05346
1068.533	28.06811
1068.888	52.12413
1069.243	7.0174
1069.598	31.07554
1069.952	-18.04107
1070.307	24.05965
1070.662	16.03821
1071.016	14.03158
1071.371	-14.03224
1071.725	68.16201
1072.079	35.08436
1072.434	20.04884
1072.788	42.1001
1073.142	49.12047
1073.496	8.01912
1073.85	4.00935
1074.203	50.12122
1074.557	6.01606
1074.911	89.2107
1075.265	50.11615
1075.618	81.19649
1075.971	-3.0072
1076.325	32.08152
1076.678	36.0825
1077.031	31.07037
1077.385	48.10571
1077.738	41.09266
1078.091	-16.03684
1078.444	84.19358
1078.796	31.07627
1079.149	62.15375
1079.502	-26.06228
1079.855	25.05854
1080.207	60.14743
1080.56	17.04415
1080.912	42.10232
1081.264	43.10361
1081.617	17.04166
1081.969	41.10351
1082.321	42.10263
1082.673	-42.09756
1083.025	13.03104
1083.377	-223.5064
1083.728	49.11425
1084.08	4.01006
1084.432	43.10376
1084.783	35.08219
1085.135	-17.04309
1085.486	-6.01387
1085.838	30.0741
1086.189	18.04392
1086.54	41.098
1086.891	3.00764
1087.242	-6.01475
1087.593	45.10957
1087.944	-4.00914
1088.295	28.06388
1088.646	-3.00734
1088.996	-3.00729
1089.347	41.10069
1089.698	-3.00716
1090.048	39.1014
1090.398	11.02569
1090.749	70.16671
1091.099	-16.04068
1091.449	29.07246
1091.799	32.08031
1092.149	-14.03452
1092.499	30.07339
1092.849	45.11438
1093.199	90.22376
1093.548	18.04348
1093.898	9.02266
1094.248	21.05419
1094.597	-1.00257
1094.947	53.14119
1095.296	30.07429
1095.645	0
1095.994	-7.01698
1096.343	41.10325
1096.692	-6.0159
1097.041	-33.09046
1097.39	29.07295
1097.739	2.00524
1098.088	61.16299
1098.437	-6.0159
1098.785	40.10792
1099.134	33.0878
1099.482	35.0964
1099.83	32.08427
1100.179	25.06542
1100.527	67.17736
1100.875	-7.01867
1101.223	14.03736
1101.571	32.0886
1101.919	-20.05283
1102.267	35.09868
1102.615	-4.01287
1102.962	22.07073
1103.31	1.00321
1103.658	15.04829
