Data from N2 R7 sample 2_Subt2__5__15-42-33-559.txt Node

Date: Fri Aug 29 15:42:33 PDT 2025
User: uwsun
Spectrometer: HDX01956
Trigger mode: 0
Integration Time (sec): 5.000000E-1
Scans to average: 1
Nonlinearity correction enabled: true
Boxcar width: 0
Storing dark spectrum: false
XAxis mode: Wavelengths
Number of Pixels in Spectrum: 2068
>>>>>Begin Spectral Data<<<<<
194.03	39.10881
194.578	43.13526
195.127	49.15175
195.676	35.10892
196.225	91.23774
196.773	68.18442
197.321	104.27433
197.87	153.36793
198.418	103.24676
198.966	121.29065
199.513	56.12967
200.061	75.17597
200.609	142.34827
201.156	89.17872
201.704	89.20702
202.251	165.3992
202.798	154.36605
203.345	117.26764
203.892	118.27356
204.438	162.35391
204.985	76.16554
205.532	114.27628
206.078	111.25115
206.624	115.25904
207.17	125.26666
207.716	112.24944
208.262	82.1498
208.808	62.14071
209.354	118.26302
209.899	142.33115
210.445	82.18777
210.99	82.1821
211.535	150.32269
212.08	145.30865
212.625	138.31739
213.17	168.38916
213.715	43.08834
214.259	155.33008
214.804	174.39297
215.348	117.24666
215.892	156.3421
216.436	211.44307
216.98	167.33767
217.524	124.26929
218.068	164.37839
218.612	132.30686
219.155	129.27913
219.698	141.30862
220.242	118.27323
220.785	127.27398
221.328	91.21126
221.871	161.37671
222.414	170.38942
222.956	22.04977
223.499	105.21903
224.041	158.33947
224.583	152.30332
225.126	86.17656
225.668	120.26947
226.21	122.2835
226.751	82.16615
227.293	89.18978
227.835	103.23296
228.376	125.26781
228.918	145.33848
229.459	45.1048
230	93.20562
230.541	137.29111
231.082	127.28384
231.622	116.24762
232.163	117.26138
232.704	123.28091
233.244	153.34787
233.784	118.26857
234.324	67.13597
234.864	127.2648
235.404	95.21022
235.944	150.32686
236.484	156.35792
237.023	55.1212
237.563	100.21319
238.102	121.26339
238.641	136.31641
239.18	78.16845
239.719	152.34972
240.258	161.33032
240.797	93.20536
241.335	135.30396
241.874	116.20388
242.412	114.25179
242.95	37.08222
243.488	122.25568
244.026	99.20982
244.564	132.24811
245.102	148.30207
245.64	140.30986
246.177	88.18222
246.715	119.2631
247.252	141.29635
247.789	202.34275
248.326	40.08897
248.863	138.27474
249.4	137.28426
249.936	131.24508
250.473	148.31305
251.009	134.27871
251.546	63.12826
252.082	92.18521
252.618	70.14352
253.154	120.26271
253.69	77.15969
254.226	166.35788
254.761	142.28916
255.297	94.1881
255.832	114.24599
256.367	114.24514
256.903	87.17486
257.438	104.22393
257.972	71.14547
258.507	68.14251
259.042	131.25771
259.576	76.14884
260.111	113.23854
260.645	159.31014
261.179	99.21028
261.713	110.22206
262.247	100.21059
262.781	70.13391
263.315	113.25109
263.849	91.20766
264.382	136.28325
264.915	108.22894
265.449	67.14814
265.982	110.22767
266.515	120.26493
267.048	101.19335
267.58	115.22858
268.113	151.29117
268.646	105.23487
269.178	95.19174
269.71	112.22132
270.243	147.30187
270.775	138.31637
271.307	162.35091
271.838	203.43079
272.37	114.25358
272.902	148.30207
273.433	97.19163
273.965	134.29336
274.496	134.30103
275.027	80.18031
275.558	151.32729
276.089	74.16392
276.62	118.27204
277.15	147.3261
277.681	119.23267
278.211	121.26786
278.741	73.14483
279.272	151.30574
279.802	127.28513
280.332	124.26102
280.861	160.34243
281.391	106.21497
281.921	143.30823
282.45	149.33301
282.98	196.45258
283.509	147.29287
284.038	76.15589
284.567	163.3382
285.096	108.23384
285.625	126.25378
286.153	78.16383
286.682	152.306
287.21	141.3
287.739	106.22303
288.267	136.29069
288.795	179.41669
289.323	81.16821
289.851	129.2673
290.378	122.24176
290.906	94.20127
291.433	126.27806
291.961	45.09103
292.488	131.28794
293.015	127.26174
293.542	115.25638
294.069	137.29479
294.596	172.37241
295.122	111.23309
295.649	145.2788
296.175	173.36552
296.702	146.31017
297.228	174.36836
297.754	150.29168
298.28	114.22538
298.806	109.22899
299.332	66.12779
299.857	131.25564
300.383	179.39328
300.908	114.23902
301.433	139.29124
301.958	182.3615
302.483	134.2884
303.008	128.27537
303.533	219.48884
304.058	209.41969
304.582	73.14957
305.107	122.27464
305.631	230.44212
306.155	123.24471
306.679	123.24505
307.203	178.34794
307.727	116.236
308.251	140.29587
308.775	125.25066
309.298	120.24314
309.822	165.35305
310.345	216.42523
310.868	206.40898
311.391	151.31484
311.914	126.26686
312.437	191.36299
312.96	158.30987
313.482	137.27142
314.005	157.32954
314.527	148.32551
315.049	166.35127
315.571	116.21191
316.093	164.33564
316.615	134.26691
317.137	157.27789
317.659	167.33488
318.18	227.44425
318.702	167.31506
319.223	148.24392
319.744	212.37672
320.265	177.34361
320.786	151.30014
321.307	157.31483
321.828	178.31909
322.348	151.28319
322.869	162.30075
323.389	135.16763
323.909	202.36156
324.43	223.4234
324.95	161.28646
325.47	166.31756
325.989	187.33808
326.509	173.28695
327.029	166.28258
327.548	174.29316
328.067	168.30614
328.587	217.40939
329.106	125.21491
329.625	262.52526
330.144	189.32148
330.662	152.26015
331.181	205.35058
331.7	231.3908
332.218	231.35279
332.736	226.37912
333.255	137.23164
333.773	195.33007
334.291	267.47656
334.808	217.33397
335.326	249.38504
335.844	234.36791
336.361	202.35485
336.879	213.33479
337.396	244.39501
337.913	213.32568
338.43	207.30637
338.947	246.38499
339.464	237.3195
339.981	209.32222
340.497	294.46979
341.014	253.39606
341.53	165.23661
342.046	187.29614
342.562	210.33996
343.078	219.32255
343.594	240.35686
344.11	271.39403
344.626	245.38398
345.141	267.35924
345.657	305.4066
346.172	281.403
346.687	260.34647
347.202	238.30616
347.717	333.45226
348.232	258.38153
348.747	262.3389
349.261	188.22284
349.776	270.35404
350.29	235.32499
350.805	318.44196
351.319	294.37046
351.833	273.32234
352.347	271.34062
352.861	315.37966
353.374	324.38896
353.888	272.35185
354.401	260.30823
354.915	261.2865
355.428	301.38605
355.941	276.3181
356.454	365.39453
356.967	333.38804
357.48	288.32471
357.993	309.38136
358.505	329.38966
359.018	359.42024
359.53	360.40102
360.042	322.32107
360.554	348.39483
361.066	339.38066
361.578	376.34268
362.09	333.35905
362.602	293.27361
363.113	355.35029
363.625	348.32057
364.136	359.31606
364.647	213.20382
365.158	439.39752
365.669	290.29378
366.18	368.34667
366.691	384.31232
367.201	372.34828
367.712	299.25557
368.222	325.27306
368.733	282.20757
369.243	332.2413
369.753	408.3155
370.263	399.32439
370.773	394.33647
371.282	354.27025
371.792	333.20822
372.301	279.20635
372.811	395.32496
373.32	385.16368
373.829	273.15858
374.338	405.16821
374.847	364.15509
375.356	452.17815
375.865	479.07765
376.373	441.09485
376.882	512.18031
377.39	426.11004
377.898	273.05735
378.407	377.00662
378.915	579.93777
379.423	579.95264
379.93	548.91054
380.438	535.89443
380.946	549.84378
381.453	534.82291
381.96	547.77466
382.468	427.7924
382.975	669.66128
383.482	752.58715
383.989	649.65763
384.495	727.59139
385.002	604.67582
385.509	600.67808
386.015	816.70534
386.521	841.69863
387.028	710.80751
387.534	647.8983
388.04	936.88354
388.546	789.12797
389.051	587.24586
389.557	787.61415
390.063	1310.46235
390.568	1174.65185
391.073	1040.99142
391.578	1077.27518
392.084	991.73916
392.589	501.6938
393.093	382.64167
393.598	624.45828
394.103	986.85591
394.607	1188.26425
395.112	1451.20825
395.616	1440.79197
396.12	1310.61512
396.624	1277.76256
397.128	1468.14551
397.632	1881.15552
398.136	2098.58031
398.639	512.33715
399.143	-434.36526
399.646	-208.70819
400.15	-263.18269
400.653	-1161.0343
401.156	-2549.20816
401.659	-3552.58477
402.162	-315.87981
402.664	-27.69154
403.167	0
403.67	0
404.172	0
404.674	0
405.176	0
405.678	0
406.18	0
406.682	0
407.184	0
407.686	0
408.187	0
408.688	0
409.19	0
409.691	0
410.192	0
410.693	0
411.194	435.30976
411.694	4082.94878
412.195	8864.71461
412.696	12089.80453
413.196	12409.55702
413.696	11329.742
414.196	12688.16099
414.696	15920.32121
415.196	17366.22562
415.696	20287.81196
416.196	17121.65446
416.695	10731.34899
417.195	6773.58039
417.694	6437.074
418.194	6533.69927
418.693	5246.01527
419.192	4997.75024
419.691	4897.88824
420.19	5024.31125
420.688	5112.32807
421.187	5251.45869
421.685	5211.87444
422.184	5167.87194
422.682	4381.7696
423.18	3187.20632
423.678	2618.38015
424.176	2208.78121
424.674	2113.22574
425.172	2189.86898
425.669	2400.95903
426.167	2234.88753
426.664	1960.11326
427.161	1713.62237
427.659	1559.32823
428.156	1493.36995
428.652	1225.32741
429.149	1191.34415
429.646	1225.32697
430.143	1097.43916
430.639	1045.49605
431.135	944.62628
431.632	892.65531
432.128	797.78092
432.624	645.90377
433.12	480.88956
433.616	494.8952
434.111	340.96949
434.607	473.98337
435.103	537.95496
435.598	485.97855
436.093	584.08244
436.588	520.09578
437.083	530.13217
437.578	463.16142
438.073	299.15319
438.568	405.23219
439.062	302.12749
439.557	308.19574
440.051	302.17535
440.546	168.10979
441.04	192.14615
441.534	181.16416
442.028	225.1875
442.522	169.14494
443.015	187.13544
443.509	236.21769
444.002	155.14882
444.496	183.14258
444.989	126.12727
445.482	179.18317
445.975	71.06315
446.468	144.11583
446.961	143.11647
447.454	127.11843
447.947	135.13414
448.439	63.07054
448.931	45.04373
449.424	134.15941
449.916	107.12092
450.408	83.08261
450.9	31.03594
451.392	55.06848
451.884	19.02127
452.375	14.01738
452.867	100.10987
453.358	37.04041
453.849	33.03332
454.341	-12.01364
454.832	-10.01065
455.323	-95.12627
455.814	8.00965
456.304	-13.01598
456.795	-3.00366
457.285	16.0193
457.776	19.02409
458.266	-52.06946
458.756	22.02992
459.247	14.01854
459.737	-71.09748
460.226	-12.01508
460.716	-51.07166
461.206	-54.0777
461.695	-51.07895
462.185	-52.07445
462.674	-15.02083
463.163	17.02231
463.653	-9.01114
464.142	-53.07988
464.63	-17.02638
465.119	-85.12434
465.608	-106.15673
466.096	-30.04128
466.585	-36.05414
467.073	-37.05866
467.561	-27.0431
468.05	-18.02768
468.538	-27.04493
469.026	-79.12958
469.513	-36.04983
470.001	-65.09985
470.489	-27.04337
470.976	-33.05235
471.463	-62.10983
471.951	-55.09887
472.438	-67.11131
472.925	-121.20303
473.412	-12.02133
473.899	-37.0612
474.385	-60.10861
474.872	-94.16088
475.359	-99.18045
475.845	-63.09443
476.331	-80.13009
476.817	-72.1334
477.303	-102.18031
477.789	-99.18338
478.275	-123.23684
478.761	-72.13413
479.247	-33.05649
479.732	-118.23011
480.218	-81.16656
480.703	-117.23136
481.188	-109.18319
481.673	-112.20336
482.158	-157.26257
482.643	-69.14182
483.128	-138.25236
483.612	-127.24065
484.097	-108.21672
484.581	-95.1801
485.066	-121.24084
485.55	-130.23196
486.034	-171.30536
486.518	-121.23265
487.002	-181.36984
487.486	-207.42757
487.969	-164.33609
488.453	-111.23566
488.936	-206.39523
489.42	-95.17535
489.903	-107.22875
490.386	-156.21509
490.869	-124.22951
491.352	-101.21181
491.835	-115.20196
492.318	-149.28745
492.8	-142.25128
493.283	-130.28376
493.765	-209.44991
494.247	-95.19174
494.73	-162.31126
495.212	-97.20369
495.694	-194.39649
496.175	-202.4179
496.657	-119.24591
497.139	-97.14654
497.62	-206.42904
498.102	-208.45728
498.583	-144.31818
499.064	-167.32621
499.545	-158.31793
500.026	-192.38172
500.507	-135.27585
500.988	-127.27844
501.469	-171.37949
501.949	-181.40118
502.43	-244.52084
502.91	-215.39825
503.39	-167.37539
503.87	-204.42941
504.35	-186.39652
504.83	-195.38307
505.31	-196.42673
505.79	-177.37857
506.269	-131.27326
506.749	-161.32793
507.228	-220.46697
507.707	-188.37534
508.187	-166.35865
508.666	-220.48955
509.145	-195.4111
509.623	-204.43452
510.102	-204.4498
510.581	-154.33686
511.059	-197.44682
511.538	-194.4581
512.016	-178.38622
512.494	-142.31153
512.972	-201.43789
513.45	-275.58485
513.928	-195.43005
514.406	-240.52629
514.884	-196.45941
515.361	-220.48345
515.839	-195.40532
516.316	-152.33108
516.793	-185.4293
517.27	-163.36144
517.747	-209.4917
518.224	-184.39073
518.701	-201.41201
519.178	-278.63934
519.654	-142.30864
520.131	-244.55981
520.607	-183.4181
521.083	-216.45607
521.56	-250.55007
522.036	-181.36631
522.512	-167.37939
522.987	-209.45609
523.463	-196.42963
523.939	-164.36993
524.414	-182.38901
524.89	-212.46705
525.365	-193.40402
525.84	-241.53038
526.315	-199.44291
526.79	-178.37073
527.265	-180.37923
527.74	-216.48901
528.215	-216.47407
528.689	-224.46279
529.164	-230.46922
529.638	-213.51046
530.112	-219.47994
530.587	-202.39954
531.061	-203.4535
531.534	-182.41003
532.008	-185.41141
532.482	-187.39995
532.956	-211.49892
533.429	-158.35378
533.903	-161.33077
534.376	-158.32321
534.849	-173.37257
535.322	-187.41103
535.795	-215.49219
536.268	-211.4739
536.741	-194.43546
537.213	-196.42401
537.686	-202.45807
538.158	-275.58281
538.631	-175.39708
539.103	-249.52586
539.575	-172.33542
540.047	-206.42541
540.519	-185.41363
540.991	-198.45465
541.463	-199.45117
541.934	-195.4176
542.406	-141.30992
542.877	-175.36813
543.348	-163.36655
543.82	-169.38658
544.291	-184.40265
544.762	-181.39884
545.233	-215.50365
545.703	-226.46944
546.174	-198.43035
546.645	-229.50947
547.115	-176.39262
547.585	-166.35373
548.056	-218.48671
548.526	-176.38026
548.996	-129.2839
549.466	-125.27983
549.935	-151.3252
550.405	-155.30996
550.875	-139.2991
551.344	-150.32866
551.814	-148.31044
552.283	-117.23147
552.752	-154.3246
553.221	-194.3848
553.69	-125.25043
554.159	-156.3457
554.628	-161.32509
555.096	-147.33626
555.565	-157.31833
556.033	-116.24837
556.502	-120.26482
556.97	-132.26868
557.438	-127.2768
557.906	-127.2788
558.374	-139.29626
558.842	-141.31292
559.31	-107.22211
559.777	-168.3788
560.245	-97.21177
560.712	-136.29522
561.18	-117.24059
561.647	-119.24834
562.114	-125.26573
562.581	-94.21533
563.048	-74.15858
563.514	-128.29298
563.981	-93.19882
564.448	-74.15433
564.914	-72.15609
565.381	-44.09286
565.847	3.00644
566.313	-73.15843
566.779	-4.00829
567.245	-22.04743
567.711	32.06973
568.176	22.04494
568.642	-25.05753
569.108	1.00225
569.573	74.15783
570.038	82.1555
570.504	122.24278
570.969	123.27513
571.434	113.2201
571.899	134.28306
572.363	194.38678
572.828	188.37865
573.293	234.46566
573.757	212.42443
574.222	257.49153
574.686	244.46972
575.15	272.55439
575.614	309.60216
576.078	286.57338
576.542	348.66832
577.006	313.59864
577.469	381.7972
577.933	379.70523
578.396	390.77754
578.86	385.76097
579.323	336.67705
579.786	393.70513
580.249	356.68072
580.712	323.67435
581.175	377.78325
581.637	428.82237
582.1	375.69362
582.563	382.69015
583.025	318.65758
583.487	333.56615
583.95	278.51046
584.412	344.61164
584.874	262.55053
585.336	281.57365
585.797	252.47157
586.259	319.64619
586.721	299.6018
587.182	283.57511
587.643	258.50935
588.105	260.53476
588.566	285.51764
589.027	180.38173
589.488	227.4533
589.949	231.49042
590.41	206.34954
590.87	260.51788
591.331	234.44287
591.791	217.43837
592.252	143.29034
592.712	199.42212
593.172	190.37739
593.632	246.47174
594.092	209.40999
594.552	174.33206
595.011	182.36809
595.471	211.41509
595.931	229.44647
596.39	212.44527
596.849	252.51082
597.308	277.52131
597.768	223.49694
598.227	282.58915
598.685	304.60411
599.144	275.55732
599.603	242.50133
600.062	294.5287
600.52	320.60891
600.978	370.74487
601.437	397.76666
601.895	388.68989
602.353	466.85573
602.811	448.82432
603.269	480.95031
603.727	558.08239
604.184	534.97275
604.642	605.18966
605.099	635.16787
605.557	699.33933
606.014	723.18877
606.471	686.34257
606.928	718.16841
607.385	793.4613
607.842	951.578
608.299	980.65713
608.755	999.74371
609.212	1064.64801
609.668	1040.60502
610.125	1102.88631
610.581	1221.00588
611.037	1198.88815
611.493	1165.93144
611.949	1195.99335
612.405	1234.61081
612.861	1281.05636
613.316	1194.98136
613.772	1315.01418
614.227	1289.05531
614.683	1376.9051
615.138	1332.07935
615.593	1353.08503
616.048	1336.04362
616.503	1448.3598
616.958	1366.32054
617.412	1379.17255
617.867	1373.9746
618.321	1323.79411
618.776	1338.97093
619.23	1297.08221
619.684	1400.09099
620.138	1374.15163
620.592	1278.16678
621.046	1329.13995
621.5	1235.12441
621.954	1268.98085
622.407	1230.91446
622.861	1191.08204
623.314	1207.94992
623.768	1192.98562
624.221	1166.59213
624.674	1102.86118
625.127	1139.9452
625.58	1161.92478
626.033	1190.88515
626.485	1017.84513
626.938	1105.95863
627.39	1093.89232
627.843	1046.82552
628.295	971.72852
628.747	1025.86156
629.199	1035.78118
629.651	982.71261
630.103	978.72711
630.555	921.51127
631.006	984.7928
631.458	906.69456
631.909	1011.79991
632.361	921.70275
632.812	915.67313
633.263	971.62193
633.714	945.5818
634.165	923.79483
634.616	958.80699
635.067	943.65607
635.518	950.80936
635.968	968.50477
636.419	959.64035
636.869	985.86027
637.319	961.76361
637.769	922.64488
638.219	984.87694
638.669	981.86263
639.119	1015.97025
639.569	1002.92331
640.019	1058.91242
640.468	1025.79298
640.918	1039.98441
641.367	1072.86515
641.816	1069.85649
642.265	1111.98761
642.714	1075.94273
643.163	1099.96105
643.612	1145.11652
644.061	1125.79947
644.51	1115.95907
644.958	1089.84659
645.406	1113.07556
645.855	1101.12588
646.303	1102.01407
646.751	1106.94877
647.199	1212.0808
647.647	1112.98685
648.095	1153.02903
648.543	1180.80852
648.99	1140.11718
649.438	1176.13256
649.885	1171.26028
650.333	1132.64407
650.78	1093.0853
651.227	1071.07274
651.674	1089.94415
652.121	1106.12692
652.568	1072.07221
653.015	1085.20156
653.461	1018.94752
653.908	1074.9828
654.354	1030.98093
654.801	972.85133
655.247	981.73377
655.693	936.03508
656.139	885.76979
656.585	907.80714
657.031	791.56263
657.477	872.55307
657.922	846.63125
658.368	895.85167
658.813	904.74909
659.259	816.66289
659.704	778.54804
660.149	783.55764
660.594	774.5765
661.039	718.4159
661.484	787.61498
661.929	776.55766
662.373	727.60025
662.818	707.53669
663.262	707.48652
663.707	682.52651
664.151	674.45404
664.595	641.37184
665.039	713.55827
665.483	652.47785
665.927	676.40412
666.371	602.24188
666.814	661.39946
667.258	597.26379
667.701	674.27922
668.145	632.40928
668.588	623.37
669.031	539.14979
669.474	600.29975
669.917	591.17629
670.36	588.31808
670.803	592.29058
671.245	531.0174
671.688	646.40904
672.13	528.07777
672.573	570.31897
673.015	549.20152
673.457	530.05148
673.899	617.34543
674.341	513.13772
674.783	504.11101
675.225	527.18819
675.666	480.06508
676.108	524.04053
676.549	551.19169
676.991	465.95227
677.432	481.88261
677.873	482.03222
678.314	447.99766
678.755	499.12084
679.196	431.92455
679.637	458.04394
680.078	470.02294
680.518	468.01556
680.959	441.98955
681.399	434.00782
681.839	397.91386
682.28	390.91045
682.72	397.85823
683.16	393.92591
683.6	411.88507
684.039	377.74586
684.479	383.89113
684.919	325.71732
685.358	391.9412
685.798	380.94595
686.237	408.93298
686.676	421.92177
687.115	393.87499
687.554	363.82159
687.993	408.85237
688.432	348.76052
688.871	338.7343
689.309	276.6393
689.748	333.6693
690.186	367.83638
690.625	289.65546
691.063	322.74229
691.501	384.90208
691.939	321.76923
692.377	285.67308
692.815	323.74207
693.253	308.71511
693.69	311.65939
694.128	286.67033
694.565	332.76045
695.003	306.74903
695.44	302.68536
695.877	271.61464
696.314	278.58208
696.751	270.6003
697.188	264.59037
697.625	341.75231
698.061	283.65798
698.498	328.76364
698.934	278.65006
699.371	241.55437
699.807	303.69251
700.243	287.66886
700.679	289.63493
701.115	288.65836
701.551	297.67716
701.987	312.67782
702.422	312.71408
702.858	288.66472
703.294	288.63314
703.729	280.66499
704.164	256.60073
704.599	296.63841
705.035	238.52147
705.47	224.53385
705.904	254.57714
706.339	307.69091
706.774	240.54997
707.209	213.48311
707.643	245.57504
708.078	245.58266
708.512	188.4633
708.946	273.63649
709.38	252.58303
709.814	271.60315
710.248	223.5334
710.682	253.58685
711.116	146.34623
711.549	223.56396
711.983	226.51249
712.416	270.62144
712.85	236.57557
713.283	246.56892
713.716	259.63436
714.149	246.57366
714.582	208.46054
715.015	262.63921
715.448	236.582
715.881	252.53978
716.313	217.49977
716.746	231.53264
717.178	233.54837
717.61	208.51861
718.043	242.58954
718.475	214.50983
718.907	272.66978
719.339	228.50651
719.77	201.46901
720.202	234.57877
720.634	205.49035
721.065	209.48748
721.497	215.51761
721.928	223.53646
722.359	177.4216
722.79	183.43271
723.221	221.54572
723.652	227.57407
724.083	225.49787
724.514	227.51172
724.945	186.43205
725.375	155.35727
725.806	195.48011
726.236	184.46542
726.666	189.44205
727.096	193.46711
727.526	219.54514
727.956	179.4027
728.386	209.50602
728.816	157.39366
729.246	175.42036
729.675	184.44675
730.105	193.46852
730.534	214.49217
730.964	235.58135
731.393	236.57407
731.822	219.54851
732.251	203.50661
732.68	268.61462
733.109	205.49671
733.537	197.46852
733.966	172.42247
734.395	187.42672
734.823	213.47309
735.251	145.34751
735.68	203.50054
736.108	177.44253
736.536	197.45823
736.964	196.44843
737.392	171.42335
737.82	207.4887
738.247	185.43778
738.675	281.65153
739.102	175.43182
739.53	137.34673
739.957	160.40746
740.384	219.53043
740.811	183.45786
741.238	182.43858
741.665	158.36367
742.092	161.38173
742.519	129.31797
742.945	141.33702
743.372	172.42106
743.798	171.43447
744.225	153.36136
744.651	127.31764
745.077	147.36407
745.503	143.34715
745.929	160.38075
746.355	212.5182
746.781	131.32349
747.207	84.19821
747.632	143.34624
748.058	148.36675
748.483	163.37241
748.908	175.4296
749.334	168.40837
749.759	122.28742
750.184	97.23176
750.609	153.37323
751.033	150.35283
751.458	187.41465
751.883	194.4735
752.307	126.29604
752.732	75.1882
753.156	120.29573
753.58	111.2641
754.005	139.35079
754.429	122.28641
754.853	92.22848
755.277	138.32524
755.7	135.33325
756.124	125.30902
756.548	118.2794
756.971	153.37072
757.394	140.35816
757.818	124.31768
758.241	110.27865
758.664	107.26994
759.087	69.15555
759.51	115.28576
759.933	119.28574
760.356	140.3564
760.778	94.23166
761.201	112.27245
761.623	101.24565
762.046	139.32855
762.468	137.32783
762.89	132.32447
763.312	93.2278
763.734	95.22933
764.156	95.23503
764.578	114.26261
765	107.26112
765.421	64.16339
765.843	92.24129
766.264	126.30364
766.686	99.24886
767.107	69.16839
767.528	32.08167
767.949	86.21917
768.37	83.20451
768.791	129.31093
769.212	45.11401
769.632	28.06625
770.053	71.18757
770.473	90.21951
770.894	87.21846
771.314	76.1828
771.734	100.23348
772.154	84.21611
772.575	125.28904
772.994	29.06695
773.414	121.28988
773.834	46.11607
774.254	64.15773
774.673	38.09368
775.093	50.12476
775.512	65.16105
775.931	62.15806
776.351	65.16228
776.77	62.15252
777.189	58.13914
777.607	32.08256
778.026	76.18992
778.445	15.03803
778.864	92.23595
779.282	98.23581
779.701	24.06123
780.119	44.11205
780.537	34.0857
780.955	85.21651
781.373	62.1542
781.791	37.08423
782.209	56.13029
782.627	59.15603
783.045	82.18927
783.462	89.22725
783.88	72.18659
784.297	67.16915
784.715	50.12908
785.132	59.14371
785.549	29.07329
785.966	63.15911
786.383	34.08447
786.8	83.1933
787.217	30.07197
787.633	56.14044
788.05	146.34356
788.466	67.15892
788.883	36.09252
789.299	50.12131
789.715	100.24254
790.131	48.12016
790.547	42.10571
790.963	49.12242
791.379	31.07907
791.795	56.1288
792.21	68.15971
792.626	34.08153
793.041	62.15364
793.457	30.07489
793.872	43.10199
794.287	18.04349
794.702	41.10184
795.117	12.03018
795.532	21.05317
795.947	110.26368
796.362	49.11793
796.776	107.24997
797.191	30.07415
797.605	-25.05992
798.02	70.17073
798.434	89.19834
798.848	56.13852
799.262	36.08999
799.676	50.12277
800.09	28.06956
800.504	96.2324
800.918	22.05161
801.331	38.10027
801.745	23.0535
802.158	36.09068
802.572	64.15581
802.985	62.15049
803.398	83.19793
803.811	85.21826
804.224	69.17208
804.637	15.03618
805.05	49.11439
805.462	35.08672
805.875	8.02096
806.288	18.0439
806.7	38.09616
807.112	68.15815
807.525	35.08707
807.937	20.04994
808.349	38.09585
808.761	67.16515
809.173	42.10248
809.584	73.1806
809.996	7.01736
810.408	11.02868
810.819	17.04046
811.231	-8.02095
811.642	22.05298
812.053	68.16195
812.464	100.23669
812.875	109.27675
813.286	59.15219
813.697	98.22845
814.108	61.14947
814.519	13.02939
814.929	84.21385
815.34	28.06852
815.75	26.06659
816.16	31.07787
816.571	48.12516
816.981	45.10694
817.391	69.16682
817.801	22.05514
818.211	57.1364
818.62	13.03165
819.03	59.145
819.44	57.14922
819.849	49.12397
820.259	69.17668
820.668	12.02983
821.077	11.02761
821.486	26.0632
821.895	110.26999
822.304	57.15129
822.713	95.22368
823.122	43.10786
823.531	2.00481
823.939	46.11261
824.348	34.08327
824.756	37.09324
825.164	31.07857
825.573	7.01776
825.981	82.20298
826.389	72.18083
826.797	3.0076
827.205	30.06944
827.612	25.06221
828.02	-8.01907
828.428	29.07436
828.835	20.05304
829.243	28.0673
829.65	35.08754
830.057	53.12905
830.464	46.11257
830.871	46.11069
831.278	5.01223
831.685	68.15195
832.092	41.10091
832.499	32.07062
832.905	74.18712
833.312	-7.01623
833.718	63.15712
834.124	67.15326
834.531	80.20121
834.937	33.08518
835.343	59.14264
835.749	73.17048
836.155	48.12602
836.561	26.06443
836.966	40.09833
837.372	77.19557
837.777	18.04522
838.183	17.03823
838.588	27.06751
838.993	33.08086
839.399	27.06648
839.804	7.01724
840.209	20.05129
840.613	-5.01129
841.018	41.10425
841.423	26.06712
841.828	33.08391
842.232	51.12668
842.637	39.09251
843.041	33.085
843.445	67.16794
843.849	10.025
844.253	76.1803
844.657	14.03555
845.061	49.11159
845.465	11.02683
845.869	17.03989
846.272	12.0295
846.676	68.16437
847.079	2.00514
847.483	66.16457
847.886	69.16776
848.289	8.02153
848.692	28.07133
849.095	45.10847
849.498	87.21956
849.901	29.06701
850.304	45.10793
850.707	47.12014
851.109	49.12428
851.512	17.04212
851.914	-33.08453
852.316	48.12168
852.718	-25.06547
853.121	42.10328
853.523	-9.02133
853.925	4.01053
854.326	23.05788
854.728	47.12111
855.13	-1.00261
855.531	-13.0315
855.933	49.11793
856.334	28.0702
856.736	3.0068
857.137	46.10728
857.538	11.02789
857.939	17.04232
858.34	54.13176
858.741	45.11788
859.142	41.09886
859.542	16.0425
859.943	34.08487
860.343	-23.0578
860.744	44.10768
861.144	41.10035
861.544	-10.02434
861.945	36.0921
862.345	39.09574
862.745	23.05753
863.145	59.14108
863.544	47.119
863.944	38.09015
864.344	45.11206
864.743	77.19043
865.143	55.14133
865.542	11.02576
865.941	42.10427
866.34	66.15791
866.74	65.17419
867.139	14.0338
867.537	49.12503
867.936	37.08942
868.335	26.06652
868.734	3.00774
869.132	55.12789
869.531	68.16418
869.929	17.03908
870.327	-4.0097
870.726	42.10503
871.124	25.05882
871.522	29.07423
871.92	67.16497
872.318	46.1127
872.715	41.10181
873.113	7.01722
873.511	38.09499
873.908	-12.03066
874.306	9.02258
874.703	46.11532
875.1	51.13059
875.497	40.09621
875.894	-25.06217
876.291	40.09847
876.688	30.07772
877.085	40.09629
877.482	16.04034
877.878	3.00729
878.275	16.04093
878.671	38.08498
879.068	65.15667
879.464	21.0511
879.86	-7.01676
880.256	45.11129
880.652	-11.02831
881.048	40.09941
881.444	25.05987
881.84	20.05115
882.236	53.13333
882.631	69.16895
883.027	62.14998
883.422	28.07194
883.817	8.02027
884.213	51.13096
884.608	-1.00248
885.003	-17.04155
885.398	9.02271
885.793	77.19252
886.188	48.11947
886.582	38.09776
886.977	51.12116
887.371	64.16161
887.766	-8.02012
888.16	40.1001
888.554	56.13847
888.949	53.13314
889.343	42.10286
889.737	-7.01884
890.131	39.09811
890.525	36.09236
890.918	40.10093
891.312	56.13398
891.706	50.13127
892.099	69.17513
892.492	54.11657
892.886	-7.01732
893.279	-18.04644
893.672	45.11474
894.065	56.14019
894.458	27.06824
894.851	34.08364
895.244	34.08714
895.637	49.11815
896.029	57.13931
896.422	59.14404
896.814	42.10465
897.206	2.00481
897.599	87.21389
897.991	21.0511
898.383	-5.01195
898.775	23.05225
899.167	-11.02598
899.559	71.17918
899.951	46.10863
900.342	75.19002
900.734	-25.06291
901.125	28.07379
901.517	38.09355
901.908	52.12474
902.299	-6.01483
902.69	2.00477
903.082	73.17615
903.473	-13.03152
903.863	45.11499
904.254	39.09079
904.645	31.07742
905.036	-18.04416
905.426	98.22242
905.817	36.08862
906.207	19.04557
906.597	19.04474
906.987	34.08842
907.378	39.09888
907.768	-3.00801
908.158	19.04663
908.547	-20.05231
908.937	26.06703
909.327	27.06589
909.717	67.16969
910.106	30.07238
910.495	58.14467
910.885	32.08135
911.274	37.09274
911.663	74.18712
912.052	51.1259
912.441	41.10447
912.83	21.04852
913.219	70.18266
913.608	46.11282
913.997	23.05796
914.385	49.11717
914.774	27.06606
915.162	59.14043
915.55	42.10183
915.939	14.03558
916.327	63.15695
916.715	14.03592
917.103	60.14749
917.491	74.18237
917.878	75.18364
918.266	23.05994
918.654	27.06928
919.041	-2.00527
919.429	34.08054
919.816	28.07128
920.203	16.03907
920.591	15.03745
920.978	55.13462
921.365	40.10516
921.752	48.11453
922.139	38.08277
922.525	4.00969
922.912	20.04907
923.299	14.03504
923.685	-11.029
924.072	37.08559
924.458	48.11899
924.844	51.12622
925.231	21.04918
925.617	-29.0748
926.003	60.15312
926.389	46.11615
926.774	11.02808
927.16	54.13406
927.546	10.02571
927.931	32.08014
928.317	75.17198
928.702	74.17434
929.088	-12.02873
929.473	33.08423
929.858	-36.08846
930.243	12.02902
930.628	26.06356
931.013	36.08947
931.398	8.01856
931.783	36.09503
932.167	2.00493
932.552	29.07295
932.937	89.21938
933.321	27.06804
933.705	33.08346
934.09	65.16387
934.474	55.13056
934.858	27.07032
935.242	7.01637
935.626	22.0566
936.009	20.05347
936.393	30.07662
936.777	14.03608
937.16	67.17384
937.544	56.13183
937.927	44.11178
938.311	73.17748
938.694	63.16627
939.077	39.09358
939.46	60.14711
939.843	72.14956
940.226	38.0977
940.609	20.0462
940.991	28.07156
941.374	24.05895
941.757	71.17456
942.139	10.02265
942.522	22.05229
942.904	46.11069
943.286	51.12958
943.668	36.09349
944.05	-8.01992
944.432	28.06939
944.814	20.04954
945.196	-19.0469
945.578	-35.08455
945.959	56.13111
946.341	88.21455
946.722	23.05428
947.104	65.15495
947.485	7.01643
947.866	16.04056
948.247	36.09107
948.628	0
949.009	33.08477
949.39	54.13435
949.771	37.0863
950.152	32.07881
950.532	-39.09751
950.913	43.10388
951.293	5.01361
951.674	2.00488
952.054	24.05976
952.434	27.06731
952.814	42.1001
953.194	48.12568
953.574	60.14754
953.954	48.11405
954.334	36.08996
954.714	-28.06923
955.093	56.13755
955.473	16.04026
955.853	38.09858
956.232	58.15877
956.611	12.029
956.99	21.05306
957.37	20.05124
957.749	0
958.128	33.0834
958.506	-1.00262
958.885	8.02034
959.264	81.19738
959.643	5.01148
960.021	23.05728
960.4	18.04107
960.778	35.08646
961.156	38.09547
961.535	45.10501
961.913	48.11238
962.291	-21.05454
962.669	-18.04615
963.047	27.06919
963.424	27.06919
963.802	21.05192
964.18	82.20632
964.557	32.07398
964.935	50.11848
965.312	37.09656
965.69	43.10782
966.067	29.0709
966.444	42.10366
966.821	45.11612
967.198	82.19776
967.575	43.10588
967.952	71.16665
968.329	72.1745
968.705	88.1872
969.082	18.04642
969.458	-14.03399
969.835	44.10724
970.211	14.03616
970.587	66.16385
970.963	40.1028
971.339	34.08902
971.715	62.15448
972.091	55.13532
972.467	21.05266
972.843	40.09945
973.219	89.21216
973.594	37.09699
973.97	87.20564
974.345	34.08163
974.721	58.14025
975.096	7.01708
975.471	32.07618
975.846	23.05554
976.221	23.05869
976.596	-3.00726
976.971	65.16004
977.346	36.08405
977.72	30.0767
978.095	-4.01043
978.469	6.01444
978.844	74.18525
979.218	18.04341
979.593	38.09126
979.967	36.08794
980.341	59.13562
980.715	2.00508
981.089	40.10032
981.463	27.06228
981.837	24.05893
982.21	81.18737
982.584	9.02191
982.957	23.05771
983.331	23.05466
983.704	-6.0149
984.078	5.01242
984.451	83.20609
984.824	22.05386
985.197	41.09976
985.57	51.12788
985.943	61.15036
986.316	40.09847
986.688	28.06781
987.061	29.06826
987.434	30.07844
987.806	40.0972
988.179	13.0309
988.551	55.1394
988.923	39.09624
989.295	66.16445
989.667	-15.03628
990.039	37.09164
990.411	16.03708
990.783	49.11286
991.155	-17.04136
991.527	78.19109
991.898	8.02009
992.27	5.01247
992.641	30.07554
993.012	77.18024
993.384	30.07183
993.755	27.06911
994.126	6.01455
994.497	3.00743
994.868	36.08293
995.239	68.16424
995.61	-14.03563
995.98	33.08041
996.351	-17.04261
996.722	-8.01877
997.092	-27.06488
997.462	-2.00472
997.833	21.05006
998.203	55.13322
998.573	28.06999
998.943	4.00946
999.313	11.02655
999.683	-2.00485
1000.053	22.0509
1000.423	67.16229
1000.792	47.12186
1001.162	26.06427
1001.531	62.15252
1001.901	36.08996
1002.27	7.01579
1002.639	19.04881
1003.009	38.09057
1003.378	23.05908
1003.747	40.09468
1004.116	-11.02662
1004.485	22.05286
1004.853	44.11158
1005.222	42.10605
1005.591	22.05252
1005.959	-22.0503
1006.328	-10.02278
1006.696	4.00973
1007.064	35.08827
1007.433	31.07773
1007.801	12.02966
1008.169	38.09616
1008.537	49.10852
1008.905	-18.04249
1009.273	37.09161
1009.64	11.02643
1010.008	47.11208
1010.375	111.26643
1010.743	107.24427
1011.11	42.09953
1011.478	46.11391
1011.845	36.08488
1012.212	14.03192
1012.579	17.04198
1012.946	20.04787
1013.313	29.06929
1013.68	25.05647
1014.047	-9.02168
1014.414	10.0238
1014.78	22.05494
1015.147	30.07282
1015.513	38.09175
1015.88	84.21347
1016.246	59.14538
1016.612	49.11218
1016.978	51.12492
1017.344	19.04721
1017.71	66.16044
1018.076	20.04743
1018.442	53.13624
1018.808	-11.02779
1019.174	34.08552
1019.539	89.20326
1019.905	10.02376
1020.27	0
1020.636	84.20005
1021.001	63.15041
1021.366	1.00242
1021.731	30.0774
1022.096	-8.02038
1022.461	24.05707
1022.826	21.05018
1023.191	53.13893
1023.556	29.06823
1023.92	9.02229
1024.285	28.0686
1024.649	14.03453
1025.014	52.12872
1025.378	20.05054
1025.742	19.04744
1026.107	62.13986
1026.471	69.16044
1026.835	18.04487
1027.199	-4.00972
1027.562	53.12309
1027.926	34.08336
1028.29	31.07868
1028.654	16.03705
1029.017	44.10824
1029.381	26.06237
1029.744	31.0793
1030.107	60.14163
1030.471	29.06969
1030.834	21.04804
1031.197	80.19155
1031.56	23.05453
1031.923	30.0778
1032.286	46.10808
1032.648	28.06722
1033.011	10.02313
1033.374	46.10816
1033.736	14.03702
1034.099	53.12905
1034.461	8.02035
1034.823	21.05254
1035.185	60.15069
1035.548	-12.02953
1035.91	33.07927
1036.272	24.05489
1036.634	64.1561
1036.995	50.11748
1037.357	1.00245
1037.719	38.09258
1038.08	23.05487
1038.442	37.088
1038.803	34.08184
1039.165	26.06586
1039.526	54.13033
1039.887	21.0505
1040.248	-13.03239
1040.609	70.17226
1040.97	-5.01234
1041.331	51.12903
1041.692	-8.01888
1042.053	43.09801
1042.413	73.16927
1042.774	75.18146
1043.134	64.15189
1043.495	39.09818
1043.855	58.14041
1044.215	10.02499
1044.576	-16.03872
1044.936	39.08957
1045.296	51.12719
1045.656	44.10804
1046.016	33.07987
1046.375	27.06574
1046.735	-12.02753
1047.095	67.15622
1047.454	42.08911
1047.814	36.08672
1048.173	66.15712
1048.533	-18.04178
1048.892	9.02176
1049.251	49.12296
1049.61	26.06427
1049.969	15.03558
1050.328	17.0371
1050.687	29.0708
1051.046	27.06599
1051.405	24.05995
1051.763	31.07151
1052.122	9.0226
1052.48	9.02223
1052.839	-11.02617
1053.197	14.03316
1053.555	63.14319
1053.914	42.10282
1054.272	47.11363
1054.63	7.01724
1054.988	3.00719
1055.345	-15.03273
1055.703	22.0532
1056.061	41.10557
1056.419	15.03904
1056.776	28.06814
1057.134	-1.00234
1057.491	25.06285
1057.848	23.05751
1058.206	25.05905
1058.563	2.00445
1058.92	59.13567
1059.277	59.14522
1059.634	59.13849
1059.991	52.12446
1060.348	8.01822
1060.704	-6.01444
1061.061	74.17101
1061.418	12.02929
1061.774	28.06936
1062.131	-8.02134
1062.487	1.00236
1062.843	43.10728
1063.199	40.09959
1063.555	19.04427
1063.911	48.1212
1064.267	39.0815
1064.623	21.05125
1064.979	71.16743
1065.335	61.14542
1065.691	6.01449
1066.046	47.10335
1066.402	33.07518
1066.757	51.12862
1067.112	23.05669
1067.468	13.0309
1067.823	49.11775
1068.178	25.06071
1068.533	47.11393
1068.888	41.09808
1069.243	48.11843
1069.598	28.06827
1069.952	-29.06631
1070.307	-1.0025
1070.662	54.12801
1071.016	-2.00453
1071.371	48.10916
1071.725	42.10056
1072.079	24.05797
1072.434	45.10937
1072.788	48.11427
1073.142	50.12291
1073.496	-2.00479
1073.85	23.05359
1074.203	18.0439
1074.557	59.15655
1074.911	67.15929
1075.265	49.11385
1075.618	41.10021
1075.971	38.09053
1076.325	38.09671
1076.678	-6.01387
1077.031	-6.01372
1077.385	22.04871
1077.738	12.02728
1078.091	1.00229
1078.444	57.13207
1078.796	18.04439
1079.149	35.08722
1079.502	-18.04305
1079.855	13.03051
1080.207	77.18861
1080.56	31.08032
1080.912	37.09023
1081.264	42.10122
1081.617	16.03921
1081.969	11.02792
1082.321	10.02458
1082.673	-37.08586
1083.025	6.01434
1083.377	-224.50878
1083.728	33.07719
1084.08	44.10987
1084.432	49.11811
1084.783	71.16555
1085.135	4.0101
1085.486	-33.0767
1085.838	21.05195
1086.189	10.02444
1086.54	70.16639
1086.891	30.07608
1087.242	27.06596
1087.593	73.17682
1087.944	-15.03437
1088.295	66.14943
1088.646	15.03657
1088.996	10.02425
1089.347	22.05422
1089.698	-28.06712
1090.048	47.12203
1090.398	64.1479
1090.749	36.0863
1091.099	19.048
1091.449	40.09974
1091.799	74.18432
1092.149	-5.01231
1092.499	22.0539
1092.849	38.09671
1093.199	61.15246
1093.548	32.07709
1093.898	41.10266
1094.248	45.11563
1094.597	-47.12191
1094.947	19.0509
1095.296	56.13801
1095.645	40.10413
1095.994	75.17913
1096.343	19.04804
1096.692	36.09471
1097.041	28.07601
1097.39	11.02776
1097.739	24.0626
1098.088	65.17356
1098.437	-6.0159
1098.785	45.12131
1099.134	82.21638
1099.482	31.08544
1099.83	14.03698
1100.179	5.01313
1100.527	27.07195
1100.875	9.02394
1101.223	59.15629
1101.571	15.04164
1101.919	6.01578
1102.267	12.03395
1102.615	3.00965
1102.962	13.04184
1103.31	-1.00322
1103.658	17.05472
