Data from N2 R7 sample 6_Subt2__3__15-44-12-557.txt Node

Date: Fri Aug 29 15:44:12 PDT 2025
User: uwsun
Spectrometer: HDX01956
Trigger mode: 0
Integration Time (sec): 5.000000E-1
Scans to average: 1
Nonlinearity correction enabled: true
Boxcar width: 0
Storing dark spectrum: false
XAxis mode: Wavelengths
Number of Pixels in Spectrum: 2068
>>>>>Begin Spectral Data<<<<<
194.03	281.75418
194.578	246.75394
195.127	229.69251
195.676	282.84938
196.225	308.77456
196.773	345.89312
197.321	426.05964
197.87	632.37847
198.418	662.41348
198.966	592.29167
199.513	488.03068
200.061	575.2145
200.609	612.36688
201.156	569.0148
201.704	533.12861
202.251	585.30033
202.798	607.31409
203.345	638.30388
203.892	626.30245
204.438	627.233
204.985	612.17942
205.532	633.38094
206.078	622.25849
206.624	666.32858
207.17	631.19659
207.716	614.22299
208.262	638.00187
208.808	604.21755
209.354	619.2344
209.899	683.42025
210.445	610.24601
210.99	636.24749
211.535	668.27521
212.08	640.21398
212.625	672.37781
213.17	676.40537
213.715	606.08568
214.259	626.19489
214.804	686.38501
215.348	648.20527
215.892	678.32125
216.436	686.28811
216.98	751.31469
217.524	683.30484
218.068	648.34828
218.612	646.3465
219.155	599.16401
219.698	569.13085
220.242	642.32926
220.785	551.07871
221.328	560.17683
221.871	593.26735
222.414	587.22959
222.956	539.08855
223.499	614.13455
224.041	525.03693
224.583	628.11363
225.126	541.99675
225.668	532.09135
226.21	554.17494
226.751	508.92912
227.293	537.0319
227.835	525.08303
228.376	591.13697
228.918	618.30574
229.459	522.09877
230	568.12912
230.541	554.06847
231.082	594.19736
231.622	580.11175
232.163	568.14854
232.704	578.19656
233.244	529.10889
233.784	606.24063
234.324	531.9636
234.864	542.02426
235.404	573.13934
235.944	608.19417
236.484	583.22066
237.023	603.17402
237.563	584.11242
238.102	569.11875
238.641	613.28922
239.18	522.01821
239.719	537.13808
240.258	601.10909
240.797	611.20092
241.335	605.22879
241.874	627.95594
242.412	630.2392
242.95	577.13611
243.488	595.11501
244.026	552.05237
244.564	589.9833
245.102	559.03298
245.64	624.23948
246.177	542.00675
246.715	613.21335
247.252	575.09126
247.789	596.90456
248.326	572.12968
248.863	572.02253
249.4	611.13209
249.936	670.08642
250.473	619.17265
251.009	593.10579
251.546	590.05587
252.082	640.12495
252.618	670.18643
253.154	593.16657
253.69	615.12081
254.226	566.11363
254.761	598.09004
255.297	599.05741
255.832	576.1179
256.367	643.22354
256.903	599.06071
257.438	627.19651
257.972	569.03314
258.507	611.12533
259.042	633.09721
259.576	582.00247
260.111	678.25243
260.645	678.15893
261.179	612.15287
261.713	577.03866
262.247	658.2142
262.781	592.99022
263.315	650.28101
263.849	627.27355
264.382	664.21918
264.915	671.24597
265.449	630.22698
265.982	665.20417
266.515	662.29369
267.048	628.04853
267.58	689.18567
268.113	652.10542
268.646	619.23554
269.178	598.06636
269.71	668.14731
270.243	689.24075
270.775	654.34146
271.307	630.22639
271.838	655.25126
272.37	643.27105
272.902	686.22807
273.433	637.09832
273.965	644.25607
274.496	661.32195
275.027	621.24241
275.558	676.29924
276.089	601.18289
276.62	663.35964
277.15	675.33067
277.681	672.14126
278.211	691.34567
278.741	641.10229
279.272	671.19592
279.802	660.31721
280.332	665.23174
280.861	666.2677
281.391	688.20889
281.921	650.24679
282.45	709.39911
282.98	708.46544
283.509	689.19895
284.038	663.17858
284.567	745.34387
285.096	723.35805
285.625	702.22581
286.153	676.23129
286.682	666.18117
287.21	672.26302
287.739	661.21944
288.267	706.32118
288.795	760.56338
289.323	769.35122
289.851	719.29224
290.378	704.20478
290.906	695.29319
291.433	697.35222
291.961	748.26931
292.488	715.37664
293.015	689.23948
293.542	720.4019
294.069	725.36115
294.596	788.48001
295.122	769.37948
295.649	657.107
296.175	798.454
296.702	817.4808
297.228	765.4089
297.754	825.34723
298.28	724.22649
298.806	820.45197
299.332	759.22669
299.857	829.35077
300.383	842.59016
300.908	740.33585
301.433	758.36981
301.958	828.39712
302.483	769.42761
303.008	833.51906
303.533	808.58172
304.058	854.45987
304.582	792.35868
305.107	785.52468
305.631	863.40714
306.155	829.37874
306.679	854.41304
307.203	838.38267
307.727	864.45883
308.251	826.48234
308.775	826.38845
309.298	853.43904
309.822	857.55819
310.345	924.51747
310.868	893.4896
311.391	981.66913
311.914	862.53126
312.437	880.39375
312.96	900.45744
313.482	933.50641
314.005	957.65443
314.527	924.69939
315.049	995.72396
315.571	892.31372
316.093	1000.66097
316.615	951.53644
317.137	966.35585
317.659	1076.70854
318.18	1023.62818
318.702	1017.52397
319.223	999.2669
319.744	1003.42287
320.265	990.55256
320.786	1028.62919
321.307	1092.72122
321.828	1078.49399
322.348	1093.58167
322.869	1058.53307
323.389	1154.94608
323.909	1102.52457
324.43	1238.78044
324.95	1065.46024
325.47	1170.70384
325.989	1197.61949
326.509	1101.37146
327.029	1229.51136
327.548	1177.45793
328.067	1173.60541
328.587	1228.7539
329.106	1241.51768
329.625	1271.9621
330.144	1224.51844
330.662	1296.5606
331.181	1242.55077
331.7	1330.60329
332.218	1277.37077
332.736	1349.59455
333.255	1274.51283
333.773	1337.5882
334.291	1454.82706
334.808	1337.40931
335.326	1484.50634
335.844	1486.53325
336.361	1477.76129
336.879	1434.49633
337.396	1477.59884
337.913	1505.46888
338.43	1514.40137
338.947	1539.55281
339.464	1598.25848
339.981	1519.48922
340.497	1624.66482
341.014	1538.55753
341.53	1521.31483
342.046	1586.5589
342.562	1624.63916
343.078	1679.44494
343.594	1734.49237
344.11	1744.46513
344.626	1734.61997
345.141	1724.29391
345.657	1842.31117
346.172	1786.44833
346.687	1724.26978
347.202	1842.19067
347.717	1916.37513
348.232	1885.51626
348.747	1922.21799
349.261	1819.00132
349.776	1902.2528
350.29	1786.3363
350.805	2009.41882
351.319	2007.18109
351.833	1876.04755
352.347	1968.16223
352.861	1976.1081
353.374	2059.09689
353.888	2024.21978
354.401	2082.02093
354.915	2004.88989
355.428	2130.21151
355.941	2193.95311
356.454	2235.88348
356.967	2202.01671
357.48	2195.91799
357.993	2173.12579
358.505	2093.06799
359.018	2287.02615
359.53	2288.92395
360.042	2377.65654
360.554	2262.95884
361.066	2296.92171
361.578	2319.56612
362.09	2329.8268
362.602	2348.53474
363.113	2295.69167
363.625	2369.54395
364.136	2438.45136
364.647	2344.51898
365.158	2526.51776
365.669	2554.59056
366.18	2547.52238
366.691	2555.29663
367.201	2537.51909
367.712	2614.28128
368.222	2531.31377
368.733	2587.07418
369.243	2635.06719
369.753	2754.1415
370.263	2799.18458
370.773	2765.27477
371.282	2795.06314
371.792	2947.71971
372.301	2998.85497
372.811	3049.06472
373.32	2862.46752
373.829	2977.58944
374.338	3291.22444
374.847	3269.23076
375.356	3396.16155
375.865	3418.84334
376.373	3586.822
376.882	3840.92345
377.39	3781.7924
377.898	3788.68845
378.407	3981.53939
378.915	4223.53348
379.423	4522.58834
379.93	4594.67908
380.438	4692.77842
380.946	5073.29253
381.453	5195.62576
381.96	5293.19126
382.468	5570.56107
382.975	6281.52461
383.482	6377.96788
383.989	6289.0587
384.495	6602.09931
385.002	6861.18823
385.509	7159.88553
386.015	7666.5955
386.521	8096.83556
387.028	8411.1125
387.534	8862.02468
388.04	9177.22153
388.546	8912.57218
389.051	9382.8898
389.557	10127.92769
390.063	11420.13339
390.568	11912.83641
391.073	12036.89034
391.578	12483.40915
392.084	12685.00947
392.589	12422.10873
393.093	13146.93967
393.598	14679.59228
394.103	16243.90752
394.607	17995.74049
395.112	19436.30148
395.616	20047.05354
396.12	21686.64325
396.624	23873.5926
397.128	25698.66014
397.632	29113.74461
398.136	31603.32333
398.639	31784.77774
399.143	31417.90111
399.646	28541.13431
400.15	25083.82847
400.653	20124.16724
401.156	13866.23708
401.659	5169.95759
402.162	1054.15589
402.664	0
403.167	0
403.67	0
404.172	0
404.674	0
405.176	0
405.678	0
406.18	0
406.682	0
407.184	0
407.686	0
408.187	0
408.688	0
409.19	0
409.691	0
410.192	0
410.693	0
411.194	435.30976
411.694	4082.94878
412.195	8864.71461
412.696	12089.80453
413.196	12760.96929
413.696	12863.67595
414.196	13703.56671
414.696	17261.84252
415.196	21764.24417
415.696	29583.19008
416.196	36460.31858
416.695	40057.39798
417.195	39604.49319
417.694	37409.58623
418.194	35548.84585
418.693	32712.67682
419.192	31632.49683
419.691	31405.86509
420.19	30563.14692
420.688	30364.49706
421.187	29344.66854
421.685	27529.35746
422.184	25546.1
422.682	22309.91964
423.18	18414.74653
423.678	16027.84129
424.176	14898.57955
424.674	13876.07393
425.172	13357.6673
425.669	12963.74937
426.167	11937.7912
426.664	10812.2398
427.161	9950.19738
427.659	9235.31435
428.156	8480.86859
428.652	8050.77879
429.149	7556.51886
429.646	7399.47579
430.143	7040.74327
430.639	6537.37762
431.135	6225.58415
431.632	5885.79598
432.128	5473.59697
432.624	5014.88824
433.12	4647.82179
433.616	4601.75949
434.111	4369.57684
434.607	4250.53326
435.103	4376.5562
435.598	4186.52829
436.093	3951.66805
436.588	3874.71276
437.083	3661.86846
437.578	3497.04866
438.073	3143.39923
438.568	3263.49765
439.062	3075.29756
439.557	3003.6893
440.051	2772.72294
440.546	2715.79137
441.04	2556.07243
441.534	2627.28227
442.028	2592.20114
442.522	2435.27915
443.015	2452.0601
443.509	2364.4679
444.002	2308.49739
444.496	2304.21771
444.989	2222.59258
445.482	2191.66222
445.975	2159.38247
446.468	2230.26566
446.961	2149.31437
447.454	2103.50752
447.947	1940.65514
448.439	1989.79238
448.931	1977.55439
449.424	1967.956
449.916	1994.8378
450.408	1916.63017
450.9	1782.86394
451.392	1782.00575
451.884	1826.79251
452.375	1738.97489
452.867	1777.81903
453.358	1646.78333
453.849	1651.66827
454.341	1556.81745
454.832	1599.72315
455.323	1549.02289
455.814	1592.92202
456.304	1589.94083
456.795	1546.93276
457.285	1615.92733
457.776	1528.00652
458.266	1445.04088
458.756	1490.12299
459.247	1389.05103
459.737	1313.04348
460.226	1340.94537
460.716	1340.10035
461.206	1259.10971
461.695	1308.25857
462.185	1300.11779
462.674	1312.0914
463.163	1249.99944
463.653	1252.9036
464.142	1126.12244
464.63	1148.19867
465.119	1167.08129
465.608	1100.05491
466.096	1101.98699
466.585	1194.16256
467.073	1151.22665
467.561	1130.23031
468.05	1057.12874
468.538	1088.27253
469.026	1059.20408
469.513	953.9154
470.001	984.05951
470.489	921.0918
470.976	991.12427
471.463	939.23899
471.951	952.27772
472.438	857.06911
472.925	790.002
473.412	866.19469
473.899	853.07081
474.385	822.15788
474.872	708.95542
475.359	780.10891
475.845	784.88344
476.331	746.93766
476.817	782.14332
477.303	684.96506
477.789	675.01035
478.275	667.04119
478.761	665.01335
479.247	683.94806
479.732	600.97177
480.218	616.06683
480.703	630.0277
481.188	608.82502
481.673	576.86478
482.158	560.75527
482.643	598.04327
483.128	526.80201
483.612	516.82524
484.097	575.97257
484.581	483.7872
485.066	482.82513
485.55	479.72138
486.034	400.60975
486.518	414.69384
487.002	483.83862
487.486	357.64415
487.969	411.73288
488.453	408.76807
488.936	389.63962
489.42	412.66445
489.903	406.77145
490.386	449.50014
490.869	439.699
491.352	430.79597
491.835	373.57179
492.318	368.62213
492.8	372.57076
493.283	373.72722
493.765	356.67313
494.247	336.61106
494.73	316.53739
495.212	394.7377
495.694	292.53103
496.175	213.39967
496.657	328.60986
497.139	377.48962
497.62	223.42009
498.102	234.46652
498.583	263.53154
499.064	191.34143
499.545	244.44554
500.026	232.41569
500.507	248.46271
500.988	243.49112
501.469	149.3086
501.949	214.43519
502.43	194.37472
502.91	141.23801
503.39	262.53693
503.87	146.28363
504.35	206.40172
504.83	156.2811
505.31	146.29474
505.79	174.34383
506.269	180.34951
506.749	147.27842
507.228	140.27379
507.707	177.32344
508.187	143.28848
508.666	130.26822
509.145	101.19907
509.623	144.28348
510.102	139.28441
510.581	204.41239
511.059	136.28754
511.538	183.40037
512.016	142.28706
512.494	165.33853
512.972	136.27505
513.45	25.04969
513.928	126.25915
514.406	94.19159
514.884	139.30437
515.361	98.20093
515.839	125.24127
516.316	83.17175
516.793	119.25947
517.27	91.19109
517.747	72.16009
518.224	99.19724
518.701	140.26483
519.178	64.13709
519.654	117.24026
520.131	82.1758
520.607	115.24692
521.083	72.14241
521.56	95.19385
522.036	57.10907
522.512	122.26088
522.987	63.12955
523.463	48.09979
523.939	90.19245
524.414	71.14343
524.89	96.19781
525.365	63.1244
525.84	45.09308
526.315	52.1097
526.79	40.07926
527.265	88.17446
527.74	73.15553
528.215	59.12198
528.689	52.10078
529.164	57.1087
529.638	58.1318
530.112	64.13187
530.587	-18.03407
531.061	9.01922
531.534	93.1977
532.008	49.10367
532.482	45.09141
532.956	23.05191
533.429	50.10715
533.903	134.25696
534.376	63.12242
534.849	41.08423
535.322	66.13734
535.795	41.08902
536.268	77.16269
536.741	91.19227
537.213	15.03098
537.686	42.09051
538.158	27.05344
538.631	68.14667
539.103	17.03381
539.575	74.13587
540.047	66.12797
540.519	87.18358
540.991	96.20741
541.463	51.10974
541.934	21.04287
542.406	34.07198
542.877	52.10391
543.348	94.20022
543.82	93.20149
544.291	84.17339
544.762	20.04221
545.233	112.24551
545.703	87.16808
546.174	121.24511
546.645	71.14811
547.115	90.1897
547.585	105.21055
548.056	97.20243
548.526	104.2112
548.996	165.34067
549.466	179.37555
549.935	179.35812
550.405	200.36704
550.875	197.39321
551.344	171.34925
551.814	193.37431
552.283	193.3541
552.752	232.44748
553.221	180.32584
553.69	223.4108
554.159	233.47436
554.628	189.35096
555.096	270.56558
555.565	208.38654
556.033	240.47426
556.502	197.40582
556.97	163.30948
557.438	185.37647
557.906	154.31803
558.374	162.32268
558.842	172.35679
559.31	189.36638
559.777	110.23389
560.245	144.29831
560.712	136.27808
561.18	99.19366
561.647	149.29243
562.114	127.25514
562.581	170.36871
563.048	177.35871
563.514	187.40082
563.981	217.43273
564.448	207.40473
564.914	254.51229
565.381	244.48239
565.847	315.63108
566.313	344.68009
566.779	317.60952
567.245	316.63176
567.711	348.70736
568.176	359.67731
568.642	394.83042
569.108	411.8455
569.573	488.94716
570.038	484.82811
570.504	537.96558
570.969	543.10719
571.434	583.00767
571.899	622.17174
572.363	657.16789
572.828	775.34969
573.293	708.25257
573.757	753.3182
574.222	745.25636
574.686	862.41375
575.15	820.46251
575.614	928.54352
576.078	900.54861
576.542	947.55753
577.006	936.52191
577.469	986.7865
577.933	964.5352
578.396	1025.74331
578.86	1012.70773
579.323	1003.71219
579.786	1039.55898
580.249	990.60465
580.712	1068.86208
581.175	983.76616
581.637	1056.72456
582.1	1030.59695
582.563	1025.55171
583.025	936.66735
583.487	932.33199
583.95	852.33996
584.412	951.428
584.874	853.55796
585.336	872.54107
585.797	883.39651
586.259	916.60223
586.721	823.45616
587.182	825.4688
587.643	785.35779
588.105	778.41248
588.566	757.21036
589.027	701.31601
589.488	709.25663
589.949	696.32619
590.41	664.98873
590.87	706.25941
591.331	662.1212
591.791	688.23863
592.252	614.11135
592.712	655.24944
593.172	624.11283
593.632	667.14834
594.092	597.06265
594.552	636.07706
595.011	565.04096
595.471	632.11899
595.931	599.06402
596.39	591.13588
596.849	598.11485
597.308	594.02973
597.768	554.14783
598.227	554.08588
598.685	596.10232
599.144	558.0561
599.603	587.12058
600.062	541.91154
600.52	536.9665
600.978	565.08477
601.437	636.15653
601.895	579.97881
602.353	647.13283
602.811	638.11674
603.269	678.27869
603.727	674.27176
604.184	660.16262
604.642	700.3461
605.099	696.26075
605.557	759.4335
606.014	747.22017
606.471	717.39307
606.928	829.3078
607.385	802.47459
607.842	1044.68875
608.299	1050.74242
608.755	986.72682
609.212	1063.64694
609.668	981.53972
610.125	1145.93774
610.581	1096.86301
611.037	1144.83054
611.493	1031.77145
611.949	983.73371
612.405	1059.46229
612.861	1121.88063
613.316	1043.80166
613.772	1156.85298
614.227	1105.85368
614.683	1159.71417
615.138	1048.76966
615.593	1096.81508
616.048	1046.73576
616.503	1119.98967
616.958	1068.95895
617.412	1101.87204
617.867	1039.64717
618.321	1161.65591
618.776	1050.68039
619.23	1015.75872
619.684	1122.81449
620.138	1034.77709
620.592	1025.85592
621.046	982.73509
621.5	962.77473
621.954	936.60132
622.407	930.57232
622.861	971.79539
623.314	928.61562
623.768	880.58999
624.221	924.35942
624.674	900.60224
625.127	869.59044
625.58	976.69943
626.033	927.57783
626.485	824.5675
626.938	830.5751
627.39	823.52578
627.843	798.48265
628.295	839.54392
628.747	829.5797
629.199	805.46938
629.651	782.43487
630.103	840.5361
630.555	785.33622
631.006	819.55382
631.458	797.53038
631.909	867.60033
632.361	840.58405
632.812	820.53494
633.263	827.43518
633.714	791.37908
634.165	828.64613
634.616	807.5779
635.067	870.55669
635.518	904.74076
635.968	911.43932
636.419	862.51228
636.869	896.72864
637.319	858.61489
637.769	906.62293
638.219	952.82983
638.669	898.73912
639.119	920.82587
639.569	959.85964
640.019	980.80621
640.468	980.73425
640.918	1005.93509
641.367	1025.80518
641.816	977.73743
642.265	1033.88466
642.714	1068.93348
643.163	1033.87423
643.612	1039.97199
644.061	1055.72052
644.51	1140.99011
644.958	1047.7952
645.406	1107.06739
645.855	1145.18792
646.303	1096.00608
646.751	1055.88329
647.199	1141.99655
647.647	1149.03246
648.095	1125.99522
648.543	1084.70757
648.99	1165.15041
649.438	1096.02718
649.885	1061.10111
650.333	1081.59421
650.78	1042.01217
651.227	1118.13979
651.674	1022.85563
652.121	1049.04452
652.568	992.95523
653.015	1086.20309
653.461	981.89333
653.908	1027.91802
654.354	1017.96197
654.801	932.79219
655.247	993.74958
655.693	969.09225
656.139	941.85762
656.585	900.79609
657.031	866.68105
657.477	864.54197
657.922	895.70568
658.368	909.87479
658.813	881.71386
659.259	852.72219
659.704	846.65699
660.149	780.55274
660.594	775.57818
661.039	799.54602
661.484	812.65698
661.929	783.5692
662.373	765.67059
662.818	750.61538
663.262	764.58641
663.707	725.60851
664.151	723.54353
664.595	708.49353
665.039	741.60996
665.483	723.61535
665.927	747.5273
666.371	682.38197
666.814	620.32427
667.258	674.40307
667.701	756.40657
668.145	739.61174
668.588	647.41569
669.031	683.41206
669.474	696.47717
669.917	656.28618
670.36	641.42141
670.803	649.39795
671.245	689.27057
671.688	626.37113
672.13	610.22234
672.573	629.43865
673.015	614.32559
673.457	651.25562
673.899	639.38699
674.341	633.36928
674.783	552.20479
675.225	589.3114
675.666	580.26064
676.108	598.16731
676.549	576.2392
676.991	586.1655
677.432	555.99949
677.873	609.26899
678.314	541.18199
678.755	584.28924
679.196	576.19508
679.637	573.27626
680.078	613.29432
680.518	569.20864
680.959	544.19281
681.399	587.32258
681.839	555.23509
682.28	552.2454
682.72	541.13159
683.16	518.18854
683.6	527.10469
684.039	551.0441
684.479	536.20728
684.919	501.06305
685.358	581.34578
685.798	533.28741
686.237	585.28796
686.676	532.13557
687.115	547.17697
687.554	554.20304
687.993	542.09688
688.432	575.19433
688.871	507.05989
689.309	544.19081
689.748	583.10271
690.186	535.17576
690.625	542.16395
691.063	576.25831
691.501	604.35565
691.939	505.16537
692.377	588.30457
692.815	548.20008
693.253	607.3236
693.69	552.10695
694.128	527.17464
694.565	616.32821
695.003	577.33861
695.44	588.25475
695.877	558.18961
696.314	629.21312
696.751	637.30625
697.188	602.25022
697.625	670.37432
698.061	588.28239
698.498	632.3808
698.934	621.35188
699.371	582.24515
699.807	618.32056
700.243	601.31161
700.679	651.31936
701.115	637.35152
701.551	697.4584
701.987	666.33597
702.422	635.35664
702.858	603.30209
703.294	642.30436
703.729	695.5157
704.164	619.34695
704.599	667.32226
705.035	627.25907
705.47	669.45525
705.904	671.39341
706.339	764.55611
706.774	659.38063
707.209	716.45558
707.643	732.55163
708.078	723.55818
708.512	632.42669
708.946	673.44289
709.38	708.487
709.814	750.50125
710.248	722.55902
710.682	739.54638
711.116	676.43593
711.549	732.67874
711.983	716.45955
712.416	781.6113
712.85	794.73067
713.283	707.48261
713.716	805.7676
714.149	812.67944
714.582	839.61116
715.015	750.65953
715.448	833.82375
715.881	805.51682
716.313	766.56796
716.746	766.57503
717.178	762.60544
717.61	797.76979
718.043	787.71793
718.475	811.7069
718.907	823.81621
719.339	829.60951
719.77	773.59764
720.202	798.76505
720.634	812.71312
721.065	796.63898
721.497	834.76802
721.928	761.64014
722.359	724.53999
722.79	800.66198
723.221	870.88679
723.652	892.98201
724.083	803.56044
724.514	823.62669
724.945	789.61109
725.375	824.64273
725.806	848.83127
726.236	864.91424
726.666	851.7284
727.096	872.83578
727.526	821.81481
727.956	847.64216
728.386	909.90576
728.816	843.84642
729.246	867.80408
729.675	871.83728
730.105	893.87796
730.534	904.78908
730.964	863.8839
731.393	924.95296
731.822	940.03948
732.251	941.02568
732.68	924.83722
733.109	837.78247
733.537	868.79377
733.966	893.89522
734.395	922.78906
734.823	934.76164
735.251	897.8368
735.68	912.9494
736.108	934.00673
736.536	877.76267
736.964	959.85434
737.392	899.92284
737.82	917.86258
738.247	914.85353
738.675	944.8979
739.102	902.92221
739.53	902.96449
739.957	896.97775
740.384	949.97744
740.811	942.02481
741.238	870.81874
741.665	880.73017
742.092	922.86043
742.519	876.8563
742.945	943.90328
743.372	894.88952
743.798	918.01442
744.225	886.79098
744.651	922.96739
745.077	889.89654
745.503	931.9202
745.929	884.80649
746.355	949.99578
746.781	886.87832
747.207	782.59137
747.632	850.77925
748.058	862.85121
748.483	852.67347
748.908	867.85038
749.334	846.79036
749.759	854.72151
750.184	790.63317
750.609	821.74838
751.033	849.72121
751.458	867.64824
751.883	857.82824
752.307	808.6421
752.732	788.71758
753.156	787.69622
753.58	797.64214
754.005	814.80046
754.429	805.63414
754.853	743.62115
755.277	745.5452
755.7	794.71752
756.124	796.72039
756.548	716.49589
756.971	747.60376
757.394	750.70768
757.818	688.58345
758.241	749.67622
758.664	689.55262
759.087	675.33067
759.51	734.61331
759.933	669.43492
760.356	718.6361
760.778	653.43964
761.201	714.53712
761.623	690.48922
762.046	739.54025
762.468	740.56314
762.89	698.5322
763.312	686.49132
763.734	623.3505
764.156	625.39222
764.578	648.33093
765	680.47826
765.421	585.35238
765.843	630.49645
766.264	629.36815
766.686	589.34653
767.107	617.34827
767.528	541.25302
767.949	557.29776
768.37	571.27705
768.791	575.26591
769.212	541.24609
769.632	557.18002
770.053	513.25067
770.473	524.17155
770.894	543.24822
771.314	597.29077
771.734	534.13787
772.154	515.22187
772.575	497.06188
772.994	503.04919
773.414	548.20311
773.834	491.13706
774.254	454.03564
774.673	466.05537
775.093	473.08665
775.512	429.99143
775.931	468.10445
776.351	462.06747
776.77	428.98106
777.189	470.03636
777.607	436.0427
778.026	419.98139
778.445	337.8051
778.864	439.05448
779.282	383.87143
779.701	421.99801
780.119	343.82694
780.537	381.90009
780.955	382.92145
781.373	417.96945
781.791	354.75399
782.209	394.85521
782.627	347.87276
783.045	337.7382
783.462	337.8226
783.88	364.89526
784.297	353.84525
784.715	281.69614
785.132	291.67792
785.549	252.61138
785.966	291.70478
786.383	280.66422
786.8	297.66238
787.217	230.53065
787.633	280.67368
788.05	338.76549
788.466	278.63244
788.883	242.59943
789.299	261.60804
789.715	264.62047
790.131	269.64636
790.547	243.58943
790.963	230.55571
791.379	217.53525
791.795	241.53372
792.21	237.53819
792.626	238.54845
793.041	213.51318
793.457	222.53476
793.872	206.4732
794.287	161.37849
794.702	180.43573
795.117	186.45313
795.532	171.42133
795.947	202.4757
796.362	171.40199
796.776	209.47846
797.191	162.39068
797.605	127.29553
798.02	194.46218
798.434	201.43752
798.848	208.50009
799.262	137.3362
799.676	182.43592
800.09	176.42541
800.504	159.38033
800.918	151.34527
801.331	157.40594
801.745	159.3599
802.158	122.30254
802.572	172.41025
802.985	163.38811
803.398	117.2772
803.811	184.46426
804.224	162.39717
804.637	122.28831
805.05	148.33875
805.462	136.33071
805.875	87.22488
806.288	96.23073
806.7	91.2281
807.112	116.26722
807.525	134.32731
807.937	107.26297
808.349	97.24208
808.761	104.2546
809.173	128.30729
809.584	100.24617
809.996	76.18606
810.408	97.24916
810.819	133.30949
811.231	80.20632
811.642	173.40463
812.053	227.52405
812.464	284.64817
812.875	292.71716
813.286	200.50318
813.697	167.384
814.108	140.33801
814.519	110.24377
814.929	148.3725
815.34	59.14355
815.75	92.23289
816.16	108.26753
816.571	106.27365
816.981	74.17488
817.391	63.15248
817.801	51.12714
818.211	136.32053
818.62	78.18761
819.03	118.28684
819.44	165.42396
819.849	98.24578
820.259	113.28711
820.668	73.17948
821.077	86.21296
821.486	67.16161
821.895	114.2796
822.304	92.24276
822.713	75.17728
823.122	99.24582
823.531	57.13557
823.939	79.19222
824.348	79.19186
824.756	56.14065
825.164	91.22818
825.573	23.05819
825.981	77.19078
826.389	69.17339
826.797	40.10071
827.205	19.04407
827.612	97.23822
828.02	70.1644
828.428	73.18574
828.835	70.18409
829.243	87.20676
829.65	60.14939
830.057	84.20335
830.464	43.10529
830.871	94.22412
831.278	63.15248
831.685	47.10548
832.092	63.15443
832.499	73.15971
832.905	74.18712
833.312	44.10095
833.718	52.12994
834.124	42.09656
834.531	68.1714
834.937	82.20986
835.343	87.20922
835.749	90.20947
836.155	78.20374
836.561	5.01244
836.966	88.21439
837.372	88.22308
837.777	18.04522
838.183	72.16009
838.588	58.1442
838.993	59.14388
839.399	34.08361
839.804	-6.01481
840.209	56.14272
840.613	68.15132
841.018	58.14703
841.423	67.17174
841.828	48.12172
842.232	99.24376
842.637	31.07364
843.041	14.03618
843.445	48.12073
843.849	62.15353
844.253	56.13337
844.657	23.05832
845.061	53.1206
845.465	25.06083
845.869	33.07719
846.272	51.12446
846.676	54.13087
847.079	48.12233
847.483	56.13989
847.886	96.23222
848.289	23.06174
848.692	64.16201
849.095	58.13946
849.498	89.22453
849.901	69.15816
850.304	41.09841
850.707	52.1328
851.109	70.17688
851.512	56.13776
851.914	30.076
852.316	48.12168
852.718	-25.06547
853.121	32.07883
853.523	57.13337
853.925	48.12542
854.326	5.01262
854.728	34.08781
855.13	-4.01043
855.531	12.02894
855.933	30.07246
856.334	14.03519
856.736	45.10116
857.137	14.03285
857.538	17.04306
857.939	-12.03003
858.34	85.20619
858.741	79.20575
859.142	22.05324
859.542	56.14777
859.943	51.12691
860.343	26.06476
860.744	68.16567
861.144	45.11006
861.544	40.09647
861.945	55.14024
862.345	57.13947
862.745	46.11458
863.145	97.23026
863.544	45.11397
863.944	73.17202
864.344	64.15883
864.743	71.17578
865.143	54.13878
865.542	23.05373
865.941	67.16558
866.34	82.19559
866.74	68.18214
867.139	37.08895
867.537	32.0819
867.936	61.14675
868.335	67.17018
868.734	59.15071
869.132	55.12789
869.531	59.14269
869.929	47.10738
870.327	28.0675
870.726	62.15448
871.124	83.19307
871.522	54.13762
871.92	68.1674
872.318	50.12241
872.715	57.14112
873.113	43.10505
873.511	79.19602
873.908	50.12634
874.306	24.06004
874.703	66.16487
875.1	55.14074
875.497	34.08187
875.894	5.01237
876.291	39.09603
876.688	43.11115
877.085	66.15809
877.482	30.07546
877.878	30.07257
878.275	48.12211
878.671	66.14675
879.068	32.07761
879.464	51.12339
879.86	19.04526
880.256	57.14066
880.652	33.08426
881.048	87.21437
881.444	80.18957
881.84	53.13476
882.236	39.09836
882.631	67.16412
883.027	59.1428
883.422	28.07194
883.817	0
884.213	76.1943
884.608	35.08615
885.003	41.09912
885.398	10.02523
885.793	58.14551
886.188	58.1441
886.582	74.18919
886.977	53.12586
887.371	71.17906
887.766	12.03007
888.16	27.06773
888.554	104.25489
888.949	14.03541
889.343	82.19933
889.737	14.03755
890.131	3.0076
890.525	35.08981
890.918	51.12843
891.312	59.14108
891.706	88.22954
892.099	86.21762
892.492	43.09304
892.886	79.19243
893.279	48.12241
893.672	26.06652
894.065	42.10541
894.458	37.09334
894.851	66.1614
895.244	28.07184
895.637	45.10859
896.029	73.17788
896.422	50.12227
896.814	33.08236
897.206	-10.02411
897.599	99.24286
897.991	48.1162
898.383	37.08773
898.775	21.04773
899.167	-3.00707
899.559	54.1367
899.951	42.09926
900.342	60.15242
900.734	8.02001
901.125	73.19091
901.517	43.10576
901.908	54.12949
902.299	24.059
902.69	39.09229
903.082	55.13317
903.473	4.00967
903.863	18.04621
904.254	80.18473
904.645	87.21508
905.036	-12.02941
905.426	74.16877
905.817	35.08618
906.207	19.04557
906.597	-38.09047
906.987	46.11937
907.378	21.05341
907.768	62.16366
908.158	43.10505
908.547	47.12153
908.937	53.136
909.327	49.11909
909.717	60.15215
910.106	66.15815
910.495	80.19875
910.885	67.16927
911.274	25.0628
911.663	96.2418
912.052	72.17705
912.441	18.04605
912.83	35.08064
913.219	55.14388
913.608	58.14194
913.997	35.08802
914.385	55.13136
914.774	73.17709
915.162	39.09318
915.55	73.17595
915.939	36.09113
916.327	86.21335
916.715	30.07675
917.103	92.22481
917.491	65.16046
917.878	46.11324
918.266	63.16307
918.654	73.18581
919.041	16.04202
919.429	40.09464
919.816	34.08647
920.203	-4.0098
920.591	60.14858
920.978	46.11278
921.365	55.14423
921.752	29.06945
922.139	37.08061
922.525	23.05554
922.912	87.21081
923.299	24.05995
923.685	-3.0079
924.072	56.12905
924.458	25.06224
924.844	6.01497
925.231	20.04684
925.617	41.10447
926.003	72.18336
926.389	49.12366
926.774	17.04335
927.16	56.13898
927.546	49.12512
927.931	74.18391
928.317	46.10609
928.702	74.17434
929.088	19.04522
929.473	32.0817
929.858	-6.01466
930.243	-4.0097
930.628	18.04407
931.013	20.04985
931.398	48.11049
931.783	45.1186
932.167	20.04918
932.552	45.11288
932.937	89.21938
933.321	8.02023
933.705	9.02286
934.09	73.18377
934.474	76.17968
934.858	26.06773
935.242	17.03967
935.626	29.07452
936.009	4.01072
936.393	11.02819
936.777	40.10262
937.16	49.12753
937.544	74.17359
937.927	38.09664
938.311	54.13176
938.694	48.127
939.077	4.00966
939.46	44.1082
939.843	82.16995
940.226	28.07211
940.609	22.0508
940.991	60.15248
941.374	47.11496
941.757	55.13562
942.139	52.11677
942.522	58.13691
942.904	27.0652
943.286	58.14719
943.668	35.09091
944.05	40.09872
944.432	20.04963
944.814	83.20323
945.196	5.01229
945.578	-7.01682
945.959	54.12648
946.341	122.29556
946.722	9.0213
947.104	35.08391
947.485	25.05847
947.866	18.04561
948.247	54.13616
948.628	64.15575
949.009	30.0771
949.39	56.13928
949.771	99.2281
950.152	44.10812
950.532	-28.06987
950.913	63.15162
951.293	29.07861
951.674	31.07526
952.054	26.06471
952.434	60.14868
952.814	36.0859
953.194	79.20575
953.574	68.16697
953.954	44.10463
954.334	27.06758
954.714	18.04413
955.093	90.21968
955.473	16.04026
955.853	63.16273
956.232	20.05508
956.611	44.10567
956.99	36.09071
957.37	56.14256
957.749	58.13818
958.128	60.15091
958.506	59.15282
958.885	14.03557
959.264	41.10065
959.643	67.15197
960.021	24.05976
960.4	47.1066
960.778	76.18633
961.156	49.12287
961.535	43.10038
961.913	48.11238
962.291	35.09003
962.669	30.07627
963.047	46.11748
963.424	35.08956
963.802	38.09365
964.18	80.20136
964.557	82.18769
964.935	87.20469
965.312	17.04452
965.69	68.16974
966.067	26.0636
966.444	75.18398
966.821	62.15951
967.198	53.12852
967.575	36.08875
967.952	75.1759
968.329	16.03918
968.705	91.19345
969.082	26.06696
969.458	18.04344
969.835	34.08302
970.211	49.12578
970.587	46.11462
970.963	58.14859
971.339	19.04987
971.715	19.04771
972.091	82.20075
972.467	59.14693
972.843	1.0025
973.219	58.13908
973.594	-1.00264
973.97	79.18702
974.345	36.08639
974.721	67.16174
975.096	47.1138
975.471	27.06434
975.846	47.11299
976.221	20.05106
976.596	1.00242
976.971	27.06695
977.346	74.17149
977.72	50.12738
978.095	39.10098
978.469	18.04323
978.844	85.21237
979.218	-22.05346
979.593	91.21635
979.967	19.04656
980.341	53.12197
980.715	26.06579
981.089	43.10778
981.463	30.06916
981.837	23.05648
982.21	34.07939
982.584	29.07032
982.957	19.04771
983.331	13.03095
983.704	62.15201
984.078	32.07912
984.451	80.19875
984.824	42.10244
985.197	58.14067
985.57	45.11296
985.943	47.11615
986.316	100.24345
986.688	64.15394
987.061	71.16574
987.434	28.07324
987.806	65.15721
988.179	1.00238
988.551	76.19191
988.923	51.12557
989.295	75.18657
989.667	-4.00965
990.039	-3.00748
990.411	30.06933
990.783	50.11514
991.155	-7.017
991.527	112.27266
991.898	52.12952
992.27	18.04478
992.641	86.21436
993.012	46.10833
993.384	12.02883
993.755	21.05381
994.126	48.1155
994.497	43.10568
994.868	29.0669
995.239	32.07782
995.61	-14.03563
995.98	50.12145
996.351	34.08444
996.722	43.09987
997.092	-29.06971
997.462	-2.00472
997.833	9.0215
998.203	43.10439
998.573	34.0849
998.943	17.04012
999.313	5.01208
999.683	21.05067
1000.053	17.03937
1000.423	31.0756
1000.792	18.0469
1001.162	-6.01492
1001.531	43.10615
1001.901	25.0626
1002.27	50.11177
1002.639	42.10745
1003.009	39.09293
1003.378	16.04115
1003.747	26.06171
1004.116	0
1004.485	31.07435
1004.853	27.06868
1005.222	45.11357
1005.591	15.03585
1005.959	3.00682
1006.328	4.00909
1006.696	1.00243
1007.064	45.11328
1007.433	47.11751
1007.801	58.14215
1008.169	22.05583
1008.537	66.14565
1008.905	19.04453
1009.273	69.16983
1009.64	-10.02413
1010.008	41.09789
1010.375	105.25232
1010.743	101.23085
1011.11	10.02384
1011.478	46.11391
1011.845	7.0166
1012.212	-5.01144
1012.579	16.03952
1012.946	50.11899
1013.313	58.13781
1013.68	54.12126
1014.047	2.00481
1014.414	35.08289
1014.78	43.10697
1015.147	39.0945
1015.513	50.12045
1015.88	42.10753
1016.246	25.06199
1016.612	68.15508
1016.978	62.15156
1017.344	16.03978
1017.71	50.12191
1018.076	33.07806
1018.442	35.09025
1018.808	43.10759
1019.174	10.02526
1019.539	108.24571
1019.905	-36.0863
1020.27	23.05703
1020.636	27.06501
1021.001	56.13388
1021.366	-16.03889
1021.731	40.10302
1022.096	9.02286
1022.461	25.05944
1022.826	27.06444
1023.191	44.11552
1023.556	51.11948
1023.92	50.12291
1024.285	55.13407
1024.649	48.11764
1025.014	35.08691
1025.378	33.08319
1025.742	45.11182
1026.107	36.08164
1026.471	43.1005
1026.835	89.21897
1027.199	6.01456
1027.562	52.12079
1027.926	84.20404
1028.29	18.04579
1028.654	76.17389
1029.017	61.14959
1029.381	19.04564
1029.744	42.10723
1030.107	67.15794
1030.471	52.12441
1030.834	66.14961
1031.197	76.18211
1031.56	51.12027
1031.923	32.08296
1032.286	82.19131
1032.648	75.17845
1033.011	-21.04887
1033.374	74.17305
1033.736	64.1678
1034.099	21.05144
1034.461	9.02289
1034.823	6.01505
1035.185	51.1283
1035.548	53.12886
1035.91	26.06254
1036.272	34.0776
1036.634	70.17054
1036.995	56.13142
1037.357	31.07565
1037.719	35.08532
1038.08	76.17947
1038.442	41.09744
1038.803	54.12949
1039.165	34.08601
1039.526	-1.00244
1039.887	42.1006
1040.248	13.03223
1040.609	65.1601
1040.97	26.06379
1041.331	54.13655
1041.692	16.03758
1042.053	39.08896
1042.413	33.07713
1042.774	59.14318
1043.134	54.12841
1043.495	47.11815
1043.855	19.04633
1044.215	36.08954
1044.576	3.00723
1044.936	36.08273
1045.296	56.13953
1045.656	61.14931
1046.016	49.11824
1046.375	32.07785
1046.735	23.0524
1047.095	18.04237
1047.454	76.16005
1047.814	29.06995
1048.173	62.14771
1048.533	63.14388
1048.892	27.06505
1049.251	54.13538
1049.61	29.07164
1049.969	17.04031
1050.328	13.02839
1050.687	41.09987
1051.046	44.1072
1051.405	19.04751
1051.763	25.05774
1052.122	44.10979
1052.48	63.15403
1052.839	37.08722
1053.197	32.07554
1053.555	46.10491
1053.914	53.12949
1054.272	76.18273
1054.63	30.07358
1054.988	56.1328
1055.345	9.01954
1055.703	61.14642
1056.061	-2.00519
1056.419	35.09078
1056.776	16.03902
1057.134	47.10881
1057.491	68.16962
1057.848	29.07243
1058.206	44.10354
1058.563	0
1058.92	81.18544
1059.277	13.03227
1059.634	37.08722
1059.991	33.07927
1060.348	-5.01142
1060.704	8.01921
1061.061	58.13446
1061.418	21.05117
1061.774	-5.01246
1062.131	-15.04007
1062.487	31.07271
1062.843	60.14923
1063.199	-2.00502
1063.555	-11.02578
1063.911	26.06591
1064.267	38.07943
1064.623	25.06096
1064.979	45.10666
1065.335	36.08623
1065.691	-7.01695
1066.046	-8.0178
1066.402	23.05251
1066.757	72.1809
1067.112	50.12263
1067.468	0
1067.823	35.08433
1068.178	23.05588
1068.533	62.14986
1068.888	59.14065
1069.243	28.06934
1069.598	12.02934
1069.952	27.06104
1070.307	32.07941
1070.662	32.07618
1071.016	-21.04771
1071.371	41.09337
1071.725	50.11954
1072.079	40.09632
1072.434	-23.05661
1072.788	53.12605
1073.142	82.20037
1073.496	32.07612
1073.85	76.17521
1074.203	52.12602
1074.557	28.07468
1074.911	75.17803
1075.265	38.08848
1075.618	68.16536
1075.971	56.13296
1076.325	35.08912
1076.678	7.01614
1077.031	3.00685
1077.385	27.05972
1077.738	21.04765
1078.091	-16.03684
1078.444	47.10911
1078.796	41.10069
1079.149	39.09712
1079.502	6.01428
1079.855	13.03051
1080.207	32.07904
1080.56	4.01041
1080.912	41.09991
1081.264	56.1346
1081.617	36.0879
1081.969	22.05573
1082.321	66.16056
1082.673	-40.09288
1083.025	49.11618
1083.377	27.0582
1083.728	16.03755
1084.08	50.12472
1084.432	26.06294
1084.783	50.11706
1085.135	17.04283
1085.486	16.03683
1085.838	74.1813
1086.189	54.13087
1086.54	35.08375
1086.891	-2.0051
1087.242	3.00736
1087.593	41.09991
1087.944	38.08614
1088.295	40.09104
1088.646	28.06809
1088.996	-9.02191
1089.347	10.0247
1089.698	30.07112
1090.048	29.07553
1090.398	35.08135
1090.749	28.06722
1091.099	29.07314
1091.449	59.14661
1091.799	50.12508
1092.149	-13.03204
1092.499	45.10978
1092.849	54.13704
1093.199	31.0779
1093.548	24.0579
1093.898	26.06528
1094.248	26.06703
1094.597	-33.08539
1094.947	18.04823
1095.296	40.09887
1095.645	32.08341
1095.994	39.09379
1096.343	29.07319
1096.692	1.00265
1097.041	2.00545
1097.39	25.06294
1097.739	11.02876
1098.088	50.13384
1098.437	-38.10122
1098.785	50.13468
1099.134	49.13002
1099.482	38.10462
1099.83	56.14687
1100.179	23.06021
1100.527	34.0905
1100.875	1.00266
1101.223	8.02137
1101.571	3.00834
1101.919	24.06292
1102.267	18.05088
1102.615	0
1102.962	7.02255
1103.31	-4.01287
1103.658	22.07077
