Data from N2 R7 sample 12_Subt2__2__15-17-19-594.txt Node

Date: Fri Aug 29 15:17:19 PDT 2025
User: uwsun
Spectrometer: HDX01956
Trigger mode: 0
Integration Time (sec): 5.000000E-1
Scans to average: 1
Nonlinearity correction enabled: true
Boxcar width: 0
Storing dark spectrum: false
XAxis mode: Wavelengths
Number of Pixels in Spectrum: 2068
>>>>>Begin Spectral Data<<<<<
194.03	387.01793
194.578	383.14943
195.127	386.13929
195.676	393.16275
196.225	441.08009
196.773	482.21564
197.321	650.55167
197.87	896.8459
198.418	928.86827
198.966	913.85781
199.513	796.56921
200.061	842.67555
200.609	890.87451
201.156	872.43577
201.704	811.61416
202.251	897.86572
202.798	851.74723
203.345	927.77188
203.892	886.7379
204.438	922.68892
204.985	868.57145
205.532	899.85167
206.078	922.73897
206.624	931.7444
207.17	1016.74884
207.716	921.7053
208.262	995.40523
208.808	912.71
209.354	956.75925
209.899	991.92087
210.445	928.76055
210.99	876.62222
211.535	952.69417
212.08	910.61424
212.625	953.83131
213.17	918.80667
213.715	893.48389
214.259	1006.7463
214.804	981.84819
215.348	983.67884
215.892	964.75274
216.436	968.69344
216.98	989.62507
217.524	991.75422
218.068	925.80725
218.612	996.91636
219.155	935.67371
219.698	818.53269
220.242	890.74165
220.785	857.55819
221.328	817.62084
221.871	878.76185
222.414	876.71906
222.956	773.47852
223.499	763.35817
224.041	854.55861
224.583	903.48904
225.126	828.4153
225.668	822.57733
226.21	800.60663
226.751	802.35753
227.293	834.48984
227.835	847.62264
228.376	859.54762
228.918	826.66653
229.459	769.53188
230	806.51463
230.541	863.54295
231.082	802.54037
231.622	854.53035
232.163	813.55291
232.704	843.64295
233.244	826.61929
233.784	804.57314
234.324	728.25396
234.864	761.3623
235.404	821.53946
235.944	847.57114
236.484	858.68844
237.023	836.53877
237.563	816.46811
238.102	833.53746
238.641	835.67123
239.18	793.44889
239.719	845.67179
240.258	795.39701
240.797	860.59253
241.335	896.70057
241.874	858.21881
242.412	881.6319
242.95	841.55457
243.488	886.54312
244.026	788.41762
244.564	879.35115
245.102	799.3894
245.64	895.66695
246.177	854.46534
246.715	919.6906
247.252	851.50816
247.789	892.23552
248.326	839.55473
248.863	862.4279
249.4	895.54285
249.936	866.32835
250.473	879.56113
251.009	851.48708
251.546	918.50675
252.082	863.42995
252.618	948.55962
253.154	900.6444
253.69	915.54312
254.226	858.57382
254.761	845.4456
255.297	847.40027
255.832	884.59155
256.367	875.57249
256.903	851.41001
257.438	894.59728
257.972	972.58774
258.507	868.49738
259.042	935.49351
259.576	917.44135
260.111	1004.7061
260.645	947.50416
261.179	919.60286
261.713	914.50599
262.247	932.60384
262.781	897.37569
263.315	925.70676
263.849	948.78635
264.382	956.62865
264.915	1019.73121
265.449	866.59331
265.982	963.61379
266.515	998.7973
267.048	883.3733
267.58	990.5696
268.113	890.41368
268.646	984.80003
269.178	940.531
269.71	980.54569
270.243	998.65763
270.775	960.83462
271.307	956.71885
271.838	972.71649
272.37	1015.83404
272.902	977.6204
273.433	965.52149
273.965	926.6869
274.496	985.82404
275.027	987.80961
275.558	959.71942
276.089	918.67399
276.62	1062.984
277.15	947.74918
277.681	1017.56981
278.211	1006.81451
278.741	923.47008
279.272	1021.65835
279.802	1012.85694
280.332	996.69519
280.861	1038.80012
281.391	954.5617
281.921	971.7205
282.45	1025.87473
282.98	1007.94636
283.509	992.59079
284.038	1011.63837
284.567	947.6215
285.096	1030.79091
285.625	979.5872
286.153	1034.71577
286.682	1058.68942
287.21	967.6877
287.739	989.67737
288.267	1017.7594
288.795	1103.0943
289.323	1020.67666
289.851	1105.79339
290.378	1101.68824
290.906	1042.7747
291.433	1087.91569
291.961	1033.62078
292.488	1152.98904
293.015	1081.75328
293.542	1053.89033
294.069	1062.83119
294.596	1141.96008
295.122	1109.81905
295.649	1158.69246
296.175	1059.80424
296.702	1124.88108
297.228	1198.97171
297.754	1129.69079
298.28	1191.76931
298.806	1087.79368
299.332	1190.69601
299.857	1130.68976
300.383	1214.08646
300.908	1116.825
301.433	1217.94743
301.958	1151.77574
302.483	1196.98905
303.008	1250.04304
303.533	1260.20608
304.058	1218.88359
304.582	1072.7041
305.107	1173.06972
305.631	1263.83529
306.155	1218.81462
306.679	1226.82552
307.203	1251.83447
307.727	1253.89807
308.251	1243.99714
308.775	1197.81374
309.298	1271.90728
309.822	1288.09038
310.345	1356.96743
310.868	1366.99182
311.391	1393.11347
311.914	1350.1016
312.437	1305.82255
312.96	1324.89581
313.482	1391.96492
314.005	1411.15241
314.527	1363.23574
315.049	1467.23209
315.571	1347.71828
316.093	1486.14801
316.615	1452.02494
317.137	1535.78311
317.659	1502.10355
318.18	1559.11516
318.702	1495.93084
319.223	1480.58032
319.744	1522.82188
320.265	1521.03212
320.786	1548.10069
321.307	1538.12345
321.828	1610.86877
322.348	1611.97435
322.869	1582.93742
323.389	1619.04851
323.909	1597.8745
324.43	1710.1148
324.95	1702.87861
325.47	1669.07377
325.989	1708.9447
326.509	1738.71221
327.029	1773.7868
327.548	1815.77689
328.067	1780.98385
328.587	1804.13655
329.106	1843.80393
329.625	1908.4237
330.144	1900.8365
330.662	1914.82877
331.181	1974.8809
331.7	1984.87156
332.218	2005.58782
332.736	2128.8614
333.255	2004.79754
333.773	2047.85404
334.291	2177.10404
334.808	2070.60038
335.326	2142.64071
335.844	2168.67578
336.361	2216.99693
336.879	2233.65573
337.396	2240.77118
337.913	2310.56897
338.43	2331.46786
338.947	2417.65533
339.464	2348.24096
339.981	2352.58509
340.497	2348.77057
341.014	2399.66485
341.53	2418.32765
342.046	2374.6445
342.562	2559.70896
343.078	2616.40369
343.594	2588.45913
344.11	2611.41429
344.626	2624.6214
345.141	2689.16475
345.657	2698.17069
346.172	2627.37845
346.687	2672.13818
347.202	2707.01282
347.717	2787.21636
348.232	2826.38755
348.747	2780.0201
349.261	2778.73858
349.776	2895.01656
350.29	2894.13528
350.805	3019.17742
351.319	3017.87558
351.833	2893.7505
352.347	2992.85953
352.861	3115.73122
353.374	3210.68061
353.888	3103.88521
354.401	3146.62368
354.915	3205.4119
355.428	3278.80102
355.941	3329.47113
356.454	3233.45325
356.967	3283.57506
357.48	3201.49905
357.993	3359.66004
358.505	3301.60253
359.018	3442.52363
359.53	3488.37721
360.042	3536.07422
360.554	3506.40022
361.066	3495.37328
361.578	3475.98144
362.09	3501.27033
362.602	3486.95236
363.113	3618.03448
363.625	3658.87466
364.136	3755.75013
364.647	3683.82187
365.158	3880.79421
365.669	3887.88164
366.18	3878.81003
366.691	3900.56488
367.201	3856.81384
367.712	3932.56172
368.222	3976.53177
368.733	4017.30069
369.243	4087.2857
369.753	4248.3433
370.263	4326.37226
370.773	4206.49508
371.282	4329.25754
371.792	4334.03245
372.301	4621.07915
372.811	4667.25989
373.32	4556.76265
373.829	4692.86342
374.338	5029.76436
374.847	5119.77871
375.356	5239.80841
375.865	5346.86439
376.373	5664.07017
376.882	5742.05306
377.39	5988.34501
377.898	5963.43284
378.407	6309.28832
378.915	6608.16113
379.423	6804.51014
379.93	7040.62078
380.438	7315.7432
380.946	7741.11403
381.453	8017.94637
381.96	8260.4155
382.468	8789.72791
382.975	9550.09754
383.482	9837.80196
383.989	10046.2397
384.495	10267.14498
385.002	10744.34444
385.509	11345.92559
386.015	12030.66801
386.521	12537.0152
387.028	13308.40897
387.534	13573.11901
388.04	14172.25852
388.546	14149.35191
389.051	14658.60211
389.557	16034.59241
390.063	18016.97244
390.568	18163.76522
391.073	18582.95129
391.578	19322.98816
392.084	19749.06807
392.589	19863.71604
393.093	21219.42158
393.598	23696.0137
394.103	25989.37986
394.607	28429.19345
395.112	30594.95374
395.616	32289.5586
396.12	34608.28471
396.624	38193.16919
397.128	41598.31615
397.632	40733.4172
398.136	39172.79427
398.639	36273.96993
399.143	32503.66402
399.646	28888.45294
400.15	25083.82847
400.653	20124.16724
401.156	13866.23708
401.659	5169.95759
402.162	1054.15589
402.664	0
403.167	0
403.67	0
404.172	0
404.674	0
405.176	0
405.678	0
406.18	0
406.682	0
407.184	0
407.686	0
408.187	0
408.688	0
409.19	0
409.691	0
410.192	0
410.693	0
411.194	435.30976
411.694	4082.94878
412.195	8864.71461
412.696	12089.80453
413.196	12760.96929
413.696	12863.67595
414.196	13703.56671
414.696	17261.84252
415.196	21764.24417
415.696	29583.19008
416.196	36460.31858
416.695	40057.39798
417.195	41392.74103
417.694	42311.08144
418.194	43882.52025
418.693	44704.85811
419.192	45402.14938
419.691	45457.34827
420.19	45344.63559
420.688	45198.40634
421.187	43537.70209
421.685	40662.86759
422.184	37299.7155
422.682	32170.4617
423.18	27389.04739
423.678	24184.03964
424.176	22319.04119
424.674	20899.84705
425.172	20365.32569
425.669	19180.34291
426.167	17671.86352
426.664	16227.38517
427.161	14952.85985
427.659	13614.94278
428.156	12837.9304
428.652	12058.94591
429.149	11496.01877
429.646	11159.11436
430.143	10639.97906
430.639	9843.17671
431.135	9399.82849
431.632	8900.64124
432.128	8276.86475
432.624	7655.38849
433.12	7332.15095
433.616	7220.60279
434.111	6678.51499
434.607	6516.77861
435.103	6671.24788
435.598	6457.67881
436.093	6156.63624
436.588	5900.29873
437.083	5609.9923
437.578	5283.81075
438.073	4925.7958
438.568	4849.89131
439.062	4726.72371
439.557	4546.97217
440.051	4430.92811
440.546	4191.03337
441.04	4148.22548
441.534	4077.49622
442.028	4039.41681
442.522	3920.47855
443.015	3780.33454
443.509	3809.70492
444.002	3663.79318
444.496	3540.55236
444.989	3493.96141
445.482	3453.05398
445.975	3520.6787
446.468	3405.64448
446.961	3441.64142
447.454	3201.98059
447.947	3175.1174
448.439	3143.31988
448.931	3103.04549
449.424	3080.55394
449.916	3063.42053
450.408	2938.20909
450.9	2913.49118
451.392	2794.73485
451.884	2840.44187
452.375	2719.72554
452.867	2829.47341
453.358	2665.4894
453.849	2671.33385
454.341	2693.51917
454.832	2570.44812
455.323	2588.85476
455.814	2550.72537
456.304	2579.73963
456.795	2498.76322
457.285	2545.73379
457.776	2476.87595
458.266	2376.97446
458.756	2385.07619
459.247	2250.03984
459.737	2133.08228
460.226	2224.90909
460.716	2159.14833
461.206	2134.20787
461.695	2043.4045
462.185	2146.19532
462.674	2081.15977
463.163	2059.05851
463.653	2050.91788
464.142	1954.33588
464.63	1993.43709
465.119	1913.2412
465.608	1921.25118
466.096	1906.1431
466.585	1840.33941
467.073	1802.46203
467.561	1784.4834
468.05	1753.39455
468.538	1730.57667
469.026	1671.49027
469.513	1636.14325
470.001	1588.32973
470.489	1578.44973
470.976	1581.41851
471.463	1543.64602
471.951	1503.66834
472.438	1409.43485
472.925	1361.40197
473.412	1442.63664
473.899	1349.41427
474.385	1311.57156
474.872	1380.46895
475.359	1324.57309
475.845	1237.1638
476.331	1210.28387
476.817	1224.55473
477.303	1163.39899
477.789	1180.50649
478.275	1110.51603
478.761	1103.46883
479.247	1110.33501
479.732	1076.51321
480.218	1053.6171
480.703	1027.49386
481.188	991.17982
481.673	1003.31609
482.158	901.08119
482.643	976.5367
483.128	932.25236
483.612	944.32816
484.097	950.44491
484.581	901.29835
485.066	792.24312
485.55	787.07643
486.034	776.052
486.518	786.18388
487.002	759.22116
487.486	755.22364
487.969	750.21996
488.453	780.33376
488.936	708.06088
489.42	713.05201
489.903	746.29941
490.386	722.72171
490.869	716.04969
491.352	679.17777
491.835	657.92364
492.318	605.95753
492.8	635.89947
493.283	602.10845
493.765	622.09839
494.247	661.10226
494.73	529.84822
495.212	596.05895
495.694	509.87489
496.175	508.88415
496.657	603.04343
497.139	569.69139
497.62	454.80686
498.102	498.932
498.583	485.93033
499.064	425.71404
499.545	503.85856
500.026	445.75379
500.507	476.83807
500.988	494.94097
501.469	420.81711
501.949	464.88983
502.43	434.79013
502.91	398.62516
503.39	449.88123
503.87	362.66706
504.35	408.7575
504.83	407.6864
505.31	376.71896
505.79	369.69584
506.269	385.71105
506.749	350.63006
507.228	330.61633
507.707	414.71134
508.187	446.83714
508.666	291.57868
509.145	297.5584
509.623	284.54067
510.102	359.69793
510.581	345.67487
511.059	303.61715
511.538	305.65005
512.016	383.73146
512.494	334.65908
512.972	345.66432
513.45	217.41201
513.928	358.69781
514.406	276.53925
514.884	301.63651
515.361	341.66072
515.839	300.55474
516.316	275.54457
516.793	320.66794
517.27	298.59716
517.747	285.60558
518.224	293.5574
518.701	285.52002
519.178	270.55257
519.654	315.61794
520.131	269.55339
520.607	304.6261
521.083	286.53732
521.56	227.4493
522.036	269.48833
522.512	287.59175
522.987	198.39475
523.463	266.52613
523.939	242.50043
524.414	232.45135
524.89	273.5401
525.365	264.49672
525.84	230.45599
526.315	264.53099
526.79	273.51151
527.265	246.46969
527.74	204.42223
528.215	256.50587
528.689	244.45118
529.164	241.43906
529.638	229.50228
530.112	199.39757
530.587	182.32761
531.061	196.40167
531.534	250.51326
532.008	177.36397
532.482	217.42347
532.956	194.42255
533.429	205.42458
533.903	250.46598
534.376	210.39375
534.849	200.39614
535.322	204.41144
535.795	220.45942
536.268	191.39346
536.741	178.36891
537.213	210.41478
537.686	171.35829
538.158	142.27349
538.631	222.46298
539.103	157.30201
539.575	226.3991
540.047	233.43375
540.519	231.47201
540.991	241.5045
541.463	242.49931
541.934	229.4454
542.406	142.29351
542.877	176.34158
543.348	256.52605
543.82	244.51157
544.291	195.39248
544.762	236.47445
545.233	236.50377
545.703	238.44317
546.174	266.52095
546.645	234.47043
547.115	279.56361
547.585	262.50631
548.056	250.50399
548.526	276.53849
548.996	316.6303
549.466	390.78007
549.935	410.77639
550.405	343.60685
550.875	359.68961
551.344	400.77449
551.814	400.73746
552.283	427.73742
552.752	360.67303
553.221	402.68665
553.69	467.80782
554.159	477.91719
554.628	473.81646
555.096	456.91589
555.565	467.81211
556.033	479.89356
556.502	406.79702
556.97	380.68338
557.438	336.66022
557.906	337.66734
558.374	326.62456
558.842	307.61761
559.31	317.59572
559.777	247.50951
560.245	367.72233
560.712	301.59243
561.18	260.4892
561.647	278.52899
562.114	293.56609
562.581	380.78719
563.048	402.77278
563.514	328.6816
563.981	404.77064
564.448	383.71763
564.914	432.83566
565.381	469.87837
565.847	516.98575
566.313	523.99065
566.779	550.99835
567.245	549.03675
567.711	530.03091
568.176	627.10407
568.642	617.23496
569.108	654.27018
569.573	715.31137
570.038	747.18752
570.504	786.32247
570.969	819.56665
571.434	843.3583
571.899	958.65835
572.363	902.50342
572.828	1079.73142
573.293	1070.71837
573.757	1135.79192
574.222	1115.69577
574.686	1167.75541
575.15	1174.90645
575.614	1267.91601
576.078	1290.99454
576.542	1283.91853
577.006	1358.95463
577.469	1427.3015
577.933	1311.88695
578.396	1364.11254
578.86	1339.06327
579.323	1404.14478
579.786	1409.88733
580.249	1341.9652
580.712	1441.27104
581.175	1377.22898
581.637	1364.04038
582.1	1343.89761
582.563	1397.88827
583.025	1307.10901
583.487	1256.61892
583.95	1317.80217
584.412	1387.81974
584.874	1322.13397
585.336	1299.04559
585.797	1240.76566
586.259	1268.01645
586.721	1147.86188
587.182	1215.94971
587.643	1123.77186
588.105	1108.84612
588.566	1035.52691
589.027	1063.82079
589.488	1015.65872
589.949	1039.81754
590.41	927.2715
590.87	954.59474
591.331	1015.55846
591.791	946.59255
592.252	911.52637
592.712	911.63148
593.172	813.38029
593.632	880.43054
594.092	848.41315
594.552	824.32571
595.011	750.31879
595.471	829.39389
595.931	809.36016
596.39	712.32915
596.849	781.391
597.308	779.28539
597.768	665.34409
598.227	740.38766
598.685	747.33031
599.144	740.33926
599.603	718.32779
600.062	642.05085
600.52	646.13078
600.978	715.32388
601.437	719.28034
601.895	668.10084
602.353	656.14591
602.811	670.16304
603.269	679.28027
603.727	668.26226
604.184	655.15529
604.642	706.3557
605.099	682.23973
605.557	720.37266
606.014	660.10391
606.471	649.28113
606.928	645.07079
607.385	751.39828
607.842	895.50766
608.299	871.51573
608.755	873.5737
609.212	778.3047
609.668	836.3664
610.125	897.61871
610.581	898.60691
611.037	858.48322
611.493	778.42608
611.949	731.37311
612.405	668.03761
612.861	787.43935
613.316	717.34478
613.772	732.3133
614.227	694.29356
614.683	737.22868
615.138	667.2416
615.593	705.29234
616.048	765.36666
616.503	711.3965
616.958	637.29389
617.412	693.30671
617.867	607.08049
618.321	670.1017
618.776	670.18705
619.23	639.21651
619.684	630.15895
620.138	646.22419
620.592	577.16277
621.046	617.19278
621.5	572.15717
621.954	619.14809
622.407	630.15082
622.861	543.1102
623.314	560.06868
623.768	577.12225
624.221	563.92028
624.674	496.97601
625.127	508.01339
625.58	566.09114
626.033	572.06576
626.485	468.96817
626.938	514.04961
627.39	494.99175
627.843	480.9632
628.295	438.88785
628.747	417.87484
629.199	438.87446
629.651	373.75558
630.103	405.82265
630.555	332.63482
631.006	413.86186
631.458	367.77845
631.909	363.75517
632.361	290.62117
632.812	355.74149
633.263	355.69377
633.714	364.70681
634.165	336.74516
634.616	285.62667
635.067	315.64481
635.518	333.72974
635.968	355.65137
636.419	325.65111
636.869	279.61838
637.319	270.58209
637.769	291.60431
638.219	324.71735
638.669	250.55953
639.119	335.75607
639.569	271.61215
640.019	255.55576
640.468	231.48892
640.918	248.56465
641.367	236.5018
641.816	256.54077
642.265	291.63099
642.714	223.49097
643.163	257.5587
643.612	184.42216
644.061	173.35237
644.51	182.39827
644.958	221.46325
645.406	189.43355
645.855	262.60808
646.303	269.59572
646.751	222.4819
647.199	231.50132
647.647	222.48805
648.095	191.42123
648.543	195.38669
648.99	187.42999
649.438	210.47485
649.885	210.49895
650.333	201.37697
650.78	197.45787
651.227	212.49497
651.674	225.49163
652.121	229.53371
652.568	154.36337
653.015	279.67064
653.461	176.40543
653.908	238.53158
654.354	196.45276
654.801	192.43521
655.247	233.49251
655.693	194.48862
656.139	162.37839
656.585	219.50638
657.031	144.32787
657.477	159.3358
657.922	194.43295
658.368	220.52412
658.813	218.49133
659.259	188.43808
659.704	186.42144
660.149	190.43051
660.594	210.48297
661.039	178.39593
661.484	213.49408
661.929	177.40472
662.373	168.41341
662.818	188.45407
663.262	148.34976
663.707	199.49013
664.151	189.45053
664.595	133.3162
665.039	182.44273
665.483	189.46911
665.927	201.46218
666.371	134.30585
666.814	204.47554
667.258	183.42298
667.701	214.45225
668.145	199.48399
668.588	209.50011
669.031	225.51343
669.474	175.41396
669.917	157.34451
670.36	196.47535
670.803	235.55178
671.245	230.47348
671.688	205.48942
672.13	143.31788
672.573	224.55465
673.015	222.52014
673.457	163.35164
673.899	223.52749
674.341	194.45952
674.783	168.39702
675.225	228.5463
675.666	158.37469
676.108	194.41555
676.549	220.51021
676.991	225.48581
677.432	153.30397
677.873	215.48784
678.314	188.44204
678.755	199.47528
679.196	155.35228
679.637	216.51735
680.078	219.50296
680.518	248.56442
680.959	214.50258
681.399	202.49156
681.839	198.47388
682.28	180.43753
682.72	136.31041
683.16	233.56603
683.6	241.53794
684.039	221.45321
684.479	190.4589
684.919	134.30757
685.358	212.52762
685.798	208.53397
686.237	274.64347
686.676	266.60147
687.115	232.53377
687.554	212.49458
687.993	227.49327
688.432	218.48952
688.871	205.45797
689.309	199.46799
689.748	242.49661
690.186	278.64496
690.625	245.56064
691.063	196.46318
691.501	228.55191
691.939	236.57471
692.377	219.52384
692.815	212.49788
693.253	255.59827
693.69	226.48807
694.128	211.50181
694.565	244.56878
695.003	234.58046
695.44	196.45438
695.877	203.46678
696.314	203.4321
696.751	252.56238
697.188	217.48998
697.625	274.61299
698.061	241.56499
698.498	270.63581
698.934	244.57437
699.371	235.54122
699.807	254.58625
700.243	217.5127
700.679	243.53904
701.115	243.56053
701.551	300.68358
701.987	237.52311
702.422	227.52842
702.858	289.66689
703.294	255.56448
703.729	230.55151
704.164	241.5672
704.599	239.52178
705.035	236.5173
705.47	236.56115
705.904	242.55121
706.339	282.6379
706.774	259.59124
707.209	205.46572
707.643	244.5728
708.078	236.56223
708.512	209.51305
708.946	272.63428
709.38	249.57643
709.814	274.60945
710.248	247.58809
710.682	236.54926
711.116	209.48959
711.549	261.65557
711.983	270.60678
712.416	264.60836
712.85	285.6887
713.283	266.61272
713.716	315.76347
714.149	297.68562
714.582	276.60242
715.015	324.78129
715.448	279.68258
715.881	324.6832
716.313	230.52833
716.746	274.62636
717.178	247.57973
717.61	304.74469
718.043	286.69098
718.475	277.65191
718.907	327.79701
719.339	225.50016
719.77	240.55571
720.202	285.69829
720.634	268.63331
721.065	283.65045
721.497	274.65224
721.928	275.655
722.359	222.52421
722.79	245.57234
723.221	246.60465
723.652	298.74404
724.083	225.49787
724.514	274.61172
724.945	258.59074
725.375	227.51569
725.806	254.61854
726.236	298.73838
726.666	299.68419
727.096	295.7002
727.526	239.59276
727.956	240.53316
728.386	315.74737
728.816	268.65847
729.246	238.56482
729.675	198.47948
730.105	281.67083
730.534	226.51852
730.964	284.69623
731.393	327.78181
731.822	272.67471
732.251	262.64682
732.68	320.7262
733.109	255.61203
733.537	275.64418
733.966	238.57742
734.395	304.67729
734.823	256.5635
735.251	266.62273
735.68	339.81483
736.108	255.6285
736.536	241.5557
736.964	238.53991
737.392	237.57963
737.82	266.62078
738.247	259.60409
738.675	263.61197
739.102	236.57579
739.53	220.54853
739.957	264.65988
740.384	285.68168
740.811	273.67187
741.238	247.58787
741.665	244.55195
742.092	249.58031
742.519	223.54012
742.945	253.59172
743.372	235.56853
743.798	281.69995
744.225	231.53731
744.651	241.59028
745.077	264.63976
745.503	277.65546
745.929	256.59792
746.355	256.62061
746.781	247.59689
747.207	171.39666
747.632	206.49284
748.058	231.56369
748.483	245.55049
748.908	237.5751
749.334	254.60743
749.759	205.47514
750.184	209.48863
750.609	206.49754
751.033	282.6462
751.458	268.58422
751.883	208.50635
752.307	236.54254
752.732	126.31326
753.156	233.56221
753.58	258.59643
754.005	197.49199
754.429	208.48009
754.853	233.5637
755.277	217.50355
755.7	245.5925
756.124	214.52037
756.548	199.4638
756.971	262.62177
757.394	202.51113
757.818	205.5177
758.241	224.55586
758.664	216.53425
759.087	205.44926
759.51	235.5711
759.933	192.45461
760.356	238.59534
760.778	216.52031
761.201	222.52888
761.623	274.64472
762.046	250.57817
762.468	259.60528
762.89	260.62391
763.312	229.54671
763.734	184.43668
764.156	227.54794
764.578	218.49173
765	224.53467
765.421	157.39423
765.843	224.57424
766.264	233.55008
766.686	211.51969
767.107	190.45318
767.528	165.41118
767.949	212.5282
768.37	191.46123
768.791	220.5211
769.212	123.3073
769.632	143.33079
770.053	177.45923
770.473	189.45243
770.894	196.48248
771.314	190.44709
771.734	165.38032
772.154	214.53802
772.575	226.51207
772.994	130.29408
773.414	202.47644
773.834	180.44326
774.254	201.4828
774.673	194.46449
775.093	135.33166
775.512	141.34447
775.931	174.43479
776.351	149.36632
776.77	153.37003
777.189	154.36267
777.607	151.38148
778.026	136.33615
778.445	119.29613
778.864	167.42265
779.282	109.26173
779.701	131.32788
780.119	120.30149
780.537	109.27105
780.955	180.45076
781.373	151.36945
781.791	142.31638
782.209	137.31364
782.627	115.30125
783.045	137.31276
783.462	140.35426
783.88	78.20193
784.297	138.34397
784.715	90.23074
785.132	134.32182
785.549	133.32988
785.966	124.30975
786.383	96.2358
786.8	139.32013
787.217	111.26217
787.633	80.19977
788.05	133.31376
788.466	140.32739
788.883	83.21156
789.299	127.30367
789.715	148.35571
790.131	123.30374
790.547	109.27105
790.963	93.2305
791.379	80.20229
791.795	91.20783
792.21	97.22652
792.626	76.18079
793.041	80.19759
793.457	109.26818
793.872	106.24837
794.287	29.06993
794.702	111.27219
795.117	76.18895
795.532	99.24716
795.947	111.26602
796.362	99.236
796.776	147.34072
797.191	69.16933
797.605	17.04042
798.02	86.20913
798.434	85.18958
798.848	43.10662
799.262	66.16409
799.676	118.28608
800.09	72.17744
800.504	86.20858
800.918	63.1466
801.331	77.20185
801.745	85.1953
802.158	63.15791
802.572	53.12929
802.985	73.17682
803.398	61.14608
803.811	95.24351
804.224	83.20647
804.637	34.08172
805.05	27.0633
805.462	92.22556
805.875	33.0861
806.288	-5.01225
806.7	34.0861
807.112	94.21749
807.525	59.14613
807.937	37.09211
808.349	80.20027
808.761	62.15297
809.173	82.19858
809.584	84.2074
809.996	0
810.408	49.12692
810.819	57.13463
811.231	109.27969
811.642	137.3227
812.053	223.51522
812.464	324.73349
812.875	291.71484
813.286	177.44716
813.697	156.3595
814.108	89.21695
814.519	103.22859
814.929	118.29859
815.34	43.10494
815.75	54.13762
816.16	89.22123
816.571	80.20746
816.981	77.18187
817.391	60.1453
817.801	39.09744
818.211	44.10555
818.62	49.11851
819.03	54.13284
819.44	102.26497
819.849	42.10639
820.259	63.16149
820.668	43.1063
821.077	18.04513
821.486	75.18064
821.895	109.26759
822.304	41.10912
822.713	51.12111
823.122	87.2165
823.531	51.12144
823.939	41.10047
824.348	71.17269
824.756	69.17289
825.164	39.09871
825.573	9.02283
825.981	50.12449
826.389	73.18331
826.797	52.13065
827.205	46.10614
827.612	84.20679
828.02	45.1062
828.428	72.18323
828.835	56.14762
829.243	36.08639
829.65	12.03014
830.057	71.1723
830.464	39.09557
830.871	100.23815
831.278	101.2427
831.685	41.09213
832.092	76.18585
832.499	30.06623
832.905	48.12194
833.312	23.05299
833.718	59.14725
834.124	33.076
834.531	88.22101
834.937	48.12358
835.343	51.12349
835.749	76.17738
836.155	8.02115
836.561	36.08905
836.966	67.16387
837.372	42.10734
837.777	57.14221
838.183	49.10947
838.588	57.14174
838.993	64.15592
839.399	25.06158
839.804	-31.07689
840.209	34.08698
840.613	29.06506
841.018	53.13447
841.423	60.15399
841.828	27.06872
842.232	108.26547
842.637	38.09015
843.041	12.03102
843.445	32.08072
843.849	13.03248
844.253	53.1263
844.657	15.03809
845.061	25.05721
845.465	41.09946
845.869	63.14649
846.272	45.10994
846.676	100.24026
847.079	4.01027
847.483	52.12999
847.886	93.22509
848.289	27.07243
848.692	56.14196
849.095	52.12517
849.498	93.23445
849.901	15.03475
850.304	50.11981
850.707	45.11507
851.109	83.20924
851.512	34.08398
851.914	-2.0051
852.316	78.19667
852.718	13.03382
853.121	46.11303
853.523	2.00473
853.925	17.04465
854.326	35.08789
854.728	39.10063
855.13	53.13681
855.531	17.04096
855.933	26.06285
856.334	31.07768
856.736	34.0766
857.137	31.07251
857.538	42.1059
857.939	-5.0125
858.34	41.10028
858.741	58.1516
859.142	12.02909
859.542	40.10583
859.943	30.07494
860.343	-15.03764
860.744	47.11496
861.144	31.07602
861.544	-38.09299
861.945	20.05131
862.345	59.14431
862.745	2.00502
863.145	92.2186
863.544	35.0888
863.944	54.12772
864.344	48.11947
864.743	32.07979
865.143	40.10305
865.542	14.03277
865.941	33.08206
866.34	68.16263
866.74	22.05937
867.139	26.06263
867.537	53.13514
867.936	50.12054
868.335	55.13999
868.734	47.12031
869.132	35.0817
869.531	28.06811
869.929	15.03449
870.327	47.1129
870.726	64.15941
871.124	65.15174
871.522	42.10726
871.92	34.08422
872.318	45.11027
872.715	68.16802
873.113	42.10263
873.511	48.11977
873.908	-14.03578
874.306	18.04508
874.703	43.10786
875.1	72.18368
875.497	13.03143
875.894	2.00495
876.291	39.09603
876.688	21.05449
877.085	45.10822
877.482	43.1079
877.878	17.04122
878.275	51.12967
878.671	43.09606
879.068	17.04135
879.464	36.08735
879.86	52.12308
880.256	49.12109
880.652	36.09188
881.048	49.12158
881.444	61.14508
881.84	26.06642
882.236	68.1706
882.631	58.14231
883.027	42.10198
883.422	59.15076
883.817	-11.02797
884.213	26.06705
884.608	21.05182
885.003	2.00487
885.398	35.08792
885.793	18.04548
886.188	7.01755
886.582	28.07216
886.977	70.16568
887.371	54.1366
887.766	3.00753
888.16	62.15454
888.554	24.05969
888.949	40.10071
889.343	77.18735
889.737	28.07493
890.131	37.09311
890.525	51.1305
890.918	56.1409
891.312	70.16703
891.706	28.07379
892.099	57.14498
892.492	87.18648
892.886	44.10788
893.279	56.14261
893.672	7.01797
894.065	31.07796
894.458	39.09836
894.851	69.16864
895.244	23.05906
895.637	69.16575
896.029	52.12721
896.422	47.115
896.814	23.05751
897.206	15.03599
897.599	99.24286
897.991	38.09216
898.383	-2.00478
898.775	23.05225
899.167	11.02587
899.559	43.10906
899.951	54.12732
900.342	46.11715
900.734	-14.03516
901.125	70.18316
901.517	31.07641
901.908	101.24003
902.299	17.04184
902.69	15.03566
903.082	58.14035
903.473	30.07216
903.863	24.06155
904.254	15.03508
904.645	50.12445
905.036	-8.01959
905.426	77.1755
905.817	41.10084
906.207	-2.00482
906.597	-20.04745
906.987	55.14251
907.378	29.07366
907.768	76.20014
908.158	27.06616
908.547	14.03641
908.937	22.05676
909.327	42.10221
909.717	53.13457
910.106	59.14156
910.495	87.21587
910.885	34.0864
911.274	49.12256
911.663	60.1521
912.052	42.10385
912.441	47.11963
912.83	13.03008
913.219	59.15424
913.608	49.12011
913.997	12.0303
914.385	34.08153
914.774	36.08794
915.162	-14.03379
915.55	85.20441
915.939	-2.0051
916.327	10.02515
916.715	19.0487
917.103	87.21279
917.491	47.11641
917.878	64.15703
918.266	32.08327
918.654	44.11257
919.041	1.00263
919.429	8.01905
919.816	80.20179
920.203	22.05366
920.591	51.1265
920.978	46.11278
921.365	29.07638
921.752	23.05514
922.139	7.01535
922.525	22.05314
922.912	0
923.299	23.05746
923.685	18.04723
924.072	63.14498
924.458	29.07214
924.844	-7.01751
925.231	-10.02356
925.617	-24.06185
926.003	19.04884
926.389	24.06084
926.774	49.12424
927.16	68.16839
927.546	-10.0258
927.931	58.14457
928.317	55.12662
928.702	50.11835
929.088	8.01908
929.473	22.05626
929.858	-4.00977
930.243	-18.04377
930.628	38.09268
931.013	36.08947
931.398	12.02782
931.783	47.12383
932.167	37.0907
932.552	89.22147
932.937	34.08466
933.321	26.06554
933.705	-1.00254
934.09	90.22588
934.474	27.06444
934.858	45.11684
935.242	33.07676
935.626	18.04634
936.009	34.09068
936.393	32.0817
936.777	3.00775
937.16	36.09391
937.544	68.15971
937.927	13.03321
938.311	92.22288
938.694	97.25453
939.077	5.01207
939.46	112.27195
939.843	84.17402
940.226	27.06955
940.609	7.01621
940.991	32.08172
941.374	18.04426
941.757	54.13318
942.139	6.0136
942.522	56.13224
942.904	50.12022
943.286	55.13965
943.668	38.09865
944.05	28.06926
944.432	22.05458
944.814	65.15969
945.196	13.0319
945.578	18.04305
945.959	43.10093
946.341	71.17366
946.722	29.06836
947.104	27.06483
947.485	59.13708
947.866	37.09345
948.247	29.07345
948.628	37.0905
949.009	32.08221
949.39	46.11462
949.771	41.09556
950.152	52.12759
950.532	-15.03734
950.913	43.10388
951.293	22.0597
951.674	3.00732
952.054	15.03741
952.434	23.05738
952.814	55.13076
953.194	58.1516
953.574	43.10607
953.954	-2.0048
954.334	57.1419
954.714	6.01474
955.093	76.18599
955.473	43.10767
955.853	17.04426
956.232	30.08249
956.611	57.13656
956.99	38.09571
957.37	40.10212
957.749	34.08138
958.128	0
958.506	12.03133
958.885	30.076
959.264	3.00742
959.643	59.13404
960.021	5.01249
960.4	49.1111
960.778	51.12562
961.156	30.07548
961.535	47.10963
961.913	41.09612
962.291	33.08492
962.669	43.10906
963.047	28.07174
963.424	71.18053
963.802	33.0814
964.18	54.13655
964.557	56.12885
964.935	35.08318
965.312	7.01836
965.69	43.10782
966.067	43.10486
966.444	49.12078
966.821	69.1773
967.198	46.11169
967.575	60.14727
967.952	106.2471
968.329	38.09268
968.705	36.07745
969.082	28.07209
969.458	-16.03886
969.835	82.19843
970.211	29.0747
970.587	29.07248
970.963	32.08236
971.339	9.02366
971.715	-2.00504
972.091	44.10848
972.467	45.11235
972.843	21.05239
973.219	98.23321
973.594	35.09178
973.97	60.14256
974.345	17.04094
974.721	53.12828
975.096	16.03897
975.471	28.06671
975.846	70.16754
976.221	24.06123
976.596	16.0386
976.971	47.11611
977.346	60.13943
977.72	78.19773
978.095	29.07522
978.469	18.04323
978.844	80.20006
979.218	28.0674
979.593	47.11269
979.967	38.09279
980.341	19.04402
980.715	24.06075
981.089	37.09284
981.463	11.02546
981.837	17.0418
982.21	73.16914
982.584	32.07755
982.957	-6.01513
983.331	41.0971
983.704	11.02722
984.078	9.02235
984.451	62.15454
984.824	7.01718
985.197	-33.0814
985.57	39.098
985.943	86.21101
986.316	86.20991
986.688	55.13252
987.061	24.05654
987.434	49.12771
987.806	73.17629
988.179	45.10629
988.551	100.25142
988.923	28.06923
989.295	102.25248
989.667	-5.01207
990.039	23.05711
990.411	-16.03731
990.783	32.07395
991.155	1.00242
991.527	74.18143
991.898	15.03761
992.27	17.0423
992.641	40.10053
993.012	47.11066
993.384	51.12162
993.755	69.17532
994.126	42.10118
994.497	15.03706
994.868	31.07148
995.239	49.11878
995.61	24.06067
995.98	30.07314
996.351	35.08691
996.722	23.05363
997.092	-47.11337
997.462	16.03762
997.833	33.07849
998.203	48.11642
998.573	13.03259
998.943	29.06828
999.313	25.06019
999.683	34.08184
1000.053	25.05781
1000.423	47.11427
1000.792	30.07801
1001.162	65.15951
1001.531	52.12815
1001.901	58.14436
1002.27	53.11841
1002.639	42.10745
1003.009	42.10003
1003.378	48.12276
1003.747	38.08998
1004.116	5.01207
1004.485	31.07435
1004.853	67.16921
1005.222	58.14604
1005.591	46.1093
1005.959	-12.02738
1006.328	36.08124
1006.696	-21.05132
1007.064	53.13323
1007.433	56.13979
1007.801	51.12516
1008.169	54.13626
1008.537	39.08655
1008.905	-12.02829
1009.273	32.0793
1009.64	6.01443
1010.008	47.11208
1010.375	71.17172
1010.743	76.17459
1011.11	25.05944
1011.478	46.11391
1011.845	43.10125
1012.212	0
1012.579	38.09348
1012.946	50.11899
1013.313	81.19161
1013.68	28.06321
1014.047	19.04554
1014.414	15.03566
1014.78	24.05991
1015.147	31.07523
1015.513	86.20576
1015.88	60.15312
1016.246	42.10381
1016.612	55.12576
1016.978	43.10548
1017.344	38.0941
1017.71	51.12432
1018.076	53.12489
1018.442	48.12349
1018.808	30.07524
1019.174	-3.0076
1019.539	111.25238
1019.905	-2.00476
1020.27	24.0595
1020.636	64.15301
1021.001	37.08878
1021.366	10.02419
1021.731	27.06969
1022.096	-1.00254
1022.461	27.06417
1022.826	51.12116
1023.191	34.08942
1023.556	13.03068
1023.92	47.1156
1024.285	44.10748
1024.649	55.13462
1025.014	36.08937
1025.378	37.09321
1025.742	63.15603
1026.107	16.03643
1026.471	82.19018
1026.835	39.09684
1027.199	15.03633
1027.562	25.05838
1027.926	56.13674
1028.29	36.09129
1028.654	50.115
1029.017	59.14473
1029.381	11.02646
1029.744	31.0793
1030.107	50.11826
1030.471	18.04335
1030.834	1.0023
1031.197	68.16319
1031.56	13.03088
1031.923	2.00521
1032.286	48.11273
1032.648	41.09819
1033.011	16.03696
1033.374	56.13142
1033.736	12.03174
1034.099	7.01719
1034.461	11.02797
1034.823	22.05504
1035.185	74.18539
1035.548	39.09507
1035.91	56.13393
1036.272	15.03437
1036.634	74.18015
1036.995	1.00237
1037.357	6.01471
1037.719	25.06106
1038.08	32.07621
1038.442	48.11392
1038.803	20.04827
1039.165	43.1086
1039.526	28.06791
1039.887	16.03851
1040.248	21.05199
1040.609	48.1186
1040.97	47.11487
1041.331	1.00255
1041.692	-8.01888
1042.053	64.14525
1042.413	85.19663
1042.774	65.15756
1043.134	71.16828
1043.495	0
1043.855	31.07543
1044.215	11.02748
1044.576	43.1029
1044.936	42.0964
1045.296	60.14939
1045.656	-4.00991
1046.016	63.15162
1046.375	9.02199
1046.735	20.04559
1047.095	20.04706
1047.454	5.01069
1047.814	34.08194
1048.173	61.14536
1048.533	-3.00694
1048.892	-17.0413
1049.251	71.17745
1049.61	13.03221
1049.969	58.13643
1050.328	1.00219
1050.687	-12.02952
1051.046	44.1072
1051.405	59.14645
1051.763	-14.03259
1052.122	-9.02267
1052.48	18.04438
1052.839	23.05437
1053.197	32.07554
1053.555	51.11619
1053.914	69.16807
1054.272	49.11842
1054.63	1.00247
1054.988	32.07624
1055.345	25.0541
1055.703	40.0964
1056.061	31.07996
1056.419	38.09851
1056.776	39.09471
1057.134	19.04423
1057.491	12.03024
1057.848	44.10959
1058.206	14.03314
1058.563	39.08612
1058.92	34.07857
1059.277	38.09389
1059.634	63.14776
1059.991	56.13393
1060.348	15.03412
1060.704	13.03118
1061.061	94.21637
1061.418	-10.02451
1061.774	54.13313
1062.131	6.01597
1062.487	8.01885
1062.843	64.15906
1063.199	31.07731
1063.555	-20.04695
1063.911	53.13371
1064.267	48.10011
1064.623	27.06582
1064.979	65.15346
1065.335	54.1289
1065.691	68.16232
1066.046	15.03321
1066.402	68.15383
1066.757	70.17593
1067.112	29.0714
1067.468	-10.02387
1067.823	61.14625
1068.178	48.11607
1068.533	47.11393
1068.888	58.13829
1069.243	29.0718
1069.598	47.11419
1069.952	-37.08474
1070.307	-12.03002
1070.662	48.11392
1071.016	-21.04771
1071.371	23.05257
1071.725	49.11717
1072.079	43.10349
1072.434	4.0098
1072.788	29.06929
1073.142	63.15449
1073.496	-4.00958
1073.85	49.11358
1074.203	29.07059
1074.557	29.07733
1074.911	58.13813
1075.265	23.05371
1075.618	49.11958
1075.971	21.0502
1076.325	37.09418
1076.678	10.02304
1077.031	48.10859
1077.385	23.05092
1077.738	6.01366
1078.091	-30.06927
1078.444	32.07451
1078.796	5.01236
1079.149	35.08722
1079.502	4.00953
1079.855	-3.00706
1080.207	55.13527
1080.56	39.10091
1080.912	53.12886
1081.264	36.08685
1081.617	19.04654
1081.969	2.00508
1082.321	11.02703
1082.673	-53.12338
1083.025	8.01912
1083.377	55.11784
1083.728	43.10038
1084.08	24.06015
1084.432	24.05812
1084.783	34.07985
1085.135	13.03277
1085.486	15.03453
1085.838	13.03221
1086.189	62.15003
1086.54	35.08375
1086.891	30.07608
1087.242	7.01717
1087.593	65.15768
1087.944	37.08389
1088.295	67.15166
1088.646	-9.02204
1088.996	-11.02678
1089.347	32.07872
1089.698	13.03092
1090.048	50.12975
1090.398	-4.00937
1090.749	59.14081
1091.099	26.06561
1091.449	16.04007
1091.799	33.08281
1092.149	-27.06672
1092.499	45.10978
1092.849	14.03578
1093.199	68.16974
1093.548	-19.04621
1093.898	51.12747
1094.248	37.09521
1094.597	-30.07758
1094.947	34.09086
1095.296	34.08413
1095.645	18.04703
1095.994	26.06268
1096.343	35.08824
1096.692	-7.01855
1097.041	11.02994
1097.39	44.11039
1097.739	63.16324
1098.088	47.12587
1098.437	17.04487
1098.785	66.17731
1099.134	34.09044
1099.482	60.16461
1099.83	48.12606
1100.179	4.01051
1100.527	24.06399
1100.875	20.05309
1101.223	39.10365
1101.571	16.04441
1101.919	-23.06078
1102.267	41.11548
1102.615	17.05457
1102.962	12.03863
1103.31	2.00643
1103.658	16.0515
