Data from N2 R7 sample 11_Subt2__4__15-19-50-092.txt Node

Date: Fri Aug 29 15:19:50 PDT 2025
User: uwsun
Spectrometer: HDX01956
Trigger mode: 0
Integration Time (sec): 5.000000E-1
Scans to average: 1
Nonlinearity correction enabled: true
Boxcar width: 0
Storing dark spectrum: false
XAxis mode: Wavelengths
Number of Pixels in Spectrum: 2068
>>>>>Begin Spectral Data<<<<<
194.03	311.83055
194.578	319.96816
195.127	327.9756
195.676	313.93874
196.225	360.89683
196.773	415.05887
197.321	513.25625
197.87	743.58284
198.418	685.45538
198.966	721.53062
199.513	664.34912
200.061	640.33279
200.609	745.61866
201.156	648.1325
201.704	688.40812
202.251	652.42934
202.798	724.52865
203.345	762.51405
203.892	705.44133
204.438	753.43742
204.985	723.35672
205.532	759.61206
206.078	790.53769
206.624	740.45115
207.17	818.48149
207.716	708.37981
208.262	721.10551
208.808	699.3787
209.354	744.44115
209.899	791.60569
210.445	679.36553
210.99	747.42733
211.535	812.49675
212.08	813.47802
212.625	843.66238
213.17	801.61936
213.715	754.30024
214.259	778.43109
214.804	771.52662
215.348	799.43121
215.892	797.5098
216.436	818.48676
216.98	792.37175
217.524	786.46466
218.068	809.62361
218.612	747.52247
219.155	716.35314
219.698	663.28922
220.242	703.43594
220.785	688.30393
221.328	648.33572
221.871	725.50568
222.414	736.49154
222.956	624.23602
223.499	656.19962
224.041	698.32357
224.583	716.24112
225.126	674.19911
225.668	717.41028
226.21	657.36248
226.751	574.03087
227.293	680.2624
227.835	602.22075
228.376	716.33663
228.918	662.38539
229.459	668.36158
230	710.36536
230.541	689.28645
231.082	656.30376
231.622	709.31733
232.163	600.20449
232.704	683.38116
233.244	681.38025
233.784	707.41474
234.324	636.122
234.864	656.20567
235.404	672.30581
235.944	677.30836
236.484	719.46069
237.023	697.32713
237.563	706.30556
238.102	666.27999
238.641	691.42862
239.18	648.22679
239.719	718.4623
240.258	666.20936
240.797	665.29065
241.335	756.48327
241.874	700.04316
242.412	732.40571
242.95	681.30856
243.488	698.2753
244.026	652.21333
244.564	770.22106
245.102	674.21027
245.64	782.49684
246.177	695.24262
246.715	730.40591
247.252	684.26417
247.789	700.02866
248.326	688.32235
248.863	693.20084
249.4	771.37244
249.936	744.18172
250.473	719.32932
251.009	688.25319
251.546	705.22492
252.082	765.30139
252.618	754.30646
253.154	676.30424
253.69	746.31516
254.226	681.30416
254.761	750.31534
255.297	655.13965
255.832	699.3174
256.367	698.31069
256.903	743.26727
257.438	795.45621
257.972	755.30716
258.507	716.28453
259.042	765.28039
259.576	772.26359
260.111	776.39884
260.645	786.30523
261.179	674.25062
261.713	782.33504
262.247	789.40891
262.781	752.20199
263.315	749.44221
263.849	758.4942
264.382	752.35065
264.915	760.38043
265.449	711.35843
265.982	828.43806
266.515	805.52053
267.048	793.26522
267.58	720.22893
268.113	750.23843
268.646	732.42328
269.178	718.2413
269.71	822.35469
270.243	737.31111
270.775	771.54014
271.307	785.47256
271.838	873.58092
272.37	809.5378
272.902	808.40175
273.433	769.28008
273.965	795.49575
274.496	761.48713
275.027	745.44825
275.558	772.44991
276.089	708.35889
276.62	805.59849
277.15	825.56978
277.681	821.33919
278.211	767.46702
278.741	696.17957
279.272	765.33083
279.802	821.57805
280.332	787.41401
280.861	797.46942
281.391	769.323
281.921	819.5078
282.45	832.59501
282.98	803.62711
283.509	816.37309
284.038	855.44555
284.567	795.416
285.096	865.56879
285.625	796.35609
286.153	819.43854
286.682	835.41698
287.21	774.41873
287.739	835.47437
288.267	832.5092
288.795	888.77457
289.323	822.4246
289.851	898.54105
290.378	889.44725
290.906	796.44449
291.433	907.67265
291.961	860.41594
292.488	900.65682
293.015	884.51211
293.542	915.70006
294.069	878.58717
294.596	906.65289
295.122	944.6185
295.649	914.43455
296.175	927.63469
296.702	865.54892
297.228	965.6895
297.754	943.49008
298.28	892.44362
298.806	945.61979
299.332	968.47416
299.857	962.5102
300.383	960.76133
300.908	876.52727
301.433	887.55097
301.958	990.59835
302.483	961.70009
303.008	964.70056
303.533	992.85846
304.058	954.58778
304.582	960.57418
305.107	945.76634
305.631	1024.59594
306.155	962.54249
306.679	1019.6107
307.203	969.54188
307.727	1073.71105
308.251	1021.74208
308.775	941.53307
309.298	1013.6361
309.822	1091.86792
310.345	1084.70266
310.868	1020.64328
311.391	1118.83337
311.914	1030.75138
312.437	1081.61556
312.96	1067.64835
313.482	1059.65028
314.005	1092.82135
314.527	1148.99468
315.049	1112.868
315.571	1090.51074
316.093	1152.83506
316.615	1166.77224
317.137	1179.54606
317.659	1243.88169
318.18	1188.80376
318.702	1227.72571
319.223	1208.42508
319.744	1223.61834
320.265	1236.80402
320.786	1210.81999
321.307	1255.8876
321.828	1314.6877
322.348	1272.74166
322.869	1263.71749
323.389	1052.90418
323.909	1344.71968
324.43	1400.91521
324.95	1391.7135
325.47	1347.85796
325.989	1372.7536
326.509	1399.56843
327.029	1421.63359
327.548	1389.59732
328.067	1418.79223
328.587	1432.91917
329.106	1489.66763
329.625	1562.21222
330.144	1535.70598
330.662	1507.68311
331.181	1583.75258
331.7	1598.75001
332.218	1574.50262
332.736	1643.74463
333.255	1678.71635
333.773	1579.71868
334.291	1701.96327
334.808	1653.53535
335.326	1737.59108
335.844	1760.62664
336.361	1695.86995
336.879	1756.60994
337.396	1783.71357
337.913	1896.56682
338.43	1846.47648
338.947	1893.65087
339.464	1885.28854
339.981	1874.5818
340.497	1949.75252
341.014	1962.66677
341.53	1967.37772
342.046	1895.63755
342.562	2056.73553
343.078	2077.48538
343.594	2051.52659
344.11	2129.49194
344.626	2084.67382
345.141	2154.29307
345.657	2199.29529
346.172	2203.45935
346.687	2097.27107
347.202	2145.16758
347.717	2282.35174
348.232	2255.51804
348.747	2282.17439
349.261	2241.93202
349.776	2307.20828
350.29	2282.31686
350.805	2512.35295
351.319	2410.10739
351.833	2302.97315
352.347	2466.06621
352.861	2479.0003
353.374	2555.97278
353.888	2402.15456
354.401	2488.91428
354.915	2510.74267
355.428	2553.11432
355.941	2617.81673
356.454	2736.70123
356.967	2538.9183
357.48	2648.76578
357.993	2673.98309
358.505	2627.91928
359.018	2720.8808
359.53	2748.75696
360.042	2826.46021
360.554	2798.76584
361.066	2813.72798
361.578	2808.34751
362.09	2786.64662
362.602	2801.32909
363.113	2898.43068
363.625	2938.27705
364.136	3038.15336
364.647	2883.268
365.158	3127.21708
365.669	3060.34448
366.18	3056.27053
366.691	3104.00798
367.201	3083.2477
367.712	3113.01675
368.222	3117.00683
368.733	3215.72781
369.243	3266.71734
369.753	3305.836
370.263	3457.81838
370.773	3331.96497
371.282	3390.7297
371.792	3434.44554
372.301	3649.49032
372.811	3667.71606
373.32	3588.07721
373.829	3745.17528
374.338	3936.92155
374.847	3977.90153
375.356	4149.84212
375.865	4308.60085
376.373	4460.61868
376.882	4642.72809
377.39	4682.6449
377.898	4715.6158
378.407	5022.78049
378.915	5312.09767
379.423	5453.19167
379.93	5711.73071
380.438	5793.98247
380.946	6098.95081
381.453	6295.74024
381.96	6509.05694
382.468	6721.0679
382.975	7488.32941
383.482	7748.26235
383.989	7757.43777
384.495	8028.66379
385.002	8472.66682
385.509	8789.17815
386.015	9475.0842
386.521	9961.90364
387.028	10261.45509
387.534	10630.00526
388.04	11225.02622
388.546	11094.75181
389.051	11533.62437
389.557	12781.58093
390.063	14099.01579
390.568	14373.19653
391.073	14664.94128
391.578	15217.00703
392.084	15477.18248
392.589	15623.59474
393.093	16610.87643
393.598	18532.87209
394.103	20384.38224
394.607	22549.86665
395.112	24151.50017
395.616	25323.05935
396.12	27249.4368
396.624	29926.85767
397.128	32603.34806
397.632	36507.49059
398.136	37999.37021
398.639	35731.2899
399.143	32461.61596
399.646	28888.45294
400.15	25083.82847
400.653	20124.16724
401.156	13866.23708
401.659	5169.95759
402.162	1054.15589
402.664	0
403.167	0
403.67	0
404.172	0
404.674	0
405.176	0
405.678	0
406.18	0
406.682	0
407.184	0
407.686	0
408.187	0
408.688	0
409.19	0
409.691	0
410.192	0
410.693	0
411.194	435.30976
411.694	4082.94878
412.195	8864.71461
412.696	12089.80453
413.196	12760.96929
413.696	12863.67595
414.196	13703.56671
414.696	17261.84252
415.196	21764.24417
415.696	29583.19008
416.196	36460.31858
416.695	40057.39798
417.195	41392.74103
417.694	42311.08144
418.194	42203.09244
418.693	39211.70658
419.192	37896.59533
419.691	37332.88121
420.19	36673.64381
420.688	35843.45308
421.187	34536.67484
421.685	32599.48381
422.184	29980.41692
422.682	26143.10502
423.18	21894.89577
423.678	19144.33954
424.176	17676.35086
424.674	16626.69182
425.172	16178.52257
425.669	15365.09845
426.167	14071.86251
426.664	12866.93948
427.161	11812.00381
427.659	10895.27206
428.156	10035.36084
428.652	9612.99182
429.149	9237.41742
429.646	8901.62285
430.143	8436.64924
430.639	7944.14101
431.135	7542.88312
431.632	6978.7475
432.128	6628.86677
432.624	5975.02263
433.12	5647.9166
433.616	5721.95446
434.111	5333.19714
434.607	5143.88803
435.103	5122.91334
435.598	5124.88111
436.093	4862.652
436.588	4621.6194
437.083	4385.66859
437.578	4191.78137
438.073	3795.06353
438.568	3867.18245
439.062	3676.99026
439.557	3574.37127
440.051	3383.37929
440.546	3296.46382
441.04	3131.75717
441.534	3132.01381
442.028	3221.85971
442.522	3009.9821
443.015	2962.78502
443.509	2922.20048
444.002	2865.23843
444.496	2801.96705
444.989	2657.41228
445.482	2716.4496
445.975	2708.13069
446.468	2670.05445
446.961	2562.1266
447.454	2636.28375
447.947	2496.46309
448.439	2463.64649
448.931	2457.37649
449.424	2421.84348
449.916	2390.72626
450.408	2287.51397
450.9	2263.76289
451.392	2218.94095
451.884	2174.71439
452.375	2110.92876
452.867	2239.71744
453.358	2082.70833
453.849	2059.58107
454.341	1992.76734
454.832	2050.64235
455.323	1998.01377
455.814	2012.887
456.304	1912.92516
456.795	1886.92174
457.285	1967.90053
457.776	1900.00853
458.266	1824.06927
458.756	1797.15593
459.247	1692.09446
459.737	1681.10915
460.226	1709.98178
460.716	1664.16653
461.206	1643.21005
461.695	1631.36532
462.185	1542.18451
462.674	1603.15915
463.163	1593.07185
463.653	1534.9504
464.142	1501.27519
464.63	1457.34166
465.119	1446.18343
465.608	1428.18645
466.096	1346.07857
466.585	1395.24769
467.073	1316.31452
467.561	1379.36225
468.05	1349.28168
468.538	1319.41669
469.026	1272.33471
469.513	1231.04654
470.001	1248.20997
470.489	1205.28612
470.976	1189.25169
471.463	1158.41953
471.951	1188.4743
472.438	1059.23048
472.925	1003.18122
473.412	1062.37498
473.899	1046.2274
474.385	984.31661
474.872	994.21753
475.359	1023.34614
475.845	924.98709
476.331	930.09491
476.817	905.2742
477.303	882.16682
477.789	828.1834
478.275	751.1442
478.761	793.16339
479.247	851.11768
479.732	744.15539
480.218	801.32034
480.703	794.23691
481.188	718.93967
481.673	761.07872
482.158	643.84379
482.643	716.21094
483.128	709.02187
483.612	689.04693
484.097	646.07039
484.581	629.98355
485.066	568.95004
485.55	562.82546
486.034	581.83849
486.518	559.89994
487.002	531.91028
487.486	507.87984
487.969	524.90719
488.453	604.08098
488.936	458.73869
489.42	523.81714
489.903	480.89564
490.386	527.56961
490.869	531.82338
491.352	548.98461
491.835	481.71395
492.318	462.7612
492.8	449.67331
493.283	427.82183
493.765	432.80167
494.247	453.79944
494.73	353.59433
495.212	432.80127
495.694	346.62062
496.175	289.53213
496.657	393.71892
497.139	369.48052
497.62	250.46783
498.102	321.62703
498.583	400.78302
499.064	279.48743
499.545	349.62037
500.026	281.49714
500.507	322.58977
500.988	334.66094
501.469	278.55914
501.949	251.50612
502.43	208.40041
502.91	246.40342
503.39	236.48649
503.87	330.61297
504.35	290.55424
504.83	256.44948
505.31	256.50374
505.79	192.3778
506.269	215.41399
506.749	213.39691
507.228	205.39473
507.707	228.41126
508.187	290.56526
508.666	161.32987
509.145	172.33334
509.623	186.36254
510.102	198.39971
510.581	220.4431
511.059	172.36078
511.538	222.48169
512.016	225.44618
512.494	210.42647
512.972	184.36803
513.45	143.27641
513.928	212.42758
514.406	122.24708
514.884	213.45911
515.361	187.37568
515.839	165.31542
516.316	173.35077
516.793	166.35834
517.27	151.31288
517.747	163.35556
518.224	118.23405
518.701	159.29938
519.178	104.22085
519.654	149.30376
520.131	112.23856
520.607	163.34636
521.083	128.24985
521.56	133.26905
522.036	175.32529
522.512	163.34545
522.987	89.18194
523.463	116.23751
523.939	157.33085
524.414	140.27834
524.89	132.26978
525.365	104.20339
525.84	68.13992
526.315	140.28964
526.79	109.21251
527.265	110.21696
527.74	103.21801
528.215	140.28418
528.689	93.17847
529.164	120.22533
529.638	126.28236
530.112	47.09721
530.587	81.14959
531.061	89.18681
531.534	102.21641
532.008	58.12247
532.482	105.21036
532.956	53.11889
533.429	102.21613
533.903	155.29572
534.376	93.17942
534.849	76.1549
535.322	112.23067
535.795	102.21858
536.268	110.23073
536.741	95.20055
537.213	94.19072
537.686	45.09691
538.158	17.03373
538.631	116.24762
539.103	54.10646
539.575	96.17529
540.047	121.23153
540.519	55.11687
540.991	58.12633
541.463	84.17947
541.934	99.19852
542.406	88.1841
542.877	88.17438
543.348	116.2459
543.82	92.19937
544.291	163.33049
544.762	126.25974
545.233	139.30295
545.703	113.21695
546.174	195.38832
546.645	110.22747
547.115	142.29588
547.585	188.36976
548.056	120.24915
548.526	146.29365
548.996	216.44085
549.466	242.50065
549.935	223.44159
550.405	251.45472
550.875	255.50212
551.344	253.5071
551.814	264.50333
552.283	291.52075
552.752	244.46926
553.221	234.41776
553.69	310.55862
554.159	277.55829
554.628	300.5417
555.096	338.69737
555.565	309.55981
556.033	294.5736
556.502	236.48189
556.97	279.51474
557.438	215.43453
557.906	217.44179
558.374	189.37409
558.842	203.41818
559.31	178.34596
559.777	134.28343
560.245	148.30632
560.712	185.37407
561.18	178.34167
561.647	149.29243
562.114	170.33814
562.581	234.50058
563.048	247.49256
563.514	184.39464
563.981	267.52625
564.448	216.42142
564.914	232.47028
565.381	339.65528
565.847	333.66436
566.313	332.65821
566.779	340.65012
567.245	334.66496
567.711	387.77963
568.176	354.6687
568.642	385.81306
569.108	443.90476
569.573	480.93341
570.038	572.95568
570.504	500.90756
570.969	562.14106
571.434	590.0179
571.899	566.08068
572.363	657.16789
572.828	705.25017
573.293	780.35449
573.757	806.39163
574.222	833.37173
574.686	780.30806
575.15	831.47798
575.614	869.46849
576.078	947.60938
576.542	925.5305
577.006	975.56828
577.469	1005.81224
577.933	961.53172
578.396	1012.72714
578.86	1005.69909
579.323	989.69454
579.786	1007.52522
580.249	999.61521
580.712	1021.80186
581.175	994.78096
581.637	1016.67746
582.1	997.56043
582.563	992.51626
583.025	901.61933
583.487	955.35523
583.95	892.38695
584.412	926.40072
584.874	890.61055
585.336	893.56967
585.797	837.34099
586.259	884.55908
586.721	805.43089
587.182	924.60356
587.643	810.39187
588.105	787.42559
588.566	835.30594
589.027	695.30665
589.488	698.24062
589.949	745.40289
590.41	725.05869
590.87	668.20316
591.331	646.09877
591.791	700.25641
592.252	616.11441
592.712	664.26388
593.172	608.08871
593.632	661.1398
594.092	620.09713
594.552	616.04875
595.011	502.94088
595.471	570.02524
595.931	541.97677
596.39	491.96776
596.849	512.97621
597.308	548.96289
597.768	481.01254
598.227	548.07561
598.685	512.96816
599.144	485.93572
599.603	505.9846
600.062	494.84296
600.52	477.87307
600.978	477.93663
601.437	516.96808
601.895	491.8498
602.353	486.88797
602.811	455.83573
603.269	497.98005
603.727	511.00214
604.184	491.90415
604.642	477.96757
605.099	494.94188
605.557	543.07908
606.014	503.87845
606.471	466.96058
606.928	559.95113
607.385	563.09653
607.842	714.26125
608.299	702.27552
608.755	702.32015
609.212	659.14058
609.668	597.04015
610.125	679.2928
610.581	773.42722
611.037	663.20482
611.493	625.18923
611.949	590.14621
612.405	544.87651
612.861	664.25163
613.316	563.09549
613.772	561.05014
614.227	598.1408
614.683	680.15114
615.138	615.15938
615.593	573.08481
616.048	655.20292
616.503	640.27782
616.958	642.30258
617.412	602.16012
617.867	553.99946
618.321	593.99705
618.776	604.0882
619.23	590.1364
619.684	611.12928
620.138	613.17088
620.592	553.12046
621.046	534.05252
621.5	509.04432
621.954	601.11963
622.407	560.04077
622.861	489.0118
623.314	549.05044
623.768	484.9636
624.221	455.76614
624.674	455.90397
625.127	426.86747
625.58	504.98755
626.033	495.94127
626.485	434.90467
626.938	417.87175
627.39	432.87969
627.843	456.92011
628.295	413.84196
628.747	408.85766
629.199	351.71492
629.651	321.65798
630.103	359.73687
630.555	358.68023
631.006	360.7601
631.458	282.60926
631.909	391.80834
632.361	269.57881
632.812	305.64412
633.263	362.70628
633.714	325.63695
634.165	351.77599
634.616	263.58098
635.067	332.67699
635.518	299.65994
635.968	315.58379
636.419	319.63998
636.869	312.68676
637.319	297.63658
637.769	297.61595
638.219	332.73384
638.669	287.63743
639.119	230.53023
639.569	298.66942
640.019	340.72763
640.468	272.57053
640.918	326.7305
641.367	255.53995
641.816	323.67226
642.265	295.63912
642.714	270.58858
643.163	316.67832
643.612	236.53581
644.061	269.53593
644.51	297.63411
644.958	271.56178
645.406	301.67491
645.855	288.66498
646.303	310.68064
646.751	296.63238
647.199	294.62947
647.647	298.64465
648.095	284.6141
648.543	327.62844
648.99	280.63183
649.438	312.69079
649.885	325.75502
650.333	286.52515
650.78	324.73408
651.227	291.66883
651.674	287.61887
652.121	313.71737
652.568	245.56785
653.015	377.88926
653.461	335.74712
653.908	316.69439
654.354	291.65946
654.801	284.63169
655.247	329.68078
655.693	336.82458
656.139	298.67738
656.585	296.67392
657.031	222.49748
657.477	301.61587
657.922	283.61992
658.368	324.75641
658.813	346.75935
659.259	276.63195
659.704	307.67845
660.149	310.68522
660.594	312.70288
661.039	302.65442
661.484	339.76666
661.929	327.72505
662.373	302.72467
662.818	360.8411
663.262	305.69876
663.707	324.77952
664.151	310.72174
664.595	304.69884
665.039	385.90072
665.483	323.78197
665.927	357.79518
666.371	292.64517
666.814	307.70108
667.258	319.71732
667.701	402.81451
668.145	384.90137
668.588	325.76038
669.031	346.77021
669.474	346.79124
669.917	382.79841
670.36	360.84604
670.803	405.91924
671.245	464.90487
671.688	450.02155
672.13	373.78944
672.573	439.0417
673.015	407.9189
673.457	418.85235
673.899	416.94706
674.341	445.00057
674.783	370.83998
675.225	409.94598
675.666	374.84975
676.108	368.75858
676.549	427.94949
676.991	463.94861
677.432	413.7708
677.873	476.02067
678.314	456.01383
678.755	497.1168
679.196	462.98441
679.637	508.14646
680.078	456.99733
680.518	508.09316
680.959	432.97115
681.399	449.03964
681.839	482.08857
682.28	468.07364
682.72	453.96754
683.16	477.10328
683.6	479.01451
684.039	444.86463
684.479	452.03521
684.919	413.89472
685.358	492.15938
685.798	484.17966
686.237	537.194
686.676	525.1223
687.115	484.05526
687.554	495.08817
687.993	507.03412
688.432	520.09311
688.871	540.12077
689.309	531.16549
689.748	541.0336
690.186	569.24168
690.625	493.06969
691.063	542.19241
691.501	554.25602
691.939	522.2006
692.377	571.27127
692.815	568.23871
693.253	651.40647
693.69	603.1952
694.128	553.22606
694.565	585.26964
695.003	635.45645
695.44	560.20215
695.877	596.2603
696.314	618.195
696.751	601.24231
697.188	652.33916
697.625	622.28952
698.061	597.29957
698.498	671.45405
698.934	647.40079
699.371	578.23764
699.807	642.36481
700.243	618.34392
700.679	660.33489
701.115	681.43117
701.551	645.36495
701.987	668.33937
702.422	612.31393
702.858	698.47692
703.294	673.3578
703.729	644.41949
704.164	652.40893
704.599	699.37547
705.035	652.30182
705.47	670.45712
705.904	678.40578
706.339	695.43754
706.774	673.40564
707.209	686.40402
707.643	712.51576
708.078	720.5527
708.512	634.43062
708.946	731.54782
709.38	661.4025
709.814	743.48962
710.248	737.58634
710.682	769.59858
711.116	656.39944
711.549	721.65713
711.983	743.5054
712.416	703.47551
712.85	699.554
713.283	694.45948
713.716	735.63746
714.149	751.57429
714.582	725.43006
715.015	768.69303
715.448	711.59636
715.881	744.42262
716.313	763.56287
716.746	739.52866
717.178	758.59841
717.61	727.63764
718.043	743.63686
718.475	713.53267
718.907	796.76648
719.339	702.40375
719.77	708.48438
720.202	700.57967
720.634	714.53844
721.065	737.53743
721.497	669.4688
721.928	694.51703
722.359	684.46744
722.79	692.47186
723.221	688.54942
723.652	725.66633
724.083	722.4298
724.514	690.40584
724.945	706.46846
725.375	680.40051
725.806	725.60651
726.236	708.61914
726.666	693.4577
727.096	644.42304
727.526	661.50947
727.956	669.35157
728.386	729.58857
728.816	639.4592
729.246	613.34686
729.675	672.47879
730.105	673.48316
730.534	651.36384
730.964	714.60735
731.393	702.55519
731.822	664.52575
732.251	643.47305
732.68	699.46195
733.109	643.42644
733.537	655.41753
733.966	632.41682
734.395	663.36515
734.823	706.40524
735.251	637.38029
735.68	682.52964
736.108	622.42632
736.536	641.35765
736.964	604.26609
737.392	654.47219
737.82	639.37933
738.247	628.35585
738.675	647.38887
739.102	630.42101
739.53	666.52243
739.957	594.39301
740.384	669.47987
740.811	646.47727
741.238	566.26195
741.665	560.18303
742.092	597.29352
742.519	595.33734
742.945	622.34689
743.372	596.34096
743.798	604.41318
744.225	563.22131
744.651	566.29986
745.077	581.3213
745.503	636.39774
745.929	583.27174
746.355	620.3973
746.781	559.26865
747.207	506.09351
747.632	557.24058
748.058	563.286
748.483	519.09843
748.908	536.22498
749.334	579.29602
749.759	543.17186
750.184	532.16254
750.609	573.28521
751.033	602.28855
751.458	577.17343
751.883	557.26462
752.307	507.10012
752.732	521.19901
753.156	537.21866
753.58	522.14114
754.005	522.22398
754.429	502.08856
754.853	500.14626
755.277	506.10471
755.7	493.13403
756.124	516.18111
756.548	480.05448
756.971	534.19836
757.394	511.21888
757.818	489.16945
758.241	508.1925
758.664	488.14415
759.087	455.94444
759.51	483.11674
759.933	435.9813
760.356	517.22521
760.778	493.12273
761.201	470.06401
761.623	505.13249
762.046	460.01724
762.468	483.07686
762.89	502.14671
763.312	510.14957
763.734	456.02305
764.156	455.04856
764.578	454.9745
765	448.02111
765.421	416.99547
765.843	469.14793
766.264	462.03993
766.686	462.08267
767.107	372.85615
767.528	418.99339
767.949	442.05265
768.37	419.96794
768.791	446.00795
769.212	396.94004
769.632	358.79262
770.053	387.96738
770.473	371.85709
770.894	411.97131
771.314	439.98264
771.734	332.73966
772.154	383.93345
772.575	380.83395
772.994	316.68768
773.414	401.90905
773.834	338.80795
774.254	385.89225
774.673	336.78257
775.093	308.73232
775.512	286.67976
775.931	328.79661
776.351	323.76842
776.77	357.83
777.189	316.72061
777.607	307.75385
778.026	319.76182
778.445	249.60489
778.864	334.81998
779.282	292.67663
779.701	268.65409
780.119	280.68312
780.537	254.61484
780.955	280.68846
781.373	287.68436
781.791	273.59171
782.209	262.58469
782.627	246.62996
783.045	199.4486
783.462	243.60355
783.88	261.65415
784.297	247.60341
784.715	184.46393
785.132	206.48794
785.549	209.51116
785.966	243.59386
786.383	219.52564
786.8	224.50712
787.217	223.51522
787.633	159.39133
788.05	253.5829
788.466	266.60661
788.883	186.46545
789.299	207.48737
789.715	176.42075
790.131	179.43747
790.547	203.49611
790.963	183.44608
791.379	190.47098
791.795	130.29456
792.21	198.45319
792.626	160.37445
793.041	138.33721
793.457	173.4206
793.872	152.35294
794.287	111.26349
794.702	158.38406
795.117	146.35835
795.532	104.25941
795.947	160.37987
796.362	160.37694
796.776	141.3272
797.191	173.41634
797.605	52.12279
798.02	85.20674
798.434	158.34707
798.848	131.31957
799.262	104.25677
799.676	118.28608
800.09	118.28834
800.504	132.31738
800.918	110.2536
801.331	116.30206
801.745	114.26041
802.158	87.21713
802.572	149.35696
802.985	117.28104
803.398	109.25864
803.811	121.30874
804.224	111.27471
804.637	85.20232
805.05	85.19702
805.462	124.30221
805.875	70.18147
806.288	70.16907
806.7	117.29189
807.112	122.2807
807.525	80.19737
807.937	67.16588
808.349	92.22981
808.761	77.18945
809.173	96.23187
809.584	111.2727
809.996	27.0667
810.408	7.01826
810.819	92.21582
811.231	110.28221
811.642	160.37518
812.053	248.57013
812.464	256.58757
812.875	254.62823
813.286	154.39065
813.697	150.34609
814.108	107.25995
814.519	107.23727
814.929	89.22637
815.34	19.04658
815.75	102.25774
816.16	50.12517
816.571	81.21002
816.981	83.19581
817.391	59.14291
817.801	43.10736
818.211	89.21167
818.62	47.11371
819.03	88.21511
819.44	92.2394
819.849	54.1365
820.259	104.26467
820.668	15.03727
821.077	29.07256
821.486	97.23265
821.895	77.19015
822.304	49.13023
822.713	44.10463
823.122	48.12029
823.531	93.21965
823.939	75.18262
824.348	79.19186
824.756	85.21237
825.164	107.26752
825.573	36.09087
825.981	67.1663
826.389	84.21051
826.797	55.13811
827.205	21.04869
827.612	65.16057
828.02	20.04743
828.428	45.11507
828.835	43.1136
829.243	82.19506
829.65	68.16906
830.057	46.11215
830.464	48.11742
830.871	54.12974
831.278	55.13332
831.685	54.12101
832.092	73.17861
832.499	3.00666
832.905	64.16212
833.312	80.18223
833.718	53.13242
834.124	24.05538
834.531	75.18881
834.937	67.17192
835.343	67.16174
835.749	101.23457
836.155	32.08424
836.561	41.10132
836.966	41.10076
837.372	49.12507
837.777	47.11747
838.183	63.14034
838.588	9.02258
838.993	43.10517
839.399	13.03209
839.804	-13.03214
840.209	69.17544
840.613	44.0984
841.018	57.14452
841.423	54.13873
841.828	68.17183
842.232	81.2001
842.637	19.04524
843.041	16.04134
843.445	63.15803
843.849	38.09451
844.253	65.15453
844.657	29.07345
845.061	0
845.465	53.12828
845.869	89.20588
846.272	-8.01974
846.676	59.14286
847.079	70.1777
847.483	83.20632
847.886	75.18214
848.289	28.0751
848.692	26.06626
849.095	61.14659
849.498	50.12702
849.901	13.03013
850.304	47.11269
850.707	57.14544
851.109	114.2858
851.512	22.05446
851.914	9.02288
852.316	101.25362
852.718	5.01303
853.121	9.02227
853.523	18.04244
853.925	40.10466
854.326	18.04534
854.728	35.09037
855.13	-2.00521
855.531	33.07927
855.933	46.11077
856.334	30.07518
856.736	37.08331
857.137	56.13034
857.538	17.04306
857.939	20.04976
858.34	114.27503
858.741	38.09966
859.142	-4.00973
859.542	42.11109
859.943	38.09479
860.343	-10.02507
860.744	48.11738
861.144	12.02953
861.544	-9.02191
861.945	64.16293
862.345	72.17568
862.745	28.06997
863.145	51.12214
863.544	55.13905
863.944	32.07601
864.344	42.10465
864.743	44.10947
865.143	48.12349
865.542	36.08389
865.941	49.12149
866.34	86.20497
866.74	38.10229
867.139	39.09372
867.537	32.0819
867.936	22.05332
868.335	34.08686
868.734	44.11269
869.132	44.10253
869.531	66.15941
869.929	30.06878
870.327	40.09621
870.726	77.19133
871.124	28.06584
871.522	59.15023
871.92	28.06944
872.318	51.12483
872.715	85.20936
873.113	58.14131
873.511	34.08506
873.908	4.01019
874.306	35.08738
874.703	56.14014
875.1	69.17612
875.497	37.08905
875.894	14.03457
876.291	30.07399
876.688	28.07256
877.085	50.12013
877.482	41.10292
877.878	22.0533
878.275	89.22477
878.671	63.14016
879.068	44.10648
879.464	24.05836
879.86	15.03576
880.256	37.09164
880.652	28.07156
881.048	74.18277
881.444	74.17556
881.84	68.17244
882.236	39.09836
882.631	52.12773
883.027	65.15715
883.422	47.12035
883.817	-25.06372
884.213	65.1665
884.608	-15.03726
885.003	60.14454
885.398	26.06542
885.793	46.11566
886.188	18.04505
886.582	102.25948
886.977	27.06444
887.371	34.08631
887.766	-27.06814
888.16	58.14467
888.554	51.12622
888.949	40.10071
889.343	46.11257
889.737	17.04557
890.131	7.01771
890.525	32.08216
890.918	47.11845
891.312	112.26509
891.706	77.20123
892.099	50.12733
892.492	69.14847
892.886	20.04925
893.279	56.14261
893.672	70.1777
894.065	47.11785
894.458	61.15323
894.851	66.1614
895.244	45.11511
895.637	38.09182
896.029	9.02219
896.422	43.10529
896.814	28.06994
897.206	5.01202
897.599	104.25489
897.991	14.03411
898.383	70.16492
898.775	-19.04353
899.167	5.01177
899.559	35.0889
899.951	60.1413
900.342	63.15996
900.734	10.02501
901.125	75.19607
901.517	28.06906
901.908	61.14608
902.299	2.00494
902.69	70.16466
903.082	58.14035
903.473	15.03618
903.863	38.09722
904.254	-6.01409
904.645	38.09479
905.036	-21.05155
905.426	83.18895
905.817	31.07638
906.207	15.036
906.597	2.00472
906.987	53.13737
907.378	0
907.768	23.06111
908.158	24.05884
908.547	37.09584
908.937	26.06703
909.327	31.0756
909.717	103.2592
910.106	49.11779
910.495	92.22806
910.885	57.14426
911.274	6.01512
911.663	49.12446
912.052	54.13323
912.441	52.13224
912.83	48.11031
913.219	50.13091
913.608	30.0738
913.997	25.06298
914.385	55.13136
914.774	28.0685
915.162	18.04318
915.55	33.08014
915.939	0
916.327	39.09758
916.715	10.02567
917.103	75.18385
917.491	84.20663
917.878	47.11568
918.266	48.12456
918.654	32.08204
919.041	-10.02638
919.429	22.05223
919.816	18.04591
920.203	56.13572
920.591	38.09448
920.978	49.12007
921.365	52.13643
921.752	7.01683
922.139	31.06762
922.525	12.02904
922.912	45.1099
923.299	2.00502
923.685	2.00526
924.072	67.15407
924.458	30.07461
924.844	8.01996
925.231	14.03283
925.617	6.01538
926.003	30.07697
926.389	17.04315
926.774	30.07632
927.16	47.11683
927.546	14.03597
927.931	66.16427
928.317	46.10609
928.702	37.0878
929.088	29.06889
929.473	48.1222
929.858	-1.00244
930.243	24.0579
930.628	24.05869
931.013	12.02995
931.398	43.09908
931.783	58.15253
932.167	29.07119
932.552	56.14019
932.937	57.14133
933.321	37.09308
933.705	36.091
934.09	82.20609
934.474	60.14229
934.858	17.04435
935.242	8.0187
935.626	23.05916
936.009	16.0428
936.393	28.07153
936.777	3.00775
937.16	32.08353
937.544	20.04741
937.927	32.08147
938.311	54.13176
938.694	44.1165
939.077	64.15283
939.46	65.15922
939.843	42.08783
940.226	22.05672
940.609	-14.03256
940.991	42.10707
941.374	76.18488
941.757	33.0817
942.139	30.06767
942.522	58.13691
942.904	33.0796
943.286	58.14719
943.668	38.09865
944.05	46.11341
944.432	37.09154
944.814	45.11096
945.196	26.06365
945.578	-20.04818
945.959	52.12184
946.341	100.24326
946.722	39.09176
947.104	60.14317
947.485	14.03282
947.866	-9.02292
948.247	48.12116
948.628	41.10021
949.009	19.04892
949.39	34.0849
949.771	37.0863
950.152	45.11055
950.532	-8.01989
950.913	22.05336
951.293	35.09478
951.674	8.01951
952.054	22.0548
952.434	49.12167
952.814	24.0574
953.194	57.14901
953.574	42.10362
953.954	37.0881
954.334	46.11474
954.714	-15.037
955.093	50.12295
955.473	49.12256
955.853	29.07535
956.232	47.12888
956.611	53.12707
956.99	39.09821
957.37	37.09451
957.749	-1.00241
958.128	18.04561
958.506	32.08327
958.885	42.10617
959.264	25.06156
959.643	48.10929
960.021	69.17039
960.4	19.04334
960.778	45.11096
961.156	16.04036
961.535	60.1396
961.913	25.0588
962.291	-18.04673
962.669	8.02042
963.047	9.02313
963.424	23.05898
963.802	40.09854
964.18	47.119
964.557	39.09004
964.935	27.06427
965.312	81.2098
965.69	48.12025
966.067	46.11211
966.444	57.14029
966.821	15.03891
967.198	67.16204
967.575	56.13755
967.952	17.04032
968.329	21.05138
968.705	42.09024
969.082	5.01292
969.458	-30.07306
969.835	42.1024
970.211	22.05674
970.587	54.13435
970.963	93.2368
971.339	22.05772
971.715	67.16679
972.091	24.05939
972.467	64.15923
972.843	43.10685
973.219	83.19809
973.594	28.07351
973.97	66.15664
974.345	15.03614
974.721	61.14742
975.096	40.09698
975.471	62.14675
975.846	55.13202
976.221	57.14457
976.596	-8.01939
976.971	44.10876
977.346	-18.04247
977.72	48.12233
978.095	28.07264
978.469	40.09567
978.844	68.17042
979.218	13.03138
979.593	22.053
979.967	71.1723
980.341	32.07395
980.715	23.05823
981.089	64.15981
981.463	51.11709
981.837	-10.02471
982.21	112.25749
982.584	26.06308
982.957	9.02264
983.331	85.19959
983.704	31.07644
984.078	44.10856
984.451	93.2305
984.824	41.10002
985.197	26.06344
985.57	49.12291
985.943	43.10634
986.316	46.11312
986.688	75.18002
987.061	10.02362
987.434	29.07584
987.806	74.17867
988.179	41.09691
988.551	38.0966
988.923	37.09134
989.295	72.1792
989.667	-1.00241
990.039	21.05216
990.411	22.05092
990.783	19.04402
991.155	-39.09528
991.527	79.19351
991.898	29.07253
992.27	5.01247
992.641	56.14034
993.012	40.09431
993.384	22.05276
993.755	36.092
994.126	21.05079
994.497	-10.02482
994.868	28.0646
995.239	47.11397
995.61	1.00254
995.98	21.05129
996.351	1.0025
996.722	27.0629
997.092	-4.00957
997.462	-3.00708
997.833	37.08793
998.203	37.08992
998.573	25.06253
998.943	-12.02848
999.313	38.09126
999.683	36.08662
1000.053	20.04629
1000.423	67.16229
1000.792	27.07025
1001.162	-23.05736
1001.531	62.15252
1001.901	37.09244
1002.27	50.11177
1002.639	67.17066
1003.009	28.06686
1003.378	57.14555
1003.747	23.05462
1004.116	-21.05092
1004.485	-1.00241
1004.853	38.09647
1005.222	51.12857
1005.591	28.06676
1005.959	-3.00683
1006.328	-15.0342
1006.696	45.10863
1007.064	17.04301
1007.433	58.14473
1007.801	89.21687
1008.169	40.10118
1008.537	15.03346
1008.905	30.07016
1009.273	81.19892
1009.64	23.05514
1010.008	83.19657
1010.375	104.24996
1010.743	75.17232
1011.11	28.06653
1011.478	43.10654
1011.845	43.10125
1012.212	0
1012.579	26.0641
1012.946	61.14486
1013.313	50.11899
1013.68	70.15668
1014.047	-4.00963
1014.414	-6.01432
1014.78	10.02503
1015.147	59.14243
1015.513	9.02185
1015.88	84.21347
1016.246	69.1697
1016.612	71.16183
1016.978	40.09818
1017.344	41.10147
1017.71	72.17482
1018.076	10.02376
1018.442	43.11072
1018.808	3.00756
1019.174	8.02022
1019.539	77.17628
1019.905	23.05451
1020.27	8.01989
1020.636	72.17187
1021.001	31.07447
1021.366	5.01211
1021.731	39.10046
1022.096	7.01779
1022.461	58.13702
1022.826	-19.04574
1023.191	62.16228
1023.556	36.08458
1023.92	32.07892
1024.285	53.12924
1024.649	34.08355
1025.014	63.15563
1025.378	27.06814
1025.742	35.08713
1026.107	26.05908
1026.471	58.13516
1026.835	20.04983
1027.199	50.12031
1027.562	0
1027.926	77.18728
1028.29	17.04326
1028.654	36.08303
1029.017	50.12286
1029.381	-24.05812
1029.744	25.06402
1030.107	60.14163
1030.471	51.12204
1030.834	33.07531
1031.197	35.08452
1031.56	14.03325
1031.923	30.0778
1032.286	65.15215
1032.648	54.129
1033.011	25.05765
1033.374	58.13606
1033.736	17.04493
1034.099	13.03189
1034.461	4.01018
1034.823	22.05504
1035.185	44.11083
1035.548	-2.00491
1035.91	19.04576
1036.272	77.17422
1036.634	70.17054
1036.995	48.11282
1037.357	-13.03199
1037.719	17.04158
1038.08	40.09512
1038.442	8.01913
1038.803	68.16263
1039.165	24.06082
1039.526	34.08237
1039.887	13.03131
1040.248	13.03223
1040.609	20.04967
1040.97	37.0906
1041.331	40.1014
1041.692	35.0819
1042.053	36.08217
1042.413	49.11416
1042.774	44.10708
1043.134	70.16594
1043.495	25.06309
1043.855	70.16907
1044.215	58.14368
1044.576	31.07435
1044.936	46.1055
1045.296	40.09996
1045.656	48.11777
1046.016	81.19428
1046.375	45.1092
1046.735	12.0274
1047.095	37.08678
1047.454	66.1393
1047.814	33.07954
1048.173	85.20162
1048.533	6.01386
1048.892	-25.06083
1049.251	39.09804
1049.61	32.07901
1049.969	-7.01667
1050.328	32.06961
1050.687	14.03427
1051.046	36.08784
1051.405	37.09221
1051.763	12.02779
1052.122	39.0974
1052.48	29.07135
1052.839	36.08488
1053.197	17.04025
1053.555	70.15887
1053.914	78.18968
1054.272	62.14947
1054.63	10.02462
1054.988	5.01197
1055.345	19.04117
1055.703	72.17246
1056.061	23.05941
1056.419	12.03125
1056.776	45.10916
1057.134	7.01633
1057.491	-7.0177
1057.848	47.117
1058.206	35.08251
1058.563	39.08612
1058.92	16.03711
1059.277	40.0988
1059.634	65.15239
1059.991	83.19748
1060.348	-10.02286
1060.704	29.06934
1061.061	60.13904
1061.418	13.03173
1061.774	12.02981
1062.131	31.08217
1062.487	54.12608
1062.843	45.11223
1063.199	57.14148
1063.555	7.01635
1063.911	46.1162
1064.267	43.08978
1064.623	0
1064.979	42.0996
1065.335	33.07909
1065.691	54.12925
1066.046	33.07278
1066.402	30.06839
1066.757	31.07846
1067.112	40.09829
1067.468	-22.05264
1067.823	35.08433
1068.178	24.0583
1068.533	51.12353
1068.888	45.10756
1069.243	19.04713
1069.598	12.02934
1069.952	-30.06861
1070.307	37.09174
1070.662	-20.04809
1071.016	-8.01813
1071.371	12.02749
1071.725	57.13609
1072.079	-5.01214
1072.434	-34.08385
1072.788	27.06454
1073.142	44.10828
1073.496	2.00479
1073.85	33.07673
1074.203	24.05847
1074.557	23.06139
1074.911	58.13813
1075.265	43.10002
1075.618	14.03439
1075.971	46.10943
1076.325	23.05869
1076.678	-30.06966
1077.031	11.02507
1077.385	51.11224
1077.738	7.01593
1078.091	-3.00689
1078.444	70.16177
1078.796	7.0173
1079.149	67.166
1079.502	-13.03106
1079.855	-21.04962
1080.207	75.18378
1080.56	37.09577
1080.912	54.13127
1081.264	25.06044
1081.617	56.13623
1081.969	0
1082.321	31.07591
1082.673	-12.02771
1083.025	40.09501
1083.377	-222.50403
1083.728	58.135
1084.08	7.0176
1084.432	-7.01705
1084.783	56.13096
1085.135	-7.01771
1085.486	4.00923
1085.838	4.00993
1086.189	0
1086.54	44.10511
1086.891	13.03307
1087.242	5.01227
1087.593	41.09991
1087.944	41.09288
1088.295	1.00229
1088.646	40.09705
1088.996	-37.09053
1089.347	23.05667
1089.698	20.0475
1090.048	32.0833
1090.398	40.09288
1090.749	38.09106
1091.099	22.05555
1091.449	44.10963
1091.799	48.12012
1092.149	-59.14666
1092.499	20.04902
1092.849	14.03578
1093.199	69.17221
1093.548	8.01936
1093.898	4.01008
1094.248	40.10287
1094.597	-5.01287
1094.947	35.09352
1095.296	19.04714
1095.645	28.07304
1095.994	43.10333
1096.343	38.09575
1096.692	14.03697
1097.041	-11.03005
1097.39	48.12034
1097.739	19.0496
1098.088	40.10725
1098.437	11.02906
1098.785	46.12398
1099.134	58.15366
1099.482	30.0827
1099.83	40.10519
1100.179	7.01837
1100.527	41.10901
1100.875	11.02925
1101.223	51.13528
1101.571	33.09135
1101.919	6.01578
1102.267	12.03395
1102.615	3.00965
1102.962	15.04827
1103.31	5.01607
1103.658	14.04508
