Data from N2 R7 sample 2_Subt2__0__15-42-28-559.txt Node

Date: Fri Aug 29 15:42:28 PDT 2025
User: uwsun
Spectrometer: HDX01956
Trigger mode: 0
Integration Time (sec): 5.000000E-1
Scans to average: 1
Nonlinearity correction enabled: true
Boxcar width: 0
Storing dark spectrum: false
XAxis mode: Wavelengths
Number of Pixels in Spectrum: 2068
>>>>>Begin Spectral Data<<<<<
194.03	59.1641
194.578	56.17587
195.127	65.20088
195.676	59.18304
196.225	70.18353
196.773	105.28305
197.321	124.32598
197.87	183.43757
198.418	140.33303
198.966	156.37223
199.513	89.20474
200.061	134.31077
200.609	139.3411
201.156	93.18658
201.704	76.17724
202.251	117.28563
202.798	122.29177
203.345	166.37598
203.892	102.23722
204.438	163.35602
204.985	107.23153
205.532	140.33763
206.078	138.31053
206.624	115.25904
207.17	191.40161
207.716	90.20136
208.262	128.23111
208.808	81.18313
209.354	129.28688
209.899	200.46108
210.445	96.2192
210.99	114.25147
211.535	164.35175
212.08	115.24639
212.625	153.35083
213.17	178.41151
213.715	48.0985
214.259	153.32596
214.804	167.3777
215.348	193.40009
215.892	112.24789
216.436	178.3765
216.98	173.34932
217.524	130.28196
218.068	180.41398
218.612	168.38777
219.155	135.29174
219.698	171.37191
220.242	213.48389
220.785	174.37159
221.328	171.39069
221.871	168.39255
222.414	163.37391
222.956	132.29191
223.499	92.19247
224.041	168.36017
224.583	186.36824
225.126	130.26425
225.668	128.28696
226.21	87.20357
226.751	35.07168
227.293	182.38024
227.835	113.25505
228.376	169.35864
228.918	150.34981
229.459	104.23938
230	111.24449
230.541	158.3342
231.082	144.3207
231.622	137.29111
232.163	123.27445
232.704	115.26306
233.244	85.19592
233.784	172.38719
234.324	115.23082
234.864	113.23635
235.404	158.34502
235.944	123.26956
236.484	165.37789
237.023	116.25234
237.563	110.234
238.102	166.35788
238.641	126.29373
239.18	120.25682
239.719	136.31391
240.258	183.37359
240.797	146.31882
241.335	172.38433
241.874	94.16616
242.412	157.34364
242.95	98.215
243.488	101.21265
244.026	132.27774
244.564	132.24811
245.102	140.28626
245.64	199.43501
246.177	160.32597
246.715	157.34436
247.252	155.32476
247.789	224.37782
248.326	101.22181
248.863	117.23408
249.4	181.37186
249.936	131.24508
250.473	133.28224
251.009	145.30085
251.546	174.34529
252.082	111.22248
252.618	132.26684
253.154	121.26484
253.69	156.31782
254.226	139.30141
254.761	132.26941
255.297	106.21153
255.832	117.2523
256.367	177.37545
256.903	107.21407
257.438	188.39748
257.972	131.26476
258.507	128.26469
259.042	146.2862
259.576	55.10825
260.111	132.27749
260.645	179.34749
261.179	115.24341
261.713	167.33271
262.247	138.28819
262.781	118.22311
263.315	101.22499
263.849	140.31632
264.382	166.34342
264.915	126.26605
265.449	80.1764
265.982	174.35497
266.515	141.30992
267.048	149.28193
267.58	161.31658
268.113	115.22367
268.646	138.30658
269.178	141.28157
269.71	193.37413
270.243	142.29193
270.775	121.27835
271.307	163.353
271.838	222.46915
272.37	143.31617
272.902	147.3001
273.433	147.287
273.965	139.30398
274.496	142.31848
275.027	176.38888
275.558	164.35448
276.089	83.18351
276.62	158.36135
277.15	178.39231
277.681	145.28175
278.211	135.29798
278.741	123.24117
279.272	156.3155
279.802	155.34599
280.332	134.28145
280.861	172.36716
281.391	141.28366
281.921	143.30823
282.45	133.29823
282.98	228.52311
283.509	130.26002
284.038	131.26537
284.567	182.37602
285.096	162.34671
285.625	91.18476
286.153	135.27998
286.682	135.27284
287.21	119.25441
287.739	179.37057
288.267	140.29898
288.795	171.3987
289.323	109.22495
289.851	156.32129
290.378	180.35185
290.906	98.20965
291.433	129.2845
291.961	125.24823
292.488	191.41452
293.015	114.23564
293.542	118.26291
294.069	149.31979
294.596	190.4098
295.122	158.32834
295.649	156.29915
296.175	198.41605
296.702	152.32249
297.228	152.32334
297.754	183.35305
298.28	131.25795
298.806	151.31428
299.332	107.20514
299.857	173.33424
300.383	149.32943
300.908	100.21031
301.433	190.3936
301.958	183.3634
302.483	109.23585
303.008	170.36241
303.533	193.43312
304.058	162.32884
304.582	72.14755
305.107	122.27464
305.631	137.26926
306.155	112.2234
306.679	127.25279
307.203	163.31975
307.727	173.3474
308.251	177.37102
308.775	109.21939
309.298	110.22339
309.822	162.34686
310.345	183.36306
310.868	180.35953
311.391	197.40655
311.914	139.29356
312.437	151.28977
312.96	189.36795
313.482	137.27142
314.005	213.44155
314.527	161.35314
315.049	139.29588
315.571	142.25771
316.093	173.35333
316.615	211.41274
317.137	220.38302
317.659	216.42823
318.18	179.3543
318.702	245.45337
319.223	201.3264
319.744	192.34295
320.265	174.33802
320.786	163.32308
321.307	183.36476
321.828	200.3565
322.348	204.37759
322.869	182.3362
323.389	30.03864
323.909	219.39027
324.43	252.47508
324.95	171.30347
325.47	217.40999
325.989	248.44138
326.509	179.29641
327.029	200.33734
327.548	180.30277
328.067	236.42264
328.587	237.44493
329.106	238.39685
329.625	301.59801
330.144	201.34078
330.662	192.32508
331.181	246.41607
331.7	221.3749
332.218	276.4159
332.736	229.38384
333.255	267.43555
333.773	213.35878
334.291	315.55527
334.808	233.3569
335.326	221.34455
335.844	205.32502
336.361	235.40925
336.879	212.33332
337.396	297.47363
337.913	270.40588
338.43	286.41314
338.947	278.43103
339.464	236.31826
339.981	259.39345
340.497	318.50467
341.014	321.49262
341.53	221.31137
342.046	305.46667
342.562	326.51053
343.078	299.42964
343.594	313.45512
344.11	311.44661
344.626	279.43297
345.141	299.39806
345.657	371.48379
346.172	289.41344
346.687	316.41328
347.202	329.4101
347.717	321.43767
348.232	385.54741
348.747	322.40803
349.261	319.36011
349.776	356.45335
350.29	282.38409
350.805	353.48511
351.319	322.4018
351.833	353.40463
352.347	322.39755
352.861	359.42586
353.374	424.49073
353.888	357.44849
354.401	412.46151
354.915	318.34136
355.428	408.50421
355.941	301.34367
356.454	485.49975
356.967	350.40529
357.48	353.3882
357.993	376.4531
358.505	304.36334
359.018	409.46998
359.53	386.4257
360.042	465.43615
360.554	437.47924
361.066	379.41911
361.578	347.32037
362.09	439.45373
362.602	379.34057
363.113	406.39203
363.625	393.3548
364.136	455.38297
364.647	267.24953
365.158	455.40905
365.669	432.41214
366.18	472.42457
366.691	428.34062
367.201	409.37671
367.712	403.32765
368.222	410.33055
368.733	399.27557
369.243	420.29094
369.753	478.35652
370.263	454.3592
370.773	472.38833
371.282	454.32885
371.792	423.25023
372.301	475.31536
372.811	493.38643
373.32	392.1657
373.829	428.2242
374.338	583.20673
374.847	523.1942
375.356	524.19367
375.865	519.07787
376.373	507.09863
376.882	625.1967
377.39	648.12235
377.898	436.06956
378.407	672.95946
378.915	678.91128
379.423	741.91058
379.93	770.83738
380.438	605.87158
380.946	746.76148
381.453	660.76741
381.96	648.72448
382.468	662.6648
382.975	973.4897
383.482	944.47912
383.989	848.54481
384.495	854.52226
385.002	818.57696
385.509	857.56082
386.015	1095.66724
386.521	1146.66195
387.028	1033.7997
387.534	981.93537
388.04	1184.93585
388.546	1037.25735
389.051	933.51786
389.557	1053.94695
390.063	1635.08715
390.568	1580.55914
391.073	1464.15131
391.578	1544.68183
392.084	1340.99237
392.589	982.62113
393.093	979.59562
393.598	1208.17717
394.103	1499.94622
394.607	1636.60948
395.112	2004.27944
395.616	2057.21192
396.12	1736.29616
396.624	2139.10144
397.128	2510.29629
397.632	2852.80617
398.136	3078.06157
398.639	1720.55626
399.143	880.47465
399.646	1584.70384
400.15	1337.5404
400.653	562.75097
401.156	-443.22964
401.659	-1335.64894
402.162	-104.99999
402.664	0
403.167	0
403.67	0
404.172	0
404.674	0
405.176	0
405.678	0
406.18	0
406.682	0
407.184	0
407.686	0
408.187	0
408.688	0
409.19	0
409.691	0
410.192	0
410.693	0
411.194	435.30976
411.694	4082.94878
412.195	8864.71461
412.696	12089.80453
413.196	12760.96929
413.696	12610.53897
414.196	13370.57658
414.696	16953.41842
415.196	19658.89255
415.696	22331.24337
416.196	19216.73745
416.695	12267.78569
417.195	8120.26334
417.694	7472.40432
418.194	7399.91931
418.693	6465.04079
419.192	6122.85109
419.691	5833.38206
420.19	5842.18638
420.688	6186.94945
421.187	6051.05218
421.685	6210.93104
422.184	5819.29186
422.682	5008.4747
423.18	3833.1803
423.678	3135.29959
424.176	2710.93884
424.674	2599.936
425.172	2729.3552
425.669	2756.71253
426.167	2663.53034
426.664	2305.40708
427.161	2008.71529
427.659	1790.30129
428.156	1515.36635
428.652	1461.21598
429.149	1390.24478
429.646	1396.24088
430.143	1285.33279
430.639	1227.39293
431.135	1134.52485
431.632	1112.53938
432.128	986.69631
432.624	875.82579
433.12	710.80445
433.616	665.8356
434.111	537.92618
434.607	520.97538
435.103	644.92924
435.598	676.93775
436.093	671.07762
436.588	718.08985
437.083	568.13482
437.578	567.17809
438.073	381.18393
438.568	418.23764
439.062	414.1587
439.557	436.25614
440.051	382.2105
440.546	282.17206
441.04	288.20835
441.534	291.25087
442.028	289.23341
442.522	237.19674
443.015	289.19785
443.509	357.31166
444.002	233.21618
444.496	306.22357
444.989	232.22405
445.482	243.24213
445.975	167.14199
446.468	179.14148
446.961	238.18481
447.454	211.18947
447.947	69.07048
448.439	188.20046
448.931	125.1173
449.424	165.19406
449.916	148.16465
450.408	44.04451
450.9	61.06994
451.392	69.08549
451.884	127.13632
452.375	68.08279
452.867	138.14937
453.358	51.0554
453.849	82.08109
454.341	96.10465
454.832	98.0999
455.323	12.01538
455.814	49.05822
456.304	82.0974
456.795	25.03021
457.285	88.10338
457.776	121.14801
458.266	34.04412
458.756	74.09892
459.247	15.01986
459.737	-26.03517
460.226	-20.02521
460.716	13.01789
461.206	-4.00567
461.695	23.03483
462.185	9.01264
462.674	74.09984
463.163	13.01708
463.653	38.04623
464.142	-58.08754
464.63	28.04287
465.119	14.01985
465.608	-36.05209
466.096	21.02842
466.585	81.11753
467.073	-24.03791
467.561	1.00158
468.05	8.01221
468.538	-12.01989
469.026	-7.01125
469.513	-64.08938
470.001	-38.05791
470.489	-45.07266
470.976	-16.02526
471.463	-22.03856
471.951	-13.02312
472.438	-87.14534
472.925	-94.15656
473.412	-67.12082
473.899	-40.06622
474.385	-70.12704
474.872	-115.19793
475.359	-53.09547
475.845	-39.05803
476.331	31.04884
476.817	-60.11083
477.303	-61.10668
477.789	-20.03631
478.275	-56.10609
478.761	-114.21459
479.247	-49.08424
479.732	-86.16643
480.218	-87.17914
480.703	-78.15283
481.188	-92.1539
481.673	-68.12209
482.158	-111.18329
482.643	-21.0427
483.128	-93.16813
483.612	-109.20564
484.097	-94.18802
484.581	-70.1319
485.066	-94.18592
485.55	-112.19891
486.034	-108.18972
486.518	-112.21488
487.002	-115.23146
487.486	-183.37596
487.969	-158.32336
488.453	-136.29031
488.936	-99.18503
489.42	-89.16403
489.903	-53.11198
490.386	-60.08015
490.869	-76.13898
491.352	-73.15214
491.835	-134.2365
492.318	-123.23581
492.8	-74.12862
493.283	-162.356
493.765	-140.2969
494.247	-69.13843
494.73	-121.23018
495.212	-103.21658
495.694	-149.30141
496.175	-171.35131
496.657	-79.16179
497.139	-112.16997
497.62	-230.48158
498.102	-154.33472
498.583	-116.25481
499.064	-213.42061
499.545	-156.31377
500.026	-184.36513
500.507	-139.28428
500.988	-131.28746
501.469	-171.37949
501.949	-84.18242
502.43	-185.38985
502.91	-162.2961
503.39	-149.3337
503.87	-202.42502
504.35	-138.29113
504.83	-174.34012
505.31	-184.39958
505.79	-167.35641
506.269	-140.29262
506.749	-234.48454
507.228	-246.52511
507.707	-155.30708
508.187	-126.2699
508.666	-191.42246
509.145	-203.42872
509.623	-191.40568
510.102	-169.3699
510.581	-141.30757
511.059	-151.33929
511.538	-158.37049
512.016	-174.37722
512.494	-148.3251
512.972	-162.35001
513.45	-296.63238
513.928	-183.40257
514.406	-254.55863
514.884	-161.37479
515.361	-180.39223
515.839	-212.44232
516.316	-211.46533
516.793	-188.43652
517.27	-168.37291
517.747	-185.43321
518.224	-231.49555
518.701	-163.33125
519.178	-210.4764
519.654	-178.38985
520.131	-215.49041
520.607	-213.48957
521.083	-206.43401
521.56	-189.41053
522.036	-193.39167
522.512	-185.42182
522.987	-242.5318
523.463	-179.39096
523.939	-184.41674
524.414	-192.41127
524.89	-184.40299
525.365	-198.41495
525.84	-249.5489
526.315	-233.52224
526.79	-176.3664
527.265	-196.41439
527.74	-235.53408
528.215	-211.4626
528.689	-209.43035
529.164	-142.28389
529.638	-180.42867
530.112	-186.40479
530.587	-238.47472
531.061	-222.49789
531.534	-129.28748
532.008	-222.49748
532.482	-195.41779
532.956	-212.50138
533.429	-173.38856
533.903	-168.34569
534.376	-168.34445
534.849	-182.39271
535.322	-181.39734
535.795	-183.41625
536.268	-190.4249
536.741	-179.40055
537.213	-157.33681
537.686	-184.41572
538.158	-232.48706
538.631	-206.47036
539.103	-252.53255
539.575	-198.38851
540.047	-169.3461
540.519	-163.36279
540.991	-151.34346
541.463	-181.40886
541.934	-197.42207
542.406	-206.45897
542.877	-204.43187
543.348	-168.37818
543.82	-190.43645
544.291	-146.31693
544.762	-233.51901
545.233	-192.44775
545.703	-187.38505
546.174	-216.47127
546.645	-193.42617
547.115	-164.36494
547.585	-142.30101
548.056	-241.54061
548.526	-187.40497
548.996	-136.29975
549.466	-115.25692
549.935	-181.39231
550.405	-192.38724
550.875	-157.33913
551.344	-155.33998
551.814	-147.30827
552.283	-123.24368
552.752	-128.26825
553.221	-144.28228
553.69	-115.22986
554.159	-146.32287
554.628	-189.38408
555.096	-125.28467
555.565	-127.25573
556.033	-112.2396
556.502	-149.33081
556.97	-129.26239
557.438	-129.28128
557.906	-104.2272
558.374	-140.29846
558.842	-142.3152
559.31	-120.24982
559.777	-165.37181
560.245	-108.23634
560.712	-136.29522
561.18	-146.30218
561.647	-143.30002
562.114	-120.25482
562.581	-101.23169
563.048	-69.14771
563.514	-98.22296
563.981	-74.15755
564.448	-67.13951
564.914	-35.07528
565.381	-5.01046
565.847	-44.09547
566.313	-20.04292
566.779	-2.00414
567.245	-8.0172
567.711	-5.01098
568.176	-47.09752
568.642	13.02969
569.108	66.14632
569.573	86.18294
570.038	82.1555
570.504	82.1647
570.969	131.29254
571.434	98.19156
571.899	124.26251
572.363	131.265
572.828	235.46819
573.293	229.45624
573.757	275.54253
574.222	289.54845
574.686	254.48779
575.15	307.62075
575.614	272.53472
576.078	312.62174
576.542	321.62048
577.006	378.71159
577.469	395.82393
577.933	314.59371
578.396	404.80283
578.86	422.82687
579.323	346.69559
579.786	417.74358
580.249	348.66671
580.712	374.77199
581.175	360.75076
581.637	376.73151
582.1	406.74515
582.563	344.62752
583.025	299.62093
583.487	338.57388
583.95	249.46054
584.412	310.55604
584.874	316.65608
585.336	306.62114
585.797	314.5786
586.259	277.56651
586.721	207.42546
587.182	362.72239
587.643	247.48889
588.105	222.46051
588.566	272.49566
589.027	233.4884
589.488	217.43434
589.949	235.49848
590.41	164.28144
590.87	269.53468
591.331	209.39798
591.791	183.37257
592.252	179.36044
592.712	183.38953
593.172	214.42268
593.632	269.51298
594.092	169.33466
594.552	248.46478
595.011	144.29377
595.471	245.47812
595.931	230.44831
596.39	239.49899
596.849	235.47822
597.308	290.54403
597.768	288.63314
598.227	271.56755
598.685	311.61701
599.144	278.56301
599.603	292.59813
600.062	311.55683
600.52	336.63687
600.978	389.77969
601.437	403.77713
601.895	406.71853
602.353	434.80337
602.811	495.90008
603.269	457.90964
603.727	514.00733
604.184	576.03659
604.642	580.14712
605.099	644.18179
605.557	706.35049
606.014	708.16889
606.471	694.35568
606.928	778.2451
607.385	824.50678
607.842	843.43986
608.299	942.60903
608.755	957.68861
609.212	1046.6285
609.668	993.55324
610.125	1146.93892
610.581	1205.9893
611.037	1244.93527
611.493	1137.8993
611.949	1147.93801
612.405	1170.55939
612.861	1290.06566
613.316	1265.05797
613.772	1263.96445
614.227	1280.04607
614.683	1350.88425
615.138	1272.01941
615.593	1368.09913
616.048	1459.15333
616.503	1394.30522
616.958	1394.35068
617.412	1367.16088
617.867	1345.95072
618.321	1372.83173
618.776	1380.00665
619.23	1406.18951
619.684	1370.06415
620.138	1384.16119
620.592	1304.1957
621.046	1310.12039
621.5	1216.1021
621.954	1314.02503
622.407	1266.95034
622.861	1208.10253
623.314	1289.03438
623.768	1170.96052
624.221	1173.59814
624.674	1157.92548
625.127	1145.95236
625.58	1160.92364
626.033	1122.81143
626.485	1025.85592
626.938	1096.94715
627.39	1036.82034
627.843	1010.77915
628.295	1036.8137
628.747	1045.88839
629.199	1032.77741
629.651	991.72426
630.103	998.75338
630.555	1002.6078
631.006	925.71016
631.458	970.78595
631.909	972.74769
632.361	966.76615
632.812	950.722
633.263	955.60208
633.714	982.62738
634.165	981.88159
634.616	895.71392
635.067	1015.74944
635.518	1009.89454
635.968	995.53479
636.419	974.65941
636.869	995.87461
637.319	991.80513
637.769	966.70409
638.219	1030.94304
638.669	972.84954
639.119	1056.0286
639.569	1017.94513
640.019	1090.95443
640.468	1084.86727
640.918	1119.09499
641.367	1139.94728
641.816	1122.92169
642.265	1147.03205
642.714	1131.01394
643.163	1178.05868
643.612	1135.10318
644.061	1180.85855
644.51	1113.95656
644.958	1187.96053
645.406	1246.24857
645.855	1195.25632
646.303	1210.15241
646.751	1132.98127
647.199	1207.07492
647.647	1288.19787
648.095	1212.10068
648.543	1281.90633
648.99	1170.15699
649.438	1203.16684
649.885	1230.34118
650.333	1184.69267
650.78	1212.24687
651.227	1168.20895
651.674	1122.98629
652.121	1188.24034
652.568	1116.13493
653.015	1142.28752
653.461	1107.07145
653.908	1028.91942
654.354	1041.99685
654.801	1009.90475
655.247	1009.77045
655.693	1022.18195
656.139	974.90805
656.585	948.87102
657.031	950.80761
657.477	924.62388
657.922	922.74576
658.368	910.87644
658.813	877.70769
659.259	851.72056
659.704	852.6664
660.149	861.68205
660.594	833.67414
661.039	842.61266
661.484	835.6951
661.929	777.55931
662.373	741.62632
662.818	715.55146
663.262	720.50957
663.707	739.63483
664.151	745.58299
664.595	665.41591
665.039	731.59159
665.483	716.602
665.927	701.44802
666.371	633.29686
666.814	705.47841
667.258	592.25456
667.701	711.33744
668.145	705.54855
668.588	665.4496
669.031	606.2742
669.474	623.34304
669.917	695.35026
670.36	664.46544
670.803	646.39238
671.245	584.10487
671.688	584.29032
672.13	528.07777
672.573	654.48838
673.015	586.27262
673.457	577.13238
673.899	519.15487
674.341	567.24358
674.783	509.12088
675.225	532.19826
675.666	455.01474
676.108	501.00009
676.549	524.13972
676.991	545.09414
677.432	493.90191
677.873	485.03799
678.314	541.18199
678.755	508.13899
679.196	462.98441
679.637	529.18882
680.078	506.09305
680.518	497.07197
680.959	466.03825
681.399	477.09847
681.839	480.08449
682.28	469.07572
682.72	415.89368
683.16	443.03139
683.6	452.96478
684.039	429.8384
684.479	420.97006
684.919	386.84106
685.358	449.06669
685.798	406.00357
686.237	459.03675
686.676	403.88572
687.115	390.86885
687.554	355.8048
687.993	405.84666
688.432	381.82682
688.871	344.74638
689.309	387.87661
689.748	392.77717
690.186	400.9055
690.625	363.81089
691.063	372.84897
691.501	366.86282
691.939	369.87613
692.377	332.77691
692.815	379.86094
693.253	372.85274
693.69	361.75703
694.128	328.76244
694.565	353.80513
695.003	338.82243
695.44	344.774
695.877	301.67851
696.314	330.68301
696.751	370.80551
697.188	320.70732
697.625	404.87952
698.061	356.81574
698.498	298.69791
698.934	331.76592
699.371	274.62611
699.807	308.70322
700.243	317.7344
700.679	305.66783
701.115	323.73316
701.551	358.80615
701.987	335.72422
702.422	274.6319
702.858	327.74885
703.294	303.66401
703.729	278.66049
704.164	307.71321
704.599	273.59171
705.035	279.606
705.47	245.58154
705.904	262.59435
706.339	344.76829
706.774	284.64504
707.209	238.53706
707.643	299.69436
708.078	246.58493
708.512	270.65528
708.946	299.69353
709.38	262.60496
709.814	238.53333
710.248	194.46661
710.682	258.59785
711.116	264.61176
711.549	273.68422
711.983	232.52545
712.416	295.67558
712.85	283.68412
713.283	271.62362
713.716	282.68774
714.149	284.65731
714.582	293.63722
715.015	290.70381
715.448	273.66865
715.881	293.62204
716.313	282.64101
716.746	255.58516
717.178	233.54837
717.61	261.64447
718.043	284.68641
718.475	260.61393
718.907	348.84485
719.339	185.41466
719.77	218.50697
720.202	286.70061
720.634	220.52472
721.065	227.52759
721.497	268.6387
721.928	218.52493
722.359	205.48567
722.79	212.49847
723.221	240.59056
723.652	293.73222
724.083	213.4725
724.514	243.54599
724.945	255.58422
725.375	201.45904
725.806	285.68999
726.236	294.729
726.666	270.62144
727.096	281.66878
727.526	232.57613
727.956	253.56052
728.386	272.65071
728.816	250.61629
729.246	246.5829
729.675	226.54439
730.105	224.5406
730.534	245.55996
730.964	290.71014
731.393	306.73455
731.822	265.65819
732.251	246.60911
732.68	311.70707
733.109	230.55466
733.537	265.62197
733.966	249.60285
734.395	264.59305
734.823	230.50904
735.251	248.58265
735.68	307.74241
736.108	262.64492
736.536	266.61028
736.964	228.51828
737.392	216.53033
737.82	281.65385
738.247	214.50356
738.675	284.65809
739.102	220.53835
739.53	207.51733
739.957	217.54702
740.384	268.6431
740.811	212.52762
741.238	189.45485
741.665	219.49792
742.092	251.58475
742.519	185.45129
742.945	221.52013
743.372	204.49642
743.798	207.52257
744.225	188.44101
744.651	215.52915
745.077	235.5726
745.503	238.56743
745.929	205.4836
746.355	280.67572
746.781	222.53901
747.207	175.40562
747.632	149.36035
748.058	223.54499
748.483	224.50547
748.908	220.53555
749.334	189.4576
749.759	212.49069
750.184	178.41869
750.609	217.52301
751.033	200.46585
751.458	198.43804
751.883	200.4876
752.307	136.31891
752.732	151.3737
753.156	166.40562
753.58	221.51466
754.005	173.43393
754.429	165.38411
754.853	164.40193
755.277	188.43877
755.7	169.41456
756.124	162.39776
756.548	132.3117
756.971	206.49416
757.394	126.32314
757.818	169.42954
758.241	158.39681
758.664	174.43369
759.087	73.16443
759.51	166.40864
759.933	110.26458
760.356	149.37871
760.778	129.31586
761.201	152.36699
761.623	186.44516
762.046	184.43112
762.468	214.50454
762.89	197.47841
763.312	124.30198
763.734	114.2742
764.156	150.36735
764.578	140.32083
765	138.33482
765.421	85.2162
765.843	152.39458
766.264	174.41549
766.686	141.35176
767.107	113.2735
767.528	84.21241
767.949	121.30646
768.37	110.26969
768.791	116.28028
769.212	72.18155
769.632	73.17121
770.053	102.26806
770.473	126.30525
770.894	117.29221
771.314	171.40387
771.734	76.17828
772.154	143.3641
772.575	139.32052
772.994	82.18731
773.414	104.24996
773.834	107.26704
774.254	118.28791
774.673	111.26997
775.093	92.22781
775.512	61.15125
775.931	100.25323
776.351	44.11027
776.77	90.22025
777.189	66.15809
777.607	73.18699
778.026	77.19238
778.445	56.14095
778.864	76.19546
779.282	107.25702
779.701	107.26897
780.119	38.09688
780.537	53.13314
780.955	60.1535
781.373	79.19587
781.791	39.08875
782.209	95.21932
782.627	94.24712
783.045	21.04906
783.462	81.20712
783.88	65.16865
784.297	35.08887
784.715	44.11371
785.132	46.11232
785.549	41.1034
785.966	92.23114
786.383	39.0968
786.8	49.11488
787.217	40.09577
787.633	29.07308
788.05	124.29304
788.466	73.17295
788.883	41.10528
789.299	85.20488
789.715	38.09324
790.131	65.16222
790.547	36.09071
790.963	69.17177
791.379	50.12711
791.795	69.15828
792.21	44.10382
792.626	41.09819
793.041	83.20489
793.457	78.19301
793.872	9.02149
794.287	-15.03647
794.702	47.11662
795.117	35.08767
795.532	31.07835
795.947	120.2871
796.362	79.18905
796.776	121.2819
797.191	32.07907
797.605	-5.01194
798.02	19.04678
798.434	59.1323
798.848	40.09923
799.262	48.11973
799.676	108.26233
800.09	68.16771
800.504	46.1124
800.918	17.03992
801.331	50.13167
801.745	27.06276
802.158	12.03036
802.572	8.01968
802.985	67.16247
803.398	16.03865
803.811	95.24351
804.224	45.11272
804.637	19.0458
805.05	68.15815
805.462	78.19173
805.875	-1.00262
806.288	-11.02697
806.7	86.21576
807.112	19.04462
807.525	29.07222
807.937	12.03001
808.349	16.04052
808.761	39.09663
809.173	80.19381
809.584	48.1193
809.996	1.00248
810.408	-1.00261
810.819	48.11357
811.231	33.0858
811.642	-2.00484
812.053	55.13131
812.464	113.26679
812.875	113.2867
813.286	75.19292
813.697	108.25127
814.108	67.16399
814.519	42.09439
814.929	70.17865
815.34	58.14115
815.75	7.01799
816.16	42.1053
816.571	70.18184
816.981	36.0857
817.391	56.13572
817.801	19.04764
818.211	13.03137
818.62	-3.00733
819.03	23.0569
819.44	90.23428
819.849	49.12397
820.259	65.16656
820.668	-2.00499
821.077	33.08251
821.486	72.17351
821.895	64.15842
822.304	25.06671
822.713	46.10934
823.122	37.09291
823.531	71.16841
823.939	-2.00494
824.348	52.12692
824.756	73.18278
825.164	63.15877
825.573	9.02283
825.981	55.13682
826.389	63.15848
826.797	31.07818
827.205	37.08552
827.612	27.06717
828.02	4.00952
828.428	33.08456
828.835	25.06625
829.243	80.19038
829.65	-1.00252
830.057	56.13628
830.464	48.11742
830.871	83.19831
831.278	41.09965
831.685	39.08767
832.092	48.11799
832.499	43.09467
832.905	43.10933
833.312	50.11458
833.718	55.13736
834.124	46.10567
834.531	70.17638
834.937	42.10824
835.343	54.13068
835.749	53.12426
836.155	60.1572
836.561	34.08413
836.966	31.07633
837.372	25.06408
837.777	1.00252
838.183	54.12051
838.588	4.01004
838.993	50.12213
839.399	36.08849
839.804	17.0418
840.209	-9.0232
840.613	32.07174
841.018	42.10677
841.423	37.09534
841.828	55.1393
842.232	52.12914
842.637	52.12303
843.041	9.02328
843.445	36.09074
843.849	10.025
844.253	55.13101
844.657	-8.0204
845.061	3.0069
845.465	26.06325
845.869	12.02818
846.272	-19.04697
846.676	67.16198
847.079	13.03333
847.483	48.12008
847.886	75.18214
848.289	37.09909
848.692	35.08906
849.095	61.14659
849.498	80.20215
849.901	9.02088
850.304	9.02173
850.707	35.08965
851.109	83.20924
851.512	66.16206
851.914	7.0178
852.316	53.13424
852.718	-31.08126
853.121	14.0346
853.523	11.02597
853.925	27.0708
854.326	-8.02024
854.728	22.05694
855.13	-11.02871
855.531	29.06971
855.933	57.13697
856.334	20.05021
856.736	-5.01135
857.137	-10.02358
857.538	-15.03821
857.939	-5.0125
858.34	65.15827
858.741	40.10487
859.142	51.12274
859.542	47.12421
859.943	24.06002
860.343	6.015
860.744	60.1464
861.144	14.03444
861.544	-3.00729
861.945	18.0462
862.345	43.10548
862.745	38.09479
863.145	76.18114
863.544	17.04327
863.944	36.08544
864.344	46.11453
864.743	67.166
865.143	28.07229
865.542	-10.02351
865.941	37.09194
866.34	46.11048
866.74	60.16093
867.139	1.00242
867.537	61.15532
867.936	14.03398
868.335	24.06142
868.734	52.13299
869.132	45.10484
869.531	24.05843
869.929	-5.01154
870.327	29.0699
870.726	61.15202
871.124	81.18849
871.522	35.0895
871.92	43.10634
872.318	31.07616
872.715	90.22147
873.113	27.06616
873.511	29.07261
873.908	-5.01276
874.306	29.07248
874.703	60.15004
875.1	63.16098
875.497	70.16741
875.894	-13.03226
876.291	44.10824
876.688	31.0803
877.085	41.09867
877.482	17.04286
877.878	29.07016
878.275	15.03838
878.671	81.17954
879.068	44.10648
879.464	39.09457
879.86	23.05474
880.256	100.24481
880.652	17.04353
881.048	73.18034
881.444	67.15917
881.84	30.07659
882.236	60.15075
882.631	31.07644
883.027	38.09234
883.422	37.09491
883.817	-4.01016
884.213	43.11057
884.608	-33.08224
885.003	30.07268
885.398	28.07042
885.793	12.03036
886.188	3.00753
886.582	78.19927
886.977	56.13291
887.371	44.1115
887.766	-38.09609
888.16	93.2305
888.554	71.17507
888.949	58.14557
889.343	95.23037
889.737	-12.03232
890.131	35.08811
890.525	35.08981
890.918	23.05821
891.312	49.11739
891.706	58.15207
892.099	59.15002
892.492	65.13999
892.886	19.0468
893.279	39.09962
893.672	-1.00257
894.065	69.17233
894.458	45.11337
894.851	55.13477
895.244	-20.05174
895.637	45.10859
896.029	-4.00989
896.422	62.15128
896.814	16.04005
897.206	6.01442
897.599	55.13602
897.991	4.00976
898.383	-21.05035
898.775	66.14864
899.167	10.02352
899.559	33.08385
899.951	101.23596
900.342	50.12724
900.734	3.00751
901.125	60.15726
901.517	20.0494
901.908	83.19793
902.299	-12.02969
902.69	16.03803
903.082	59.14275
903.473	-32.07787
903.863	31.07941
904.254	24.05604
904.645	50.12445
905.036	-13.03187
905.426	94.21351
905.817	36.08862
906.207	20.04796
906.597	43.10077
906.987	39.10133
907.378	39.09888
907.768	25.0664
908.158	21.05152
908.547	39.10098
908.937	58.1487
909.327	18.044
909.717	57.14462
910.106	15.03629
910.495	86.21343
910.885	75.18921
911.274	22.05529
911.663	79.19959
912.052	54.13323
912.441	15.0384
912.83	38.0875
913.219	76.19811
913.608	52.1274
913.997	18.0454
914.385	31.07438
914.774	20.049
915.162	10.02403
915.55	38.0922
915.939	41.10369
916.327	83.20602
916.715	61.15521
917.103	74.18143
917.491	52.12867
917.878	63.1546
918.266	42.10911
918.654	10.02574
919.041	-2.00527
919.429	33.07818
919.816	5.01278
920.203	1.00245
920.591	70.17302
920.978	39.09574
921.365	29.07638
921.752	42.10033
922.139	58.1258
922.525	19.04592
922.912	17.04173
923.299	10.02504
923.685	25.06551
924.072	78.17896
924.458	30.07461
924.844	16.03985
925.231	35.08174
925.617	2.00513
926.003	45.11515
926.389	38.09609
926.774	12.03063
927.16	46.11437
927.546	24.06155
927.931	40.10003
928.317	54.12435
928.702	71.16737
929.088	0
929.473	27.06899
929.858	-19.04654
930.243	21.05069
930.628	31.07571
931.013	18.04488
931.398	53.12187
931.783	47.12383
932.167	22.05408
932.552	43.1079
932.937	30.07475
933.321	21.05298
933.705	43.10856
934.09	60.1514
934.474	51.12116
934.858	19.04955
935.242	-3.00703
935.626	-8.02069
936.009	22.05879
936.393	31.07916
936.777	29.07454
937.16	23.06013
937.544	67.15739
937.927	6.01534
938.311	78.18946
938.694	38.10071
939.077	31.07449
939.46	63.15437
939.843	32.06706
940.226	72.18401
940.609	-11.02557
940.991	14.03587
941.374	8.01971
941.757	30.07432
942.139	-4.00909
942.522	46.10884
942.904	24.05799
943.286	50.12706
943.668	86.22141
944.05	11.02729
944.432	6.01493
944.814	44.10852
945.196	10.02455
945.578	-23.05544
945.959	11.02598
946.341	61.14947
946.722	33.07773
947.104	22.05288
947.485	35.0817
947.866	36.09094
948.247	18.04568
948.628	46.11232
949.009	10.02579
949.39	58.1442
949.771	24.05612
950.152	38.09348
950.532	-23.05734
950.913	75.18009
951.293	2.00545
951.674	55.13292
952.054	25.06224
952.434	17.04246
952.814	1.0024
953.194	43.11268
953.574	52.12806
953.954	33.07864
954.334	22.05512
954.714	-6.01478
955.093	48.11808
955.473	3.00757
955.853	24.06241
956.232	21.05782
956.611	49.11757
956.99	37.09321
957.37	50.12742
957.749	34.08138
958.128	26.06579
958.506	2.00523
958.885	52.13121
959.264	21.05174
959.643	26.05946
960.021	37.09191
960.4	3.00687
960.778	90.22008
961.156	2.00506
961.535	15.03521
961.913	36.08448
962.291	16.04129
962.669	13.03315
963.047	22.05642
963.424	33.08447
963.802	17.04206
964.18	89.22365
964.557	61.14021
964.935	17.04054
965.312	20.05235
965.69	72.17959
966.067	35.08548
966.444	54.13298
966.821	39.10074
967.198	89.21436
967.575	35.0863
967.952	54.12717
968.329	14.0343
968.705	22.04747
969.082	38.09766
969.458	-34.08287
969.835	24.05871
970.211	59.15118
970.587	31.07745
970.963	49.12573
971.339	37.09683
971.715	67.16679
972.091	40.09869
972.467	70.17397
972.843	14.03497
973.219	54.12959
973.594	40.1048
973.97	68.16132
974.345	7.01689
974.721	45.10908
975.096	23.05594
975.471	25.0596
975.846	80.19111
976.221	22.05615
976.596	10.02415
976.971	65.16004
977.346	46.10719
977.72	56.14251
978.095	74.19045
978.469	58.13824
978.844	84.20991
979.218	-4.00969
979.593	14.03378
979.967	78.18904
980.341	26.06016
980.715	32.08089
981.089	53.13261
981.463	22.0508
981.837	0
982.21	70.16228
982.584	9.02191
982.957	30.07518
983.331	17.04045
983.704	-16.03979
984.078	23.05696
984.451	95.23537
984.824	16.03921
985.197	61.14786
985.57	41.10299
985.943	70.17226
986.316	44.10824
986.688	68.16344
987.061	29.06826
987.434	34.08884
987.806	29.07061
988.179	18.04274
988.551	33.08397
988.923	60.14749
989.295	71.17675
989.667	34.08147
990.039	33.08179
990.411	21.04862
990.783	47.10829
991.155	13.03145
991.527	56.13776
991.898	52.12952
992.27	16.03982
992.641	70.17499
993.012	55.1293
993.384	-9.02171
993.755	12.0308
994.126	-11.02676
994.497	9.02226
994.868	48.11031
995.239	40.09712
995.61	26.0657
995.98	12.02936
996.351	-22.05519
996.722	-11.02582
997.092	12.02862
997.462	-34.08072
997.833	57.13494
998.203	37.08992
998.573	24.06004
998.943	9.02127
999.313	4.00967
999.683	-12.02914
1000.053	16.03706
1000.423	38.09255
1000.792	4.01045
1001.162	29.07164
1001.531	44.1086
1001.901	22.05512
1002.27	33.07403
1002.639	36.0922
1003.009	34.0811
1003.378	21.05396
1003.747	42.09937
1004.116	6.01448
1004.485	9.02168
1004.853	23.05854
1005.222	39.09853
1005.591	26.06202
1005.959	-4.00911
1006.328	43.0969
1006.696	2.00487
1007.064	52.13074
1007.433	13.0327
1007.801	32.07881
1008.169	60.15123
1008.537	7.01564
1008.905	-16.03775
1009.273	48.1186
1009.64	8.01924
1010.008	43.10262
1010.375	80.19315
1010.743	98.22413
1011.11	-6.01435
1011.478	6.01497
1011.845	51.1199
1012.212	-11.0252
1012.579	38.09348
1012.946	14.03355
1013.313	49.11663
1013.68	25.05647
1014.047	-22.05314
1014.414	-12.02868
1014.78	28.06984
1015.147	42.10171
1015.513	48.11567
1015.88	68.1733
1016.246	40.09891
1016.612	43.09856
1016.978	26.06398
1017.344	31.07686
1017.71	47.11466
1018.076	86.20135
1018.442	45.11583
1018.808	47.11751
1019.174	11.02778
1019.539	117.2657
1019.905	26.06159
1020.27	34.08413
1020.636	43.10321
1021.001	51.12204
1021.366	13.03143
1021.731	29.07483
1022.096	-12.03059
1022.461	7.0167
1022.826	5.01198
1023.191	32.08418
1023.556	20.04714
1023.92	18.04451
1024.285	28.0686
1024.649	22.05418
1025.014	55.13607
1025.378	23.05809
1025.742	21.05241
1026.107	1.00228
1026.471	60.13976
1026.835	28.06967
1027.199	-29.07082
1027.562	90.20749
1027.926	60.1464
1028.29	35.08877
1028.654	67.15357
1029.017	70.17137
1029.381	18.04325
1029.744	25.06402
1030.107	91.21351
1030.471	75.17865
1030.834	53.12046
1031.197	62.14896
1031.56	8.01902
1031.923	36.09326
1032.286	63.14753
1032.648	81.1925
1033.011	29.06682
1033.374	43.10117
1033.736	17.04493
1034.099	-3.00738
1034.461	35.08861
1034.823	19.04756
1035.185	31.07826
1035.548	1.00245
1035.91	44.10547
1036.272	24.05489
1036.634	60.14645
1036.995	23.05432
1037.357	-1.00245
1037.719	14.03426
1038.08	35.08331
1038.442	31.07381
1038.803	42.10095
1039.165	14.03554
1039.526	21.051
1039.887	22.0529
1040.248	16.03965
1040.609	69.16983
1040.97	29.07111
1041.331	37.09385
1041.692	-4.00943
1042.053	66.14973
1042.413	28.0655
1042.774	36.08774
1043.134	73.17295
1043.495	34.08567
1043.855	41.09957
1044.215	22.05486
1044.576	14.03369
1044.936	56.12818
1045.296	40.09996
1045.656	15.03703
1046.016	47.11346
1046.375	13.03174
1046.735	1.00229
1047.095	26.06111
1047.454	57.12054
1047.814	-4.00971
1048.173	61.14536
1048.533	-33.07682
1048.892	-28.06817
1049.251	78.1947
1049.61	50.12304
1049.969	63.14805
1050.328	-17.03737
1050.687	6.01471
1051.046	35.08541
1051.405	15.03753
1051.763	1.00232
1052.122	30.07505
1052.48	58.14194
1052.839	28.06612
1053.197	10.02371
1053.555	106.23881
1053.914	80.19447
1054.272	51.12321
1054.63	-15.0371
1054.988	76.17954
1055.345	40.08628
1055.703	36.08682
1056.061	46.11835
1056.419	15.03904
1056.776	30.07298
1057.134	43.09963
1057.491	36.09032
1057.848	33.08236
1058.206	-5.01188
1058.563	7.01556
1058.92	13.03017
1059.277	77.18889
1059.634	48.11291
1059.991	24.05775
1060.348	15.03412
1060.704	2.00481
1061.061	40.09306
1061.418	-1.00245
1061.774	8.01989
1062.131	16.04252
1062.487	10.02355
1062.843	68.16888
1063.199	4.01002
1063.555	28.06512
1063.911	21.05328
1064.267	92.18999
1064.623	29.07067
1064.979	95.22299
1065.335	47.11234
1065.691	64.15289
1066.046	32.07059
1066.402	48.10903
1066.757	46.11611
1067.112	57.13962
1067.468	19.0451
1067.823	44.10583
1068.178	42.10167
1068.533	32.07779
1068.888	32.07668
1069.243	39.09638
1069.598	37.09006
1069.952	-45.10323
1070.307	-4.00999
1070.662	3.00718
1071.016	14.03158
1071.371	35.07981
1071.725	11.02649
1072.079	27.06518
1072.434	30.07312
1072.788	35.08353
1073.142	47.1156
1073.496	-2.00479
1073.85	41.09518
1074.203	36.08751
1074.557	30.07999
1074.911	81.19205
1075.265	55.12763
1075.618	62.15094
1075.971	73.17275
1076.325	14.03578
1076.678	17.03911
1077.031	23.0523
1077.385	42.09261
1077.738	-18.04117
1078.091	-1.0023
1078.444	26.06061
1078.796	52.12744
1079.149	30.07483
1079.502	-12.02867
1079.855	49.11421
1080.207	19.04704
1080.56	-6.01565
1080.912	34.08296
1081.264	41.09882
1081.617	14.03432
1081.969	11.02792
1082.321	0
1082.673	31.07097
1083.025	46.10913
1083.377	-189.42624
1083.728	79.18311
1084.08	24.06015
1084.432	58.13956
1084.783	46.10778
1085.135	18.04534
1085.486	-5.01156
1085.838	15.03715
1086.189	-20.04914
1086.54	46.10985
1086.891	-11.0281
1087.242	53.12886
1087.593	67.16247
1087.944	24.05456
1088.295	78.17616
1088.646	14.03413
1088.996	-19.04633
1089.347	46.11286
1089.698	23.0546
1090.048	31.08071
1090.398	37.08597
1090.749	-8.01934
1091.099	24.06058
1091.449	57.14169
1091.799	11.02771
1092.149	-38.0941
1092.499	64.15557
1092.849	23.05869
1093.199	44.11031
1093.548	26.0627
1093.898	42.10514
1094.248	51.13091
1094.597	-23.05941
1094.947	-13.03501
1095.296	10.02485
1095.645	29.07563
1095.994	23.05548
1096.343	30.0757
1096.692	14.03697
1097.041	-5.01365
1097.39	23.05792
1097.739	26.0678
1098.088	65.17356
1098.437	-27.07178
1098.785	39.10524
1099.134	95.25013
1099.482	51.14012
1099.83	37.09735
1100.179	28.07324
1100.527	32.08521
1100.875	-15.04005
1101.223	21.05598
1101.571	47.12983
1101.919	18.04724
1102.267	12.03395
1102.615	-3.00965
1102.962	7.02255
1103.31	3.00964
1103.658	14.04508
