Data from N2 R7 sample 7_Subt2__3__15-23-22-585.txt Node

Date: Fri Aug 29 15:23:22 PDT 2025
User: uwsun
Spectrometer: HDX01956
Trigger mode: 0
Integration Time (sec): 5.000000E-1
Scans to average: 1
Nonlinearity correction enabled: true
Boxcar width: 0
Storing dark spectrum: false
XAxis mode: Wavelengths
Number of Pixels in Spectrum: 2068
>>>>>Begin Spectral Data<<<<<
194.03	208.56496
194.578	200.61668
195.127	227.68665
195.676	205.62394
196.225	277.70049
196.773	242.63765
197.321	373.9388
197.87	510.14067
198.418	484.07264
198.966	440.99237
199.513	409.88039
200.061	367.8117
200.609	470.07996
201.156	380.71184
201.704	406.885
202.251	448.02357
202.798	428.96335
203.345	496.04578
203.892	435.94479
204.438	448.91933
204.985	502.99433
205.532	491.10285
206.078	538.10915
206.624	479.99824
207.17	480.94497
207.716	478.98354
208.262	476.78341
208.808	434.9103
209.354	428.89256
209.899	541.16005
210.445	471.99378
210.99	440.90413
211.535	517.02254
212.08	515.0062
212.625	516.09469
213.17	490.06023
213.715	444.82969
214.259	465.92341
214.804	509.06877
215.348	507.97723
215.892	512.03653
216.436	550.06684
216.98	572.04782
217.524	437.88562
218.068	534.13886
218.612	536.14412
219.155	477.95519
219.698	418.86125
220.242	476.02155
220.785	488.97112
221.328	419.90927
221.871	470.03074
222.414	449.97062
222.956	392.81967
223.499	430.83219
224.041	448.90231
224.583	466.86219
225.126	404.76989
225.668	401.84833
226.21	386.84997
226.751	404.7583
227.293	433.85424
227.835	389.82835
228.376	459.91234
228.918	464.01285
229.459	420.90542
230	416.85752
230.541	439.87137
231.082	448.93468
231.622	453.89622
232.163	395.83161
232.704	425.91128
233.244	431.92455
233.784	450.9551
234.324	402.75342
234.864	409.79931
235.404	404.83615
235.944	401.82716
236.484	414.90052
237.023	452.91288
237.563	412.81873
238.102	448.90729
238.641	446.97382
239.18	433.86387
239.719	469.00844
240.258	446.85613
240.797	476.96664
241.335	442.93239
241.874	406.6596
242.412	440.90536
242.95	391.80472
243.488	495.95181
244.026	419.82584
244.564	432.75222
245.102	404.77663
245.64	487.99958
246.177	408.78432
246.715	483.98645
247.252	480.93341
247.789	484.75902
248.326	435.88802
248.863	441.81613
249.4	531.00318
249.936	426.73902
250.473	432.85687
251.009	490.93834
251.546	463.85685
252.082	489.89459
252.618	479.89134
253.154	468.94909
253.69	433.82657
254.226	443.89819
254.761	494.92543
255.297	476.86838
255.832	456.91166
256.367	435.87068
256.903	448.82557
257.438	493.97262
257.972	448.83965
258.507	408.79074
259.042	438.79944
259.576	397.71854
260.111	457.89185
260.645	511.91362
261.179	471.91918
261.713	473.87536
262.247	458.8885
262.781	415.72777
263.315	462.95191
263.849	479.00523
264.382	473.91125
264.915	518.99964
265.449	405.83203
265.982	459.87578
266.515	481.98147
267.048	432.76098
267.58	469.85539
268.113	487.86351
268.646	504.03241
269.178	461.8523
269.71	495.89048
270.243	499.94334
270.775	552.15795
271.307	492.99047
271.838	501.99397
272.37	526.06784
272.902	518.96848
273.433	487.87429
273.965	549.09458
274.496	502.04037
275.027	520.06429
275.558	476.96003
276.089	441.9019
276.62	547.15073
277.15	517.05647
277.681	460.82686
278.211	489.99915
278.741	430.78206
279.272	505.93974
279.802	544.11451
280.332	523.00253
280.861	524.03132
281.391	524.9613
281.921	523.03346
282.45	517.06554
282.98	521.12286
283.509	479.88071
284.038	539.99007
284.567	533.01287
285.096	508.004
285.625	461.85699
286.153	541.01862
286.682	503.9309
287.21	523.01847
287.739	529.0077
288.267	480.94942
288.795	563.20886
289.323	517.96924
289.851	535.00631
290.378	531.95184
290.906	510.99364
291.433	539.08457
291.961	504.9125
292.488	555.10913
293.015	518.97375
293.542	511.04371
294.069	554.08332
294.596	574.13417
295.122	621.15581
295.649	571.98573
296.175	567.09281
296.702	610.16317
297.228	597.14522
297.754	581.01274
298.28	574.01133
298.806	654.20741
299.332	579.98412
299.857	608.05127
300.383	582.16829
300.908	491.94366
301.433	558.05919
301.958	614.09552
302.483	544.06574
303.008	601.15957
303.533	586.20666
304.058	674.20717
304.582	579.0492
305.107	580.18089
305.631	669.14933
306.155	619.08824
306.679	545.97947
307.203	664.14773
307.727	638.14255
308.251	629.18524
308.775	580.03953
309.298	637.13695
309.822	705.33068
310.345	713.23885
310.868	646.14978
311.391	674.24068
311.914	651.21897
312.437	728.20266
312.96	693.18686
313.482	678.17261
314.005	668.24255
314.527	654.28346
315.049	700.3067
315.571	689.07689
316.093	745.32332
316.615	686.19025
317.137	711.07791
317.659	853.43982
318.18	794.3454
318.702	756.22079
319.223	771.05375
319.744	730.12365
320.265	730.23
320.786	809.36164
321.307	785.34557
321.828	853.26639
322.348	827.29413
322.869	786.23367
323.389	811.77505
323.909	777.18607
324.43	912.44297
324.95	840.23454
325.47	856.3657
325.989	846.27463
326.509	854.15452
327.029	866.20009
327.548	921.24197
328.067	887.32508
328.587	930.4505
329.106	923.25451
329.625	991.65364
330.144	888.22995
330.662	949.28333
331.181	950.30535
331.7	998.3443
332.218	956.15397
332.736	969.30197
333.255	1002.3055
333.773	1004.33468
334.291	1103.55195
334.808	1018.20742
335.326	1022.2317
335.844	1044.26753
336.361	1026.42052
336.879	1062.27117
337.396	1069.33869
337.913	1129.274
338.43	1188.25413
338.947	1176.36053
339.464	1110.08403
339.981	1149.29883
340.497	1198.43694
341.014	1208.3856
341.53	1173.17449
342.046	1211.37404
342.562	1280.47053
343.078	1258.29015
343.594	1279.32874
344.11	1278.3057
344.626	1296.43717
345.141	1302.18519
345.657	1322.19845
346.172	1321.30807
346.687	1332.17736
347.202	1297.09787
347.717	1348.25465
348.232	1421.39533
348.747	1453.1668
349.261	1418.97963
349.776	1449.19349
350.29	1406.25267
350.805	1536.35245
351.319	1542.16032
351.833	1418.02007
352.347	1459.12561
352.861	1472.08583
353.374	1616.10616
353.888	1476.17835
354.401	1539.03825
354.915	1512.91894
355.428	1568.20047
355.941	1607.00871
356.454	1639.96278
356.967	1525.0517
357.48	1618.98152
357.993	1600.14262
358.505	1697.09215
359.018	1722.09186
359.53	1705.00832
360.042	1746.81114
360.554	1821.02916
361.066	1660.00752
361.578	1708.72323
362.09	1736.93813
362.602	1734.70314
363.113	1793.81086
363.625	1813.70538
364.136	1882.63679
364.647	1718.69107
365.158	1880.72593
365.669	1881.79682
366.18	1964.7201
366.691	1921.53975
367.201	1834.73931
367.712	1900.55646
368.222	1903.5495
368.733	1963.34774
369.243	2028.34046
369.753	1961.48109
370.263	2069.50434
370.773	2056.5714
371.282	2110.3816
371.792	2105.15349
372.301	2204.25875
372.811	2216.46599
373.32	2165.84898
373.829	2297.95954
374.338	2405.71895
374.847	2362.73665
375.356	2455.68395
375.865	2569.28472
376.373	2721.25754
376.882	2870.41608
377.39	2916.20405
377.898	2825.11991
378.407	3013.83
378.915	3291.65058
379.423	3329.65774
379.93	3351.59249
380.438	3376.57107
380.946	3585.54584
381.453	3766.59569
381.96	3817.73719
382.468	3919.10209
382.975	4626.81918
383.482	4800.67452
383.989	4574.99731
384.495	4700.14403
385.002	5075.69254
385.509	5373.67135
386.015	5589.28757
386.521	5938.91246
387.028	6281.53429
387.534	6390.05892
388.04	6806.19772
388.546	6623.16466
389.051	6813.39104
389.557	7388.5577
390.063	8463.60969
390.568	8688.09739
391.073	8763.02266
391.578	9129.36991
392.084	8874.76142
392.589	9005.46224
393.093	9339.99809
393.598	10816.15939
394.103	11837.22733
394.607	13058.56837
395.112	14062.28094
395.616	14800.32888
396.12	15527.95516
396.624	17110.7563
397.128	18376.21569
397.632	20767.87715
398.136	22448.76369
398.639	22272.51975
399.143	23538.40476
399.646	26578.95577
400.15	24412.3884
400.653	20124.16724
401.156	13866.23708
401.659	5169.95759
402.162	1054.15589
402.664	0
403.167	0
403.67	0
404.172	0
404.674	0
405.176	0
405.678	0
406.18	0
406.682	0
407.184	0
407.686	0
408.187	0
408.688	0
409.19	0
409.691	0
410.192	0
410.693	0
411.194	435.30976
411.694	4082.94878
412.195	8864.71461
412.696	12089.80453
413.196	12760.96929
413.696	12863.67595
414.196	13703.56671
414.696	17261.84252
415.196	21764.24417
415.696	29583.19008
416.196	36460.31858
416.695	37648.4029
417.195	30192.68241
417.694	28416.37792
418.194	27179.80404
418.693	24632.29798
419.192	23966.34215
419.691	23435.63616
420.19	23277.20808
420.688	23129.21964
421.187	22298.68071
421.685	21342.97919
422.184	19517.00574
422.682	16862.84971
423.18	13637.01769
423.678	12108.53498
424.176	10987.37676
424.674	10453.98504
425.172	10205.04389
425.669	9743.7019
426.167	9178.68818
426.664	8406.73636
427.161	7514.33082
427.659	6954.33388
428.156	6474.29682
428.652	5979.05053
429.149	5700.9298
429.646	5660.6806
430.143	5248.55223
430.639	4972.82066
431.135	4576.97921
431.632	4373.82975
432.128	3983.54406
432.624	3736.53199
433.12	3431.55222
433.616	3407.55876
434.111	3090.69222
434.607	3043.78906
435.103	3111.72908
435.598	3094.76093
436.093	2908.11074
436.588	2811.19795
437.083	2719.35084
437.578	2600.53761
438.073	2327.85246
438.568	2330.0098
439.062	2266.749
439.557	2229.09948
440.051	2212.01788
440.546	1940.16958
441.04	1844.3712
441.534	1964.54538
442.028	1875.48638
442.522	1774.51427
443.015	1799.32987
443.509	1796.6423
444.002	1652.67044
444.496	1620.44804
444.989	1575.72801
445.482	1649.77141
445.975	1604.53615
446.468	1567.47048
446.961	1628.47192
447.454	1513.63188
447.947	1442.71481
448.439	1451.83378
448.931	1314.64085
449.424	1470.96312
449.916	1499.87419
450.408	1360.68829
450.9	1290.84424
451.392	1236.93924
451.884	1306.79566
452.375	1208.90689
452.867	1285.80806
453.358	1206.757
453.849	1210.66798
454.341	1181.77637
454.832	1094.68535
455.323	1131.92273
455.814	1184.85957
456.304	1153.86498
456.795	1113.84744
457.285	1109.83994
457.776	1121.90811
458.266	1081.92823
458.756	1063.97592
459.247	945.87786
459.737	922.87418
460.226	981.82591
460.716	887.88766
461.206	949.95433
461.695	893.01058
462.185	871.89864
462.674	922.90952
463.163	897.84168
463.653	883.7624
464.142	804.90887
464.63	867.00631
465.119	741.81596
465.608	841.89595
466.096	805.81781
466.585	787.8987
467.073	773.94704
467.561	714.90356
468.05	771.91636
468.538	707.94308
469.026	752.95383
469.513	680.72958
470.001	685.82446
470.489	637.83364
470.976	730.90979
471.463	659.95129
471.951	638.94534
472.438	596.81189
472.925	578.78732
473.412	637.94414
473.899	574.79108
474.385	553.84598
474.872	532.75931
475.359	544.83146
475.845	501.62528
476.331	524.70943
476.817	499.7937
477.303	439.66745
477.789	430.69193
478.275	419.70203
478.761	483.77661
479.247	461.68549
479.732	374.64431
480.218	370.68351
480.703	399.69382
481.188	391.56826
481.673	343.55109
482.158	331.48011
482.643	410.75173
483.128	296.48219
483.612	355.59379
484.097	327.59031
484.581	298.51088
485.066	314.56177
485.55	232.37536
486.034	292.4594
486.518	257.44922
487.002	238.44009
487.486	260.48077
487.969	253.46958
488.453	217.4277
488.936	213.3674
489.42	237.40117
489.903	221.43886
490.386	244.2933
490.869	227.38341
491.352	272.52337
491.835	240.38239
492.318	214.37692
492.8	222.35573
493.283	191.3885
493.765	151.29986
494.247	197.37093
494.73	222.38712
495.212	186.36617
495.694	112.21301
496.175	99.19099
496.657	222.42366
497.139	225.30733
497.62	71.13875
498.102	144.2931
498.583	136.28287
499.064	99.18118
499.545	114.21502
500.026	127.23371
500.507	79.15358
500.988	131.27156
501.469	83.17445
501.949	135.27948
502.43	53.10584
502.91	98.16736
503.39	86.18326
503.87	57.11308
504.35	112.22329
504.83	94.17207
505.31	55.11335
505.79	82.16554
506.269	77.15319
506.749	37.07196
507.228	23.04623
507.707	78.1461
508.187	72.14762
508.666	24.0507
509.145	-16.0324
509.623	61.12244
510.102	1.00211
510.581	75.1561
511.059	16.03472
511.538	62.13911
512.016	74.15193
512.494	57.1198
512.972	39.08063
513.45	-30.0604
513.928	52.10874
514.406	-8.01668
514.884	7.01575
515.361	58.11999
515.839	77.15033
516.316	23.04823
516.793	26.05781
517.27	18.03841
517.747	10.02252
518.224	21.0426
518.701	35.06791
519.178	-20.04362
519.654	70.14527
520.131	8.01743
520.607	53.11532
521.083	-27.05464
521.56	48.09899
522.036	53.10151
522.512	54.11717
522.987	-41.08629
523.463	0
523.939	21.04558
524.414	19.03884
524.89	-30.06357
525.365	29.05772
525.84	-33.06945
526.315	-34.07308
526.79	-2.004
527.265	1.00202
527.74	-18.03911
528.215	38.07893
528.689	-28.0553
529.164	38.0728
529.638	-2.0046
530.112	-1.00209
530.587	-74.14197
531.061	-33.07113
531.534	-5.01086
532.008	-28.06024
532.482	12.02456
532.956	-59.1354
533.429	11.02377
533.903	28.05507
534.376	24.04707
534.849	-15.03121
535.322	-24.05094
535.795	11.02404
536.268	-38.08231
536.741	16.03436
537.213	74.15083
537.686	15.03251
538.158	-79.16025
538.631	7.0153
539.103	-13.02603
539.575	12.02238
540.047	73.14131
540.519	37.07893
540.991	15.03297
541.463	67.14367
541.934	20.04084
542.406	10.02128
542.877	55.10983
543.348	54.11602
543.82	90.19512
544.291	77.15919
544.762	65.13583
545.233	41.09122
545.703	63.12242
546.174	132.26672
546.645	72.15016
547.115	137.28578
547.585	169.33388
548.056	120.24915
548.526	162.32463
548.996	179.36841
549.466	248.51237
549.935	229.45284
550.405	246.44623
550.875	274.53712
551.344	295.58554
551.814	286.54236
552.283	338.59754
552.752	323.60939
553.221	333.57933
553.69	435.75885
554.159	422.82218
554.628	388.68488
555.096	460.92307
555.565	410.72372
556.033	410.77791
556.502	469.90702
556.97	465.81806
557.438	478.90783
557.906	470.90177
558.374	528.9623
558.842	534.0165
559.31	564.99569
559.777	494.96247
560.245	612.13367
560.712	587.07617
561.18	625.06955
561.647	724.22782
562.114	649.14588
562.581	752.42684
563.048	812.40648
563.514	809.49978
563.981	853.44996
564.448	842.39927
564.914	930.58507
565.381	980.60532
565.847	1078.78122
566.313	1088.77902
566.779	1085.70473
567.245	1147.85563
567.711	1173.93943
568.176	1126.73035
568.642	1239.12794
569.108	1295.13758
569.573	1430.1631
570.038	1396.82253
570.504	1402.97627
570.969	1487.39502
571.434	1506.98937
571.899	1527.2562
572.363	1585.16491
572.828	1712.27474
573.293	1703.26478
573.757	1684.25596
574.222	1706.15984
574.686	1722.17905
575.15	1758.40622
575.614	1759.28715
576.078	1837.40681
576.542	1801.29304
577.006	1785.24443
577.469	1848.64213
577.933	1735.18312
578.396	1820.46092
578.86	1771.39878
579.323	1673.36072
579.786	1698.06747
580.249	1522.11044
580.712	1655.45363
581.175	1606.43803
581.637	1570.20844
582.1	1565.06172
582.563	1466.93834
583.025	1438.23719
583.487	1401.71994
583.95	1343.82273
584.412	1415.83963
584.874	1295.10591
585.336	1306.05257
585.797	1256.7797
586.259	1280.02873
586.721	1187.90561
587.182	1162.89214
587.643	1149.7996
588.105	1028.74984
588.566	1045.53706
589.027	970.70228
589.488	977.61328
589.949	969.72584
590.41	929.27343
590.87	998.64854
591.331	967.50539
591.791	867.49049
592.252	823.41163
592.712	856.5544
593.172	813.38029
593.632	857.40201
594.092	849.41443
594.552	746.22636
595.011	796.38307
595.471	762.3043
595.931	772.31085
596.39	704.31678
596.849	767.37095
597.308	717.20312
597.768	722.44046
598.227	706.33485
598.685	710.27636
599.144	747.34955
599.603	775.41308
600.062	673.09222
600.52	697.20395
600.978	700.3009
601.437	752.32784
601.895	690.13027
602.353	755.28502
602.811	701.20702
603.269	743.37925
603.727	746.38311
604.184	756.29885
604.642	756.43444
605.099	773.37317
605.557	833.54512
606.014	729.19667
606.471	768.47425
606.928	821.29811
607.385	853.54855
607.842	995.63134
608.299	1000.68194
608.755	957.68861
609.212	955.52558
609.668	910.45714
610.125	988.7421
610.581	1004.74833
611.037	982.6426
611.493	969.69209
611.949	897.61706
612.405	856.25816
612.861	922.62966
613.316	870.57108
613.772	864.49837
614.227	859.53657
614.683	918.45583
615.138	874.54461
615.593	866.52408
616.048	894.54481
616.503	889.67375
616.958	814.58747
617.412	883.58852
617.867	756.29469
618.321	847.32554
618.776	796.36483
619.23	799.46281
619.684	795.40285
620.138	815.48167
620.592	695.3631
621.046	797.47529
621.5	721.40951
621.954	750.34636
622.407	722.28868
622.861	670.33101
623.314	669.24348
623.768	669.27311
624.221	660.04852
624.674	614.17308
625.127	649.25296
625.58	686.28495
626.033	587.0897
626.485	471.97372
626.938	613.22411
627.39	564.11229
627.843	567.11324
628.295	558.09837
628.747	540.10031
629.199	511.0012
629.651	482.95203
630.103	461.92443
630.555	533.9697
631.006	475.97759
631.458	472.97819
631.909	459.93446
632.361	452.93423
632.812	366.7626
633.263	413.79603
633.714	412.79086
634.165	383.84107
634.616	385.82873
635.067	435.86625
635.518	388.84039
635.968	371.67799
636.419	339.67696
636.869	386.83642
637.319	335.71213
637.769	279.58095
638.219	378.82747
638.669	242.54252
639.119	295.67124
639.569	255.57789
640.019	325.69779
640.468	235.49695
640.918	329.73677
641.367	275.57975
641.816	265.55867
642.265	249.54476
642.714	220.48467
643.163	265.57511
643.612	177.40667
644.061	209.42221
644.51	182.39827
644.958	219.45926
645.406	203.46435
645.855	200.46989
646.303	260.57687
646.751	209.45493
647.199	220.47857
647.647	151.33692
648.095	248.54039
648.543	235.46165
648.99	191.43884
649.438	224.50506
649.885	206.48983
650.333	173.3267
650.78	180.41977
651.227	188.44101
651.674	155.3437
652.121	189.44396
652.568	163.38393
653.015	234.56729
653.461	172.39653
653.908	206.46315
654.354	228.52331
654.801	183.41557
655.247	193.41153
655.693	153.38819
656.139	165.38517
656.585	192.44634
657.031	119.27232
657.477	185.38848
657.922	152.34217
658.368	190.45526
658.813	220.49564
659.259	158.37035
659.704	159.36225
660.149	165.37576
660.594	135.31514
661.039	127.28548
661.484	192.44722
661.929	127.29332
662.373	160.3943
662.818	167.40495
663.262	164.38636
663.707	178.44011
664.151	196.46659
664.595	157.37153
665.039	175.42626
665.483	133.33349
665.927	195.44892
666.371	136.31029
666.814	174.40801
667.258	117.27398
667.701	224.47234
668.145	182.44405
668.588	125.30391
669.031	132.30686
669.474	152.36116
669.917	164.35934
670.36	209.50564
670.803	188.44548
671.245	142.29812
671.688	162.38995
672.13	154.34155
672.573	202.50219
673.015	182.42977
673.457	177.3807
673.899	223.52749
674.341	125.30003
674.783	128.30484
675.225	162.39305
675.666	140.33316
676.108	212.45234
676.549	165.38683
676.991	169.36928
677.432	156.30971
677.873	161.36932
678.314	181.42616
678.755	213.50735
679.196	211.4741
679.637	224.53569
680.078	193.44556
680.518	214.4904
680.959	192.45285
681.399	216.52425
681.839	226.538
682.28	185.44927
682.72	179.40501
683.16	227.55208
683.6	204.45884
684.039	202.41603
684.479	198.4775
684.919	179.40715
685.358	265.65314
685.798	234.59798
686.237	220.52211
686.676	235.53473
687.115	257.58833
687.554	236.54796
687.993	229.49741
688.432	226.50665
688.871	200.44726
689.309	270.62615
689.748	246.50437
690.186	257.59872
690.625	247.56499
691.063	230.53994
691.501	261.62786
691.939	257.62339
692.377	245.58311
692.815	270.6269
693.253	294.6845
693.69	283.60369
694.128	228.54046
694.565	251.58428
695.003	273.67236
695.44	291.66187
695.877	252.57376
696.314	261.54855
696.751	326.71636
697.188	283.63038
697.625	332.73384
698.061	253.59172
698.498	328.76364
698.934	316.73339
699.371	300.68192
699.807	309.70536
700.243	285.66446
700.679	347.75304
701.115	359.8089
701.551	329.74526
701.987	328.71015
702.422	304.69689
702.858	319.73171
703.294	314.68652
703.729	352.82435
704.164	335.77394
704.599	311.6686
705.035	296.6406
705.47	295.69345
705.904	327.73199
706.339	334.7475
706.774	304.68766
707.209	303.67464
707.643	346.79601
708.078	318.74561
708.512	240.58576
708.946	312.72182
709.38	315.71964
709.814	268.59684
710.248	320.75118
710.682	293.67424
711.116	272.62929
711.549	255.64119
711.983	282.63218
712.416	290.6648
712.85	275.66579
713.283	277.63666
713.716	347.83595
714.149	316.72672
714.582	291.63314
715.015	297.71985
715.448	287.7011
715.881	286.60811
716.313	253.57848
716.746	221.5106
717.178	244.57303
717.61	236.58542
718.043	270.6543
718.475	268.63184
718.907	296.72564
719.339	162.36483
719.77	163.38319
720.202	255.62827
720.634	243.57702
721.065	208.48525
721.497	210.50605
721.928	177.42952
722.359	146.34984
722.79	181.42815
723.221	231.56936
723.652	223.56436
724.083	162.36318
724.514	221.49881
724.945	171.39839
725.375	173.39732
725.806	220.53915
726.236	203.51174
726.666	211.49137
727.096	191.46244
727.526	131.33131
727.956	141.31968
728.386	203.49205
728.816	143.35946
729.246	146.35263
729.675	122.29966
730.105	132.32411
730.534	148.34487
730.964	156.39151
731.393	234.56942
731.822	178.44912
732.251	165.41461
732.68	168.39302
733.109	155.3791
733.537	136.32724
733.966	144.35553
734.395	141.32474
734.823	120.27168
735.251	121.29132
735.68	203.50054
736.108	173.43284
736.536	158.37035
736.964	97.22635
737.392	141.351
737.82	127.30449
738.247	139.33186
738.675	173.4097
739.102	95.23787
739.53	108.27475
739.957	109.28008
740.384	139.34173
740.811	134.33823
741.238	84.20618
741.665	94.21913
742.092	141.3356
742.519	82.20387
742.945	136.32538
743.372	100.24808
743.798	140.35766
744.225	125.29683
744.651	93.23403
745.077	106.2645
745.503	111.27108
745.929	66.15989
746.355	201.49232
746.781	116.28724
747.207	84.19821
747.632	99.24169
748.058	112.27937
748.483	136.31241
748.908	106.26354
749.334	99.24376
749.759	108.25513
750.184	71.17049
750.609	139.33997
751.033	158.37107
751.458	121.27199
751.883	148.36433
752.307	83.19664
752.732	68.17085
753.156	99.24492
753.58	135.31972
754.005	136.3434
754.429	98.23115
754.853	77.19175
755.277	105.24905
755.7	134.33084
756.124	43.1079
756.548	72.172
756.971	135.32822
757.394	105.27027
757.818	75.19379
758.241	93.2363
758.664	108.27241
759.087	4.00914
759.51	122.30276
759.933	71.17204
760.356	107.27398
760.778	99.24376
761.201	107.26054
761.623	136.32861
762.046	109.25914
762.468	160.38119
762.89	138.33884
763.312	95.23261
763.734	77.18651
764.156	106.26171
764.578	124.28508
765	95.23235
765.421	51.1305
765.843	120.31323
766.264	107.25878
766.686	116.29071
767.107	92.22355
767.528	39.09941
767.949	92.23421
768.37	75.18507
768.791	85.20658
769.212	85.21383
769.632	32.07565
770.053	82.21623
770.473	89.21711
770.894	108.27017
771.314	120.28622
771.734	52.12256
772.154	126.32178
772.575	84.19582
772.994	55.12632
773.414	142.33883
773.834	89.22284
774.254	103.25201
774.673	88.21495
775.093	49.12229
775.512	81.2001
775.931	99.25074
776.351	105.26024
776.77	21.05205
777.189	64.15336
777.607	85.21727
778.026	78.19484
778.445	0
778.864	111.28373
779.282	67.16216
779.701	110.27637
780.119	69.17495
780.537	38.09571
780.955	90.22904
781.373	61.15174
781.791	51.11577
782.209	103.23741
782.627	45.11928
783.045	84.19381
783.462	92.23479
783.88	75.19426
784.297	74.18659
784.715	45.11628
785.132	40.09778
785.549	84.21021
785.966	61.15411
786.383	35.08694
786.8	74.17264
787.217	62.14783
787.633	83.20714
788.05	124.29304
788.466	111.26105
788.883	64.16368
789.299	70.1692
789.715	79.19236
790.131	82.20402
790.547	80.19998
790.963	49.12242
791.379	70.17732
791.795	47.10829
792.21	76.17822
792.626	100.23678
793.041	82.20246
793.457	71.17591
793.872	42.09964
794.287	8.01937
794.702	106.26017
795.117	11.02767
795.532	18.0456
795.947	90.21656
796.362	100.23834
796.776	104.24311
797.191	28.06923
797.605	13.03093
798.02	43.10541
798.434	59.1323
798.848	52.12872
799.262	76.18861
799.676	104.25281
800.09	51.12617
800.504	58.14141
800.918	26.06094
801.331	87.22767
801.745	48.1111
802.158	49.12313
802.572	43.10509
802.985	80.19352
803.398	81.19324
803.811	102.26113
804.224	51.12761
804.637	-3.00726
805.05	48.11207
805.462	74.18203
805.875	9.02358
806.288	22.05362
806.7	33.08358
807.112	59.13746
807.525	56.13877
807.937	33.08221
808.349	19.04809
808.761	52.12853
809.173	15.03678
809.584	50.12422
809.996	29.07161
810.408	37.09604
810.819	44.10419
811.231	67.17318
811.642	81.19287
812.053	109.25754
812.464	202.46866
812.875	171.42938
813.286	93.23847
813.697	130.30114
814.108	92.22414
814.519	53.11885
814.929	70.17865
815.34	26.06365
815.75	34.08695
816.16	40.10032
816.571	78.20235
816.981	55.13046
817.391	25.06094
817.801	1.00252
818.211	67.16002
818.62	34.08246
819.03	31.07658
819.44	107.27772
819.849	82.20624
820.259	39.10039
820.668	-15.03748
821.077	40.09988
821.486	51.12339
821.895	53.13146
822.304	42.11176
822.713	11.02632
823.122	36.09042
823.531	49.11672
823.939	29.07122
824.348	45.10998
824.756	65.16299
825.164	45.11377
825.573	50.12589
825.981	38.09482
826.389	46.11607
826.797	45.1132
827.205	-19.04441
827.612	88.21647
828.02	14.03324
828.428	62.15806
828.835	60.15806
829.243	21.05054
829.65	55.13707
830.057	35.08551
830.464	46.11257
830.871	54.12974
831.278	50.12131
831.685	62.13871
832.092	50.12286
832.499	27.05965
832.905	33.08406
833.312	20.04611
833.718	32.08025
834.124	24.05538
834.531	62.15644
834.937	67.17192
835.343	58.14025
835.749	49.11497
836.155	27.07114
836.561	53.13069
836.966	36.08856
837.372	68.17299
837.777	33.08269
838.183	39.08731
838.588	8.02007
838.993	49.11971
839.399	5.01236
839.804	21.05159
840.209	19.04874
840.613	4.00902
841.018	45.11434
841.423	73.18692
841.828	20.05097
842.232	64.1586
842.637	43.10192
843.041	6.01553
843.445	52.13069
843.849	18.04493
844.253	51.12158
844.657	2.00509
845.061	46.10482
845.465	18.04385
845.869	25.05857
846.272	48.1172
846.676	20.04878
847.079	67.17018
847.483	55.13741
847.886	64.15575
848.289	46.12301
848.692	60.15199
849.095	25.06049
849.498	65.16469
849.901	45.10364
850.304	56.13403
850.707	58.14797
851.109	81.20427
851.512	46.11337
851.914	-1.00255
852.316	20.05095
852.718	-9.0235
853.121	30.07393
853.523	72.16798
853.925	17.04465
854.326	12.03026
854.728	19.0492
855.13	16.04156
855.531	12.02894
855.933	71.17016
856.334	47.11743
856.736	27.06092
857.137	13.03051
857.538	13.03295
857.939	-24.06019
858.34	50.12209
858.741	66.17228
859.142	67.16076
859.542	13.03455
859.943	23.05753
860.343	-2.00501
860.744	79.19207
861.144	43.10521
861.544	32.07729
861.945	15.03852
862.345	74.18049
862.745	22.05504
863.145	67.15996
863.544	-6.01533
863.944	36.08544
864.344	49.12194
864.743	54.13411
865.143	47.12094
865.542	17.03976
865.941	54.13377
866.34	35.08423
866.74	57.15296
867.139	10.02416
867.537	45.1149
867.936	5.01216
868.335	61.1551
868.734	30.07702
869.132	2.0047
869.531	21.05115
869.929	3.00692
870.327	33.07948
870.726	85.21091
871.124	58.13558
871.522	20.05128
871.92	67.16497
872.318	5.01234
872.715	61.15091
873.113	21.05152
873.511	38.09499
873.908	-32.08204
874.306	40.09978
874.703	13.03279
875.1	50.12805
875.497	43.10337
875.894	5.01237
876.291	19.04695
876.688	28.07256
877.085	-11.02673
877.482	48.12034
877.878	0
878.275	41.10443
878.671	27.06052
879.068	57.1376
879.464	16.03897
879.86	18.04288
880.256	46.11374
880.652	33.08426
881.048	68.16814
881.444	50.11917
881.84	19.0486
882.236	34.08582
882.631	68.16653
883.027	59.1428
883.422	26.06682
883.817	-11.02797
884.213	22.05678
884.608	0
885.003	14.03402
885.398	9.02271
885.793	17.04296
886.188	37.09228
886.582	84.21437
886.977	68.16101
887.371	-1.00255
887.766	-27.06814
888.16	31.0777
888.554	63.15558
888.949	43.10821
889.343	56.13679
889.737	8.02148
890.131	24.06054
890.525	24.0617
890.918	-12.03056
891.312	28.06735
891.706	41.10781
892.099	44.11217
892.492	44.09519
892.886	14.03452
893.279	14.03592
893.672	74.18772
894.065	40.10043
894.458	14.03546
894.851	38.09341
895.244	31.07949
895.637	33.07981
896.029	89.21622
896.422	55.13437
896.814	33.08236
897.206	9.02162
897.599	62.15313
897.991	12.02925
898.383	21.04995
898.775	42.09505
899.167	-28.06635
899.559	25.06361
899.951	76.17842
900.342	36.09184
900.734	8.02001
901.125	21.0554
901.517	61.14953
901.908	44.10571
902.299	23.05655
902.69	48.11339
903.082	33.08023
903.473	2.00484
903.863	36.09213
904.254	30.06996
904.645	68.16869
905.036	-24.05895
905.426	51.11685
905.817	34.08373
906.207	16.0384
906.597	-13.0308
906.987	49.12709
907.378	25.06354
907.768	45.11912
908.158	11.02703
908.547	22.05713
908.937	46.11818
909.327	38.09255
909.717	69.1747
910.106	44.10587
910.495	35.08767
910.885	37.09398
911.274	16.04026
911.663	34.08659
912.052	78.19159
912.441	-2.00513
912.83	41.09435
913.219	62.162
913.608	60.14678
913.997	-20.05079
914.385	58.13845
914.774	32.07822
915.162	10.02403
915.55	38.0922
915.939	35.08861
916.327	54.13475
916.715	1.00257
917.103	45.11092
917.491	76.18723
917.878	10.02478
918.266	22.05735
918.654	17.0437
919.041	12.03154
919.429	17.0404
919.816	12.03064
920.203	21.05123
920.591	46.1142
920.978	3.00741
921.365	14.03697
921.752	14.03362
922.139	7.01535
922.525	-4.00971
922.912	57.1389
923.299	-14.03521
923.685	27.07073
924.072	13.03022
924.458	-5.01251
924.844	12.02991
925.231	15.03517
925.617	-38.09817
926.003	56.14302
926.389	22.05579
926.774	21.05351
927.16	33.08224
927.546	17.04365
927.931	20.0502
928.317	73.16746
928.702	38.09015
929.088	-12.02873
929.473	-7.01799
929.858	-76.18813
930.243	-7.01699
930.628	27.06599
931.013	18.04488
931.398	48.11049
931.783	77.20185
932.167	6.01479
932.552	50.12531
932.937	65.16093
933.321	-6.01521
933.705	39.09853
934.09	83.20857
934.474	29.06918
934.858	24.06254
935.242	-8.01876
935.626	16.04121
936.009	12.03212
936.393	58.1474
936.777	-2.00517
937.16	45.1172
937.544	38.08977
937.927	16.04085
938.311	104.25138
938.694	47.12438
939.077	18.04336
939.46	47.11551
939.843	24.05039
940.226	37.09514
940.609	14.03238
940.991	21.05374
941.374	12.02954
941.757	71.17456
942.139	1.00227
942.522	46.10884
942.904	21.05077
943.286	28.07143
943.668	1.00261
944.05	31.07664
944.432	4.00996
944.814	29.07172
945.196	0
945.578	-22.05302
945.959	10.02362
946.341	61.14947
946.722	25.05898
947.104	56.13373
947.485	26.0608
947.866	-13.03312
948.247	35.08855
948.628	56.13648
949.009	49.12551
949.39	57.14174
949.771	40.09325
950.152	13.03213
950.532	-17.04234
950.913	22.05336
951.293	12.03262
951.674	43.10415
952.054	47.11653
952.434	-1.00251
952.814	43.10247
953.194	52.13606
953.574	62.1524
953.954	7.01676
954.334	19.04763
954.714	-5.01231
955.093	67.16424
955.473	23.0578
955.853	26.06759
956.232	39.10708
956.611	33.07942
956.99	20.05054
957.37	51.12995
957.749	25.05994
958.128	14.0355
958.506	59.15282
958.885	24.06086
959.264	29.07135
959.643	31.07083
960.021	0
960.4	11.02513
960.778	84.20564
961.156	6.01516
961.535	58.135
961.913	33.07749
962.291	2.00517
962.669	39.09899
963.047	43.10988
963.424	9.02313
963.802	48.11808
964.18	86.21622
964.557	57.13112
964.935	69.16291
965.312	-6.01577
965.69	85.21152
966.067	41.10002
966.444	40.09876
966.821	35.09047
967.198	30.07306
967.575	48.11808
967.952	56.13183
968.329	32.07814
968.705	21.04532
969.082	41.10532
969.458	-26.06327
969.835	72.17456
970.211	40.10284
970.587	67.1663
970.963	63.16126
971.339	18.04726
971.715	56.13969
972.091	50.12313
972.467	54.1346
972.843	11.02749
973.219	36.08669
973.594	32.08396
973.97	65.1543
974.345	36.08639
974.721	35.085
975.096	29.07046
975.471	41.09744
975.846	59.14151
976.221	24.06123
976.596	-21.05102
976.971	58.14299
977.346	60.13943
977.72	6.0154
978.095	-8.02088
978.469	43.10278
978.844	70.17537
979.218	-2.00484
979.593	62.14822
979.967	42.10248
980.341	31.07165
980.715	43.10848
981.089	63.15735
981.463	18.0416
981.837	9.02216
982.21	59.13708
982.584	42.1016
982.957	6.0151
983.331	52.12289
983.704	22.05434
984.078	9.02235
984.451	59.14714
984.824	13.03188
985.197	52.12626
985.57	14.03534
985.943	83.20376
986.316	92.22431
986.688	22.05334
987.061	32.07527
987.434	36.09403
987.806	71.17152
988.179	-15.03584
988.551	52.13187
988.923	30.07415
989.295	101.25005
989.667	-18.04356
990.039	39.09656
990.411	61.1401
990.783	47.10829
991.155	18.04351
991.527	87.21279
991.898	5.01256
992.27	13.03237
992.641	62.15521
993.012	74.17332
993.384	28.06707
993.755	42.10723
994.126	18.04356
994.497	4.0099
994.868	49.11258
995.239	31.0754
995.61	43.10833
995.98	-24.0591
996.351	30.07456
996.722	19.04434
997.092	-12.02875
997.462	19.04465
997.833	18.04293
998.203	47.11401
998.573	37.09234
998.943	35.08231
999.313	42.10079
999.683	3.00726
1000.053	13.03013
1000.423	47.11427
1000.792	38.09868
1001.162	-16.03985
1001.531	42.1037
1001.901	1.00251
1002.27	-22.04991
1002.639	28.07181
1003.009	24.05736
1003.378	16.04115
1003.747	29.06879
1004.116	43.10302
1004.485	14.03369
1004.853	54.1367
1005.222	25.06332
1005.591	36.0857
1005.959	-20.0457
1006.328	-15.0342
1006.696	15.03641
1007.064	7.01774
1007.433	42.10511
1007.801	41.1008
1008.169	42.10621
1008.537	38.08435
1008.905	-44.10439
1009.273	58.14304
1009.64	7.01683
1010.008	45.10736
1010.375	45.10937
1010.743	59.136
1011.11	8.01908
1011.478	39.0967
1011.845	54.12687
1012.212	-5.01144
1012.579	28.06901
1012.946	15.03594
1013.313	61.14486
1013.68	39.08785
1014.047	49.11676
1014.414	0
1014.78	28.06984
1015.147	72.17338
1015.513	36.08695
1015.88	101.2559
1016.246	29.07185
1016.612	56.12802
1016.978	32.07866
1017.344	35.08672
1017.71	36.088
1018.076	32.07571
1018.442	29.07486
1018.808	38.09516
1019.174	56.14029
1019.539	74.16951
1019.905	13.03087
1020.27	3.00747
1020.636	42.10083
1021.001	-11.02663
1021.366	-3.00727
1021.731	66.16921
1022.096	-17.04338
1022.461	53.12533
1022.826	20.0478
1023.191	24.06322
1023.556	36.08458
1023.92	62.15207
1024.285	44.10748
1024.649	48.11764
1025.014	62.15319
1025.378	19.04802
1025.742	36.0896
1026.107	-15.03437
1026.471	70.16273
1026.835	11.02745
1027.199	43.10361
1027.562	15.0351
1027.926	51.12465
1028.29	42.10639
1028.654	42.09675
1029.017	61.14959
1029.381	37.08857
1029.744	18.04615
1030.107	51.1206
1030.471	31.07447
1030.834	34.07757
1031.197	49.11802
1031.56	29.06868
1031.923	14.03641
1032.286	61.1429
1032.648	27.06483
1033.011	34.07826
1033.374	78.18226
1033.736	-21.05585
1034.099	78.18904
1034.461	32.08106
1034.823	24.06002
1035.185	43.10833
1035.548	54.13127
1035.91	33.07927
1036.272	41.09345
1036.634	61.14886
1036.995	38.08949
1037.357	19.04647
1037.719	52.12636
1038.08	22.0525
1038.442	49.11627
1038.803	22.05308
1039.165	41.10358
1039.526	77.18503
1039.887	-2.00483
1040.248	-12.02989
1040.609	76.18682
1040.97	38.09303
1041.331	36.09132
1041.692	-22.05205
1042.053	92.20761
1042.413	29.06783
1042.774	34.0829
1043.134	94.2218
1043.495	69.17277
1043.855	51.12362
1044.215	66.16325
1044.576	36.08626
1044.936	34.07817
1045.296	72.17888
1045.656	57.13962
1046.016	20.04853
1046.375	31.07543
1046.735	-1.00229
1047.095	-15.03554
1047.454	60.1268
1047.814	34.08194
1048.173	55.13121
1048.533	35.08039
1048.892	-11.02669
1049.251	51.12793
1049.61	16.03962
1049.969	31.0733
1050.328	6.01312
1050.687	11.02694
1051.046	49.11927
1051.405	63.15626
1051.763	0
1052.122	23.05761
1052.48	51.12497
1052.839	35.08254
1053.197	42.09895
1053.555	48.10943
1053.914	38.0931
1054.272	80.19221
1054.63	39.09549
1054.988	50.11871
1055.345	33.07128
1055.703	47.11311
1056.061	-22.05727
1056.419	17.04423
1056.776	76.18329
1057.134	23.0535
1057.491	50.12513
1057.848	64.15883
1058.206	-1.00237
1058.563	-9.02007
1058.92	11.02554
1059.277	95.23227
1059.634	102.2374
1059.991	35.08404
1060.348	-37.08505
1060.704	7.01681
1061.061	75.17329
1061.418	36.08748
1061.774	49.12092
1062.131	10.0266
1062.487	66.15374
1062.843	28.07005
1063.199	31.07731
1063.555	25.05818
1063.911	4.01018
1064.267	6.01263
1064.623	-5.01226
1064.979	40.0949
1065.335	94.22266
1065.691	44.10551
1066.046	18.03982
1066.402	9.0206
1066.757	-13.03316
1067.112	38.09341
1067.468	0
1067.823	55.13202
1068.178	17.04135
1068.533	49.11873
1068.888	52.12413
1069.243	34.0841
1069.598	19.0464
1069.952	-13.02963
1070.307	-5.01249
1070.662	43.10215
1071.016	63.14069
1071.371	-9.0207
1071.725	62.14788
1072.079	32.07717
1072.434	16.0391
1072.788	46.10955
1073.142	34.08382
1073.496	30.07139
1073.85	17.03965
1074.203	26.06332
1074.557	27.07202
1074.911	110.25935
1075.265	33.07691
1075.618	80.1941
1075.971	27.06446
1076.325	27.06885
1076.678	-12.02776
1077.031	-4.00914
1077.385	32.07071
1077.738	18.04087
1078.091	-13.02992
1078.444	40.09299
1078.796	18.04439
1079.149	41.10207
1079.502	-25.05987
1079.855	-24.05674
1080.207	22.05444
1080.56	13.03379
1080.912	46.11199
1081.264	12.02908
1081.617	52.12659
1081.969	44.11102
1082.321	8.01967
1082.673	-4.00922
1083.025	24.05718
1083.377	54.11572
1083.728	30.07021
1084.08	25.06264
1084.432	16.03881
1084.783	42.09849
1085.135	34.08539
1085.486	-15.03474
1085.838	-1.00248
1086.189	-5.01225
1086.54	49.11694
1086.891	14.0356
1087.242	31.07568
1087.593	78.18875
1087.944	36.08164
1088.295	35.07974
1088.646	43.10427
1088.996	-7.01703
1089.347	16.03948
1089.698	-25.05989
1090.048	43.11172
1090.398	26.06054
1090.749	31.07438
1091.099	-21.05343
1091.449	26.065
1091.799	34.0853
1092.149	9.02209
1092.499	55.13392
1092.849	-3.00769
1093.199	68.16974
1093.548	14.03384
1093.898	44.11011
1094.248	27.0696
1094.597	-9.02319
1094.947	62.16492
1095.296	56.13801
1095.645	80.20682
1095.994	-3.00727
1096.343	6.0152
1096.692	17.04487
1097.041	-1.00273
1097.39	42.10541
1097.739	22.05741
1098.088	52.13915
1098.437	-11.02917
1098.785	32.08645
1099.134	60.15891
1099.482	32.08818
1099.83	24.06329
1100.179	4.01051
1100.527	14.03739
1100.875	-5.01333
1101.223	1.00267
1101.571	27.07482
1101.919	-3.0079
1102.267	11.03113
1102.615	3.00965
1102.962	13.04184
1103.31	-1.00322
1103.658	13.04186
