Data from N2 R7 sample 2_Subt2__3__15-42-31-559.txt Node

Date: Fri Aug 29 15:42:31 PDT 2025
User: uwsun
Spectrometer: HDX01956
Trigger mode: 0
Integration Time (sec): 5.000000E-1
Scans to average: 1
Nonlinearity correction enabled: true
Boxcar width: 0
Storing dark spectrum: false
XAxis mode: Wavelengths
Number of Pixels in Spectrum: 2068
>>>>>Begin Spectral Data<<<<<
194.03	61.16961
194.578	50.15715
195.127	54.16712
195.676	62.19228
196.225	72.18871
196.773	45.12249
197.321	128.33627
197.87	194.46289
198.418	140.33303
198.966	132.31641
199.513	72.16619
200.061	69.16209
200.609	136.33393
201.156	87.17478
201.704	75.17494
202.251	116.28324
202.798	110.26368
203.345	114.26093
203.892	103.2395
204.438	114.25158
204.985	93.20184
205.532	96.23345
206.078	135.30396
206.624	104.23479
207.17	146.31003
207.716	89.19916
208.262	110.19953
208.808	59.13399
209.354	97.21715
209.899	179.41439
210.445	87.19901
210.99	109.24069
211.535	143.3081
212.08	174.36804
212.625	133.30619
213.17	161.37346
213.715	38.07816
214.259	122.26167
214.804	197.44282
215.348	131.27533
215.892	165.36115
216.436	165.35
216.98	181.3648
217.524	160.3448
218.068	143.33132
218.612	150.34747
219.155	128.27703
219.698	149.32558
220.242	130.3003
220.785	122.26348
221.328	133.30619
221.871	195.45322
222.414	143.32935
222.956	55.12358
223.499	80.16781
224.041	181.38695
224.583	101.20394
225.126	141.28588
225.668	88.19891
226.21	99.2311
226.751	55.11213
227.293	124.2624
227.835	88.19964
228.376	154.32788
228.918	143.33394
229.459	68.15765
230	97.21428
230.541	116.24762
231.082	86.19383
231.622	97.20791
232.163	104.23297
232.704	109.24964
233.244	76.17549
233.784	109.24854
234.324	55.11192
234.864	67.14156
235.404	124.27273
235.944	127.27809
236.484	135.31105
237.023	113.24597
237.563	64.13751
238.102	87.19075
238.641	121.28235
239.18	59.12794
239.719	110.25522
240.258	130.26859
240.797	150.32728
241.335	127.28642
241.874	136.23777
242.412	117.25825
242.95	88.19347
243.488	115.24138
244.026	106.22431
244.564	111.20972
245.102	124.25446
245.64	128.28401
246.177	107.22062
246.715	142.31245
247.252	151.31666
247.789	218.3683
248.326	73.16127
248.863	146.29013
249.4	134.27822
249.936	130.24327
250.473	99.21165
251.009	109.22798
251.546	113.22744
252.082	142.28258
252.618	99.20165
253.154	113.24775
253.69	133.27238
254.226	112.24426
254.761	89.18342
255.297	68.1369
255.832	105.22701
256.367	104.22412
256.903	117.23353
257.438	145.30945
257.972	68.13942
258.507	77.16105
259.042	123.24243
259.576	68.13343
260.111	169.35237
260.645	165.32138
261.179	104.22065
261.713	81.16461
262.247	129.26993
262.781	129.24325
263.315	113.25109
263.849	152.34259
264.382	123.25692
264.915	137.28857
265.449	38.08453
265.982	147.30173
266.515	158.34604
267.048	139.26365
267.58	160.31469
268.113	126.24443
268.646	126.28062
269.178	92.18581
269.71	135.26533
270.243	169.34532
270.775	156.35634
271.307	146.31733
271.838	152.32615
272.37	138.30543
272.902	115.23648
273.433	93.1839
273.965	117.25706
274.496	130.29228
275.027	161.35685
275.558	148.32099
276.089	96.21168
276.62	158.36135
277.15	126.28073
277.681	176.33946
278.211	116.25706
278.741	70.13897
279.272	130.26449
279.802	107.24121
280.332	111.23432
280.861	141.30301
281.391	109.2209
281.921	180.3849
282.45	122.27419
282.98	167.38784
283.509	137.27358
284.038	116.23579
284.567	165.3422
285.096	117.25284
285.625	140.28106
286.153	104.21718
286.682	133.26892
287.21	156.33083
287.739	153.31859
288.267	90.19428
288.795	157.36707
289.323	112.23098
289.851	131.27132
290.378	144.28388
290.906	102.21802
291.433	125.27591
291.961	98.19584
292.488	155.33897
293.015	115.23765
293.542	110.24549
294.069	113.24441
294.596	156.33892
295.122	128.26778
295.649	148.28436
296.175	130.27726
296.702	183.38563
297.228	191.40285
297.754	94.18523
298.28	151.29593
298.806	125.26168
299.332	86.16571
299.857	125.24428
300.383	180.39539
300.908	101.21237
301.433	130.27293
301.958	201.39747
302.483	149.31965
303.008	163.34802
303.533	185.41585
304.058	175.35417
304.582	111.22547
305.107	81.18387
305.631	152.29768
306.155	106.21172
306.679	96.19246
307.203	116.23008
307.727	167.33581
308.251	152.32038
308.775	137.27396
309.298	110.22339
309.822	141.30327
310.345	166.33064
310.868	159.31914
311.391	171.35496
311.914	143.30174
312.437	195.37023
312.96	180.35118
313.482	162.31907
314.005	115.24362
314.527	127.28056
315.049	237.49371
315.571	139.25245
316.093	198.4021
316.615	119.23786
317.137	200.35004
317.659	215.42635
318.18	227.44425
318.702	173.3259
319.223	194.31565
319.744	160.28816
320.265	173.33616
320.786	131.2616
321.307	197.39139
321.828	211.37504
322.348	176.32804
322.869	153.28468
323.389	27.03481
323.909	194.34796
324.43	237.44844
324.95	172.30516
325.47	211.39924
325.989	207.37233
326.509	153.25518
327.029	199.33574
327.548	204.3409
328.067	200.36149
328.587	213.40224
329.106	186.31458
329.625	277.55341
330.144	140.24128
330.662	180.30575
331.181	268.45057
331.7	185.31689
332.218	228.34852
332.736	265.43981
333.255	135.22838
333.773	216.36353
334.291	246.44146
334.808	172.26823
335.326	271.41636
335.844	232.36498
336.361	213.37309
336.879	234.36557
337.396	196.3216
337.913	231.35132
338.43	242.35436
338.947	232.36456
339.464	165.22772
339.981	222.34096
340.497	258.41649
341.014	211.33434
341.53	218.30743
342.046	231.3612
342.562	303.47768
343.078	226.33215
343.594	294.43
344.11	335.47748
344.626	269.41867
345.141	241.32704
345.657	341.44917
346.172	300.4277
346.687	281.37184
347.202	333.41451
347.717	300.41183
348.232	237.35272
348.747	316.40126
349.261	288.32894
349.776	279.36474
350.29	245.33773
350.805	313.43571
351.319	282.35682
351.833	297.3476
352.347	297.36993
352.861	273.33403
353.374	346.41208
353.888	325.41284
354.401	347.39835
354.915	246.27161
355.428	262.34053
355.941	317.35977
356.454	343.37396
356.967	347.40226
357.48	408.43917
357.993	400.47787
358.505	325.38549
359.018	403.46412
359.53	389.42852
360.042	388.37624
360.554	404.44871
361.066	310.35195
361.578	355.32659
362.09	335.36092
362.602	320.29527
363.113	350.34608
363.625	348.32057
364.136	398.34412
364.647	255.23958
365.158	378.35171
365.669	429.40981
366.18	369.34746
366.691	438.34685
367.201	383.35685
367.712	404.3283
368.222	370.3042
368.733	366.25743
369.243	351.25251
369.753	449.33998
370.263	458.36164
370.773	416.35157
371.282	403.29991
371.792	324.2037
372.301	414.28451
372.811	476.37629
373.32	328.14602
373.829	325.18251
374.338	408.16903
374.847	547.19868
375.356	388.16151
375.865	517.07788
376.373	508.09867
376.882	538.18479
377.39	482.11588
377.898	393.06785
378.407	450.99883
378.915	643.92111
379.423	582.95196
379.93	625.88726
380.438	479.91135
380.946	692.78517
381.453	535.82249
381.96	558.7693
382.468	458.77598
382.975	751.61542
383.482	783.56959
383.989	817.56242
384.495	752.57763
385.002	660.64886
385.509	816.57835
386.015	813.70595
386.521	964.67818
387.028	825.79811
387.534	961.93116
388.04	976.88926
388.546	872.16602
389.051	692.31775
389.557	973.83968
390.063	1483.78172
390.568	1454.25679
391.073	1056.029
391.578	1202.62626
392.084	1035.889
392.589	711.49739
393.093	654.9291
393.598	831.72486
394.103	1029.17983
394.607	1404.32703
395.112	1602.83871
395.616	1563.23659
396.12	1404.86223
396.624	1389.34822
397.128	1773.58623
397.632	2298.05715
398.136	2415.68844
398.639	908.10869
399.143	-119.18524
399.646	501.05765
400.15	408.43806
400.653	-669.66184
401.156	-1916.58983
401.659	-3133.26191
402.162	-338.28177
402.664	-54.35253
403.167	0
403.67	0
404.172	0
404.674	0
405.176	0
405.678	0
406.18	0
406.682	0
407.184	0
407.686	0
408.187	0
408.688	0
409.19	0
409.691	0
410.192	0
410.693	0
411.194	435.30976
411.694	4082.94878
412.195	8864.71461
412.696	12089.80453
413.196	12739.43097
413.696	11649.49042
414.196	13024.97591
414.696	16118.99417
415.196	18652.1962
415.696	20785.50131
416.196	17855.03682
416.695	11400.82979
417.195	7296.43484
417.694	6810.60959
418.194	6586.39492
418.693	5645.66341
419.192	5358.95555
419.691	5142.43133
420.19	5434.27108
420.688	5549.68173
421.187	5474.68652
421.685	5566.8189
422.184	5481.88928
422.682	4656.65515
423.18	3450.16257
423.678	2623.40678
424.176	2366.42259
424.674	2244.65798
425.172	2373.33545
425.669	2380.92074
426.167	2342.03095
426.664	2040.1723
427.161	1809.64596
427.659	1655.31374
428.156	1421.38335
428.652	1377.2541
429.149	1306.28574
429.646	1330.27342
430.143	1255.34967
430.639	1103.46329
431.135	930.63354
431.632	952.62446
432.128	890.74048
432.624	731.87689
433.12	545.86735
433.616	554.87549
434.111	442.94922
434.607	436.98892
435.103	577.94593
435.598	582.95987
436.093	591.08221
436.588	560.09632
437.083	505.12996
437.578	454.15966
438.073	323.16268
438.568	385.22358
439.062	408.15724
439.557	355.2193
440.051	334.18996
440.546	237.14864
441.04	207.15634
441.534	179.16249
442.028	245.20219
442.522	224.18712
443.015	221.15713
443.509	259.23646
444.002	172.16393
444.496	148.11738
444.989	226.21882
445.482	148.15338
445.975	131.1133
446.468	126.10226
446.961	146.11874
447.454	163.14958
447.947	102.10277
448.439	132.1439
448.931	63.06074
449.424	92.11113
449.916	92.10457
450.408	21.02145
450.9	18.02097
451.392	35.04389
451.884	72.07898
452.375	-43.05445
452.867	101.11092
453.358	-17.01896
453.849	41.04125
454.341	17.01911
454.832	44.04586
455.323	3.00386
455.814	67.07909
456.304	39.04706
456.795	56.06691
457.285	38.04547
457.776	102.12562
458.266	29.0377
458.756	46.06206
459.247	-9.01201
459.737	-73.10029
460.226	10.01247
460.716	-8.01109
461.206	-33.04717
461.695	7.01065
462.185	-28.03978
462.674	62.08398
463.163	21.02752
463.653	-43.05384
464.142	-4.00594
464.63	24.03679
465.119	-60.08709
465.608	-50.07266
466.096	-15.02054
466.585	-30.04504
467.073	-18.02838
467.561	-47.07546
468.05	-4.00612
468.538	32.05239
469.026	-39.06326
469.513	-40.05543
470.001	-32.04868
470.489	-66.1072
470.976	-22.03479
471.463	-44.07758
471.951	-69.12449
472.438	-66.10962
472.925	-123.2065
473.412	-52.09341
473.899	-20.03292
474.385	-65.11781
474.872	-95.16263
475.359	-100.18231
475.845	-68.10208
476.331	-18.02876
476.817	-69.12774
477.303	-102.18031
477.789	-79.1456
478.275	-93.17778
478.761	-73.13603
479.247	-94.16356
479.732	-112.2181
480.218	-95.19597
480.703	-100.19696
481.188	-151.2567
481.673	-82.14775
482.158	-143.23824
482.643	-76.15646
483.128	-107.19414
483.612	-124.2348
484.097	-78.15544
484.581	-76.14341
485.066	-123.24494
485.55	-159.28584
486.034	-183.3278
486.518	-159.30852
487.002	-144.29177
487.486	-141.28693
487.969	-155.317
488.453	-104.22046
488.936	-199.38115
489.42	-113.20952
489.903	-123.26387
490.386	-85.1145
490.869	-80.14644
491.352	-117.24623
491.835	-123.21646
492.318	-122.23384
492.8	-144.25495
493.283	-148.32428
493.765	-152.3232
494.247	-95.19174
494.73	-174.33528
495.212	-119.2511
495.694	-178.36247
496.175	-191.39417
496.657	-153.31859
497.139	-144.22063
497.62	-222.46401
498.102	-169.36849
498.583	-188.41921
499.064	-185.36291
499.545	-143.28676
500.026	-157.30959
500.507	-194.40171
500.988	-147.32365
501.469	-170.37719
501.949	-167.36907
502.43	-189.39863
502.91	-202.37295
503.39	-170.38237
503.87	-181.37907
504.35	-92.19212
504.83	-185.36257
505.31	-204.4449
505.79	-232.5021
506.269	-170.35769
506.749	-197.40454
507.228	-231.49149
507.707	-235.47429
508.187	-146.31409
508.666	-219.48722
509.145	-199.4199
509.623	-213.45457
510.102	-179.39261
510.581	-177.38905
511.059	-209.47519
511.538	-156.36566
512.016	-169.36599
512.494	-155.34098
512.972	-191.41523
513.45	-236.49765
513.928	-232.51561
514.406	-254.55863
514.884	-213.50091
515.361	-158.34268
515.839	-181.37504
516.316	-217.47917
516.793	-137.3149
517.27	-190.42367
517.747	-185.43321
518.224	-179.37969
518.701	-198.40559
519.178	-238.54298
519.654	-202.44465
520.131	-206.46903
520.607	-174.39682
521.083	-172.35967
521.56	-189.41053
522.036	-198.40228
522.512	-169.38409
522.987	-227.49726
523.463	-185.40458
523.939	-163.3676
524.414	-184.39345
524.89	-171.37349
525.365	-202.42371
525.84	-250.55122
526.315	-156.34412
526.79	-143.29551
527.265	-212.44979
527.74	-209.47249
528.215	-196.42836
528.689	-236.4889
529.164	-202.40947
529.638	-179.4262
530.112	-223.48912
530.587	-207.40991
531.061	-216.48384
531.534	-196.44284
532.008	-199.44383
532.482	-222.4784
532.956	-258.61558
533.429	-202.45639
533.903	-179.36924
534.376	-225.46726
534.849	-198.4287
535.322	-174.38141
535.795	-216.49458
536.268	-196.43886
536.741	-207.46587
537.213	-172.37018
537.686	-222.50546
538.158	-220.46065
538.631	-192.43716
539.103	-249.52586
539.575	-178.34761
540.047	-173.35462
540.519	-182.40667
540.991	-178.40709
541.463	-233.5319
541.934	-199.42654
542.406	-245.55026
542.877	-204.43187
543.348	-172.3875
543.82	-166.37949
544.291	-150.32589
544.762	-188.41487
545.233	-208.48658
545.703	-230.47817
546.174	-167.36058
546.645	-263.58923
547.115	-225.507
547.585	-163.34711
548.056	-213.47505
548.526	-210.45701
548.996	-161.35671
549.466	-187.42397
549.935	-195.42392
550.405	-187.37672
550.875	-170.36824
551.344	-165.36267
551.814	-219.46657
552.283	-112.22132
552.752	-135.28336
553.221	-183.36204
553.69	-152.30642
554.159	-158.35028
554.628	-162.32719
555.096	-141.32215
555.565	-144.2911
556.033	-79.1678
556.502	-133.2943
556.97	-133.27077
557.438	-152.33304
557.906	-151.33316
558.374	-86.18119
558.842	-154.34269
559.31	-151.31652
559.777	-213.48468
560.245	-133.29258
560.712	-152.33108
561.18	-174.3624
561.647	-113.23551
562.114	-156.33387
562.581	-109.25044
563.048	-65.13902
563.514	-161.37095
563.981	-65.13812
564.448	-103.21619
564.914	-104.22701
565.381	-24.05043
565.847	37.0789
566.313	-54.11672
566.779	-59.12373
567.245	-25.05393
567.711	30.0654
568.176	-10.02058
568.642	-45.10397
569.108	56.12441
569.573	61.13047
570.038	112.21083
570.504	81.16273
570.969	140.31205
571.434	93.182
571.899	140.29535
572.363	162.32538
572.828	257.5094
573.293	185.37235
573.757	240.47737
574.222	240.4609
574.686	254.48779
575.15	247.5063
575.614	320.62196
576.078	353.69674
576.542	299.581
577.006	330.62855
577.469	406.84481
577.933	372.6934
578.396	410.81362
578.86	436.85148
579.323	341.68633
579.786	353.63987
580.249	324.62433
580.712	385.79273
581.175	340.71221
581.637	370.72086
582.1	412.75502
582.563	361.6557
583.025	345.70909
583.487	347.58773
583.95	331.59968
584.412	321.57414
584.874	294.6134
585.336	322.65122
585.797	309.5701
586.259	345.6947
586.721	257.52227
587.182	346.69303
587.643	268.52785
588.105	226.46839
588.566	278.50583
589.027	219.46048
589.488	229.45709
589.949	232.49243
590.41	203.34473
590.87	242.48404
591.331	280.52398
591.791	215.43453
592.252	155.31384
592.712	212.44841
593.172	158.31618
593.632	235.45185
594.092	189.37251
594.552	208.39366
595.011	175.3545
595.471	251.48913
595.931	208.40755
596.39	152.32348
596.849	235.47822
597.308	268.50549
597.768	234.52027
598.227	257.5399
598.685	279.55766
599.144	294.59323
599.603	318.64756
600.062	292.52537
600.52	352.66459
600.978	347.70227
601.437	352.6871
601.895	421.74218
602.353	444.81983
602.811	511.92541
603.269	538.04899
603.727	526.02797
604.184	536.9759
604.642	570.12994
605.099	605.12095
605.557	646.25342
606.014	644.08179
606.471	680.33269
606.928	744.20203
607.385	800.47164
607.842	950.57677
608.299	1018.70397
608.755	978.71636
609.212	1055.63829
609.668	1006.56775
610.125	1098.88145
610.581	1242.02876
611.037	1217.90783
611.493	1126.88649
611.949	1141.93095
612.405	1221.60063
612.861	1309.08506
613.316	1303.0978
613.772	1315.01418
614.227	1239.00307
614.683	1390.9161
615.138	1315.06268
615.593	1354.08597
616.048	1344.05113
616.503	1356.26532
616.958	1346.2986
617.412	1397.18982
617.867	1284.89647
618.321	1387.84287
618.776	1388.01346
619.23	1278.06249
619.684	1330.0272
620.138	1354.13225
620.592	1261.14755
621.046	1291.10054
621.5	1324.22476
621.954	1220.93185
622.407	1228.91244
622.861	1229.12748
623.314	1233.97764
623.768	1182.97426
624.221	1130.5606
624.674	1128.89191
625.127	1136.94162
625.58	1174.93949
626.033	1123.81255
626.485	1101.95555
626.938	1071.91487
627.39	1026.80741
627.843	1044.82297
628.295	1038.81626
628.747	1072.92403
629.199	1007.74574
629.651	1029.7727
630.103	970.7165
630.555	965.56441
631.006	971.77486
631.458	901.68726
631.909	987.76793
632.361	966.76615
632.812	859.59265
633.263	935.57696
633.714	954.593
634.165	952.83859
634.616	913.74088
635.067	951.66667
635.518	932.78274
635.968	946.47984
636.419	953.63267
636.869	914.75584
637.319	973.78031
637.769	947.67874
638.219	987.88131
638.669	966.84077
639.119	1019.97615
639.569	1010.93498
640.019	1058.91242
640.468	993.7514
640.918	1076.0355
641.367	1013.78955
641.816	1112.90958
642.265	1098.97082
642.714	1061.92418
643.163	1093.95331
643.612	1038.97057
644.061	1122.79618
644.51	1079.9134
644.958	1150.91849
645.406	1130.09855
645.855	1196.25766
646.303	1202.14251
646.751	1090.92848
647.199	1222.09248
647.647	1168.05606
648.095	1157.03398
648.543	1189.81759
648.99	1121.09155
649.438	1161.11323
649.885	1188.28391
650.333	1183.69175
650.78	1111.11055
651.227	1117.13838
651.674	1113.97489
652.121	1136.16912
652.568	1056.04898
653.015	1116.24868
653.461	1086.0425
653.908	1046.94445
654.354	986.91615
654.801	971.84987
655.247	1002.76135
655.693	962.0802
656.139	927.83593
656.585	961.89096
657.031	881.70412
657.477	899.59014
657.922	897.70867
658.368	892.84669
658.813	936.7973
659.259	815.66123
659.704	820.61583
660.149	781.55438
660.594	809.6348
661.039	738.44859
661.484	756.56212
661.929	726.47393
662.373	688.52668
662.818	731.58082
663.262	735.53597
663.707	668.49944
664.151	694.49083
664.595	643.37553
665.039	657.4527
665.483	696.56362
665.927	661.3775
666.371	616.26682
666.814	629.34091
667.258	625.31507
667.701	675.28081
668.145	659.46137
668.588	633.3891
669.031	612.28514
669.474	589.27888
669.917	619.2241
670.36	633.40598
670.803	628.35875
671.245	565.07381
671.688	559.24144
672.13	542.10289
672.573	605.39035
673.015	600.2992
673.457	523.03926
673.899	586.28611
674.341	584.27634
674.783	529.16012
675.225	541.21632
675.666	489.08306
676.108	560.10283
676.549	540.1706
676.991	478.97601
677.432	513.93377
677.873	448.96825
678.314	479.05999
678.755	489.10059
679.196	430.9226
679.637	495.12003
680.078	493.06787
680.518	467.01361
680.959	422.95062
681.399	422.98435
681.839	453.02899
682.28	430.99591
682.72	375.81449
683.16	388.91502
683.6	454.96862
684.039	410.80488
684.479	406.94034
684.919	351.77048
685.358	396.95232
685.798	379.94363
686.237	417.95183
686.676	376.83108
687.115	390.86885
687.554	349.79216
687.993	387.81226
688.432	383.8308
688.871	350.75842
689.309	367.8347
689.748	353.70623
690.186	395.89509
690.625	332.74639
691.063	336.77239
691.501	333.79007
691.939	341.81403
692.377	379.8787
692.815	292.67502
693.253	375.85909
693.69	355.74543
694.128	305.7122
694.565	339.77539
695.003	358.86782
695.44	296.67256
695.877	260.59101
696.314	310.64449
696.751	346.75711
697.188	314.69493
697.625	306.68005
698.061	298.6908
698.498	286.67138
698.934	291.67872
699.371	244.56093
699.807	286.65589
700.243	256.60027
700.679	299.65552
701.115	308.70124
701.551	251.5776
701.987	331.71618
702.422	282.64932
702.858	286.66036
703.294	272.59998
703.729	295.69858
704.164	268.62742
704.599	243.53006
705.035	261.56908
705.47	236.56115
705.904	232.52951
706.339	301.67824
706.774	253.57825
707.209	266.59681
707.643	268.62619
708.078	250.59398
708.512	229.56006
708.946	297.68917
709.38	226.52558
709.814	271.60315
710.248	254.60395
710.682	233.5426
711.116	182.4286
711.549	236.59544
711.983	245.55342
712.416	262.60399
712.85	220.53815
713.283	286.65616
713.716	268.65531
714.149	273.63323
714.582	261.57149
715.015	293.71069
715.448	234.57728
715.881	233.50114
716.313	226.51956
716.746	262.60038
717.178	231.54387
717.61	283.69596
718.043	234.57091
718.475	196.46856
718.907	290.71172
719.339	189.42327
719.77	229.5314
720.202	249.61417
720.634	252.59735
721.065	281.64611
721.497	255.60924
721.928	182.44124
722.359	210.49703
722.79	240.56121
723.221	243.59761
723.652	266.668
724.083	246.54195
724.514	218.49234
724.945	184.42757
725.375	190.43488
725.806	245.59763
726.236	269.67007
726.666	230.53361
727.096	185.44842
727.526	221.54992
727.956	185.41568
728.386	234.56388
728.816	182.45429
729.246	170.40874
729.675	201.48647
730.105	227.54753
730.534	227.52071
730.964	246.60733
731.393	262.6342
731.822	212.53165
732.251	223.55449
732.68	243.56009
733.109	192.46635
733.537	183.4364
733.966	177.43435
734.395	199.453
734.823	243.53635
735.251	236.55575
735.68	253.61806
736.108	215.53382
736.536	225.52046
736.964	205.46817
737.392	195.48064
737.82	189.44777
738.247	188.44462
738.675	272.63179
739.102	186.45803
739.53	193.48357
739.957	173.43955
740.384	235.56746
740.811	214.53241
741.238	161.38952
741.665	177.40586
742.092	222.52014
742.519	171.41823
742.945	180.42702
743.372	178.43526
743.798	196.49577
744.225	160.37738
744.651	172.42668
745.077	149.36889
745.503	191.45948
745.929	165.39227
746.355	261.63214
746.781	205.49932
747.207	82.19356
747.632	118.28705
748.058	172.42434
748.483	177.40325
748.908	149.36753
749.334	166.40366
749.759	139.32639
750.184	117.27848
750.609	171.41574
751.033	189.44119
751.458	143.32
751.883	170.41678
752.307	173.40273
752.732	93.23261
753.156	127.31258
753.58	177.41577
754.005	170.42664
754.429	128.30015
754.853	96.23824
755.277	104.24673
755.7	146.35967
756.124	75.18711
756.548	106.25157
756.971	123.29972
757.394	144.36814
757.818	124.31768
758.241	100.25377
758.664	72.18278
759.087	55.12434
759.51	105.26138
759.933	77.18637
760.356	105.26896
760.778	116.28472
761.201	159.38338
761.623	151.36381
762.046	166.39032
762.468	157.37426
762.89	173.42202
763.312	89.21816
763.734	48.1169
764.156	98.24232
764.578	119.27385
765	105.25633
765.421	74.18859
765.843	133.34639
766.264	92.22313
766.686	153.38087
767.107	41.10058
767.528	94.23727
767.949	104.2642
768.37	53.13131
768.791	95.23045
769.212	86.2163
769.632	81.18968
770.053	102.26806
770.473	133.32178
770.894	154.38203
771.314	132.31412
771.734	58.13654
772.154	107.27417
772.575	122.28227
772.994	106.24096
773.414	77.18602
773.834	71.17835
774.254	120.29268
774.673	93.22696
775.093	65.16175
775.512	56.13898
775.931	84.21332
776.351	68.16968
776.77	81.19856
777.189	61.14625
777.607	74.18952
778.026	52.13051
778.445	11.02791
778.864	96.24603
779.282	71.17172
779.701	89.22445
780.119	46.11711
780.537	49.12318
780.955	106.26899
781.373	51.1271
781.791	53.12026
782.209	84.19435
782.627	91.23936
783.045	82.18927
783.462	70.17934
783.88	39.10164
784.297	65.16416
784.715	59.15208
785.132	46.11232
785.549	99.24708
785.966	33.08379
786.383	39.0968
786.8	56.13111
787.217	30.07197
787.633	83.20714
788.05	115.27225
788.466	65.15424
788.883	22.05668
789.299	63.15248
789.715	50.12241
790.131	45.11272
790.547	53.13314
790.963	24.06023
791.379	63.15979
791.795	40.09229
792.21	52.12251
792.626	106.2507
793.041	71.17565
793.457	34.08481
793.872	51.12078
794.287	17.04108
794.702	44.10923
795.117	30.07521
795.532	27.06829
795.947	58.14041
796.362	59.14173
796.776	122.28418
797.191	24.05939
797.605	-25.05992
798.02	35.08592
798.434	49.1101
798.848	25.06219
799.262	7.01759
799.676	71.17366
800.09	48.11882
800.504	71.17269
800.918	34.07957
801.331	72.1889
801.745	16.03727
802.158	21.05304
802.572	77.187
802.985	39.09507
803.398	61.14608
803.811	64.16494
804.224	60.14988
804.637	28.06737
805.05	68.15815
805.462	50.12354
805.875	0
806.288	18.0439
806.7	38.09616
807.112	55.12824
807.525	28.06974
807.937	-8.02008
808.349	43.10837
808.761	52.12853
809.173	36.08794
809.584	88.21711
809.996	7.01736
810.408	-5.01307
810.819	38.09008
811.231	-12.03144
811.642	-15.03637
812.053	82.19476
812.464	89.2111
812.875	109.27675
813.286	75.19292
813.697	130.30114
814.108	69.16883
814.519	48.10774
814.929	45.11535
815.34	33.08068
815.75	16.04105
816.16	50.12517
816.571	24.06284
816.981	50.11871
817.391	27.06579
817.801	25.06262
818.211	42.10079
818.62	10.02436
819.03	48.11821
819.44	69.18026
819.849	36.09129
820.259	82.20949
820.668	23.05707
821.077	20.05012
821.486	61.14731
821.895	73.1804
822.304	41.10912
822.713	31.0739
823.122	26.06542
823.531	57.13557
823.939	39.0956
824.348	30.07353
824.756	22.05559
825.164	56.1413
825.573	31.07832
825.981	42.10473
826.389	73.18331
826.797	19.04802
827.205	28.06484
827.612	52.12877
828.02	-23.055
828.428	32.08201
828.835	34.08996
829.243	90.21376
829.65	46.11482
830.057	4.00983
830.464	30.07363
830.871	63.1511
831.278	43.10447
831.685	56.12544
832.092	47.11555
832.499	39.08594
832.905	15.03833
833.312	49.11231
833.718	55.13736
834.124	54.12385
834.531	43.10887
834.937	28.07234
835.343	73.17602
835.749	86.20032
836.155	42.11038
836.561	17.0422
836.966	46.11295
837.372	53.13519
837.777	41.10258
838.183	21.04719
838.588	40.09978
838.993	34.0833
839.399	-6.01486
839.804	-18.04454
840.209	-2.00515
840.613	64.14254
841.018	46.11686
841.423	52.13364
841.828	33.08391
842.232	79.19523
842.637	50.11835
843.041	53.13605
843.445	14.03543
843.849	18.04493
844.253	38.09081
844.657	3.00763
845.061	36.0822
845.465	38.09223
845.869	28.06556
846.272	4.00985
846.676	24.05849
847.079	11.02822
847.483	90.22343
847.886	76.18454
848.289	60.16008
848.692	20.05102
849.095	70.16792
849.498	99.24931
849.901	8.01856
850.304	35.08411
850.707	26.0667
851.109	59.14938
851.512	53.13045
851.914	-3.00764
852.316	24.0611
852.718	-51.13415
853.121	21.05184
853.523	-19.04512
853.925	10.0263
854.326	-15.038
854.728	48.12366
855.13	6.01561
855.531	20.04816
855.933	52.12508
856.334	-1.00252
856.736	18.04069
857.137	13.03051
857.538	18.04558
857.939	-15.03756
858.34	39.09542
858.741	34.08923
859.142	-8.01947
859.542	25.06631
859.943	23.05753
860.343	-10.02507
860.744	16.03936
861.144	29.07114
861.544	-33.08068
861.945	38.09718
862.345	46.11278
862.745	40.09974
863.145	74.17644
863.544	65.16404
863.944	44.10427
864.344	41.10218
864.743	40.09959
865.143	44.11328
865.542	54.12539
865.941	54.13377
866.34	97.2307
866.74	46.12366
867.139	9.02175
867.537	71.18046
867.936	29.07019
868.335	43.10968
868.734	48.12285
869.132	30.0701
869.531	50.12113
869.929	0
870.327	1.00242
870.726	49.12238
871.124	41.09616
871.522	23.05894
871.92	35.08669
872.318	14.0345
872.715	43.10673
873.113	-1.00246
873.511	34.08506
873.908	-11.0281
874.306	-18.04537
874.703	50.12526
875.1	21.05406
875.497	12.02902
875.894	-2.00495
876.291	16.03956
876.688	8.0208
877.085	-4.00971
877.482	21.0529
877.878	27.06535
878.275	21.05368
878.671	76.16863
879.068	44.10648
879.464	13.03168
879.86	-5.01197
880.256	47.11619
880.652	32.08172
881.048	53.13141
881.444	21.05033
881.84	18.04605
882.236	24.06069
882.631	-10.02484
883.027	20.04876
883.422	49.12543
883.817	11.02786
884.213	59.15129
884.608	-23.05721
885.003	41.09912
885.398	17.04284
885.793	33.08316
886.188	23.05751
886.582	69.17656
886.977	38.0905
887.371	69.17407
887.766	-24.06054
888.16	26.06523
888.554	105.25729
888.949	42.10571
889.343	56.13679
889.737	-7.01884
890.131	36.09061
890.525	47.12035
890.918	17.04307
891.312	41.09838
891.706	33.08689
892.099	24.0614
892.492	21.04565
892.886	14.03452
893.279	21.05381
893.672	-1.00257
894.065	52.13027
894.458	24.06069
894.851	34.08364
895.244	-1.00258
895.637	27.06537
896.029	8.01973
896.422	64.1561
896.814	20.05003
897.206	33.07891
897.599	67.16533
897.991	32.0777
898.383	25.05941
898.775	0
899.167	13.03056
899.559	56.14171
899.951	44.10394
900.342	64.16247
900.734	-41.10347
901.125	58.15207
901.517	15.03708
901.908	44.10571
902.299	-4.00988
902.69	28.0664
903.082	72.17377
903.473	4.00967
903.863	55.14029
904.254	31.07228
904.645	65.16134
905.036	-7.01714
905.426	63.144
905.817	40.0984
906.207	4.00962
906.597	20.04708
906.987	29.07548
907.378	16.04073
907.768	41.10861
908.158	48.11716
908.547	7.01823
908.937	30.07729
909.327	26.06346
909.717	84.21211
910.106	12.02905
910.495	75.1865
910.885	12.03061
911.274	50.12504
911.663	70.17713
912.052	36.08911
912.441	15.0384
912.83	22.05082
913.219	11.02899
913.608	23.05665
913.997	-10.02535
914.385	40.09581
914.774	31.07579
915.162	23.05512
915.55	42.10183
915.939	11.02797
916.327	2.00504
916.715	29.07421
917.103	61.14992
917.491	40.0992
917.878	50.123
918.266	24.06254
918.654	45.11511
919.041	17.04464
919.429	12.02855
919.816	62.15689
920.203	18.04394
920.591	31.07717
920.978	48.11764
921.365	62.16239
921.752	62.14754
922.139	12.02628
922.525	23.05554
922.912	67.16296
923.299	29.07238
923.685	22.05768
924.072	36.08329
924.458	12.02994
924.844	39.09673
925.231	19.04451
925.617	-19.04892
926.003	39.0999
926.389	38.09609
926.774	33.08391
927.16	42.1045
927.546	29.07431
927.931	45.11243
928.317	36.0832
928.702	68.16039
929.088	12.0286
929.473	49.12472
929.858	-36.08846
930.243	6.01452
930.628	-17.04189
931.013	-1.0025
931.398	58.13324
931.783	41.10813
932.167	12.02955
932.552	46.11537
932.937	48.11921
933.321	43.10806
933.705	21.05323
934.09	58.1464
934.474	60.14229
934.858	38.09878
935.242	26.06056
935.626	52.13308
936.009	10.02678
936.393	27.06899
936.777	12.03094
937.16	41.10686
937.544	37.08742
937.927	-10.02565
938.311	38.09299
938.694	62.16366
939.077	5.01207
939.46	38.09355
939.843	100.20642
940.226	31.0798
940.609	39.08975
940.991	13.03331
941.374	11.02708
941.757	47.11607
942.139	6.0136
942.522	37.0877
942.904	21.05077
943.286	34.08665
943.668	51.1321
944.05	62.1524
944.432	36.08908
944.814	28.06926
945.196	-16.03948
945.578	20.04781
945.959	28.06592
946.341	38.09351
946.722	22.05193
947.104	24.05766
947.485	26.0608
947.866	17.04309
948.247	29.07345
948.628	78.18932
949.009	28.07199
949.39	23.05755
949.771	74.17135
950.152	15.03706
950.532	-34.08493
950.913	57.13734
951.293	1.00272
951.674	38.09213
952.054	42.10423
952.434	24.05987
952.814	59.14016
953.194	39.10227
953.574	33.08155
953.954	19.0454
954.334	42.10484
954.714	1.00246
955.093	59.14484
955.473	38.09523
955.853	26.06759
956.232	38.10435
956.611	40.09614
956.99	44.11071
957.37	19.04869
957.749	10.02404
958.128	4.01016
958.506	21.05475
958.885	27.06843
959.264	-37.09214
959.643	57.12955
960.021	22.0548
960.4	10.02285
960.778	53.1305
961.156	19.0479
961.535	43.10038
961.913	32.07516
962.291	-6.01554
962.669	12.0306
963.047	47.12001
963.424	25.06408
963.802	16.03959
964.18	62.15655
964.557	37.08546
964.935	52.12318
965.312	14.03668
965.69	44.11031
966.067	47.11453
966.444	22.0545
966.821	28.07246
967.198	42.10206
967.575	42.10343
967.952	71.16665
968.329	22.05382
968.705	28.06034
969.082	1.00259
969.458	-28.06817
969.835	35.08545
970.211	30.07726
970.587	49.12203
970.963	59.15113
971.339	16.04202
971.715	42.10503
972.091	32.07907
972.467	41.10244
972.843	-8.02006
973.219	69.16512
973.594	28.07351
973.97	73.17302
974.345	72.1716
974.721	20.04871
975.096	-13.03183
975.471	63.14909
975.846	40.09629
976.221	27.06885
976.596	16.0386
976.971	76.18675
977.346	53.12333
977.72	15.03845
978.095	55.14202
978.469	53.12644
978.844	87.21728
979.218	-11.02667
979.593	41.09841
979.967	42.10248
980.341	22.05094
980.715	45.11349
981.089	19.04783
981.463	26.05999
981.837	5.01232
982.21	54.12559
982.584	42.1016
982.957	5.01259
983.331	53.12523
983.704	32.07889
984.078	-8.01993
984.451	65.16193
984.824	-7.01723
985.197	21.05129
985.57	29.07301
985.943	64.15767
986.316	80.19549
986.688	31.07503
987.061	54.12648
987.434	46.11995
987.806	98.23554
988.179	37.08753
988.551	54.13689
988.923	50.12313
989.295	55.13732
989.667	-13.03143
990.039	82.20142
990.411	54.1242
990.783	48.11057
991.155	-29.07072
991.527	53.13045
991.898	40.09985
992.27	20.04974
992.641	60.15026
993.012	85.19866
993.384	39.09322
993.755	29.07421
994.126	23.05561
994.497	10.02473
994.868	37.08522
995.239	26.0633
995.61	-5.0127
995.98	-7.01718
996.351	-13.03256
996.722	-5.01172
997.092	17.04051
997.462	-34.08072
997.833	38.09029
998.203	32.07785
998.573	38.09482
998.943	25.05891
999.313	6.0145
999.683	5.0121
1000.053	28.06471
1000.423	36.08771
1000.792	41.10642
1001.162	6.01488
1001.531	63.15495
1001.901	16.04013
1002.27	18.0405
1002.639	33.08456
1003.009	48.11418
1003.378	17.04371
1003.747	63.14845
1004.116	18.04333
1004.485	36.08626
1004.853	49.12415
1005.222	44.11106
1005.591	73.17255
1005.959	2.00455
1006.328	-14.03192
1006.696	-8.01951
1007.064	13.03291
1007.433	26.06525
1007.801	69.16876
1008.169	26.06593
1008.537	28.06228
1008.905	11.02582
1009.273	27.06697
1009.64	-4.00964
1010.008	44.10499
1010.375	81.19553
1010.743	42.09714
1011.11	-11.02633
1011.478	15.03735
1011.845	47.11058
1012.212	13.02964
1012.579	38.09348
1012.946	51.12134
1013.313	26.06216
1013.68	68.15226
1014.047	-21.05071
1014.414	20.0475
1014.78	41.10203
1015.147	87.2089
1015.513	26.06292
1015.88	71.18085
1016.246	53.13074
1016.612	38.08719
1016.978	20.04927
1017.344	43.10638
1017.71	73.17722
1018.076	81.18983
1018.442	42.10817
1018.808	55.13732
1019.174	44.11047
1019.539	131.29665
1019.905	72.16903
1020.27	-2.00498
1020.636	78.18598
1021.001	44.10543
1021.366	1.00242
1021.731	71.18187
1022.096	-2.00509
1022.461	75.17659
1022.826	13.03111
1023.191	-2.00529
1023.556	48.11251
1023.92	28.06911
1024.285	48.11716
1024.649	26.06398
1025.014	90.22123
1025.378	33.08319
1025.742	59.14623
1026.107	36.08164
1026.471	69.16044
1026.835	12.02994
1027.199	9.02182
1027.562	78.18026
1027.926	67.16326
1028.29	26.06605
1028.654	58.13318
1029.017	53.13016
1029.381	16.03846
1029.744	16.04103
1030.107	40.09479
1030.471	24.05773
1030.834	38.08663
1031.197	76.18211
1031.56	44.1039
1031.923	15.039
1032.286	35.08241
1032.648	53.12664
1033.011	19.04387
1033.374	94.21896
1033.736	-20.05318
1034.099	61.14831
1034.461	18.04571
1034.823	-2.00502
1035.185	45.11332
1035.548	38.09265
1035.91	45.10785
1036.272	13.0298
1036.634	44.10772
1036.995	40.09416
1037.357	1.00245
1037.719	34.0829
1038.08	69.16316
1038.442	-1.0024
1038.803	45.1081
1039.165	49.12362
1039.526	-20.04894
1039.887	23.05529
1040.248	-11.02739
1040.609	55.13572
1040.97	24.05891
1041.331	25.06354
1041.692	-25.05918
1042.053	46.10478
1042.413	55.12799
1042.774	63.15277
1043.134	57.13546
1043.495	66.16534
1043.855	63.15237
1044.215	41.10188
1044.576	-4.00966
1044.936	26.05987
1045.296	41.10244
1045.656	22.05424
1046.016	58.13972
1046.375	25.0609
1046.735	17.03878
1047.095	55.12854
1047.454	47.09961
1047.814	53.12726
1048.173	66.15712
1048.533	16.03689
1048.892	11.02658
1049.251	55.13786
1049.61	14.03468
1049.969	46.10846
1050.328	23.05013
1050.687	-7.0172
1051.046	29.07085
1051.405	20.05
1051.763	1.00232
1052.122	31.07754
1052.48	-9.0223
1052.839	23.05437
1053.197	56.13157
1053.555	63.14319
1053.914	46.11253
1054.272	62.14947
1054.63	9.02216
1054.988	51.12106
1055.345	58.12462
1055.703	35.08443
1056.061	4.01037
1056.419	36.09336
1056.776	49.11878
1057.134	31.072
1057.491	47.11768
1057.848	52.12933
1058.206	38.08953
1058.563	33.07296
1058.92	56.12885
1059.277	38.09389
1059.634	62.14544
1059.991	75.17872
1060.348	5.0114
1060.704	10.024
1061.061	87.20053
1061.418	22.0536
1061.774	-14.03495
1062.131	33.08744
1062.487	-27.06404
1062.843	38.09489
1063.199	28.06987
1063.555	51.11807
1063.911	43.10868
1064.267	54.11247
1064.623	-31.07638
1064.979	123.28713
1065.335	55.13126
1065.691	47.11264
1066.046	29.06401
1066.402	-28.06458
1066.757	25.06334
1067.112	56.1372
1067.468	8.01903
1067.823	35.08433
1068.178	13.03164
1068.533	88.21167
1068.888	86.20395
1069.243	43.10619
1069.598	77.18602
1069.952	-29.06631
1070.307	24.05965
1070.662	43.10215
1071.016	2.00452
1071.371	0
1071.725	80.19016
1072.079	39.09393
1072.434	-5.01227
1072.788	16.03832
1073.142	61.14964
1073.496	13.03104
1073.85	7.01636
1074.203	87.20946
1074.557	24.06405
1074.911	48.11453
1075.265	9.02108
1075.618	66.16056
1075.971	40.09526
1076.325	-1.00256
1076.678	17.03911
1077.031	30.06811
1077.385	-18.04019
1077.738	40.09041
1078.091	-28.06463
1078.444	75.17315
1078.796	59.14441
1079.149	62.15375
1079.502	8.01904
1079.855	32.07483
1080.207	35.0864
1080.56	12.03119
1080.912	63.15288
1081.264	26.06285
1081.617	12.02943
1081.969	36.09097
1082.321	34.08321
1082.673	-45.10459
1083.025	-1.00239
1083.377	-192.43327
1083.728	66.15337
1084.08	51.12719
1084.432	9.02186
1084.783	72.16784
1085.135	-1.00253
1085.486	-14.03242
1085.838	17.04209
1086.189	51.12367
1086.54	15.03603
1086.891	-3.00765
1087.242	-27.06663
1087.593	35.08538
1087.944	55.12424
1088.295	26.05934
1088.646	63.1522
1088.996	31.07489
1089.347	29.07138
1089.698	-23.05508
1090.048	31.08071
1090.398	34.07904
1090.749	39.09343
1091.099	-5.01269
1091.449	18.04506
1091.799	62.15476
1092.149	-37.09161
1092.499	30.07339
1092.849	-2.00513
1093.199	58.14504
1093.548	25.0603
1093.898	11.02769
1094.248	32.08241
1094.597	-15.03869
1094.947	40.10679
1095.296	33.08167
1095.645	41.10671
1095.994	12.02901
1096.343	24.06062
1096.692	2.00529
1097.041	-7.01911
1097.39	43.1079
1097.739	39.10147
1098.088	45.12056
1098.437	12.0317
1098.785	57.15336
1099.134	81.21377
1099.482	48.13194
1099.83	61.15985
1100.179	23.06021
1100.527	11.02939
1100.875	4.01065
1101.223	12.03204
1101.571	19.05271
1101.919	-7.01845
1102.267	27.07621
1102.615	1.00322
1102.962	12.03863
1103.31	-8.02575
1103.658	8.02578
