Data from N2 R7 sample 3_Subt2__4__15-24-56-584.txt Node

Date: Fri Aug 29 15:24:56 PDT 2025
User: uwsun
Spectrometer: HDX01956
Trigger mode: 0
Integration Time (sec): 5.000000E-1
Scans to average: 1
Nonlinearity correction enabled: true
Boxcar width: 0
Storing dark spectrum: false
XAxis mode: Wavelengths
Number of Pixels in Spectrum: 2068
>>>>>Begin Spectral Data<<<<<
194.03	45.12543
194.578	65.20391
195.127	55.1702
195.676	59.18304
196.225	107.27877
196.773	78.21119
197.321	83.21971
197.87	170.40749
198.418	165.39061
198.966	93.22458
199.513	39.09061
200.061	96.22432
200.609	158.38636
201.156	83.1669
201.704	94.21844
202.251	98.24009
202.798	94.22601
203.345	152.34525
203.892	110.25542
204.438	135.29661
204.985	97.21034
205.532	91.2215
206.078	176.39294
206.624	104.23479
207.17	186.39153
207.716	97.2167
208.262	113.20481
208.808	80.1809
209.354	128.28472
209.899	232.53143
210.445	134.30362
210.99	91.2017
211.535	147.31645
212.08	144.30659
212.625	173.3951
213.17	199.45813
213.715	114.23045
214.259	151.32184
214.804	181.4082
215.348	158.3301
215.892	146.32084
216.436	233.48689
216.98	141.2868
217.524	172.3697
218.068	173.39844
218.612	136.31591
219.155	138.29803
219.698	162.35301
220.242	113.26192
220.785	118.25506
221.328	96.22265
221.871	169.39481
222.414	140.32263
222.956	99.22044
223.499	141.29177
224.041	154.33116
224.583	160.31869
225.126	101.20666
225.668	121.27166
226.21	91.21276
226.751	79.16018
227.293	101.2148
227.835	132.29678
228.376	181.3831
228.918	175.4061
229.459	106.24389
230	100.22077
230.541	103.22049
231.082	121.27077
231.622	100.21421
232.163	108.24173
232.704	137.312
233.244	62.14357
233.784	149.33699
234.324	77.15591
234.864	112.23431
235.404	127.27915
235.944	120.26315
236.484	129.29758
237.023	107.23321
237.563	139.29382
238.102	98.21437
238.641	156.36151
239.18	101.21705
239.719	138.3184
240.258	146.30056
240.797	147.32093
241.335	126.28422
241.874	33.05926
242.412	125.27545
242.95	92.20209
243.488	139.29021
244.026	109.2305
244.564	133.24993
245.102	132.27039
245.64	124.27536
246.177	145.29642
246.715	159.3486
247.252	122.25749
247.789	166.28441
248.326	72.15909
248.863	85.17132
249.4	130.27015
249.936	80.15156
250.473	136.28842
251.009	138.28678
251.546	110.22155
252.082	147.29219
252.618	110.22349
253.154	119.26057
253.69	143.29219
254.226	119.25914
254.761	101.20759
255.297	82.16455
255.832	115.24809
256.367	150.32006
256.903	87.17486
257.438	149.31772
257.972	143.28822
258.507	75.15694
259.042	89.17682
259.576	87.16994
260.111	117.24677
260.645	147.28755
261.179	92.19571
261.713	116.23385
262.247	137.28616
262.781	83.15828
263.315	121.26842
263.849	117.26559
264.382	164.33944
264.915	143.30081
265.449	111.24316
265.982	145.29776
266.515	169.36928
267.048	110.21012
267.58	187.36545
268.113	115.22367
268.646	119.26541
269.178	73.14808
269.71	164.32012
270.243	178.36297
270.775	122.28059
271.307	170.36761
271.838	188.40026
272.37	103.22963
272.902	181.36665
273.433	141.27568
273.965	115.25277
274.496	175.38982
275.027	125.27914
275.558	183.39394
276.089	71.15737
276.62	145.33249
277.15	154.34113
277.681	132.25729
278.211	118.26138
278.741	101.19907
279.272	136.27631
279.802	127.28513
280.332	125.26307
280.861	135.29049
281.391	131.26415
281.921	126.27258
282.45	210.46342
282.98	126.295
283.509	131.26196
284.038	139.28106
284.567	140.29197
285.096	166.35496
285.625	174.34658
286.153	164.33792
286.682	156.31377
287.21	124.26481
287.739	107.22509
288.267	135.28861
288.795	197.45697
289.323	90.18653
289.851	179.36675
290.378	129.25521
290.906	125.26585
291.433	170.3717
291.961	130.25785
292.488	145.31777
293.015	130.26774
293.542	140.3105
294.069	186.39601
294.596	196.4222
295.122	131.27387
295.649	180.34317
296.175	178.37568
296.702	197.41386
297.228	174.36836
297.754	171.33085
298.28	159.31102
298.806	112.23514
299.332	129.246
299.857	193.37109
300.383	184.40384
300.908	110.23084
301.433	112.23607
301.958	162.32328
302.483	156.33416
303.008	187.39718
303.533	164.37024
304.058	195.39284
304.582	137.27663
305.107	127.2856
305.631	215.41478
306.155	144.28509
306.679	162.31982
307.203	178.34794
307.727	193.38577
308.251	167.35084
308.775	107.21546
309.298	111.22537
309.822	141.30327
310.345	188.37255
310.868	140.28223
311.391	224.45947
311.914	198.41275
312.437	208.39366
312.96	180.35118
313.482	181.3549
314.005	166.34773
314.527	151.3319
315.049	210.4401
315.571	122.22254
316.093	209.42337
316.615	182.35846
317.137	108.1936
317.659	236.46569
318.18	198.39016
318.702	197.36892
319.223	199.32333
319.744	193.34465
320.265	146.28553
320.786	196.38549
321.307	230.45343
321.828	208.37
322.348	209.38636
322.869	184.33972
323.389	-8.01044
323.909	177.31886
324.43	262.49272
324.95	185.32712
325.47	190.36136
325.989	248.44138
326.509	186.3074
327.029	222.37221
327.548	186.31236
328.067	221.39731
328.587	268.49928
329.106	246.40929
329.625	258.51772
330.144	200.33918
330.662	214.36017
331.181	225.38272
331.7	270.45195
332.218	274.41313
332.736	234.39168
333.255	244.40059
333.773	255.42462
334.291	273.48651
334.808	243.37112
335.326	290.44306
335.844	258.40284
336.361	272.46906
336.879	268.41455
337.396	207.3386
337.913	276.41415
338.43	304.43669
338.947	268.41675
339.464	249.33435
339.981	283.42684
340.497	262.42247
341.014	301.46465
341.53	244.34126
342.046	249.38731
342.562	294.46469
343.078	277.40076
343.594	339.48898
344.11	354.50155
344.626	307.47252
345.141	307.40763
345.657	306.4078
346.172	290.41474
346.687	311.40742
347.202	257.32846
347.717	338.4583
348.232	362.51843
348.747	286.36693
349.261	265.30529
349.776	382.48212
350.29	280.38161
350.805	401.54254
351.319	350.43246
351.833	309.36005
352.347	289.36097
352.861	353.41966
353.374	404.47105
353.888	331.41959
354.401	305.35565
354.915	291.31571
355.428	351.44249
355.941	383.42387
356.454	470.48724
356.967	368.42328
357.48	395.42735
357.993	362.43842
358.505	406.4674
359.018	426.48641
359.53	390.42945
360.042	409.39305
360.554	392.43739
361.066	369.40963
361.578	420.37525
362.09	344.36931
362.602	337.30861
363.113	344.34101
363.625	421.37528
364.136	391.33917
364.647	335.30373
365.158	445.40187
365.669	459.4328
366.18	465.4196
366.691	460.36027
367.201	389.36148
367.712	442.35251
368.222	441.35012
368.733	421.2872
369.243	459.3111
369.753	445.33764
370.263	506.38999
370.773	476.39087
371.282	501.3538
371.792	361.22192
372.301	495.32488
372.811	524.40435
373.32	382.1628
373.829	426.22346
374.338	490.18916
374.847	386.1615
375.356	480.18458
375.865	464.07733
376.373	618.09937
376.882	590.19247
377.39	648.12235
377.898	566.06835
378.407	667.9606
378.915	700.90485
379.423	630.9406
379.93	738.84904
380.438	670.84877
380.946	673.79331
381.453	731.73431
381.96	697.69942
382.468	547.72808
382.975	922.51867
383.482	1010.44259
383.989	790.57776
384.495	854.52226
385.002	737.61301
385.509	843.56675
386.015	982.67796
386.521	1088.66522
387.028	1082.80378
387.534	1091.9633
388.04	1359.99817
388.546	955.20931
389.051	887.47578
389.557	1084.99021
390.063	1648.11463
390.568	1548.48061
391.073	1425.03505
391.578	1512.5766
392.084	1450.41732
392.589	1092.10249
393.093	911.23275
393.598	1290.74118
394.103	1496.92106
394.607	1882.09319
395.112	2202.53692
395.616	2212.13243
396.12	2034.34344
396.624	2019.3745
397.128	2336.77634
397.632	3022.14482
398.136	3083.12445
398.639	1717.52185
399.143	885.52186
399.646	1533.29549
400.15	1525.23269
400.653	888.79476
401.156	-124.03031
401.659	-983.90844
402.162	-93.78868
402.664	0
403.167	0
403.67	0
404.172	0
404.674	0
405.176	0
405.678	0
406.18	0
406.682	0
407.184	0
407.686	0
408.187	0
408.688	0
409.19	0
409.691	0
410.192	0
410.693	0
411.194	435.30976
411.694	4082.94878
412.195	8864.71461
412.696	12089.80453
413.196	12760.96929
413.696	12524.54489
414.196	13372.62361
414.696	16902.2433
415.196	19547.1584
415.696	21987.33982
416.196	18543.28536
416.695	11824.24166
417.195	7652.30755
417.694	7436.99517
418.194	7487.02122
418.693	6323.09153
419.192	6077.20525
419.691	5956.13777
420.19	6031.92961
420.688	6170.71351
421.187	6087.58336
421.685	6055.72093
422.184	5757.47893
422.682	4953.87282
423.18	3618.46413
423.678	2964.29307
424.176	2722.99477
424.674	2540.71171
425.172	2531.77034
425.669	2542.24143
426.167	2544.33287
426.664	2201.3076
427.161	1870.66423
427.659	1795.30101
428.156	1631.35132
428.652	1487.20457
429.149	1423.22912
429.646	1283.29714
430.143	1370.2853
430.639	1139.4429
431.135	1128.52813
431.632	998.60039
432.128	961.70804
432.624	834.84108
433.12	747.78916
433.616	662.83674
434.111	490.93807
434.607	572.96533
435.103	682.91893
435.598	602.95549
436.093	640.0798
436.588	657.09394
437.083	471.12636
437.578	536.17383
438.073	346.17139
438.568	523.27726
439.062	499.17688
439.557	429.25314
440.051	392.21457
440.546	240.15025
441.04	265.1941
441.534	253.22201
442.028	323.25649
442.522	281.2283
443.015	295.20128
443.509	307.27425
444.002	236.21867
444.496	234.17759
444.989	258.24638
445.482	252.25015
445.975	157.13413
446.468	245.18722
446.961	161.12997
447.454	241.21345
447.947	115.11524
448.439	220.23159
448.931	110.10391
449.424	173.20287
449.916	229.24684
450.408	127.12406
450.9	95.10752
451.392	120.146
451.884	100.10849
452.375	42.05161
452.867	179.19063
453.358	26.02852
453.849	101.09908
454.341	73.0803
454.832	94.09598
455.323	81.10136
455.814	56.06637
456.304	48.05773
456.795	75.08899
457.285	66.07816
457.776	107.13154
458.266	15.01959
458.756	40.05408
459.247	-62.0842
459.737	-10.01346
460.226	-5.00627
460.716	35.04783
461.206	38.05311
461.695	-18.02759
462.185	35.04874
462.674	24.03292
463.163	31.04049
463.653	-45.05639
464.142	-80.12155
464.63	26.03983
465.119	-20.02867
465.608	-49.07119
466.096	-2.00273
466.585	16.02369
467.073	8.01252
467.561	33.05178
468.05	4.00611
468.538	-6.00993
469.026	-19.03064
469.513	-87.1224
470.001	-10.01511
470.489	26.04114
470.976	-13.0205
471.463	-68.12064
471.951	-21.03742
472.438	-63.10455
472.925	-93.15485
473.412	-18.03205
473.899	-69.11514
474.385	-39.07022
474.872	-67.11384
475.359	-71.12849
475.845	-76.11437
476.331	-37.05944
476.817	-92.17131
477.303	-67.11735
477.789	-77.14184
478.275	-94.17973
478.761	-87.16268
479.247	-40.06861
479.732	-135.26433
480.218	-92.18965
480.703	-76.14884
481.188	-125.211
481.673	-58.10387
482.158	-130.2158
482.643	-71.146
483.128	-124.22596
483.612	-109.20564
484.097	-55.10901
484.581	-130.24857
485.066	-94.18592
485.55	-108.19161
486.034	-140.248
486.518	-148.28642
487.002	-174.35497
487.486	-111.22434
487.969	-180.37022
488.453	-131.27933
488.936	-158.29962
489.42	-127.2363
489.903	-140.30144
490.386	-100.13537
490.869	-114.21048
491.352	-98.20538
491.835	-100.17492
492.318	-165.31955
492.8	-132.23297
493.283	-180.39705
493.765	-130.27509
494.247	-105.21241
494.73	-123.2341
495.212	-59.12285
495.694	-180.36671
496.175	-187.38557
496.657	-90.18478
497.139	-80.12024
497.62	-198.41165
498.102	-172.37527
498.583	-165.36618
499.064	-226.44764
499.545	-143.28676
500.026	-186.36927
500.507	-153.31391
500.988	-143.31458
501.469	-205.45816
501.949	-136.29862
502.43	-189.39863
502.91	-215.39825
503.39	-169.38004
503.87	-205.43161
504.35	-137.28895
504.83	-207.4078
505.31	-165.35687
505.79	-211.4546
506.269	-183.38614
506.749	-190.38955
507.228	-210.44477
507.707	-172.34212
508.187	-121.25891
508.666	-202.44782
509.145	-238.50649
509.623	-180.3814
510.102	-220.48671
510.581	-151.33009
511.059	-215.48942
511.538	-166.38986
512.016	-163.35255
512.494	-191.42335
512.972	-181.39265
513.45	-243.51319
513.928	-215.47614
514.406	-253.55632
514.884	-219.51562
515.361	-174.37867
515.839	-200.41617
516.316	-213.46994
516.793	-200.46548
517.27	-178.39593
517.747	-195.45751
518.224	-210.44846
518.701	-160.32493
519.178	-229.5215
519.654	-193.42403
520.131	-222.50709
520.607	-213.48957
521.083	-229.4849
521.56	-203.44225
522.036	-201.40866
522.512	-179.40764
522.987	-195.42428
523.463	-209.45938
523.939	-204.46392
524.414	-149.3162
524.89	-207.45556
525.365	-205.43028
525.84	-262.57913
526.315	-211.47079
526.79	-173.35991
527.265	-221.4698
527.74	-189.42554
528.215	-210.46032
528.689	-219.45195
529.164	-238.48642
529.638	-210.50298
530.112	-251.55377
530.587	-219.43489
531.061	-215.4815
531.534	-185.41705
532.008	-203.45313
532.482	-188.40218
532.956	-223.52851
533.429	-178.4002
533.903	-148.30317
534.376	-197.40655
534.849	-170.36588
535.322	-198.43621
535.795	-207.47312
536.268	-197.44119
536.741	-194.43546
537.213	-180.38807
537.686	-248.56762
538.158	-233.48927
538.631	-193.43952
539.103	-235.49477
539.575	-174.33948
540.047	-231.47972
540.519	-190.42525
540.991	-186.42607
541.463	-213.48428
541.934	-224.48271
542.406	-230.51498
542.877	-228.48521
543.348	-152.34105
543.82	-176.40316
544.291	-170.37091
544.762	-233.51901
545.233	-198.46228
545.703	-217.44984
546.174	-182.39423
546.645	-252.56331
547.115	-204.45771
547.585	-135.28574
548.056	-218.48671
548.526	-173.37353
548.996	-159.35213
549.466	-134.30054
549.935	-196.42619
550.405	-170.34113
550.875	-165.35703
551.344	-164.3604
551.814	-153.32128
552.283	-122.24165
552.752	-121.25319
553.221	-186.36824
553.69	-152.30642
554.159	-175.38934
554.628	-174.35239
555.096	-143.32685
555.565	-135.27234
556.033	-122.26156
556.502	-146.32395
556.97	-150.30657
557.438	-128.27904
557.906	-87.18938
558.374	-104.21998
558.842	-160.35648
559.31	-155.32519
559.777	-182.41154
560.245	-89.19398
560.712	-117.25295
561.18	-123.25327
561.647	-86.17816
562.114	-114.24176
562.581	-84.19204
563.048	-25.05301
563.514	-120.27422
563.981	-83.17706
564.448	-53.11002
564.914	-27.05797
565.381	-36.07585
565.847	33.07043
566.313	43.09101
566.779	-9.01867
567.245	63.13334
567.711	7.01533
568.176	15.03069
568.642	93.20897
569.108	99.21797
569.573	129.27184
570.038	155.28869
570.504	147.29082
570.969	193.42546
571.434	233.44087
571.899	238.49127
572.363	249.49008
572.828	328.63933
573.293	345.66879
573.757	371.71542
574.222	321.60442
574.686	336.63251
575.15	323.6507
575.614	400.76264
576.078	398.77726
576.542	418.78922
577.006	449.83052
577.469	535.07947
577.933	452.82584
578.396	468.91614
578.86	521.99699
579.323	493.95755
579.786	473.83127
580.249	451.84256
580.712	528.05044
581.175	477.96889
581.637	462.88043
582.1	457.82801
582.563	450.79892
583.025	440.88497
583.487	390.65289
583.95	424.75001
584.412	459.79186
584.874	378.77394
585.336	365.73091
585.797	379.687
586.259	398.79165
586.721	311.62422
587.182	381.75695
587.643	358.69018
588.105	381.76225
588.566	366.6511
589.027	276.57304
589.488	283.55778
589.949	308.6429
590.41	258.43163
590.87	330.6466
591.331	337.62176
591.791	244.48986
592.252	231.45958
592.712	262.5481
593.172	233.45815
593.632	272.51833
594.092	230.44895
594.552	299.55331
595.011	203.40858
595.471	271.52559
595.931	236.45935
596.39	253.52657
596.849	326.64964
597.308	327.60785
597.768	262.57913
598.227	285.59502
598.685	378.7382
599.144	346.68982
599.603	377.75739
600.062	362.63964
600.52	374.70233
600.978	460.90687
601.437	490.92519
601.895	480.83319
602.353	526.95137
602.811	570.01527
603.269	571.10475
603.727	594.14248
604.184	597.0687
604.642	687.32518
605.099	673.22613
605.557	764.4412
606.014	768.24723
606.471	809.5378
606.928	787.25633
607.385	870.57268
607.842	1054.70021
608.299	1071.76717
608.755	1098.86742
609.212	1106.69246
609.668	1160.72867
610.125	1280.08774
610.581	1313.10333
611.037	1289.97964
611.493	1347.12296
611.949	1290.09598
612.405	1362.70385
612.861	1413.18591
613.316	1370.16505
613.772	1400.09225
614.227	1396.16001
614.683	1504.99987
615.138	1436.17612
615.593	1448.17117
616.048	1491.17984
616.503	1528.43617
616.958	1441.39976
617.412	1484.26951
617.867	1507.07939
618.321	1500.92105
618.776	1448.06288
619.23	1409.19232
619.684	1485.16305
620.138	1506.27117
620.592	1409.30661
621.046	1356.16721
621.5	1368.27186
621.954	1390.09581
622.407	1310.99271
622.861	1333.24541
623.314	1279.02425
623.768	1203.99801
624.221	1143.57211
624.674	1184.95609
625.127	1177.98998
625.58	1144.90532
626.033	1143.83462
626.485	1078.92594
626.938	1096.94715
627.39	1100.90096
627.843	1051.83187
628.295	1057.84042
628.747	994.81928
629.199	943.66212
629.651	924.63574
630.103	946.68434
630.555	925.51617
631.006	947.74134
631.458	883.66081
631.909	875.61191
632.361	850.59903
632.812	830.54987
633.263	836.44739
633.714	846.4539
634.165	782.57116
634.616	733.45804
635.067	779.42612
635.518	743.48551
635.968	779.27686
636.419	688.26143
636.869	755.50535
637.319	713.38924
637.769	696.31335
638.219	769.54253
638.669	652.33615
639.119	706.47042
639.569	617.29309
640.019	693.36813
640.468	595.15732
640.918	652.36083
641.367	610.18965
641.816	634.22658
642.265	666.32674
642.714	619.24755
643.163	617.23667
643.612	583.2282
644.061	600.10199
644.51	617.22413
644.958	644.22218
645.406	609.27687
645.855	625.3439
646.303	611.25455
646.751	599.1939
647.199	579.16146
647.647	604.21923
648.095	593.19562
648.543	626.11525
648.99	528.12897
649.438	605.25562
649.885	595.30617
650.333	609.02648
650.78	548.18292
651.227	551.19829
651.674	528.07777
652.121	507.1146
652.568	542.17993
653.015	526.20258
653.461	500.07499
653.908	531.11211
654.354	526.13293
654.801	412.89199
655.247	499.99324
655.693	446.0699
656.139	436.96326
656.585	479.04809
657.031	425.91246
657.477	448.88612
657.922	434.92034
658.368	435.99331
658.813	472.00641
659.259	370.83113
659.704	390.84689
660.149	395.85756
660.594	346.77404
661.039	422.89099
661.484	411.91581
661.929	402.8774
662.373	358.84986
662.818	357.83458
663.262	407.91328
663.707	358.85575
664.151	410.93567
664.595	329.75252
665.039	398.92876
665.483	370.8878
665.927	407.89714
666.371	297.65553
666.814	367.82794
667.258	345.77164
667.701	399.80898
668.145	393.92087
668.588	387.8944
669.031	289.65094
669.474	402.90891
669.917	406.84405
670.36	392.91548
670.803	386.8795
671.245	381.75766
671.688	378.87239
672.13	325.69508
672.573	408.97596
673.015	363.82694
673.457	346.71708
673.899	379.8693
674.341	354.81246
674.783	368.83578
675.225	374.87105
675.666	315.72427
676.108	394.80743
676.549	386.86564
676.991	358.7509
677.432	346.65647
677.873	372.81709
678.314	352.80107
678.755	347.80516
679.196	356.77603
679.637	368.85573
680.078	379.84243
680.518	353.78627
680.959	306.70569
681.399	353.8346
681.839	343.79809
682.28	360.84538
682.72	337.73789
683.16	380.89755
683.6	372.80781
684.039	335.66928
684.479	373.86958
684.919	262.5859
685.358	354.85812
685.798	371.92506
686.237	341.7903
686.676	374.827
687.115	366.81944
687.554	359.8132
687.993	397.83141
688.432	369.80283
688.871	337.73228
689.309	322.73903
689.748	356.71174
690.186	385.87421
690.625	332.74639
691.063	362.82782
691.501	375.88249
691.939	324.77597
692.377	369.85721
692.815	310.71406
693.253	351.808
693.69	385.80307
694.128	308.71878
694.565	325.74547
695.003	355.86103
695.44	370.82806
695.877	308.6933
696.314	400.8149
696.751	405.87515
697.188	349.76674
697.625	372.81537
698.061	328.75581
698.498	363.83928
698.934	331.76592
699.371	307.69684
699.807	378.85083
700.243	354.81409
700.679	374.80696
701.115	407.90803
701.551	345.77895
701.987	361.77608
702.422	324.73975
702.858	315.72311
703.294	348.75537
703.729	339.79593
704.164	332.76747
704.599	331.70853
705.035	345.73881
705.47	309.72437
705.904	327.73199
706.339	355.79106
706.774	387.86056
707.209	327.72445
707.643	358.82164
708.078	326.76317
708.512	275.66679
708.946	359.82278
709.38	357.80867
709.814	297.65745
710.248	288.6803
710.682	307.70447
711.116	282.65113
711.549	304.75764
711.983	274.61526
712.416	316.72061
712.85	328.78615
713.283	314.71634
713.716	352.84719
714.149	357.81426
714.582	263.57563
715.015	367.87775
715.448	332.80421
715.881	337.70858
716.313	328.73861
716.746	290.6608
717.178	245.57526
717.61	301.73776
718.043	294.70923
718.475	308.72048
718.907	349.84712
719.339	267.58833
719.77	263.60618
720.202	300.73299
720.634	250.59284
721.065	290.6656
721.497	296.70163
721.928	229.55026
722.359	216.51064
722.79	261.6078
723.221	264.64673
723.652	310.77231
724.083	248.54613
724.514	271.6054
724.945	227.523
725.375	245.55455
725.806	262.63706
726.236	298.73838
726.666	263.60618
727.096	281.66878
727.526	244.6046
727.956	239.53105
728.386	263.63027
728.816	218.54058
729.246	210.50106
729.675	222.53516
730.105	259.62092
730.534	231.52946
730.964	291.71246
731.393	303.72776
731.822	252.62739
732.251	236.58542
732.68	287.65568
733.109	250.6006
733.537	215.50955
733.966	263.63506
734.395	260.58455
734.823	269.5905
735.251	258.60495
735.68	297.71958
736.108	280.68693
736.536	235.54251
736.964	238.53991
737.392	244.59597
737.82	237.55626
738.247	246.57524
738.675	230.53868
739.102	235.57345
739.53	236.58671
739.957	220.55429
740.384	295.70425
740.811	276.67887
741.238	235.5606
741.665	192.43893
742.092	231.54028
742.519	205.4982
742.945	242.56722
743.372	221.53608
743.798	221.55651
744.225	202.47255
744.651	248.60664
745.077	225.54926
745.503	173.41761
745.929	211.49718
746.355	264.63904
746.781	240.58074
747.207	174.40338
747.632	132.32026
748.058	188.46245
748.483	202.45788
748.908	221.53789
749.334	197.47625
749.759	166.38773
750.184	158.3731
750.609	220.52994
751.033	250.57656
751.458	238.52213
751.883	199.48525
752.307	133.31206
752.732	112.27916
753.156	189.45984
753.58	165.38849
754.005	197.49199
754.429	159.37058
754.853	159.39004
755.277	160.37548
755.7	151.37165
756.124	143.35235
756.548	105.24925
756.971	181.43625
757.394	141.36066
757.818	155.39493
758.241	168.42117
758.664	159.39738
759.087	102.22839
759.51	188.46091
759.933	77.18637
760.356	133.339
760.778	98.24134
761.201	156.37636
761.623	158.38017
762.046	112.26612
762.468	193.45689
762.89	154.377
763.312	165.39875
763.734	144.34439
764.156	128.31475
764.578	112.25811
765	124.30165
765.421	89.22621
765.843	144.37433
766.264	137.32946
766.686	129.32253
767.107	99.24025
767.528	56.14231
767.949	92.23421
768.37	106.26008
768.791	93.22569
769.212	81.20391
769.632	95.22185
770.053	83.21883
770.473	89.21711
770.894	149.36997
771.314	92.22062
771.734	98.2289
772.154	78.20088
772.575	140.32276
772.994	56.12859
773.414	92.22162
773.834	79.19816
774.254	29.07193
774.673	111.26997
775.093	80.19854
775.512	64.1586
775.931	56.14292
776.351	84.20899
776.77	38.09389
777.189	85.20286
777.607	62.15912
778.026	72.18005
778.445	12.03044
778.864	61.15729
779.282	18.04397
779.701	60.1521
780.119	30.07659
780.537	59.14805
780.955	92.23405
781.373	49.12216
781.791	24.05478
782.209	56.13029
782.627	56.14817
783.045	45.10463
783.462	60.15399
783.88	63.16352
784.297	23.05852
784.715	37.09574
785.132	55.13407
785.549	51.12839
785.966	31.07874
786.383	65.16057
786.8	45.10558
787.217	24.05764
787.633	31.0781
788.05	85.20239
788.466	90.21253
788.883	21.05411
789.299	74.17874
789.715	16.03942
790.131	23.05784
790.547	57.14308
790.963	80.19875
791.379	47.11955
791.795	19.04402
792.21	52.12251
792.626	37.08868
793.041	53.13155
793.457	52.12928
793.872	11.02625
794.287	10.0242
794.702	74.18271
795.117	46.11499
795.532	25.06325
795.947	64.15476
796.362	65.15596
796.776	84.19713
797.191	35.08643
797.605	-66.15941
798.02	20.04924
798.434	32.07215
798.848	6.01498
799.262	1.00252
799.676	72.17607
800.09	45.11145
800.504	45.10998
800.918	13.03055
801.331	67.17593
801.745	26.06044
802.158	22.05555
802.572	68.16542
802.985	49.11922
803.398	44.10571
803.811	80.2056
804.224	63.15729
804.637	-5.01211
805.05	25.05864
805.462	44.10884
805.875	4.01049
806.288	-6.0147
806.7	26.06593
807.112	41.09586
807.525	44.10927
807.937	5.01252
808.349	36.09084
808.761	48.11873
809.173	68.16511
809.584	56.13898
809.996	1.00248
810.408	30.07796
810.819	-11.02632
811.231	1.00261
811.642	24.05777
812.053	91.21576
812.464	84.19944
812.875	105.26679
813.286	42.10866
813.697	91.21243
814.108	60.14705
814.519	38.08547
814.929	70.17865
815.34	30.07339
815.75	43.1098
816.16	38.09534
816.571	38.09926
816.981	72.17022
817.391	41.09965
817.801	27.0676
818.211	62.14822
818.62	18.04379
819.03	20.04951
819.44	57.14922
819.849	38.09633
820.259	38.09783
820.668	2.00498
821.077	4.01005
821.486	52.12579
821.895	79.19502
822.304	27.07202
822.713	22.05254
823.122	14.0353
823.531	28.06697
823.939	25.06144
824.348	64.15586
824.756	53.13318
825.164	27.06848
825.573	7.01776
825.981	24.06004
826.389	44.11106
826.797	21.05306
827.205	18.04176
827.612	32.07953
828.02	25.05923
828.428	25.06415
828.835	12.03187
829.243	35.08401
829.65	11.02763
830.057	35.08551
830.464	20.04918
830.871	60.14399
831.278	29.07064
831.685	31.0698
832.092	6.01486
832.499	39.08594
832.905	34.08659
833.312	39.08957
833.718	36.09022
834.124	64.14649
834.531	39.09881
834.937	9.02333
835.343	34.08259
835.749	79.18427
836.155	27.07114
836.561	42.10377
836.966	86.2096
837.372	23.05898
837.777	-29.07348
838.183	38.08509
838.588	41.10225
838.993	-2.00493
839.399	10.0247
839.804	15.03689
840.209	19.04874
840.613	21.04719
841.018	-10.02566
841.423	1.00259
841.828	55.1393
842.232	98.24134
842.637	46.10896
843.041	-2.00518
843.445	29.07319
843.849	12.02999
844.253	73.17329
844.657	7.0178
845.061	23.05266
845.465	28.06809
845.869	7.01646
846.272	10.02459
846.676	70.16914
847.079	4.01027
847.483	58.14483
847.886	99.23934
848.289	32.08577
848.692	4.01023
849.095	36.08692
849.498	120.30106
849.901	-3.00698
850.304	-6.01453
850.707	38.09729
851.109	61.15439
851.512	16.03965
851.914	-26.06652
852.316	66.16677
852.718	-24.06284
853.121	27.06658
853.523	43.10089
853.925	-23.06082
854.326	-5.01265
854.728	2.00519
855.13	24.06226
855.531	0
855.933	48.11554
856.334	8.02013
856.736	-3.00681
857.137	19.04455
857.538	0
857.939	4.00998
858.34	60.14623
858.741	20.05262
859.142	25.06046
859.542	-36.09646
859.943	42.10469
860.343	-20.05023
860.744	30.07361
861.144	40.09793
861.544	-12.02922
861.945	57.14529
862.345	29.07133
862.745	32.07991
863.145	38.09123
863.544	32.08124
863.944	70.16504
864.344	36.0898
864.743	57.14148
865.143	46.11839
865.542	2.00469
865.941	15.03742
866.34	22.05308
866.74	27.07281
867.139	40.0961
867.537	35.08953
867.936	30.0726
868.335	-1.00257
868.734	42.1076
869.132	47.10946
869.531	52.12593
869.929	11.02531
870.327	19.04588
870.726	69.17171
871.124	51.11938
871.522	1.00257
871.92	47.11615
872.318	34.08348
872.715	26.06474
873.113	2.00492
873.511	31.07759
873.908	-15.03834
874.306	-12.03021
874.703	87.2165
875.1	71.18117
875.497	13.03143
875.894	3.00742
876.291	28.06908
876.688	52.1342
877.085	3.00727
877.482	40.10043
877.878	31.07498
878.275	40.1019
878.671	11.02474
879.068	60.14476
879.464	32.0777
879.86	21.05
880.256	53.13088
880.652	-9.02315
881.048	53.13141
881.444	36.08603
881.84	21.0537
882.236	48.12086
882.631	58.14231
883.027	44.1068
883.422	48.12289
883.817	5.01268
884.213	17.04391
884.608	-13.03228
885.003	-2.00487
885.398	15.03782
885.793	28.07063
886.188	-32.0808
886.582	58.1487
886.977	27.06444
887.371	50.12657
887.766	-1.00251
888.16	16.04021
888.554	36.08934
888.949	19.04802
889.343	52.12711
889.737	-21.05665
890.131	8.02024
890.525	5.0129
890.918	-1.00254
891.312	55.13161
891.706	37.09735
892.099	44.11217
892.492	36.07801
892.886	8.01974
893.279	40.10216
893.672	28.07161
894.065	68.16986
894.458	4.01015
894.851	41.10073
895.244	15.03857
895.637	10.02429
896.029	50.12236
896.422	25.06142
896.814	9.02256
897.206	10.02402
897.599	76.18723
897.991	31.07529
898.383	-3.00717
898.775	46.10402
899.167	6.01412
899.559	28.07121
899.951	36.08518
900.342	20.05117
900.734	-8.02007
901.125	17.04488
901.517	16.03955
901.908	78.18619
902.299	12.02956
902.69	28.0664
903.082	32.07782
903.473	-34.08277
903.863	59.15039
904.254	15.03508
904.645	48.11951
905.036	-7.01714
905.426	39.08957
905.817	21.05184
906.207	-14.03379
906.597	27.06347
906.987	53.13737
907.378	22.05595
907.768	37.09808
908.158	26.06372
908.547	0
908.937	57.14616
909.327	12.02937
909.717	48.12198
910.106	26.06278
910.495	42.10507
910.885	72.18174
911.274	42.10518
911.663	78.1971
912.052	39.09649
912.441	30.07659
912.83	26.06001
913.219	53.1387
913.608	16.03946
913.997	24.06047
914.385	47.11243
914.774	77.18665
915.162	-2.00482
915.55	26.06323
915.939	-3.00765
916.327	14.03519
916.715	6.01541
917.103	70.17175
917.491	54.13357
917.878	51.12543
918.266	29.0755
918.654	10.02574
919.041	-6.01582
919.429	59.13908
919.816	24.06114
920.203	34.08274
920.591	44.10927
920.978	60.14672
921.365	10.02642
921.752	39.09322
922.139	74.15995
922.525	-6.01457
922.912	7.01722
923.299	43.10704
923.685	15.03937
924.072	64.14726
924.458	34.0845
924.844	10.02493
925.231	-12.02828
925.617	-13.03344
926.003	39.0999
926.389	-4.01019
926.774	69.17432
927.16	38.09461
927.546	31.07941
927.931	73.18146
928.317	39.09007
928.702	53.12537
929.088	-17.04074
929.473	17.04352
929.858	-20.049
930.243	-7.01699
930.628	21.05138
931.013	15.03742
931.398	44.10136
931.783	64.16814
932.167	11.02709
932.552	42.10541
932.937	64.15848
933.321	3.00759
933.705	55.13856
934.09	51.12889
934.474	56.13291
934.858	4.01046
935.242	13.03036
935.626	9.02321
936.009	56.14881
936.393	6.01539
936.777	25.06431
937.16	28.07314
937.544	14.03323
937.927	-1.00256
938.311	23.05644
938.694	60.15843
939.077	6.01449
939.46	55.13497
939.843	48.10024
940.226	40.1028
940.609	-8.01858
940.991	20.05119
941.374	-16.03959
941.757	15.03726
942.139	-13.02958
942.522	45.10649
942.904	43.10353
943.286	34.08665
943.668	45.11668
944.05	-1.00249
944.432	9.02238
944.814	32.0791
945.196	12.02945
945.578	-5.01201
945.959	46.10791
946.341	75.1833
946.722	32.07539
947.104	34.08153
947.485	48.11176
947.866	33.0834
948.247	14.03555
948.628	48.11716
949.009	-9.02329
949.39	56.13928
949.771	42.09787
950.152	36.08859
950.532	-23.05734
950.913	24.05819
951.293	10.02719
951.674	21.05108
952.054	0
952.434	18.04495
952.814	39.09301
953.194	30.07879
953.574	46.11341
953.954	27.06441
954.334	-6.01511
954.714	-9.02218
955.093	11.02724
955.473	22.05529
955.853	23.05982
956.232	78.21283
956.611	64.15312
956.99	11.02784
957.37	27.06909
957.749	38.09088
958.128	22.05571
958.506	47.12199
958.885	16.04063
959.264	14.03454
959.643	13.02981
960.021	27.06719
960.4	31.07054
960.778	40.09872
961.156	19.0479
961.535	28.06556
961.913	53.12397
962.291	12.03099
962.669	28.07121
963.047	26.06663
963.424	23.05898
963.802	32.07895
964.18	60.15156
964.557	38.08775
964.935	34.08082
965.312	9.0236
965.69	41.10284
966.067	36.0879
966.444	50.12322
966.821	11.02855
967.198	84.20251
967.575	46.1132
967.952	4.00951
968.329	35.08541
968.705	45.09662
969.082	66.16879
969.458	-14.03399
969.835	19.04652
970.211	26.06701
970.587	38.09482
970.963	-3.00777
971.339	-18.04755
971.715	17.0427
972.091	43.10603
972.467	5.01257
972.843	12.02999
973.219	57.13671
973.594	-7.01849
973.97	102.2404
974.345	13.03133
974.721	82.19738
975.096	24.05836
975.471	3.00718
975.846	19.04592
976.221	-20.05142
976.596	13.03138
976.971	29.07188
977.346	19.04451
977.72	17.04356
978.095	37.09584
978.469	26.06235
978.844	52.13069
979.218	13.03138
979.593	34.08172
979.967	28.0685
980.341	36.08313
980.715	-9.02292
981.089	9.0227
981.463	16.03699
981.837	-13.03214
982.21	31.07242
982.584	15.03647
982.957	11.02766
983.331	15.0357
983.704	19.04695
984.078	-8.01993
984.451	64.15947
984.824	-2.00492
985.197	16.03911
985.57	74.18478
985.943	70.17226
986.316	60.14716
986.688	75.18002
987.061	30.0706
987.434	27.07063
987.806	30.07303
988.179	4.00952
988.551	60.15194
988.923	39.09624
989.295	62.1546
989.667	6.01445
990.039	10.02489
990.411	-11.02563
990.783	73.16732
991.155	-44.1076
991.527	77.18868
991.898	11.0276
992.27	-46.11578
992.641	35.08805
993.012	72.1687
993.384	11.02643
993.755	36.092
994.126	14.0339
994.497	3.00743
994.868	10.02316
995.239	15.03659
995.61	19.04807
995.98	-2.00491
996.351	-30.07537
996.722	-13.03053
997.092	17.04051
997.462	-46.10947
997.833	38.09029
998.203	47.11401
998.573	27.06751
998.943	1.00237
999.313	54.1293
999.683	24.05788
1000.053	26.06011
1000.423	39.09496
1000.792	4.01045
1001.162	8.01984
1001.531	44.1086
1001.901	11.02761
1002.27	5.01128
1002.639	25.06415
1003.009	38.09057
1003.378	10.02575
1003.747	18.04279
1004.116	15.03613
1004.485	9.02168
1004.853	39.09899
1005.222	45.11357
1005.591	43.10223
1005.959	0
1006.328	36.08124
1006.696	37.08945
1007.064	3.00761
1007.433	64.15952
1007.801	9.02226
1008.169	43.10871
1008.537	38.08435
1008.905	32.0748
1009.273	47.11615
1009.64	-10.02413
1010.008	17.04077
1010.375	66.15977
1010.743	75.17232
1011.11	-3.00717
1011.478	28.06956
1011.845	28.06612
1012.212	1.00229
1012.579	31.07636
1012.946	56.13311
1013.313	48.11427
1013.68	39.08785
1014.047	-15.03618
1014.414	24.05696
1014.78	9.02253
1015.147	56.13526
1015.513	39.09415
1015.88	68.1733
1016.246	32.07924
1016.612	60.13706
1016.978	33.0811
1017.344	32.07933
1017.71	64.15563
1018.076	36.08511
1018.442	43.11072
1018.808	-17.043
1019.174	10.02526
1019.539	113.25682
1019.905	15.03561
1020.27	13.03229
1020.636	56.13408
1021.001	74.1763
1021.366	4.00969
1021.731	31.07996
1022.096	-10.02549
1022.461	47.11127
1022.826	23.05493
1023.191	43.11291
1023.556	48.11251
1023.92	53.13021
1024.285	68.16536
1024.649	15.03699
1025.014	57.14097
1025.378	49.12318
1025.742	30.07475
1026.107	47.10634
1026.471	80.18561
1026.835	36.08944
1027.199	-44.10776
1027.562	20.04675
1027.926	27.06628
1028.29	21.0534
1028.654	53.12182
1029.017	47.11555
1029.381	23.05521
1029.744	10.02567
1030.107	25.05941
1030.471	49.1173
1030.834	10.02293
1031.197	70.16792
1031.56	33.07809
1031.923	-4.01043
1032.286	46.10808
1032.648	-3.00724
1033.011	13.03005
1033.374	42.09883
1033.736	11.0291
1034.099	14.03434
1034.461	0
1034.823	29.07246
1035.185	42.10583
1035.548	-1.00246
1035.91	29.06971
1036.272	18.04122
1036.634	79.19214
1036.995	36.08481
1037.357	28.06837
1037.719	0
1038.08	31.07384
1038.442	30.07145
1038.803	83.19793
1039.165	43.1086
1039.526	50.12077
1039.887	26.06247
1040.248	5.01242
1040.609	45.11125
1040.97	6.01478
1041.331	6.0153
1041.692	-9.02124
1042.053	17.03895
1042.413	15.03518
1042.774	14.03426
1043.134	43.10247
1043.495	67.16782
1043.855	16.03904
1044.215	-15.03765
1044.576	28.0672
1044.936	51.11685
1045.296	31.07759
1045.656	58.14204
1046.016	38.09189
1046.375	-12.02943
1046.735	-7.01604
1047.095	35.08212
1047.454	32.06804
1047.814	6.01454
1048.173	53.12649
1048.533	-15.0348
1048.892	-50.12222
1049.251	33.08305
1049.61	-16.03985
1049.969	22.05211
1050.328	8.01749
1050.687	15.03672
1051.046	-3.00737
1051.405	48.11938
1051.763	11.02548
1052.122	9.0226
1052.48	17.04192
1052.839	-4.0095
1053.197	16.03789
1053.555	40.09134
1053.914	64.15604
1054.272	52.1256
1054.63	-3.0074
1054.988	-17.04088
1055.345	48.10335
1055.703	23.05561
1056.061	24.06198
1056.419	28.07271
1056.776	76.18329
1057.134	-15.03515
1057.491	56.13999
1057.848	16.04005
1058.206	57.13379
1058.563	15.03329
1058.92	17.03942
1059.277	38.09389
1059.634	15.03551
1059.991	82.19514
1060.348	19.04318
1060.704	-10.02409
1061.061	77.17784
1061.418	42.10194
1061.774	-10.02494
1062.131	12.03191
1062.487	-20.04738
1062.843	-7.01762
1063.199	53.13165
1063.555	39.0905
1063.911	10.02542
1064.267	60.1248
1064.623	19.04639
1064.979	46.10901
1065.335	11.02647
1065.691	19.04578
1066.046	36.07935
1066.402	24.05478
1066.757	29.07342
1067.112	49.1202
1067.468	-37.08878
1067.823	33.07954
1068.178	44.10648
1068.533	14.03415
1068.888	65.15477
1069.243	17.04218
1069.598	66.15977
1069.952	-11.02506
1070.307	4.00998
1070.662	31.07381
1071.016	-29.06599
1071.371	-19.0438
1071.725	58.13845
1072.079	25.06037
1072.434	17.04153
1072.788	20.04787
1073.142	42.10339
1073.496	8.01912
1073.85	48.11128
1074.203	10.02443
1074.557	-3.00804
1074.911	52.12398
1075.265	25.05836
1075.618	6.01476
1075.971	47.11178
1076.325	-5.01282
1076.678	11.02533
1077.031	-10.02289
1077.385	64.14047
1077.738	-9.02055
1078.091	-10.023
1078.444	41.0953
1078.796	4.00989
1079.149	0
1079.502	-7.01671
1079.855	33.07716
1080.207	43.10599
1080.56	0
1080.912	37.09023
1081.264	5.01213
1081.617	14.03432
1081.969	7.01778
1082.321	10.02458
1082.673	-7.01615
1083.025	14.03342
1083.377	-197.445
1083.728	17.03989
1084.08	24.06015
1084.432	2.00486
1084.783	26.06116
1085.135	21.05287
1085.486	6.01384
1085.838	-11.02737
1086.189	16.03905
1086.54	26.06232
1086.891	-14.03578
1087.242	62.15049
1087.593	50.12163
1087.944	-14.03207
1088.295	51.11582
1088.646	48.11629
1088.996	-3.00729
1089.347	12.02963
1089.698	-24.05749
1090.048	34.08848
1090.398	53.12275
1090.749	23.05527
1091.099	-5.01269
1091.449	23.05753
1091.799	33.08281
1092.149	-23.0568
1092.499	5.01229
1092.849	-4.01026
1093.199	54.13514
1093.548	-19.04621
1093.898	32.08025
1094.248	67.1715
1094.597	-24.062
1094.947	37.09883
1095.296	51.1258
1095.645	64.16591
1095.994	-11.0267
1096.343	26.06565
1096.692	14.03697
1097.041	16.04352
1097.39	14.03531
1097.739	14.03658
1098.088	49.13119
1098.437	-36.09586
1098.785	35.09451
1099.134	62.16415
1099.482	58.15917
1099.83	25.06591
1100.179	9.02362
1100.527	33.08785
1100.875	-18.04809
1101.223	14.03736
1101.571	9.02501
1101.919	-41.10868
1102.267	21.05933
1102.615	-4.01287
1102.962	5.01611
1103.31	-12.03864
1103.658	12.03865
