Data from N2 R7 sample 10_Subt2__0__15-55-07-542.txt Node

Date: Fri Aug 29 15:55:07 PDT 2025
User: uwsun
Spectrometer: HDX01956
Trigger mode: 0
Integration Time (sec): 5.000000E-1
Scans to average: 1
Nonlinearity correction enabled: true
Boxcar width: 0
Storing dark spectrum: false
XAxis mode: Wavelengths
Number of Pixels in Spectrum: 2068
>>>>>Begin Spectral Data<<<<<
194.03	276.74137
194.578	277.84545
195.127	261.78584
195.676	284.85517
196.225	340.8501
196.773	346.89556
197.321	499.22508
197.87	642.39735
198.418	632.35809
198.966	653.40658
199.513	586.21153
200.061	569.20338
200.609	651.44241
201.156	599.06016
201.704	556.17149
202.251	568.26693
202.798	551.20692
203.345	669.35775
203.892	604.26274
204.438	636.24808
204.985	609.17447
205.532	654.42048
206.078	676.35106
206.624	646.29459
207.17	652.23017
207.716	609.21442
208.262	672.04506
208.808	613.23317
209.354	663.30881
209.899	700.45015
210.445	594.21767
210.99	657.28238
211.535	691.31186
212.08	645.222
212.625	691.41076
213.17	699.44582
213.715	638.13375
214.259	664.25592
214.804	671.35933
215.348	654.21465
215.892	654.28165
216.436	710.32541
216.98	695.23432
217.524	572.12175
218.068	637.3286
218.612	644.34292
219.155	609.18066
219.698	618.21441
220.242	623.29533
220.785	594.15126
221.328	562.18052
221.871	586.25426
222.414	553.16694
222.956	502.02228
223.499	560.04852
224.041	591.14953
224.583	580.04113
225.126	561.02685
225.668	549.12198
226.21	551.16933
226.751	470.86785
227.293	569.08511
227.835	535.10123
228.376	610.16824
228.918	557.19236
229.459	550.1507
230	582.15323
230.541	550.06176
231.082	636.26982
231.622	559.07684
232.163	572.15559
232.704	587.21279
233.244	559.16414
233.784	615.25652
234.324	482.88556
234.864	549.03574
235.404	566.12723
235.944	621.21602
236.484	626.2984
237.023	569.11665
237.563	540.03942
238.102	596.1645
238.641	639.33631
239.18	591.13424
239.719	602.258
240.258	609.12164
240.797	675.30698
241.335	602.22353
241.874	600.92206
242.412	598.18499
242.95	551.09144
243.488	563.06324
244.026	576.09183
244.564	607.00699
245.102	567.0457
245.64	618.22926
246.177	639.15876
246.715	632.24547
247.252	638.19252
247.789	624.93922
248.326	556.10214
248.863	569.01794
249.4	631.16341
249.936	608.00282
250.473	538.03904
251.009	616.14223
251.546	560.00979
252.082	579.03374
252.618	562.02273
253.154	652.26508
253.69	561.03616
254.226	584.14425
254.761	568.0431
255.297	578.02583
255.832	567.10276
256.367	616.17975
256.903	660.15049
257.438	643.22236
257.972	620.11139
258.507	594.09861
259.042	666.14447
259.576	598.0257
260.111	643.19803
260.645	630.09056
261.179	609.14805
261.713	609.08742
262.247	657.21266
262.781	598.99862
263.315	599.19445
263.849	600.22611
264.382	681.24512
264.915	665.23665
265.449	613.19862
265.982	696.2505
266.515	671.30852
267.048	657.08837
267.58	662.1473
268.113	660.1166
268.646	637.26623
269.178	628.11132
269.71	687.17404
270.243	662.20025
270.775	675.37805
271.307	696.3339
271.838	715.3463
272.37	627.244
272.902	705.256
273.433	661.13253
273.965	639.24778
274.496	695.37914
275.027	696.3686
275.558	659.27169
276.089	645.25654
276.62	703.4288
277.15	671.32401
277.681	674.14405
278.211	671.31285
278.741	592.03115
279.272	689.22237
279.802	725.42537
280.332	643.19744
280.861	698.31841
281.391	698.2233
281.921	691.3125
282.45	673.33915
282.98	724.49325
283.509	713.23296
284.038	691.21957
284.567	757.36139
285.096	753.4041
285.625	699.22153
286.153	704.27332
286.682	705.23786
287.21	699.30516
287.739	703.28349
288.267	678.27744
288.795	725.50301
289.323	685.22975
289.851	749.33595
290.378	718.22419
290.906	698.29782
291.433	714.37966
291.961	746.26659
292.488	753.43673
293.015	780.37095
293.542	715.3938
294.069	723.35805
294.596	744.41232
295.122	763.3708
295.649	772.26078
296.175	767.40835
296.702	777.42246
297.228	772.41933
297.754	803.31925
298.28	802.33041
298.806	754.35771
299.332	817.29919
299.857	781.28941
300.383	848.59916
300.908	733.32555
301.433	799.42901
301.958	825.39318
302.483	797.46942
303.008	874.57752
303.533	868.67534
304.058	847.45058
304.582	783.34643
305.107	806.55772
305.631	805.33356
306.155	787.32379
306.679	850.40796
307.203	851.39914
307.727	842.43005
308.251	847.51195
308.775	801.35547
309.298	902.50178
309.822	888.60203
310.345	941.5382
310.868	865.45381
311.391	953.63354
311.914	874.54782
312.437	943.46702
312.96	903.46108
313.482	963.54191
314.005	942.63489
314.527	922.69655
315.049	993.72139
315.571	876.29635
316.093	1030.69692
316.615	976.56591
317.137	980.3695
317.659	1047.67605
318.18	1051.65962
318.702	1041.5489
319.223	1042.3023
319.744	1018.43747
320.265	1020.58598
320.786	1054.65818
321.307	1046.67017
321.828	1108.52113
322.348	1082.57098
322.869	1088.56223
323.389	1123.93412
323.909	1144.56184
324.43	1208.75312
324.95	1105.49593
325.47	1106.64173
325.989	1147.57664
326.509	1171.42395
327.029	1261.53371
327.548	1273.52536
328.067	1255.67328
328.587	1271.79154
329.106	1263.53289
329.625	1308.99787
330.144	1286.56174
330.662	1257.53423
331.181	1343.61978
331.7	1268.56158
332.218	1348.4081
332.736	1422.6378
333.255	1346.55799
333.773	1406.62987
334.291	1436.81533
334.808	1376.42872
335.326	1431.48293
335.844	1473.52751
336.361	1458.75015
336.879	1471.51308
337.396	1563.63773
337.913	1470.45509
338.43	1627.43501
338.947	1596.57432
339.464	1542.24666
339.981	1555.50247
340.497	1595.65352
341.014	1629.59111
341.53	1612.3378
342.046	1670.58656
342.562	1697.66407
343.078	1742.45781
343.594	1750.49558
344.11	1721.46068
344.626	1734.61997
345.141	1743.29611
345.657	1829.31042
346.172	1787.44848
346.687	1809.27704
347.202	1856.19068
347.717	1993.3762
348.232	1880.51569
348.747	1884.21867
349.261	1840.9999
349.776	1906.25278
350.29	1972.34474
350.805	2070.41772
351.319	2053.17662
351.833	2005.03427
352.347	2033.15641
352.861	2062.09796
353.374	2075.09461
353.888	2130.20841
354.401	2077.02179
354.915	2119.86566
355.428	2153.20832
355.941	2141.96487
356.454	2240.88211
356.967	2133.03097
357.48	2211.91396
357.993	2243.11217
358.505	2255.03553
359.018	2338.0128
359.53	2326.91306
360.042	2296.68542
360.554	2371.92797
361.066	2322.91423
361.578	2359.55078
362.09	2393.80574
362.602	2312.54859
363.113	2454.63314
363.625	2435.51728
364.136	2511.41937
364.647	2433.48273
365.158	2575.4962
365.669	2651.54797
366.18	2587.5047
366.691	2607.27153
367.201	2597.49249
367.712	2537.31818
368.222	2658.25223
368.733	2684.02355
369.243	2683.04206
369.753	2843.09429
370.263	2878.14274
370.773	2810.25167
371.282	2798.06153
371.792	2823.78948
372.301	2919.89919
372.811	3141.01339
373.32	3067.35176
373.829	3061.54174
374.338	3376.1795
374.847	3330.19824
375.356	3454.13184
375.865	3518.80122
376.373	3683.7842
376.882	3947.88242
377.39	3851.76806
377.898	3917.65288
378.407	4099.53249
378.915	4347.55416
379.423	4623.62134
379.93	4721.74523
380.438	4847.88265
380.946	5131.35835
381.453	5379.89058
381.96	5465.49654
382.468	5741.98208
382.975	6249.42235
383.482	6640.98233
383.989	6521.88124
384.495	6793.95572
385.002	6920.5105
385.509	7483.83953
386.015	7750.21528
386.521	8327.70276
387.028	8663.36207
387.534	8718.6471
388.04	9303.49092
388.546	9178.36653
389.051	9660.09572
389.557	10423.65726
390.063	11609.71065
390.568	12024.40171
391.073	12035.87586
391.578	12556.46413
392.084	12836.20821
392.589	12876.71411
393.093	13606.4807
393.598	15182.19143
394.103	16570.69062
394.607	18670.12557
395.112	19912.30616
395.616	21030.90055
396.12	22305.94202
396.624	24708.18129
397.128	26826.93954
397.632	30413.27211
398.136	32460.36214
398.639	33086.89366
399.143	31629.04091
399.646	28689.59778
400.15	25083.82847
400.653	20124.16724
401.156	13866.23708
401.659	5169.95759
402.162	1054.15589
402.664	0
403.167	0
403.67	0
404.172	0
404.674	0
405.176	0
405.678	0
406.18	0
406.682	0
407.184	0
407.686	0
408.187	0
408.688	0
409.19	0
409.691	0
410.192	0
410.693	0
411.194	435.30976
411.694	4082.94878
412.195	8864.71461
412.696	12089.80453
413.196	12760.96929
413.696	12863.67595
414.196	13703.56671
414.696	17261.84252
415.196	21764.24417
415.696	29583.19008
416.196	36460.31858
416.695	40057.39798
417.195	40493.62727
417.694	38037.66927
418.194	36374.93714
418.693	33446.84362
419.192	32280.18726
419.691	31737.26855
420.19	31196.01388
420.688	30677.10665
421.187	29754.17627
421.685	28133.69129
422.184	25639.86916
422.682	22393.64221
423.18	18523.03141
423.678	16065.36111
424.176	14711.8826
424.674	14150.05816
425.172	13709.72267
425.669	12937.38351
426.167	12143.46651
426.664	10921.50914
427.161	10253.32234
427.659	9294.82584
428.156	8766.10447
428.652	8149.38727
429.149	7810.91813
429.646	7553.26962
430.143	7168.26547
430.639	6715.96709
431.135	6249.64367
431.632	5913.85436
432.128	5493.62433
432.624	5100.9556
433.12	4816.94393
433.616	4684.81026
434.111	4475.60996
434.607	4362.54724
435.103	4382.55746
435.598	4215.53023
436.093	4015.65281
436.588	3853.71914
437.083	3757.83038
437.578	3556.02041
438.073	3171.3836
438.568	3183.54268
439.062	3121.27212
439.557	3042.66716
440.051	2807.70329
440.546	2725.78583
441.04	2662.01735
441.534	2611.29007
442.028	2592.20114
442.522	2465.26523
443.015	2408.08189
443.509	2618.35493
444.002	2461.43413
444.496	2336.20319
444.989	2316.55859
445.482	2300.62535
445.975	2158.38285
446.468	2196.27996
446.961	2161.30958
447.454	2084.51382
447.947	2107.60939
448.439	1990.79217
448.931	1981.55325
449.424	2025.9467
449.916	1963.84372
450.408	1948.6223
450.9	1903.84856
451.392	1827.0035
451.884	1834.79133
452.375	1664.97546
452.867	1811.81492
453.358	1658.78252
453.849	1670.66593
454.341	1733.80873
454.832	1606.72265
455.323	1676.03172
455.814	1658.92273
456.304	1612.9416
456.795	1487.92804
457.285	1554.92512
457.776	1559.00972
458.266	1432.03836
458.756	1524.12949
459.247	1403.05431
459.737	1386.0634
460.226	1384.95409
460.716	1384.11334
461.206	1299.12478
461.695	1311.2599
462.185	1295.11599
462.674	1362.10701
463.163	1292.01244
463.653	1316.91864
464.142	1221.17063
464.63	1175.21396
465.119	1143.06993
465.608	1137.0736
466.096	1145.00617
466.585	1124.12605
467.073	1094.19153
467.561	1103.2132
468.05	1121.16771
468.538	1108.28664
469.026	1048.19638
469.513	1032.95851
470.001	1016.08056
470.489	1003.1544
470.976	1011.13852
471.463	960.258
471.951	948.27399
472.438	907.11213
472.925	821.03039
473.412	893.22142
473.899	850.06814
474.385	832.16831
474.872	762.00928
475.359	802.13244
475.845	823.91388
476.331	779.96805
476.817	748.10486
477.303	738.02258
477.789	703.04353
478.275	640.00676
478.761	687.04016
479.247	692.95781
479.732	609.98386
480.218	644.10717
480.703	654.0598
481.188	609.82611
481.673	604.89924
482.158	546.73976
482.643	616.06966
483.128	543.82378
483.612	552.87381
484.097	562.95391
484.581	626.97971
485.066	535.9029
485.55	443.67434
486.034	484.7195
486.518	437.7278
487.002	436.76642
487.486	442.78023
487.969	417.74243
488.453	452.84172
488.936	443.71751
489.42	427.68573
489.903	402.76459
490.386	435.48713
490.869	378.61236
491.352	409.76106
491.835	403.61232
492.318	373.62973
492.8	357.55017
493.283	360.70405
493.765	291.55898
494.247	384.68986
494.73	283.48555
495.212	353.66762
495.694	283.51584
496.175	239.44559
496.657	346.64045
497.139	279.3744
497.62	222.41831
498.102	275.54304
498.583	289.5806
499.064	222.39367
499.545	236.4318
500.026	234.41906
500.507	224.42042
500.988	248.50065
501.469	215.43871
501.949	255.51371
502.43	152.29655
502.91	148.24935
503.39	254.52147
503.87	207.39628
504.35	244.47153
504.83	185.33087
505.31	165.33164
505.79	153.30383
506.269	215.41399
506.749	156.29481
507.228	167.3245
507.707	184.33563
508.187	197.39248
508.666	100.20772
509.145	93.18364
509.623	86.17162
510.102	145.29628
510.581	205.41432
511.059	114.24219
511.538	154.33899
512.016	126.25565
512.494	153.31476
512.972	138.27897
513.45	70.13767
513.928	132.27113
514.406	106.21546
514.884	149.32558
515.361	159.3215
515.839	147.28223
516.316	178.36049
516.793	146.31652
517.27	150.31088
517.747	153.33446
518.224	99.19724
518.701	69.1328
519.178	35.07544
519.654	156.31753
520.131	81.17369
520.607	122.26156
521.083	97.19073
521.56	32.06623
522.036	82.15595
522.512	129.27543
522.987	62.12752
523.463	70.14482
523.939	73.15667
524.414	106.21241
524.89	123.2519
525.365	48.09512
525.84	53.10943
526.315	72.15123
526.79	104.203
527.265	137.2685
527.74	122.25715
528.215	92.1888
528.689	60.11606
529.164	130.24351
529.638	97.21867
530.112	58.11967
530.587	82.15139
531.061	21.04474
531.534	94.19979
532.008	34.07217
532.482	113.22597
532.956	72.16089
533.429	63.13463
533.903	100.19334
534.376	58.11284
534.849	85.17289
535.322	115.23669
535.795	44.09547
536.268	51.10837
536.741	39.08334
537.213	71.14481
537.686	45.09691
538.158	28.05541
538.631	35.07603
539.103	5.00997
539.575	99.18063
540.047	108.2073
540.519	112.23503
540.991	34.07443
541.463	118.25025
541.934	37.07526
542.406	75.15735
542.877	123.24174
543.348	102.21688
543.82	81.17594
544.291	120.2457
544.762	77.16048
545.233	97.2133
545.703	112.21509
546.174	111.22537
546.645	80.16655
547.115	124.25941
547.585	160.31676
548.056	160.32923
548.526	182.36302
548.996	228.46408
549.466	253.52212
549.935	254.49933
550.405	222.40516
550.875	215.42735
551.344	219.44241
551.814	261.49797
552.283	288.51578
552.752	324.61112
553.221	291.51188
553.69	335.59981
554.159	355.70266
554.628	340.60766
555.096	405.82302
555.565	389.69041
556.033	384.7332
556.502	366.72528
556.97	337.61273
557.438	347.68007
557.906	386.75561
558.374	348.66316
558.842	354.70445
559.31	374.69298
559.777	368.73846
560.245	424.82332
560.712	432.82406
561.18	484.86064
561.647	499.8986
562.114	485.89399
562.581	583.15118
563.048	637.15395
563.514	617.19791
563.981	707.24853
564.448	712.22503
564.914	757.34955
565.381	865.46171
565.847	956.63215
566.313	974.64251
566.779	977.58217
567.245	1016.70339
567.711	1077.82715
568.176	1121.72515
568.642	1197.07838
569.108	1207.03976
569.573	1321.06145
570.038	1374.80668
570.504	1445.00931
570.969	1515.4214
571.434	1548.01665
571.899	1656.35463
572.363	1688.23193
572.828	1809.33008
573.293	1779.30909
573.757	1850.34976
574.222	1900.25368
574.686	1912.26998
575.15	1935.50485
575.614	2036.41528
576.078	2013.49091
576.542	1973.37247
577.006	2067.36165
577.469	2053.75776
577.933	2020.30676
578.396	1990.54963
578.86	2086.55303
579.323	1966.53161
579.786	1988.18699
580.249	1962.35966
580.712	1908.62247
581.175	1845.61098
581.637	1912.41409
582.1	1834.2107
582.563	1868.15741
583.025	1713.46039
583.487	1747.89666
583.95	1698.04996
584.412	1696.00536
584.874	1650.42634
585.336	1627.32934
585.797	1591.02589
586.259	1578.2953
586.721	1567.25338
587.182	1607.30173
587.643	1566.16682
588.105	1483.22354
588.566	1421.85873
589.027	1430.21437
589.488	1441.08286
589.949	1477.29378
590.41	1446.66473
590.87	1466.11746
591.331	1554.02189
591.791	1517.16982
592.252	1408.0478
592.712	1477.26994
593.172	1555.13015
593.632	1602.09803
594.092	1601.13797
594.552	1614.04103
595.011	1555.17812
595.471	1718.22005
595.931	1700.19483
596.39	1738.45011
596.849	1696.33326
597.308	1828.18607
597.768	1878.77358
598.227	1941.60876
598.685	2050.48827
599.144	2059.54085
599.603	2143.62982
600.062	2209.15839
600.52	2342.41043
600.978	2480.7146
601.437	2515.56484
601.895	2634.21562
602.353	2782.41548
602.811	2851.39554
603.269	3046.74603
603.727	3044.74399
604.184	3229.36125
604.642	3364.79987
605.099	3548.42609
605.557	3632.68982
606.014	3757.90915
606.471	3899.67998
606.928	3991.73593
607.385	4152.36247
607.842	4398.89849
608.299	4497.97424
608.755	4593.10967
609.212	4605.60731
609.668	4681.51763
610.125	4820.0198
610.581	4883.93917
611.037	5009.63509
611.493	4939.87459
611.949	4907.96451
612.405	4933.95286
612.861	5110.78029
613.316	4947.9143
613.772	5047.6385
614.227	4916.86545
614.683	4954.33357
615.138	5010.76943
615.593	4907.79394
616.048	4956.70983
616.503	4831.24242
616.958	4757.38811
617.412	4688.05856
617.867	4555.70901
618.321	4712.31935
618.776	4552.76882
619.23	4421.18968
619.684	4450.97102
620.138	4364.20472
620.592	4245.53556
621.046	4166.38529
621.5	4121.61575
621.954	4075.20558
622.407	3923.21684
622.861	3871.75796
623.314	3812.41151
623.768	3726.57572
624.221	3607.75928
624.674	3557.59348
625.127	3526.70521
625.58	3522.59356
626.033	3438.45484
626.485	3331.90746
626.938	3339.90036
627.39	3208.80415
627.843	3105.80519
628.295	3082.81153
628.747	2933.98483
629.199	2921.75563
629.651	2825.76081
630.103	2778.81173
630.555	2730.45275
631.006	2681.9507
631.458	2568.968
631.909	2603.87409
632.361	2491.92087
632.812	2433.85754
633.263	2403.56099
633.714	2299.52569
634.165	2296.0769
634.616	2186.94244
635.067	2235.67876
635.518	2113.93782
635.968	2111.26392
636.419	2062.54203
636.869	2022.88883
637.319	1922.70942
637.769	1826.5283
638.219	1840.80466
638.669	1749.71791
639.119	1771.83482
639.569	1726.75043
640.019	1718.59947
640.468	1659.4346
640.918	1603.65279
641.367	1590.39928
641.816	1595.39625
642.265	1499.41991
642.714	1526.44805
643.163	1515.42003
643.612	1417.44563
644.061	1399.06762
644.51	1377.25636
644.958	1439.21487
645.406	1394.42283
645.855	1355.46028
646.303	1351.31762
646.751	1274.14723
647.199	1351.23549
647.647	1255.16012
648.095	1262.15902
648.543	1286.91095
648.99	1248.25676
649.438	1260.23711
649.885	1201.3018
650.333	1209.71523
650.78	1145.15746
651.227	1156.19256
651.674	1163.03608
652.121	1096.11268
652.568	1109.12507
653.015	1134.27563
653.461	1066.01457
653.908	1129.05479
654.354	1092.06785
654.801	979.86153
655.247	1030.79751
655.693	993.13319
656.139	990.93214
656.585	959.8879
657.031	925.77061
657.477	895.58469
657.922	910.72803
658.368	926.90263
658.813	935.79581
659.259	868.74816
659.704	830.63174
660.149	845.65698
660.594	787.59829
661.039	788.5287
661.484	853.7246
661.929	772.55105
662.373	769.67791
662.818	687.4995
663.262	707.48652
663.707	711.582
664.151	785.65358
664.595	683.44861
665.039	716.56384
665.483	660.49358
665.927	641.34168
666.371	613.26149
666.814	665.40671
667.258	620.30597
667.701	694.31084
668.145	663.46903
668.588	606.33731
669.031	578.22271
669.474	613.32428
669.917	603.19687
670.36	628.39631
670.803	560.22898
671.245	524.00566
671.688	588.29808
672.13	509.04338
672.573	570.31897
673.015	526.15668
673.457	541.0706
673.899	554.22395
674.341	506.1238
674.783	501.10507
675.225	477.08623
675.666	489.08306
676.108	460.92861
676.549	470.03377
676.991	462.94677
677.432	510.92901
677.873	512.0895
678.314	471.04399
678.755	473.068
679.196	416.89526
679.637	505.14037
680.078	465.01311
680.518	480.039
680.959	441.98955
681.399	445.03117
681.839	433.98954
682.28	434.00226
682.72	405.87402
683.16	420.98431
683.6	440.94161
684.039	362.7187
684.479	381.88683
684.919	369.80692
685.358	447.06234
685.798	384.9552
686.237	440.99966
686.676	443.96543
687.115	404.89743
687.554	392.88198
687.993	384.8065
688.432	366.79681
688.871	383.82407
689.309	362.82416
689.748	430.84494
690.186	405.91588
690.625	323.7275
691.063	349.80019
691.501	402.94103
691.939	416.97875
692.377	366.85075
692.815	403.91099
693.253	418.94931
693.69	401.83347
694.128	351.81219
694.565	416.93673
695.003	422.00839
695.44	423.9363
695.877	361.80376
696.314	389.79448
696.751	407.87909
697.188	396.86138
697.625	417.90531
698.061	365.83485
698.498	395.90744
698.934	348.80253
699.371	339.76447
699.807	362.81749
700.243	365.83753
700.679	409.87585
701.115	416.92638
701.551	375.84149
701.987	422.89529
702.422	386.87026
702.858	415.93352
703.294	367.79339
703.729	428.98735
704.164	400.91212
704.599	374.79312
705.035	351.75068
705.47	341.79437
705.904	378.83724
706.339	427.93727
706.774	368.82155
707.209	357.78596
707.643	397.904
708.078	365.84792
708.512	349.8344
708.946	375.85668
709.38	341.77495
709.814	397.86043
710.248	391.90507
710.682	371.84038
711.116	335.76532
711.549	365.89953
711.983	350.77362
712.416	352.79686
712.85	349.83312
713.283	392.88017
713.716	418.99339
714.149	408.92097
714.582	365.78164
715.015	433.02033
715.448	351.84718
715.881	389.80853
716.313	310.70066
716.746	330.74585
717.178	317.73382
717.61	405.97341
718.043	375.89072
718.475	318.74241
718.907	376.90801
719.339	273.60079
719.77	285.65399
720.202	331.80404
720.634	327.76386
721.065	319.72789
721.497	321.7572
721.928	282.67077
722.359	274.64046
722.79	280.6496
723.221	272.66533
723.652	343.84937
724.083	279.61039
724.514	311.68901
724.945	314.71085
725.375	269.60589
725.806	323.77638
726.236	341.83824
726.666	317.72275
727.096	315.74478
727.526	269.66349
727.956	270.59606
728.386	319.75628
728.816	258.63508
729.246	283.66577
729.675	257.61542
730.105	288.68662
730.534	286.64826
730.964	299.73095
731.393	345.822
731.822	314.77289
732.251	296.72617
732.68	307.69854
733.109	288.68688
733.537	269.63087
733.966	255.61668
734.395	220.49868
734.823	261.57391
735.251	224.52873
735.68	280.68057
736.108	319.77693
736.536	290.66213
736.964	243.5507
737.392	278.6747
737.82	276.64285
738.247	254.59301
738.675	284.65809
739.102	210.51484
739.53	184.46177
739.957	204.51545
740.384	279.66809
740.811	238.58952
741.238	231.55148
741.665	194.44332
742.092	257.59801
742.519	147.36113
742.945	208.49078
743.372	220.53375
743.798	234.58787
744.225	218.50837
744.651	207.51021
745.077	184.45261
745.503	230.5492
745.929	187.44269
746.355	237.57661
746.781	185.4523
747.207	150.34939
747.632	119.28943
748.058	189.46482
748.483	191.43391
748.908	160.39387
749.334	199.48091
749.759	162.37868
750.184	160.37767
750.609	169.41103
751.033	199.46361
751.458	187.41465
751.883	182.44521
752.307	131.30748
752.732	98.24489
753.156	188.45749
753.58	142.33584
754.005	186.46545
754.429	126.29557
754.853	149.36618
755.277	150.3527
755.7	170.41694
756.124	120.29693
756.548	172.403
756.971	136.33059
757.394	158.40293
757.818	126.32269
758.241	141.3552
758.664	105.26499
759.087	90.20202
759.51	154.37994
759.933	116.2787
760.356	122.31157
760.778	89.21954
761.201	142.34349
761.623	139.33566
762.046	146.34463
762.468	171.40653
762.89	153.37462
763.312	173.41745
763.734	92.22221
764.156	132.32435
764.578	139.3186
765	112.27307
765.421	84.21369
765.843	150.38952
766.264	112.27062
766.686	118.29561
767.107	104.25214
767.528	85.2149
767.949	105.26669
768.37	87.21421
768.791	107.25898
769.212	56.14161
769.632	87.20349
770.053	115.30156
770.473	95.23149
770.894	141.35061
771.314	168.39702
771.734	85.19905
772.154	122.31179
772.575	108.25058
772.994	72.1648
773.414	117.28051
773.834	75.18826
774.254	83.20383
774.673	115.27949
775.093	69.17158
775.512	59.14634
775.931	97.24576
776.351	83.20654
776.77	43.10615
777.189	39.0939
777.607	58.14896
778.026	31.0781
778.445	-15.03823
778.864	123.31373
779.282	70.16933
779.701	54.13704
780.119	7.01794
780.537	80.19998
780.955	91.23154
781.373	63.15666
781.791	50.11352
782.209	97.22385
782.627	75.1978
783.045	68.1574
783.462	83.21216
783.88	70.18147
784.297	68.17164
784.715	62.15973
785.132	58.14131
785.549	70.17562
785.966	76.19149
786.383	25.06221
786.8	69.16114
787.217	36.08626
787.633	85.21206
788.05	141.33212
788.466	91.21485
788.883	58.14849
789.299	54.13092
789.715	104.25205
790.131	73.18192
790.547	68.17036
790.963	51.12737
791.379	71.17982
791.795	27.06246
792.21	30.07098
792.626	74.1761
793.041	37.09211
793.457	67.16612
793.872	16.03815
794.287	27.06513
794.702	77.19001
795.117	40.1001
795.532	42.10594
795.947	80.19286
796.362	89.21257
796.776	116.27052
797.191	56.13776
797.605	-14.03348
798.02	22.05414
798.434	68.1522
798.848	48.1189
799.262	39.09744
799.676	110.26709
800.09	43.10654
800.504	44.10756
800.918	21.04927
801.331	90.2354
801.745	27.06276
802.158	26.06561
802.572	90.21804
802.985	88.21255
803.398	86.20497
803.811	93.23847
804.224	64.15976
804.637	-15.03639
805.05	45.10513
805.462	99.24241
805.875	-8.02102
806.288	43.10439
806.7	34.0861
807.112	55.12824
807.525	32.07965
807.937	41.10199
808.349	61.15323
808.761	73.17974
809.173	64.15552
809.584	96.2365
809.996	16.03961
810.408	18.04687
810.819	58.13696
811.231	50.12962
811.642	96.22793
812.053	184.42842
812.464	243.55919
812.875	222.55231
813.286	132.33616
813.697	141.32591
814.108	60.14705
814.519	40.08993
814.929	117.29612
815.34	91.22009
815.75	53.13509
816.16	46.11524
816.571	86.22279
816.981	64.15154
817.391	84.20251
817.801	33.08254
818.211	54.1293
818.62	54.13048
819.03	92.22472
819.44	58.15181
819.849	57.14401
820.259	91.23212
820.668	37.09157
821.077	98.24214
821.486	69.16638
821.895	90.22172
822.304	30.07999
822.713	44.10463
823.122	47.11781
823.531	33.07885
823.939	41.10047
824.348	64.15586
824.756	45.11324
825.164	74.18612
825.573	-8.02035
825.981	49.12203
826.389	65.16346
826.797	48.12068
827.205	42.09698
827.612	66.16301
828.02	31.07336
828.428	58.14797
828.835	62.16327
829.243	59.14097
829.65	27.06763
830.057	78.18904
830.464	83.20172
830.871	37.08918
831.278	70.1692
831.685	32.07204
832.092	42.10336
832.499	45.09904
832.905	95.23932
833.312	50.11458
833.718	65.16205
834.124	29.06685
834.531	55.13895
834.937	33.08518
835.343	50.12109
835.749	67.15665
836.155	58.15202
836.561	47.11602
836.966	58.1421
837.372	59.15033
837.777	30.07521
838.183	-19.04304
838.588	46.11462
838.993	88.21343
839.399	25.06158
839.804	0
840.209	46.11744
840.613	63.14034
841.018	40.10172
841.423	49.126
841.828	40.10158
842.232	111.2727
842.637	38.09015
843.041	51.13096
843.445	20.05056
843.849	25.06233
844.253	54.12865
844.657	1.00255
845.061	44.10031
845.465	28.06809
845.869	39.09111
846.272	35.08567
846.676	66.15959
847.079	19.04867
847.483	62.15471
847.886	128.30776
848.289	69.18382
848.692	6.01534
849.095	61.14659
849.498	107.26907
849.901	6.01393
850.304	80.1906
850.707	51.13027
851.109	85.21421
851.512	68.1669
851.914	6.01526
852.316	29.07376
852.718	17.0442
853.121	64.15674
853.523	41.09624
853.925	44.11505
854.326	26.06539
854.728	52.13387
855.13	15.03897
855.531	33.07927
855.933	49.11793
856.334	40.10006
856.736	-19.04327
857.137	61.14184
857.538	28.07078
857.939	17.04232
858.34	15.03687
858.741	49.12827
859.142	42.10125
859.542	8.02128
859.943	36.08983
860.343	-9.02256
860.744	83.20165
861.144	49.11976
861.544	12.02909
861.945	51.13013
862.345	67.16363
862.745	50.12445
863.145	60.14344
863.544	53.13404
863.944	62.14641
864.344	67.16618
864.743	60.14885
865.143	52.13369
865.542	29.06767
865.941	37.09194
866.34	62.14845
866.74	52.13965
867.139	32.077
867.537	63.16036
867.936	16.03882
868.335	79.20023
868.734	44.11269
869.132	27.06313
869.531	82.19746
869.929	1.00231
870.327	22.0531
870.726	59.14709
871.124	100.23183
871.522	30.07678
871.92	40.09898
872.318	52.12726
872.715	36.08947
873.113	47.11474
873.511	44.10987
873.908	23.0584
874.306	47.11709
874.703	28.07042
875.1	68.1736
875.497	-14.03402
875.894	17.04195
876.291	-2.00496
876.688	35.09059
877.085	10.02421
877.482	23.05792
877.878	31.07498
878.275	19.04858
878.671	79.17518
879.068	30.07279
879.464	61.14731
879.86	32.07603
880.256	57.14066
880.652	36.09188
881.048	36.08954
881.444	38.09078
881.84	30.07659
882.236	35.08833
882.631	37.09114
883.027	78.18811
883.422	36.09236
883.817	-41.1048
884.213	33.085
884.608	-12.02979
885.003	64.15406
885.398	-6.01518
885.793	43.10817
886.188	-4.01005
886.582	59.15124
886.977	37.08814
887.371	40.10144
887.766	10.02507
888.16	59.14714
888.554	64.15802
888.949	44.11071
889.343	66.16092
889.737	-15.04042
890.131	34.08561
890.525	50.12796
890.918	40.10093
891.312	81.19287
891.706	28.07379
892.099	27.06904
892.492	51.11017
892.886	45.11031
893.279	12.0308
893.672	12.03078
894.065	46.11537
894.458	60.15075
894.851	45.11047
895.244	19.04882
895.637	80.19177
896.029	43.10537
896.422	49.11985
896.814	41.10218
897.206	-10.02411
897.599	79.19451
897.991	4.00976
898.383	35.08302
898.775	28.06355
899.167	-25.05921
899.559	76.19163
899.951	38.08987
900.342	20.05117
900.734	8.02001
901.125	50.13127
901.517	29.07151
901.908	81.19324
902.299	20.0492
902.69	35.08289
903.082	50.12118
903.473	7.01691
903.863	35.08959
904.254	0
904.645	82.2029
905.036	10.02441
905.426	54.12365
905.817	48.1179
906.207	1.00241
906.597	-3.00709
906.987	72.18601
907.378	78.19639
907.768	33.08753
908.158	40.09778
908.547	4.01042
908.937	52.13346
909.327	37.09013
909.717	91.22949
910.106	7.01696
910.495	77.1914
910.885	68.17177
911.274	32.08028
911.663	52.13201
912.052	77.18917
912.441	33.0842
912.83	37.08522
913.219	47.12312
913.608	33.08113
913.997	24.06047
914.385	62.14788
914.774	59.1435
915.162	0
915.55	66.15929
915.939	36.09113
916.327	60.14955
916.715	38.09708
917.103	56.13776
917.491	67.16533
917.878	36.08879
918.266	67.1733
918.654	41.10495
919.041	21.05511
919.429	18.04277
919.816	75.18935
920.203	29.07064
920.591	86.21194
920.978	51.12492
921.365	39.10255
921.752	64.15224
922.139	68.14717
922.525	40.09629
922.912	64.15575
923.299	-17.04278
923.685	42.10974
924.072	103.23514
924.458	48.11899
924.844	53.13112
925.231	13.03049
925.617	41.10447
926.003	58.14807
926.389	6.01526
926.774	40.10158
927.16	47.11683
927.546	4.01029
927.931	54.1347
928.317	45.10381
928.702	84.19751
929.088	3.00716
929.473	12.03074
929.858	21.05106
930.243	38.09144
930.628	30.07328
931.013	40.09934
931.398	89.20318
931.783	78.20443
932.167	10.02464
932.552	60.1501
932.937	81.19995
933.321	29.07306
933.705	10.0254
934.09	56.1414
934.474	38.0905
934.858	54.13999
935.242	29.06751
935.626	55.14069
936.009	29.07741
936.393	63.15996
936.777	32.08221
937.16	52.13527
937.544	60.14114
937.927	25.06372
938.311	71.17269
938.694	77.20274
939.077	21.05056
939.46	98.23858
939.843	58.12085
940.226	43.11045
940.609	17.03929
940.991	19.04863
941.374	17.04181
941.757	45.11117
942.139	83.1852
942.522	34.08063
942.904	-6.01458
943.286	28.07143
943.668	61.15773
944.05	19.04708
944.432	52.12829
944.814	65.15969
945.196	-67.16685
945.578	-20.04818
945.959	23.0542
946.341	75.1833
946.722	62.14522
947.104	48.1148
947.485	31.07242
947.866	40.10097
948.247	30.07597
948.628	50.122
949.009	61.15592
949.39	47.11709
949.771	62.14391
950.152	45.11055
950.532	-32.07991
950.913	30.07265
951.293	38.10286
951.674	29.07043
952.054	0
952.434	9.02251
952.814	49.11663
953.194	80.20832
953.574	66.16212
953.954	33.07864
954.334	3.00754
954.714	16.03924
955.093	98.23884
955.473	30.07529
955.853	57.14739
956.232	38.10435
956.611	60.14366
956.99	37.09321
957.37	61.15516
957.749	34.08138
958.128	61.1534
958.506	45.11684
958.885	66.16612
959.264	22.0542
959.643	36.08217
960.021	30.07461
960.4	23.05242
960.778	51.12562
961.156	27.06797
961.535	47.10963
961.913	54.12628
962.291	24.06185
962.669	23.05854
963.047	36.0921
963.424	-7.01804
963.802	-13.03234
964.18	49.12402
964.557	45.10377
964.935	56.13255
965.312	4.0105
965.69	65.16234
966.067	69.16744
966.444	54.13298
966.821	57.14677
967.198	54.13092
967.575	44.10832
967.952	38.08977
968.329	32.07814
968.705	43.09237
969.082	61.15614
969.458	-8.0194
969.835	45.10965
970.211	40.10284
970.587	23.05755
970.963	89.22677
971.339	-48.12743
971.715	45.11247
972.091	37.09134
972.467	68.16906
972.843	25.06233
973.219	70.16748
973.594	27.0709
973.97	83.19634
974.345	41.0983
974.721	47.11389
975.096	5.0122
975.471	35.08328
975.846	42.10106
976.221	25.06377
976.596	36.08653
976.971	30.07434
977.346	67.15548
977.72	48.12233
978.095	64.165
978.469	58.13824
978.844	57.14313
979.218	27.06501
979.593	70.16709
979.967	52.12664
980.341	30.06936
980.715	35.08843
981.089	50.12517
981.463	42.0966
981.837	31.07602
982.21	63.14626
982.584	44.1064
982.957	8.02013
983.331	52.12289
983.704	28.06908
984.078	38.09386
984.451	61.15207
984.824	21.05142
985.197	10.02447
985.57	39.098
985.943	78.19166
986.316	75.18344
986.688	16.03884
987.061	20.04716
987.434	77.19972
987.806	23.05607
988.179	-14.03344
988.551	86.21677
988.923	32.07907
989.295	45.11255
989.667	-5.01207
990.039	23.05711
990.411	42.09683
990.783	17.0394
991.155	33.07954
991.527	62.15235
991.898	54.13445
992.27	2.00499
992.641	82.20454
993.012	60.14092
993.384	75.17803
993.755	8.02055
994.126	29.07003
994.497	16.03952
994.868	29.0669
995.239	40.09712
995.61	5.01268
995.98	19.04642
996.351	-5.01251
996.722	28.06522
997.092	41.09725
997.462	1.00236
997.833	49.11618
998.203	100.24016
998.573	-1.00251
998.943	-6.01422
999.313	22.053
999.683	38.0914
1000.053	44.10136
1000.423	15.03669
1000.792	15.03911
1001.162	19.04702
1001.531	47.11594
1001.901	50.12463
1002.27	33.07403
1002.639	17.04368
1003.009	33.07873
1003.378	31.07952
1003.747	5.01191
1004.116	7.01689
1004.485	36.08626
1004.853	51.12917
1005.222	19.04817
1005.591	46.1093
1005.959	35.0791
1006.328	7.01589
1006.696	-2.00487
1007.064	70.17543
1007.433	27.06775
1007.801	45.11055
1008.169	55.13876
1008.537	55.12165
1008.905	8.01879
1009.273	40.09898
1009.64	34.08135
1010.008	64.15213
1010.375	75.18125
1010.743	96.21965
1011.11	9.02146
1011.478	35.08684
1011.845	39.0919
1012.212	20.04554
1012.579	43.10568
1012.946	38.09064
1013.313	94.2218
1013.68	55.12348
1014.047	11.0264
1014.414	24.05696
1014.78	88.21711
1015.147	60.14481
1015.513	6.01457
1015.88	62.15817
1016.246	50.12341
1016.612	55.12576
1016.978	68.16604
1017.344	24.05958
1017.71	84.2035
1018.076	83.19444
1018.442	64.1642
1018.808	24.06026
1019.174	39.098
1019.539	75.17177
1019.905	31.07336
1020.27	16.03972
1020.636	54.12934
1021.001	34.08163
1021.366	-25.06087
1021.731	35.09022
1022.096	9.02286
1022.461	14.03335
1022.826	32.0763
1023.191	25.06585
1023.556	37.08692
1023.92	60.14721
1024.285	66.16056
1024.649	42.10305
1025.014	71.17514
1025.378	57.14308
1025.742	56.13887
1026.107	40.09064
1026.471	78.18104
1026.835	5.01249
1027.199	45.10838
1027.562	35.08158
1027.926	36.08823
1028.29	35.08877
1028.654	36.08303
1029.017	55.13502
1029.381	46.10993
1029.744	17.04359
1030.107	-2.00478
1030.471	73.17395
1030.834	51.11596
1031.197	41.0989
1031.56	42.09922
1031.923	65.16755
1032.286	37.08709
1032.648	50.11954
1033.011	-13.0302
1033.374	78.18226
1033.736	4.01059
1034.099	48.11699
1034.461	16.04065
1034.823	13.03257
1035.185	47.11832
1035.548	45.10957
1035.91	41.09834
1036.272	54.12276
1036.634	83.20172
1036.995	68.15921
1037.357	30.07323
1037.719	23.05619
1038.08	23.05487
1038.442	33.07855
1038.803	46.11048
1039.165	21.05324
1039.526	84.20159
1039.887	27.06486
1040.248	18.04459
1040.609	21.05214
1040.97	28.06868
1041.331	47.119
1041.692	-16.03781
1042.053	62.14077
1042.413	35.08177
1042.774	42.10225
1043.134	78.18462
1043.495	35.08817
1043.855	43.10439
1044.215	66.16325
1044.576	-15.03629
1044.936	66.15076
1045.296	41.10244
1045.656	51.12506
1046.016	73.17535
1046.375	9.02199
1046.735	-17.03904
1047.095	25.05877
1047.454	82.17246
1047.814	16.03869
1048.173	97.22955
1048.533	7.01617
1048.892	-17.0413
1049.251	68.17005
1049.61	4.00993
1049.969	62.14573
1050.328	21.04579
1050.687	-3.00737
1051.046	47.11444
1051.405	44.10951
1051.763	-26.06066
1052.122	39.0974
1052.48	69.16851
1052.839	54.12687
1053.197	57.1339
1053.555	76.17228
1053.914	42.10282
1054.272	63.15185
1054.63	22.05404
1054.988	28.06676
1055.345	20.04332
1055.703	70.16773
1056.061	42.10813
1056.419	15.03904
1056.776	48.11637
1057.134	4.00934
1057.491	48.12016
1057.848	8.02006
1058.206	14.03314
1058.563	-9.02007
1058.92	86.19669
1059.277	42.1037
1059.634	76.1778
1059.991	66.15755
1060.348	49.11069
1060.704	-16.03859
1061.061	48.1115
1061.418	8.01954
1061.774	1.00249
1062.131	6.01597
1062.487	7.01649
1062.843	41.10233
1063.199	10.02503
1063.555	4.00935
1063.911	48.1212
1064.267	30.06282
1064.623	20.04882
1064.979	87.20453
1065.335	17.04087
1065.691	65.15525
1066.046	23.05083
1066.402	27.06159
1066.757	52.13112
1067.112	54.13235
1067.468	31.07342
1067.823	78.1864
1068.178	52.12565
1068.533	70.16895
1068.888	77.18292
1069.243	8.01988
1069.598	4.0098
1069.952	-19.04336
1070.307	8.01994
1070.662	-4.00959
1071.016	10.02258
1071.371	50.11366
1071.725	61.14553
1072.079	49.11779
1072.434	9.02202
1072.788	33.07879
1073.142	68.1666
1073.496	44.10443
1073.85	-1.00234
1074.203	39.09475
1074.557	43.1144
1074.911	88.20837
1075.265	30.06996
1075.618	43.10505
1075.971	33.0787
1076.325	26.06631
1076.678	13.02993
1077.031	-2.00457
1077.385	54.11877
1077.738	41.09266
1078.091	-2.00459
1078.444	51.11831
1078.796	21.05176
1079.149	49.1218
1079.502	21.04985
1079.855	7.01645
1080.207	68.16684
1080.56	23.05968
1080.912	39.09507
1081.264	26.06285
1081.617	29.0709
1081.969	40.101
1082.321	41.10021
1082.673	29.06642
1083.025	27.06429
1083.377	22.04747
1083.728	28.06556
1084.08	10.02512
1084.432	-5.01217
1084.783	55.12864
1085.135	29.0729
1085.486	-16.03706
1085.838	44.1084
1086.189	25.06092
1086.54	56.13347
1086.891	4.01019
1087.242	30.07325
1087.593	45.10957
1087.944	93.20845
1088.295	50.11357
1088.646	-9.02204
1088.996	26.06287
1089.347	15.03701
1089.698	-6.01432
1090.048	44.1143
1090.398	21.04895
1090.749	19.04569
1091.099	18.04548
1091.449	61.15152
1091.799	51.12756
1092.149	-12.02957
1092.499	49.11945
1092.849	60.1521
1093.199	53.13266
1093.548	-4.0097
1093.898	1.00252
1094.248	76.19423
1094.597	9.02312
1094.947	48.12798
1095.296	48.11847
1095.645	79.20427
1095.994	57.13661
1096.343	23.05811
1096.692	-8.0212
1097.041	31.08411
1097.39	46.11537
1097.739	55.14271
1098.088	67.17884
1098.437	24.06327
1098.785	34.09182
1099.134	58.15366
1099.482	41.11282
1099.83	36.09474
1100.179	5.01313
1100.527	54.14326
1100.875	18.0478
1101.223	43.11421
1101.571	21.05824
1101.919	-4.01054
1102.267	30.08464
1102.615	10.03213
1102.962	8.02576
1103.31	10.03211
1103.658	18.05793
