Data from N2 R7 sample 9_Subt2__3__15-20-40-590.txt Node

Date: Fri Aug 29 15:20:40 PDT 2025
User: uwsun
Spectrometer: HDX01956
Trigger mode: 0
Integration Time (sec): 5.000000E-1
Scans to average: 1
Nonlinearity correction enabled: true
Boxcar width: 0
Storing dark spectrum: false
XAxis mode: Wavelengths
Number of Pixels in Spectrum: 2068
>>>>>Begin Spectral Data<<<<<
194.03	50.13926
194.578	68.21324
195.127	56.17327
195.676	69.21379
196.225	121.31449
196.773	102.2751
197.321	116.30537
197.87	188.44909
198.418	130.30984
198.966	132.31641
199.513	75.17301
200.061	94.21973
200.609	168.41005
201.156	89.17872
201.704	109.25255
202.251	94.23046
202.798	121.28944
203.345	131.29882
203.892	160.36784
204.438	162.35391
204.985	120.25893
205.532	116.28102
206.078	135.30396
206.624	160.35708
207.17	175.36926
207.716	139.30784
208.262	127.22937
208.808	84.18979
209.354	156.34498
209.899	183.42332
210.445	142.32123
210.99	120.26437
211.535	192.40931
212.08	155.32922
212.625	167.38185
213.17	188.43376
213.715	63.12885
214.259	147.31359
214.804	184.41471
215.348	179.37223
215.892	175.38222
216.436	184.38868
216.98	210.42043
217.524	139.3009
218.068	152.35154
218.612	206.47188
219.155	111.24111
219.698	160.3488
220.242	173.39621
220.785	153.32823
221.328	134.30843
221.871	153.35856
222.414	150.34499
222.956	104.23133
223.499	109.22717
224.041	168.36017
224.583	197.38901
225.126	144.29177
225.668	130.29133
226.21	136.31516
226.751	72.14622
227.293	123.26034
227.835	87.19741
228.376	179.37903
228.918	121.28379
229.459	110.25289
230	148.32346
230.541	158.3342
231.082	136.30339
231.622	165.34847
232.163	123.27445
232.704	142.32306
233.244	126.28805
233.784	167.37632
234.324	93.18761
234.864	164.33914
235.404	143.31326
235.944	139.3036
236.484	199.45264
237.023	156.33647
237.563	104.22152
238.102	149.32241
238.641	140.32546
239.18	60.13008
239.719	132.30492
240.258	135.2786
240.797	111.24419
241.335	180.40154
241.874	154.26797
242.412	117.25825
242.95	136.29598
243.488	131.27399
244.026	145.30421
244.564	158.29508
245.102	144.29417
245.64	142.31415
246.177	98.20247
246.715	158.34648
247.252	126.2657
247.789	141.2432
248.326	134.29224
248.863	136.27089
249.4	132.27419
249.936	122.22875
250.473	96.20537
251.009	138.28678
251.546	121.24309
252.082	126.25167
252.618	140.28249
253.154	105.2306
253.69	148.30207
254.226	164.35372
254.761	157.31862
255.297	100.19983
255.832	124.26699
256.367	184.3897
256.903	143.2837
257.438	154.32802
257.972	132.26672
258.507	118.24456
259.042	164.32012
259.576	105.20422
260.111	145.30395
260.645	159.31014
261.179	158.33127
261.713	140.28067
262.247	140.29223
262.781	150.28139
263.315	120.26626
263.849	145.32728
264.382	158.32746
264.915	101.21443
265.449	101.22172
265.982	176.35889
266.515	141.30992
267.048	130.24712
267.58	167.32791
268.113	140.27067
268.646	156.34527
269.178	128.25638
269.71	119.23476
270.243	187.38054
270.775	154.35192
271.307	147.31944
271.838	203.43079
272.37	175.38433
272.902	158.32175
273.433	164.3189
273.965	146.31882
274.496	155.3467
275.027	163.36114
275.558	112.24478
276.089	61.13549
276.62	151.34583
277.15	161.35611
277.681	143.278
278.211	184.40197
278.741	139.27151
279.272	160.32329
279.802	143.32
280.332	114.2405
280.861	153.32794
281.391	102.20705
281.921	186.39721
282.45	180.39971
282.98	143.33368
283.509	166.32926
284.038	173.34707
284.567	187.38592
285.096	116.25073
285.625	115.23221
286.153	147.30405
286.682	187.37343
287.21	158.33493
287.739	206.42388
288.267	182.38513
288.795	177.4122
289.323	149.30473
289.851	160.32923
290.378	152.29909
290.906	158.33361
291.433	141.31018
291.961	202.39392
292.488	180.39156
293.015	166.33911
293.542	161.35552
294.069	167.35702
294.596	211.45304
295.122	194.39991
295.649	208.39386
296.175	218.45605
296.702	156.33069
297.228	233.48689
297.754	158.30665
298.28	182.35407
298.806	162.33635
299.332	135.25706
299.857	135.2632
300.383	229.49783
300.908	123.25737
301.433	186.38566
301.958	238.46655
302.483	212.44861
303.008	187.39718
303.533	244.54182
304.058	244.48601
304.582	166.33295
305.107	113.25484
305.631	215.41478
306.155	158.31178
306.679	146.28932
307.203	181.35355
307.727	214.42566
308.251	156.32852
308.775	128.2565
309.298	108.21943
309.822	214.45304
310.345	242.47349
310.868	163.32686
311.391	251.51171
311.914	165.34648
312.437	182.34665
312.96	192.37353
313.482	176.3455
314.005	175.36586
314.527	182.39743
315.049	214.44808
315.571	177.31836
316.093	224.4522
316.615	210.41088
317.137	218.37974
317.659	250.4917
318.18	246.47927
318.702	212.39554
319.223	216.34927
319.744	210.37336
320.265	228.43722
320.786	261.50547
321.307	226.44596
321.828	295.51294
322.348	214.39511
322.869	230.41976
323.389	241.28811
323.909	262.46171
324.43	289.53988
324.95	251.43619
325.47	260.48606
325.989	251.44638
326.509	245.39831
327.029	222.37221
327.548	242.40019
328.067	233.41759
328.587	256.47835
329.106	224.37494
329.625	296.58876
330.144	235.39476
330.662	190.32187
331.181	303.50456
331.7	264.44264
332.218	282.42418
332.736	288.47496
333.255	230.37908
333.773	252.41997
334.291	365.63502
334.808	220.33829
335.326	309.46943
335.844	253.3956
336.361	295.5056
336.879	256.39738
337.396	330.52131
337.913	295.44013
338.43	283.40919
338.947	320.49007
339.464	271.36125
339.981	264.40045
340.497	344.54187
341.014	294.45478
341.53	264.36688
342.046	304.46528
342.562	361.55962
343.078	311.44521
343.594	277.40726
344.11	341.48511
344.626	336.51275
345.141	337.443
345.657	449.57015
346.172	376.5233
346.687	300.39447
347.202	365.44925
347.717	379.50702
348.232	452.62919
348.747	414.508
349.261	317.35812
349.776	399.50061
350.29	345.46027
350.805	450.59911
351.319	406.49178
351.833	329.38052
352.347	362.44064
352.861	432.49888
353.374	471.53565
353.888	454.5512
354.401	382.4328
354.915	368.38726
355.428	370.46337
355.941	384.42481
356.454	497.50962
356.967	449.50091
357.48	437.46503
357.993	435.51311
358.505	416.47713
359.018	449.50826
359.53	452.48585
360.042	482.44875
360.554	493.52898
361.066	443.47786
361.578	445.39307
362.09	449.46218
362.602	452.39279
363.113	479.44813
363.625	509.43565
364.136	553.44391
364.647	366.3272
365.158	503.44242
365.669	479.44773
366.18	473.42528
366.691	472.36744
367.201	515.45217
367.712	407.33025
368.222	560.41847
368.733	498.32513
369.243	537.34807
369.753	551.39538
370.263	582.43132
370.773	535.42681
371.282	573.38887
371.792	440.2575
372.301	556.35214
372.811	551.41936
373.32	492.19097
373.829	453.2332
374.338	591.20799
374.847	606.20815
375.356	596.20588
375.865	553.07736
376.373	679.09687
376.882	776.20658
377.39	723.12018
377.898	593.06694
378.407	706.95144
378.915	779.8802
379.423	780.89884
379.93	794.82841
380.438	678.84586
380.946	858.70991
381.453	807.69757
381.96	820.63471
382.468	877.54382
382.975	1025.46018
383.482	1103.3919
383.989	1022.44642
384.495	1082.40416
385.002	1035.48993
385.509	1105.46609
386.015	1226.66343
386.521	1276.66142
387.028	1264.83206
387.534	1253.01936
388.04	1509.06897
388.546	1277.42938
389.051	1113.70077
389.557	1398.48163
390.063	2110.21423
390.568	1855.28121
391.073	1850.40098
391.578	1876.84714
392.084	1898.3209
392.589	1527.17447
393.093	1345.64774
393.598	1878.02337
394.103	2218.26037
394.607	2339.91574
395.112	2618.40407
395.616	2883.6936
396.12	2901.39242
396.624	2943.76754
397.128	3540.15641
397.632	3973.00871
398.136	4249.13365
398.639	2895.38199
399.143	2228.58924
399.646	2933.47924
400.15	2785.17473
400.653	2296.3639
401.156	2013.3708
401.659	1668.64297
402.162	311.22053
402.664	0
403.167	0
403.67	0
404.172	0
404.674	0
405.176	0
405.678	0
406.18	0
406.682	0
407.184	0
407.686	0
408.187	0
408.688	0
409.19	0
409.691	0
410.192	0
410.693	0
411.194	435.30976
411.694	4082.94878
412.195	8864.71461
412.696	12089.80453
413.196	12760.96929
413.696	12840.08654
414.196	13586.68205
414.696	17261.84252
415.196	21326.88864
415.696	23577.29563
416.196	19811.39735
416.695	12959.28232
417.195	8929.47665
417.694	8416.98687
418.194	8417.47349
418.693	7167.53551
419.192	6963.60035
419.691	6788.91865
420.19	6684.30225
420.688	6815.05497
421.187	6985.63841
421.685	6757.77584
422.184	6405.12753
422.682	5344.24741
423.18	4223.4578
423.678	3420.06531
424.176	3068.68209
424.674	2876.04198
425.172	2892.87558
425.669	2787.7851
426.167	2807.78929
426.664	2467.58162
427.161	2347.90164
427.659	1960.29975
428.156	1769.34259
428.652	1646.13909
429.149	1470.20728
429.646	1545.1711
430.143	1450.24118
430.639	1348.3243
431.135	1293.43673
431.632	1144.52194
432.128	1123.62954
432.624	892.81929
433.12	708.80527
433.616	741.8059
434.111	638.89754
434.607	658.94603
435.103	736.90328
435.598	817.89761
436.093	778.06628
436.588	797.08167
437.083	669.13778
437.578	565.17783
438.073	449.2059
438.568	532.2803
439.062	531.18253
439.557	486.27653
440.051	407.22054
440.546	364.21092
441.04	367.25426
441.534	387.31868
442.028	387.29751
442.522	335.26496
443.015	352.23247
443.509	419.35531
444.002	295.2662
444.496	260.19465
444.989	323.29979
445.482	250.24837
445.975	210.1749
446.468	220.17029
446.961	273.2082
447.454	297.25629
447.947	210.20209
448.439	203.21516
448.931	98.09306
449.424	222.25564
449.916	242.25951
450.408	152.14689
450.9	143.1589
451.392	122.14833
451.884	178.18721
452.375	120.14338
452.867	171.18269
453.358	119.12581
453.849	102.10002
454.341	102.11093
454.832	93.095
455.323	110.13625
455.814	92.1076
456.304	119.13944
456.795	136.15776
457.285	140.16131
457.776	201.23887
458.266	61.07843
458.756	102.13508
459.247	101.12986
459.737	10.01337
460.226	19.02362
460.716	47.06398
461.206	25.03508
461.695	110.16225
462.185	33.04598
462.674	51.06933
463.163	60.07759
463.653	51.06176
464.142	-23.03435
464.63	79.11913
465.119	-35.05041
465.608	44.06208
466.096	29.03914
466.585	43.06313
467.073	8.01252
467.561	80.1238
468.05	54.08126
468.538	35.05725
469.026	40.06343
469.513	-14.01924
470.001	-63.09672
470.489	10.01589
470.976	16.02502
471.463	18.03122
471.951	51.08919
472.438	-46.07598
472.925	-106.17713
473.412	32.05624
473.899	15.02445
474.385	-27.04846
474.872	-44.07429
475.359	-67.12113
475.845	-21.03108
476.331	-11.01754
476.817	-36.0661
477.303	-44.0766
477.789	-26.04728
478.275	-97.1856
478.761	-37.06833
479.247	-59.10171
479.732	-76.14673
480.218	-71.14567
480.703	-99.19494
481.188	-39.06429
481.673	-82.14775
482.158	-131.21752
482.643	14.02824
483.128	-91.16443
483.612	-85.15941
484.097	-55.10901
484.581	-93.17623
485.066	-95.18795
485.55	-127.22643
486.034	-155.27564
486.518	-94.17956
487.002	-150.30434
487.486	-140.28483
487.969	-146.29799
488.453	-114.24219
488.936	-159.30159
489.42	-73.134
489.903	-129.2771
490.386	-50.06657
490.869	-103.18964
491.352	-102.21395
491.835	-61.10561
492.318	-156.30146
492.8	-118.2075
493.283	-156.34239
493.765	-146.31003
494.247	-65.13028
494.73	-187.36146
495.212	-96.20155
495.694	-165.335
496.175	-231.481
496.657	-91.18687
497.139	-117.17782
497.62	-233.48819
498.102	-167.36398
498.583	-99.21669
499.064	-193.37932
499.545	-124.24756
500.026	-136.26685
500.507	-177.36511
500.988	-123.26945
501.469	-201.44885
501.949	-150.33033
502.43	-217.4605
502.91	-200.36908
503.39	-122.27171
503.87	-139.28841
504.35	-152.32165
504.83	-186.36461
505.31	-196.42673
505.79	-189.40528
506.269	-144.30125
506.749	-214.44114
507.228	-211.44698
507.707	-185.36909
508.187	-135.28974
508.666	-218.4849
509.145	-167.34991
509.623	-170.35942
510.102	-134.29113
510.581	-156.34138
511.059	-205.46572
511.538	-152.35601
512.016	-202.44054
512.494	-133.29123
512.972	-147.31658
513.45	-267.56684
513.928	-192.42317
514.406	-272.60048
514.884	-171.39886
515.361	-160.34717
515.839	-196.40749
516.316	-191.41946
516.793	-187.43411
517.27	-177.39362
517.747	-184.43078
518.224	-175.37088
518.701	-163.33125
519.178	-204.46223
519.654	-158.34458
520.131	-183.41473
520.607	-168.38267
521.083	-175.36618
521.56	-210.45818
522.036	-184.37264
522.512	-143.32329
522.987	-191.41523
523.463	-172.37511
523.939	-159.35829
524.414	-136.28779
524.89	-195.42807
525.365	-170.35406
525.84	-251.55354
526.315	-202.44987
526.79	-137.28273
527.265	-177.37266
527.74	-150.33504
528.215	-161.34926
528.689	-184.37674
529.164	-156.3129
529.638	-185.441
530.112	-209.45706
530.587	-147.287
531.061	-196.43723
531.534	-152.34034
532.008	-212.4741
532.482	-172.36668
532.956	-229.54336
533.429	-154.34454
533.903	-129.26311
534.376	-180.37005
534.849	-220.47857
535.322	-179.39278
535.795	-169.38332
536.268	-206.4622
536.741	-200.44948
537.213	-163.35013
537.686	-189.42746
538.158	-175.36277
538.631	-104.23258
539.103	-215.45068
539.575	-161.31314
540.047	-158.32277
540.519	-123.27149
540.991	-108.24352
541.463	-157.35292
541.934	-150.31811
542.406	-130.28508
542.877	-128.26647
543.348	-129.28807
543.82	-98.22097
544.291	-115.24799
544.762	-114.24768
545.233	-103.23599
545.703	-118.2392
546.174	-73.15444
546.645	-135.29449
547.115	-109.23979
547.585	-56.11648
548.056	-105.22895
548.526	-91.19303
548.996	-32.06899
549.466	26.05639
549.935	-26.05449
550.405	-56.10941
550.875	16.03328
551.344	20.04225
551.814	25.05043
552.283	104.1951
552.752	5.01017
553.221	72.13393
553.69	93.17692
554.159	103.21591
554.628	110.20829
555.096	124.26814
555.565	149.28096
556.033	201.40082
556.502	238.48576
556.97	200.3763
557.438	224.45178
557.906	283.5675
558.374	306.58908
558.842	265.53828
559.31	314.59051
559.777	326.66052
560.245	407.79352
560.712	389.74977
561.18	432.77851
561.647	454.82697
562.114	467.86469
562.581	519.03993
563.048	540.00203
563.514	590.15276
563.981	612.10716
564.448	631.10881
564.914	726.30452
565.381	743.29656
565.847	833.46854
566.313	786.39235
566.779	826.39374
567.245	956.62865
567.711	898.5962
568.176	911.48733
568.642	1007.83619
569.108	1068.87282
569.573	1064.78319
570.038	1122.59738
570.504	1151.74878
570.969	1169.04876
571.434	1186.7305
571.899	1236.98527
572.363	1234.87407
572.828	1304.96245
573.293	1303.95801
573.757	1367.01742
574.222	1354.91752
574.686	1340.91417
575.15	1378.11213
575.614	1419.05071
576.078	1445.13503
576.542	1341.97119
577.006	1396.9863
577.469	1499.36999
577.933	1315.89041
578.396	1319.069
578.86	1322.04697
579.323	1351.09527
579.786	1311.81127
580.249	1185.81783
580.712	1225.04807
581.175	1141.96841
581.637	1216.89912
582.1	1151.72291
582.563	1213.73608
583.025	1095.87179
583.487	1020.4185
583.95	1019.52698
584.412	1024.50461
584.874	983.73732
585.336	1019.73307
585.797	1001.53053
586.259	995.70485
586.721	929.59908
587.182	970.66322
587.643	939.55888
588.105	898.58137
588.566	885.36441
589.027	865.55925
589.488	883.49545
589.949	875.59581
590.41	843.18722
590.87	928.56215
591.331	868.38965
591.791	825.43397
592.252	859.4594
592.712	885.59538
593.172	867.45084
593.632	921.48026
594.092	918.50089
594.552	957.48283
595.011	936.56712
595.471	990.59296
595.931	995.58975
596.39	1056.80634
596.849	1115.81779
597.308	1178.73455
597.768	1149.06713
598.227	1249.05328
598.685	1332.02191
599.144	1322.04578
599.603	1389.14846
600.062	1412.83382
600.52	1491.05044
600.978	1610.33675
601.437	1674.2731
601.895	1712.04526
602.353	1826.2556
602.811	1888.27606
603.269	2023.61665
603.727	2080.63976
604.184	2113.39679
604.642	2264.80424
605.099	2348.58729
605.557	2458.83805
606.014	2446.26772
606.471	2646.94545
606.928	2724.20973
607.385	2825.79236
607.842	2996.49419
608.299	3096.58774
608.755	3107.74959
609.212	3157.30275
609.668	3173.25614
610.125	3410.70776
610.581	3409.66763
611.037	3612.37486
611.493	3576.57859
611.949	3514.66819
612.405	3480.73681
612.861	3646.55113
613.316	3608.60769
613.772	3595.40474
614.227	3628.53762
614.683	3679.02637
615.138	3665.48108
615.593	3616.47028
616.048	3606.42062
616.503	3629.84412
616.958	3543.96886
617.412	3538.63134
617.867	3511.24596
618.321	3423.9986
618.776	3423.33427
619.23	3392.66291
619.684	3323.50091
620.138	3198.70132
620.592	3135.94813
621.046	3100.78685
621.5	3068.9724
621.954	3003.60578
622.407	2965.55467
622.861	2854.0084
623.314	2811.69436
623.768	2690.80215
624.221	2649.07349
624.674	2588.75554
625.127	2534.83183
625.58	2545.74106
626.033	2465.59481
626.485	2366.91171
626.938	2358.90544
627.39	2333.79738
627.843	2218.74701
628.295	2202.74336
628.747	2166.85301
629.199	2079.63578
629.651	2005.60138
630.103	1939.60601
630.555	1994.35191
631.006	1938.71375
631.458	1834.6719
631.909	1857.61197
632.361	1720.56583
632.812	1669.4895
633.263	1688.28801
633.714	1627.23464
634.165	1631.64957
634.616	1567.52498
635.067	1581.32711
635.518	1613.58962
635.968	1540.01008
636.419	1463.17365
636.869	1490.47317
637.319	1439.33009
637.769	1373.17044
638.219	1384.38775
638.669	1285.26118
639.119	1320.37782
639.569	1336.36046
640.019	1274.17734
640.468	1216.02134
640.918	1250.2661
641.367	1241.0637
641.816	1252.07016
642.265	1260.1682
642.714	1221.1247
643.163	1220.10905
643.612	1125.08975
644.061	1126.80057
644.51	1168.02302
644.958	1187.96053
645.406	1120.08506
645.855	1184.24146
646.303	1183.11879
646.751	1127.97507
647.199	1167.02713
647.647	1167.05483
648.095	1162.04015
648.543	1148.77574
648.99	1121.09155
649.438	1162.11453
649.885	1106.16755
650.333	1078.59121
650.78	1103.09937
651.227	1037.02299
651.674	1057.90237
652.121	1095.11125
652.568	1040.02551
653.015	1102.22751
653.461	1054.99906
653.908	988.86277
654.354	1038.99252
654.801	992.88036
655.247	999.75743
655.693	989.1264
656.139	959.88525
656.585	926.83694
657.031	907.74362
657.477	901.59286
657.922	865.66037
658.368	880.82669
658.813	893.7323
659.259	848.71566
659.704	781.55293
660.149	811.60294
660.594	767.5647
661.039	765.49213
661.484	812.65698
661.929	760.53112
662.373	719.58528
662.818	719.55882
663.262	669.41826
663.707	691.54381
664.151	690.4835
664.595	663.41226
665.039	706.54523
665.483	679.53069
665.927	652.36143
666.371	574.19145
666.814	628.33906
667.258	587.2453
667.701	650.24079
668.145	634.41316
668.588	655.4308
669.031	553.17613
669.474	599.29786
669.917	597.18659
670.36	552.24641
670.803	559.22704
671.245	569.08038
671.688	573.26888
672.13	456.94757
672.573	574.32718
673.015	560.22279
673.457	509.01468
673.899	542.20039
674.341	497.10584
674.783	515.13269
675.225	487.10681
675.666	464.03293
676.108	499.99832
676.549	512.11641
676.991	514.03916
677.432	497.90831
677.873	507.08001
678.314	442.98752
678.755	457.03516
679.196	415.8933
679.637	513.15658
680.078	463.00917
680.518	468.01556
680.959	480.0664
681.399	457.05652
681.839	520.16546
682.28	442.01915
682.72	464.98867
683.16	472.09277
683.6	492.03915
684.039	424.82961
684.479	432.99539
684.919	386.84106
685.358	462.0949
685.798	410.01274
686.237	447.01206
686.676	468.01254
687.115	485.05722
687.554	411.92112
687.993	442.91643
688.432	448.95831
688.871	376.81023
689.309	453.01027
689.748	440.86255
690.186	494.09484
690.625	462.00891
691.063	382.87003
691.501	489.12302
691.939	410.96576
692.377	426.97844
692.815	399.90268
693.253	435.9845
693.69	438.90287
694.128	413.94384
694.565	419.9429
695.003	458.08707
695.44	465.01825
695.877	428.93967
696.314	398.8112
696.751	495.0471
697.188	457.98115
697.625	464.99725
698.061	474.05828
698.498	446.01204
698.934	422.95878
699.371	401.8928
699.807	422.94129
700.243	394.89881
700.679	462.978
701.115	450.99501
701.551	381.8539
701.987	395.84295
702.422	439.979
702.858	453.00902
703.294	410.87818
703.729	484.10198
704.164	371.85096
704.599	403.8492
705.035	381.80955
705.47	383.8848
705.904	382.84539
706.339	467.01447
706.774	447.98158
707.209	364.80019
707.643	440.99318
708.078	408.93973
708.512	347.82993
708.946	435.9817
709.38	441.98183
709.814	376.81858
710.248	422.9708
710.682	414.92956
711.116	381.86232
711.549	383.94075
711.983	359.79202
712.416	438.97414
712.85	389.92147
713.283	405.90693
713.716	423.00212
714.149	424.95396
714.582	419.88679
715.015	427.00733
715.448	410.9785
715.881	394.81801
716.313	347.77835
716.746	371.83149
717.178	342.78775
717.61	404.97119
718.043	378.89732
718.475	344.79899
718.907	399.95935
719.339	363.78373
719.77	319.72701
720.202	333.8086
720.634	355.8247
721.065	290.6656
721.497	353.8275
721.928	328.77326
722.359	293.68231
722.79	304.70192
723.221	353.8504
723.652	364.8979
724.083	291.63503
724.514	337.74256
724.945	295.67043
725.375	248.561
725.806	331.79439
726.236	333.81979
726.666	290.6648
727.096	272.64848
727.526	276.67987
727.956	291.6396
728.386	286.68237
728.816	282.69107
729.246	297.69679
729.675	253.60631
730.105	273.65273
730.534	272.61829
730.964	285.69855
731.393	281.67775
731.822	285.70527
732.251	268.6609
732.68	248.57104
733.109	247.59373
733.537	223.5277
733.966	282.67849
734.395	229.51813
734.823	282.61734
735.251	247.58041
735.68	305.73785
736.108	258.63554
736.536	231.5337
736.964	239.54207
737.392	252.61459
737.82	236.55402
738.247	230.53952
738.675	281.65153
739.102	189.46516
739.53	189.47389
739.957	192.48617
740.384	234.56516
740.811	195.48682
741.238	168.40592
741.665	152.35028
742.092	243.567
742.519	168.41112
742.945	154.36718
743.372	198.48236
743.798	184.46642
744.225	174.40928
744.651	206.50784
745.077	172.42403
745.503	188.45252
745.929	193.45636
746.355	235.57196
746.781	118.29209
747.207	132.30856
747.632	132.32026
748.058	193.47431
748.483	161.36799
748.908	152.37473
749.334	122.29911
749.759	103.24356
750.184	136.32252
750.609	175.42514
751.033	164.38471
751.458	155.34599
751.883	140.34515
752.307	95.22455
752.732	86.21537
753.156	151.37
753.58	134.31741
754.005	128.32367
754.429	173.40209
754.853	133.32783
755.277	89.21175
755.7	130.3212
756.124	91.22637
756.548	115.27246
756.971	157.38013
757.394	132.33817
757.818	88.22687
758.241	105.26622
758.664	124.31187
759.087	24.0546
759.51	76.19019
759.933	79.19114
760.356	88.22608
760.778	61.15125
761.201	93.22704
761.623	139.33566
762.046	139.32855
762.468	103.24807
762.89	165.4031
763.312	109.2662
763.734	56.13618
764.156	83.20579
764.578	103.23779
765	108.26351
765.421	37.09491
765.843	117.30555
766.264	130.31304
766.686	62.15689
767.107	77.18763
767.528	64.16241
767.949	93.23671
768.37	67.16558
768.791	87.21136
769.212	72.18155
769.632	19.04503
770.053	53.14044
770.473	82.2003
770.894	116.28976
771.314	95.22768
771.734	43.10152
772.154	93.23889
772.575	92.21413
772.994	80.18282
773.414	93.22399
773.834	42.10605
774.254	34.08425
774.673	95.23175
775.093	31.07762
775.512	47.11683
775.931	104.26317
776.351	41.10281
776.77	32.07915
777.189	55.13202
777.607	44.11328
778.026	83.20714
778.445	-20.05102
778.864	88.22585
779.282	56.13582
779.701	77.1946
780.119	52.13224
780.537	5.01267
780.955	107.27148
781.373	44.10979
781.791	-6.01378
782.209	30.07016
782.627	29.07708
783.045	40.0931
783.462	26.06712
783.88	19.04969
784.297	27.06865
784.715	16.04155
785.132	30.07347
785.549	60.1508
785.966	41.10395
786.383	32.07953
786.8	59.13805
787.217	32.07674
787.633	23.05803
788.05	37.08891
788.466	58.13781
788.883	27.0695
789.299	56.13572
789.715	50.12241
790.131	60.14988
790.547	73.18272
790.963	32.0802
791.379	5.01281
791.795	53.12197
792.21	34.08038
792.626	38.09106
793.041	51.12664
793.457	24.05997
793.872	36.08551
794.287	-2.00485
794.702	29.07219
795.117	38.09513
795.532	0
795.947	77.18574
796.362	47.11316
796.776	89.20866
797.191	11.02728
797.605	16.03805
798.02	-10.02475
798.434	46.10342
798.848	31.07703
799.262	34.08502
799.676	76.18571
800.09	7.01746
800.504	23.05644
800.918	-15.03544
801.331	84.21993
801.745	-6.01404
802.158	30.07564
802.572	52.12688
802.985	40.09749
803.398	47.11286
803.811	99.25359
804.224	67.16715
804.637	26.06259
805.05	23.05397
805.462	71.17475
805.875	-4.0105
806.288	5.01222
806.7	11.02797
807.112	28.06563
807.525	32.07965
807.937	33.08221
808.349	49.12335
808.761	38.09417
809.173	33.08065
809.584	64.1586
809.996	8.01983
810.408	18.04687
810.819	25.05941
811.231	4.01045
811.642	-5.0121
812.053	60.14311
812.464	101.23901
812.875	105.26679
813.286	56.14452
813.697	105.24443
814.108	44.10816
814.519	91.20246
814.929	41.10517
815.34	40.09767
815.75	34.08695
816.16	28.07037
816.571	57.1484
816.981	50.11871
817.391	34.08274
817.801	14.03514
818.211	66.15767
818.62	0
819.03	75.18378
819.44	86.22402
819.849	65.16398
820.259	18.0465
820.668	4.00996
821.077	14.03512
821.486	25.06078
821.895	95.23382
822.304	33.08794
822.713	38.09047
823.122	38.0954
823.531	30.07172
823.939	31.0761
824.348	57.139
824.756	38.09575
825.164	69.1737
825.573	32.08083
825.981	48.11956
826.389	62.156
826.797	19.04802
827.205	17.03945
827.612	38.09434
828.02	-5.01191
828.428	43.10999
828.835	5.01329
829.243	16.03854
829.65	-7.01764
830.057	31.07579
830.464	41.10043
830.871	61.14636
831.278	42.10206
831.685	-29.0661
832.092	21.05188
832.499	-13.02896
832.905	25.06377
833.312	57.13044
833.718	29.07277
834.124	33.076
834.531	32.08118
834.937	5.01297
835.343	29.07051
835.749	54.12658
836.155	38.09993
836.561	-19.04747
836.966	43.10564
837.372	22.05642
837.777	9.02265
838.183	24.05389
838.588	30.07497
838.993	49.11971
839.399	14.03455
839.804	15.03689
840.209	-7.01804
840.613	38.08509
841.018	14.03577
841.423	25.06455
841.828	42.10662
842.232	64.1586
842.637	44.10427
843.041	-5.01296
843.445	15.03795
843.849	-16.04018
844.253	36.08607
844.657	9.02288
845.061	23.05266
845.465	-41.10099
845.869	10.0235
846.272	22.05398
846.676	21.05121
847.079	-28.07231
847.483	43.10767
847.886	49.11958
848.289	-6.01618
848.692	42.10673
849.095	45.10847
849.498	65.16469
849.901	52.1196
850.304	67.16002
850.707	62.15806
851.109	55.13935
851.512	21.05199
851.914	2.00509
852.316	35.08893
852.718	-20.05233
853.121	6.01485
853.523	33.07758
853.925	-37.09808
854.326	-8.02024
854.728	2.00519
855.13	21.05451
855.531	-19.04609
855.933	47.11316
856.334	17.0427
856.736	29.0654
857.137	17.03987
857.538	-22.05611
857.939	9.02244
858.34	45.10998
858.741	28.07356
859.142	30.07249
859.542	-23.0615
859.943	34.08487
860.343	-9.02256
860.744	39.09553
861.144	31.07602
861.544	-20.04878
861.945	0
862.345	14.03453
862.745	48.11951
863.145	55.13161
863.544	22.05595
863.944	6.01432
864.344	24.06
864.743	41.10207
865.143	55.14133
865.542	-18.04239
865.941	16.03991
866.34	38.0914
866.74	61.16358
867.139	-6.01454
867.537	9.02313
867.936	-3.0073
868.335	8.02053
868.734	42.1076
869.132	-9.02119
869.531	49.11873
869.929	-21.04864
870.327	20.04829
870.726	46.11495
871.124	38.08918
871.522	8.02055
871.92	24.05956
872.318	36.08836
872.715	62.15336
873.113	-3.00739
873.511	2.00503
873.908	-20.05117
874.306	-2.00503
874.703	24.06041
875.1	40.10262
875.497	19.04588
875.894	-44.10979
876.291	32.07889
876.688	14.03637
877.085	62.14862
877.482	32.08046
877.878	-10.02437
878.275	11.02817
878.671	27.06052
879.068	3.00732
879.464	17.04139
879.86	-20.048
880.256	55.13577
880.652	2.00513
881.048	40.09941
881.444	17.04077
881.84	23.05879
882.236	60.15075
882.631	40.09847
883.027	43.10439
883.422	15.03862
883.817	-39.09965
884.213	16.04134
884.608	-5.0124
885.003	8.01946
885.398	-3.00759
885.793	38.09568
886.188	-15.03776
886.582	72.18414
886.977	41.09759
887.371	5.01276
887.766	-38.09609
888.16	37.09264
888.554	32.07947
888.949	41.10321
889.343	37.0907
889.737	-3.00807
890.131	-27.06872
890.525	31.0796
890.918	54.13592
891.312	56.13398
891.706	42.11042
892.099	29.07413
892.492	-2.00437
892.886	40.09814
893.279	40.10216
893.672	28.07161
894.065	45.11288
894.458	31.07829
894.851	37.09097
895.244	15.03857
895.637	28.06778
896.029	45.11023
896.422	19.04673
896.814	50.1244
897.206	-51.1239
897.599	63.15558
897.991	5.0122
898.383	22.05231
898.775	2.00456
899.167	-25.05921
899.559	45.1141
899.951	25.05928
900.342	23.05881
900.734	-31.0781
901.125	39.10258
901.517	0
901.908	38.0914
902.299	25.06144
902.69	51.12041
903.082	40.09712
903.473	18.04339
903.863	5.01287
904.254	6.01406
904.645	74.18338
905.036	2.00489
905.426	70.15977
905.817	22.0543
906.207	11.02642
906.597	20.04708
906.987	-3.00785
907.378	31.07871
907.768	19.05052
908.158	42.10263
908.547	-8.02088
908.937	28.07216
909.327	31.0756
909.717	84.21211
910.106	49.11779
910.495	44.11003
910.885	47.11917
911.274	22.05529
911.663	65.16463
912.052	39.09649
912.441	51.12972
912.83	20.04622
913.219	60.15683
913.608	24.0591
913.997	-7.01774
914.385	53.12664
914.774	16.03923
915.162	-9.0217
915.55	50.12104
915.939	-16.04088
916.327	39.09758
916.715	-2.00515
917.103	81.19833
917.491	51.12622
917.878	35.08634
918.266	43.11169
918.654	30.07694
919.041	14.03678
919.429	12.02855
919.816	30.07635
920.203	43.10447
920.591	26.06478
920.978	29.07133
921.365	45.1182
921.752	35.08372
922.139	-1.0022
922.525	-41.10021
922.912	22.05396
923.299	40.09963
923.685	9.02365
924.072	24.05566
924.458	14.03492
924.844	18.04482
925.231	-9.0212
925.617	-3.0077
926.003	-11.02842
926.389	18.04568
926.774	-23.05906
927.16	62.1537
927.546	12.03084
927.931	46.11491
928.317	-21.04908
928.702	12.02861
929.088	6.01432
929.473	28.07153
929.858	-24.05884
930.243	36.08666
930.628	2.00491
931.013	29.07217
931.398	90.20542
931.783	51.13428
932.167	24.05897
932.552	25.06294
932.937	51.12659
933.321	-11.02791
933.705	8.02032
934.09	83.20857
934.474	39.09286
934.858	16.04175
935.242	26.06056
935.626	5.0129
936.009	21.05613
936.393	14.03586
936.777	-7.01811
937.16	13.03404
937.544	66.15507
937.927	-2.00512
938.311	62.15105
938.694	78.20534
939.077	-14.03393
939.46	56.1374
939.843	36.07538
940.226	30.07724
940.609	32.07375
940.991	39.09948
941.374	12.02954
941.757	39.09645
942.139	-36.0823
942.522	23.05466
942.904	-1.00243
943.286	51.12958
943.668	63.16284
944.05	15.03719
944.432	-7.01746
944.814	23.05694
945.196	-18.04443
945.578	-28.06755
945.959	70.16344
946.341	73.17848
946.722	65.15215
947.104	34.08153
947.485	15.03515
947.866	27.06831
948.247	-2.00509
948.628	42.10263
949.009	7.01806
949.39	56.13928
949.771	26.06078
950.152	22.05428
950.532	-30.07489
950.913	16.03885
951.293	21.057
951.674	12.02924
952.054	7.01748
952.434	-9.02258
952.814	38.09064
953.194	66.17228
953.574	59.14511
953.954	18.04302
954.334	42.10484
954.714	2.00492
955.093	42.10343
955.473	14.03524
955.853	27.07018
956.232	71.19395
956.611	65.15548
956.99	25.06312
957.37	36.09197
957.749	36.08613
958.128	30.07586
958.506	23.05994
958.885	36.0911
959.264	-17.04218
959.643	43.09801
960.021	37.09191
960.4	23.05242
960.778	68.16697
961.156	9.02273
961.535	14.03287
961.913	10.02359
962.291	-3.00777
962.669	23.05854
963.047	38.09718
963.424	16.04108
963.802	-20.04982
964.18	42.10643
964.557	19.04404
964.935	29.069
965.312	19.04974
965.69	62.15493
966.067	33.08062
966.444	36.08895
966.821	31.08019
967.198	31.07548
967.575	34.08385
967.952	77.18052
968.329	21.05138
968.705	1.00217
969.082	18.04642
969.458	-38.09268
969.835	45.10965
970.211	-3.00777
970.587	21.05256
970.963	33.08492
971.339	4.01053
971.715	75.18643
972.091	38.09379
972.467	16.04016
972.843	-29.07301
973.219	51.12246
973.594	-14.03702
973.97	60.14256
974.345	10.02412
974.721	-1.00244
975.096	44.1066
975.471	49.11627
975.846	8.01937
976.221	25.06377
976.596	44.10559
976.971	39.09649
977.346	42.09795
977.72	28.07161
978.095	14.03641
978.469	39.09329
978.844	33.08322
979.218	-20.04858
979.593	2.00484
979.967	1.00246
980.341	3.00697
980.715	50.12598
981.089	-3.00758
981.463	6.0139
981.837	1.00247
982.21	75.1737
982.584	24.05825
982.957	24.06021
983.331	43.1018
983.704	16.03956
984.078	19.04709
984.451	60.14961
984.824	23.0563
985.197	37.09009
985.57	38.09551
985.943	82.20134
986.316	86.20991
986.688	57.13729
987.061	36.08462
987.434	23.06021
987.806	37.08996
988.179	1.00238
988.551	28.07131
988.923	13.03223
989.295	54.13484
989.667	-8.01932
990.039	-13.03249
990.411	-1.00233
990.783	40.09229
991.155	-24.05847
991.527	64.1572
991.898	15.03761
992.27	0
992.641	68.17005
993.012	47.11066
993.384	28.06707
993.755	27.06911
994.126	30.07243
994.497	-22.05472
994.868	21.04852
995.239	51.12358
995.61	-4.01016
995.98	-19.04675
996.351	-20.05016
996.722	22.05131
997.092	1.00239
997.462	-12.02837
997.833	66.15598
998.203	42.10198
998.573	-36.09103
998.943	9.02127
999.313	39.09365
999.683	39.09379
1000.053	3.00697
1000.423	21.05131
1000.792	31.0806
1001.162	24.05934
1001.531	24.05945
1001.901	42.10484
1002.27	44.09848
1002.639	-5.0129
1003.009	22.0526
1003.378	18.04628
1003.747	9.02143
1004.116	-24.05823
1004.485	28.0672
1004.853	-4.01023
1005.222	25.06332
1005.591	29.06913
1005.959	-18.04112
1006.328	2.00454
1006.696	-13.03173
1007.064	-2.00508
1007.433	24.06026
1007.801	44.10812
1008.169	16.04065
1008.537	39.08655
1008.905	-2.00471
1009.273	30.07437
1009.64	-19.04592
1010.008	43.10262
1010.375	70.16933
1010.743	63.1451
1011.11	-11.02633
1011.478	22.05472
1011.845	27.06377
1012.212	-14.0321
1012.579	11.02719
1012.946	25.05978
1013.313	61.14486
1013.68	44.09901
1014.047	-21.05071
1014.414	24.05696
1014.78	59.14634
1015.147	31.07523
1015.513	46.1109
1015.88	58.14807
1016.246	42.10381
1016.612	35.08035
1016.978	36.08843
1017.344	27.06699
1017.71	66.16044
1018.076	71.16672
1018.442	50.12859
1018.808	15.03772
1019.174	27.06799
1019.539	104.2368
1019.905	2.00476
1020.27	4.00995
1020.636	46.11035
1021.001	13.03133
1021.366	-7.01699
1021.731	26.06712
1022.096	-18.04594
1022.461	39.09247
1022.826	30.07156
1023.191	24.06322
1023.556	37.08692
1023.92	24.05928
1024.285	67.16296
1024.649	51.12492
1025.014	34.08444
1025.378	5.01267
1025.742	1.0025
1026.107	41.09288
1026.471	60.13976
1026.835	29.07214
1027.199	-2.00486
1027.562	48.11159
1027.926	33.08092
1028.29	34.08625
1028.654	75.17163
1029.017	22.05434
1029.381	-19.04597
1029.744	28.07166
1030.107	44.10419
1030.471	13.03133
1030.834	16.03664
1031.197	54.12994
1031.56	-9.02147
1031.923	26.06747
1032.286	65.15215
1032.648	28.06722
1033.011	7.0162
1033.374	54.12678
1033.736	10.02646
1034.099	35.08551
1034.461	-23.05883
1034.823	1.00251
1035.185	38.09582
1035.548	27.06596
1035.91	16.03856
1036.272	-23.0531
1036.634	53.12953
1036.995	28.06607
1037.357	19.04647
1037.719	14.03426
1038.08	17.0406
1038.442	10.02391
1038.803	24.05788
1039.165	21.05324
1039.526	35.08478
1039.887	10.0241
1040.248	-13.03239
1040.609	65.1601
1040.97	20.04913
1041.331	30.07619
1041.692	15.03524
1042.053	66.14973
1042.413	66.15325
1042.774	28.06834
1043.134	37.08827
1043.495	24.06058
1043.855	27.06574
1044.215	41.10188
1044.576	-29.07035
1044.936	31.07131
1045.296	39.09747
1045.656	22.05424
1046.016	43.10388
1046.375	25.0609
1046.735	-17.03904
1047.095	5.0118
1047.454	12.02563
1047.814	28.06755
1048.173	34.08144
1048.533	29.06669
1048.892	-16.03886
1049.251	38.09554
1049.61	44.1084
1049.969	11.02611
1050.328	24.0523
1050.687	12.02939
1051.046	24.05869
1051.405	26.06492
1051.763	-18.04193
1052.122	-7.01763
1052.48	2.00495
1052.839	-29.06924
1053.197	11.02607
1053.555	43.09813
1053.914	64.15604
1054.272	19.04618
1054.63	27.06626
1054.988	14.03347
1055.345	-15.03273
1055.703	18.04356
1056.061	4.01037
1056.419	-9.02352
1056.776	23.05602
1057.134	6.014
1057.491	69.17208
1057.848	68.16863
1058.206	11.02605
1058.563	5.01112
1058.92	27.06248
1059.277	23.05699
1059.634	38.08956
1059.991	30.07211
1060.348	-21.04812
1060.704	10.024
1061.061	57.13217
1061.418	-3.00734
1061.774	0
1062.131	-4.01066
1062.487	14.03294
1062.843	46.1147
1063.199	19.04749
1063.555	-1.00234
1063.911	52.13121
1064.267	38.07943
1064.623	-22.05412
1064.979	53.12542
1065.335	59.1407
1065.691	43.10313
1066.046	13.02879
1066.402	9.0206
1066.757	50.12612
1067.112	28.06895
1067.468	-16.03824
1067.823	40.09629
1068.178	45.10888
1068.533	26.06327
1068.888	51.12176
1069.243	6.01492
1069.598	17.04153
1069.952	-25.05712
1070.307	-7.0175
1070.662	-5.01199
1071.016	-10.02267
1071.371	-2.00459
1071.725	60.14317
1072.079	15.03629
1072.434	-27.0665
1072.788	28.06691
1073.142	27.06665
1073.496	14.03342
1073.85	13.03035
1074.203	35.0851
1074.557	-5.01341
1074.911	46.1098
1075.265	-2.00469
1075.618	64.15575
1075.971	5.01199
1076.325	18.04597
1076.678	8.01844
1077.031	-21.04817
1077.385	28.06192
1077.738	34.07695
1078.091	-7.01609
1078.444	41.0953
1078.796	12.02963
1079.149	42.10454
1079.502	-15.03585
1079.855	-13.03067
1080.207	35.0864
1080.56	-33.08645
1080.912	43.10474
1081.264	11.02666
1081.617	20.04898
1081.969	-20.05104
1082.321	13.03194
1082.673	-45.10459
1083.025	-16.03841
1083.377	-221.50166
1083.728	34.07951
1084.08	18.04516
1084.432	21.05089
1084.783	32.07519
1085.135	39.09786
1085.486	-25.05802
1085.838	26.06427
1086.189	5.01223
1086.54	14.03364
1086.891	23.0584
1087.242	27.06596
1087.593	29.07082
1087.944	25.05682
1088.295	91.20498
1088.646	14.03413
1088.996	7.01699
1089.347	3.00742
1089.698	-12.02868
1090.048	21.05477
1090.398	31.07211
1090.749	33.07915
1091.099	2.00507
1091.449	39.09726
1091.799	46.11516
1092.149	-3.00738
1092.499	20.04902
1092.849	-19.04884
1093.199	54.13514
1093.548	6.01452
1093.898	47.11755
1094.248	28.07216
1094.597	-64.16649
1094.947	6.01611
1095.296	-14.03495
1095.645	18.04703
1095.994	-7.01698
1096.343	22.05559
1096.692	8.02115
1097.041	20.05436
1097.39	41.10292
1097.739	2.00524
1098.088	47.12587
1098.437	-5.01324
1098.785	13.03523
1099.134	59.15629
1099.482	12.03317
1099.83	12.03171
1100.179	13.03409
1100.527	37.09844
1100.875	2.00533
1101.223	23.06129
1101.571	40.11061
1101.919	12.03153
1102.267	21.05933
1102.615	-2.00643
1102.962	13.04184
1103.31	-2.00643
1103.658	16.0515
