Data from N3 R3 sample 11_Subt2__0__11-07-52-813.txt Node

Date: Thu Sep 18 11:07:52 PDT 2025
User: uwsun
Spectrometer: HDX01956
Trigger mode: 0
Integration Time (sec): 5.000000E-1
Scans to average: 1
Nonlinearity correction enabled: true
Boxcar width: 0
Storing dark spectrum: false
XAxis mode: Wavelengths
Number of Pixels in Spectrum: 2068
>>>>>Begin Spectral Data<<<<<
194.03	36.10397
194.578	43.13911
195.127	32.1022
195.676	41.13128
196.225	30.07972
196.773	59.16338
197.321	72.19935
197.87	130.33305
198.418	166.42572
198.966	157.41238
199.513	152.38585
200.061	131.33355
200.609	138.36401
201.156	156.34094
201.704	125.31557
202.251	157.41601
202.798	128.33239
203.345	140.34718
203.892	170.42771
204.438	140.33239
204.985	136.32389
205.532	120.31654
206.078	128.31347
206.624	187.46617
207.17	211.48924
207.716	163.39896
208.262	162.32072
208.808	164.41114
209.354	150.37116
209.899	167.41843
210.445	153.38253
210.99	149.36388
211.535	199.46489
212.08	171.39525
212.625	161.40078
213.17	170.43139
213.715	133.30534
214.259	154.35942
214.804	133.3265
215.348	206.47131
215.892	200.48104
216.436	152.34623
216.98	164.35843
217.524	179.42555
218.068	190.47545
218.612	243.60707
219.155	134.31741
219.698	201.47251
220.242	100.24808
220.785	195.45322
221.328	131.32349
221.871	192.4841
222.414	156.38346
222.956	120.28721
223.499	131.29169
224.041	126.28759
224.583	188.39051
225.126	168.36499
225.668	152.36699
226.21	167.41934
226.751	199.43685
227.293	102.2314
227.835	139.33946
228.376	137.31011
228.918	137.33943
229.459	141.35023
230	193.45724
230.541	96.22168
231.082	151.36547
231.622	108.24451
232.163	116.27954
232.704	159.39508
233.244	127.31431
233.784	161.38629
234.324	155.34685
234.864	101.22881
235.404	131.30712
235.944	184.42707
236.484	190.46754
237.023	123.28927
237.563	128.29709
238.102	186.43376
238.641	150.37401
239.18	136.31816
239.719	124.30963
240.258	170.37767
240.797	162.38358
241.335	154.37125
241.874	222.42304
242.412	195.46715
242.95	158.37916
243.488	96.21628
244.026	156.3605
244.564	193.39114
245.102	201.44848
245.64	132.31376
246.177	136.30075
246.715	222.52259
247.252	142.32031
247.789	250.44887
248.326	115.2774
248.863	148.32414
249.4	162.36393
249.936	253.51578
250.473	188.43894
251.009	137.31238
251.546	219.47994
252.082	127.27363
252.618	171.3787
253.154	145.34724
253.69	161.3579
254.226	138.32928
254.761	182.40331
255.297	122.2663
255.832	154.36393
256.367	186.4312
256.903	202.44222
257.438	141.32889
257.972	150.33199
258.507	124.28405
259.042	153.33078
259.576	262.56411
260.111	166.37735
260.645	108.23404
261.179	148.34501
261.713	153.34068
262.247	127.28934
262.781	178.37122
263.315	130.31423
263.849	185.4575
264.382	156.35563
264.915	188.43945
265.449	120.29279
265.982	195.43635
266.515	192.4646
267.048	196.4093
267.58	195.41381
268.113	186.39704
268.646	113.27648
269.178	174.38462
269.71	221.47962
270.243	223.50702
270.775	203.51338
271.307	139.32881
271.838	179.41752
272.37	171.41465
272.902	170.38112
273.433	177.38872
273.965	155.37388
274.496	181.44301
275.027	176.43373
275.558	211.50663
276.089	195.48081
276.62	158.39496
277.15	148.36164
277.681	177.37644
278.211	140.3398
278.741	205.44831
279.272	202.45546
279.802	185.45431
280.332	182.4251
280.861	156.37023
281.391	205.45854
281.921	202.47496
282.45	195.47639
282.98	187.48132
283.509	210.4704
284.038	173.39255
284.567	199.45703
285.096	231.54937
285.625	170.37892
286.153	235.55049
286.682	188.42719
287.21	189.44396
287.739	157.36865
288.267	181.43642
288.795	172.4448
289.323	154.36012
289.851	217.50216
290.378	160.35427
290.906	201.48537
291.433	213.52229
291.961	239.5348
292.488	185.45347
293.015	212.49302
293.542	259.65078
294.069	205.50119
294.596	156.37877
295.122	236.55511
295.649	204.43962
296.175	190.45161
296.702	236.56611
297.228	198.47008
297.754	226.49914
298.28	269.60317
298.806	218.51676
299.332	205.45305
299.857	185.41671
300.383	201.49852
300.908	222.53719
301.433	220.53095
301.958	185.41994
302.483	181.44416
303.008	285.68948
303.533	189.48189
304.058	192.44228
304.582	207.48263
305.107	200.5138
305.631	229.50968
306.155	209.48038
306.679	217.50296
307.203	224.51166
307.727	257.59518
308.251	253.61069
308.775	296.69973
309.298	219.52023
309.822	218.539
310.345	245.57436
310.868	255.60201
311.391	289.69177
311.914	228.56186
312.437	261.58306
312.96	236.54623
313.482	188.43773
314.005	229.56152
314.527	217.55542
315.049	317.77667
315.571	278.61013
316.093	283.68258
316.615	227.53571
317.137	268.57033
317.659	277.65394
318.18	236.55208
318.702	285.65059
319.223	250.49912
319.744	321.69841
320.265	273.64974
320.786	283.68979
321.307	220.53575
321.828	287.63028
322.348	258.59477
322.869	310.71662
323.389	533.95838
323.909	290.6445
324.43	265.61906
324.95	277.61906
325.47	353.84299
325.989	322.73962
326.509	330.71448
327.029	291.64793
327.548	295.65057
328.067	336.78812
328.587	380.91386
329.106	339.736
329.625	350.87793
330.144	335.75298
330.662	372.83836
331.181	377.85292
331.7	291.65892
332.218	372.77337
332.736	362.81483
333.255	380.85778
333.773	400.90071
334.291	392.93878
334.808	421.90115
335.326	362.78141
335.844	430.96072
336.361	426.04309
336.879	409.91852
337.396	450.03599
337.913	386.8546
338.43	399.85923
338.947	400.91359
339.464	453.9214
339.981	363.82861
340.497	455.05564
341.014	456.04899
341.53	431.92215
342.046	517.20729
342.562	481.12662
343.078	436.97412
343.594	463.03687
344.11	530.18109
344.626	466.11033
345.141	496.06134
345.657	499.05511
346.172	571.2718
346.687	454.98457
347.202	566.19259
347.717	527.16979
348.232	541.25302
348.747	533.14385
349.261	556.1268
349.776	562.23596
350.29	571.32363
350.805	574.30984
351.319	630.33229
351.833	584.2365
352.347	584.26935
352.861	579.2518
353.374	582.21507
353.888	605.35873
354.401	568.19104
354.915	590.22417
355.428	633.442
355.941	580.243
356.454	590.20182
356.967	576.23654
357.48	580.20768
357.993	652.45751
358.505	583.30552
359.018	666.47966
359.53	683.5071
360.042	629.2811
360.554	687.51909
361.066	620.37907
361.578	673.33853
362.09	681.46131
362.602	722.4338
363.113	699.47871
363.625	680.38984
364.136	675.33191
364.647	717.52278
365.158	766.57644
365.669	723.54353
366.18	749.56525
366.691	718.39866
367.201	722.54771
367.712	780.5729
368.222	718.47755
368.733	760.45537
369.243	812.58432
369.753	798.61292
370.263	805.71058
370.773	803.7189
371.282	822.71909
371.792	809.64227
372.301	816.72758
372.811	858.97321
373.32	890.64492
373.829	871.77388
374.338	877.67213
374.847	944.84834
375.356	954.90661
375.865	1057.85299
376.373	1058.98235
376.882	1080.27519
377.39	1121.21193
377.898	1104.23358
378.407	1142.09056
378.915	1221.09799
379.423	1156.16605
379.93	1352.4135
380.438	1374.53692
380.946	1422.49502
381.453	1460.63641
381.96	1552.72154
382.468	1674.7871
382.975	1781.04204
383.482	1787.70133
383.989	1833.29186
384.495	1974.99461
385.002	1948.5668
385.509	2134.18851
386.015	2319.59897
386.521	2444.09247
387.028	2481.08985
387.534	2496.80752
388.04	2685.43834
388.546	2708.97919
389.051	2832.9649
389.557	3056.22202
390.063	3182.0592
390.568	3403.39561
391.073	3412.90375
391.578	3671.42745
392.084	3746.93229
392.589	3828.5874
393.093	4200.0605
393.598	4610.56388
394.103	5009.57814
394.607	5491.39825
395.112	5852.37247
395.616	6192.14946
396.12	6726.6668
396.624	7377.91652
397.128	7956.31252
397.632	8921.35825
398.136	9596.71159
398.639	10174.2788
399.143	11289.23352
399.646	12852.09334
400.15	14245.90249
400.653	15984.05308
401.156	17816.78812
401.659	20903.79054
402.162	25319.5569
402.664	33374.01126
403.167	47076.0931
403.67	61529.79421
404.172	63919.58413
404.674	63858.43483
405.176	63738.15102
405.678	63977.72923
406.18	64011.81569
406.682	63863.44694
407.184	63926.60148
407.686	63841.39382
408.187	64025.8516
408.688	63892.51763
409.19	59466.76063
409.691	47691.22114
410.192	40323.47752
410.693	35293.4386
411.194	31599.51393
411.694	30102.32223
412.195	27936.05175
412.696	25318.21779
413.196	23408.13078
413.696	22871.84754
414.196	23139.98576
414.696	22874.95207
415.196	21739.13321
415.696	19759.87308
416.196	16106.91726
416.695	12239.36181
417.195	10483.23843
417.694	10022.02335
418.194	9404.27024
418.693	8821.14075
419.192	8619.90773
419.691	8272.45298
420.19	8071.38627
420.688	8025.43278
421.187	7637.48544
421.685	7144.77952
422.184	6488.87801
422.682	5569.69137
423.18	4689.51085
423.678	4184.73629
424.176	3941.83744
424.674	3709.7712
425.172	3484.18271
425.669	3290.49317
426.167	3121.17186
426.664	2856.05926
427.161	2572.10158
427.659	2383.32381
428.156	2332.69709
428.652	2119.38189
429.149	2028.14186
429.646	1980.75304
430.143	1836.94743
430.639	1867.9253
431.135	1704.00104
431.632	1541.51604
432.128	1488.6263
432.624	1458.84158
433.12	1429.39776
433.616	1311.1594
434.111	1248.30469
434.607	1188.24688
435.103	1189.911
435.598	1165.87011
436.093	1143.11177
436.588	1072.93681
437.083	1010.84306
437.578	1017.92549
438.073	939.98165
438.568	948.95747
439.062	882.57417
439.557	797.60317
440.051	755.46702
440.546	780.52467
441.04	810.67381
441.534	768.68809
442.028	842.73301
442.522	723.52087
443.015	690.28991
443.509	747.58517
444.002	721.54855
444.496	648.23876
444.989	709.51165
445.482	697.52327
445.975	723.45748
446.468	652.24281
446.961	666.26954
447.454	570.14943
447.947	612.30829
448.439	637.39496
448.931	642.30673
449.424	643.46363
449.916	659.42741
450.408	550.13698
450.9	532.17674
451.392	588.34882
451.884	575.18742
452.375	496.12707
452.867	513.04828
453.358	564.16337
453.849	558.07001
454.341	578.16986
454.832	536.04409
455.323	544.23232
455.814	509.05984
456.304	557.16203
456.795	508.05611
457.285	461.93298
457.776	536.10453
458.266	449.98597
458.756	402.88668
459.247	469.03178
459.737	471.04876
460.226	482.00552
460.716	481.05469
461.206	438.97132
461.695	398.92036
462.185	469.02314
462.674	411.87404
463.163	434.90065
463.653	415.81873
464.142	402.91002
464.63	359.81915
465.119	402.87145
465.608	405.8845
466.096	424.85044
466.585	433.91441
467.073	356.79016
467.561	355.80185
468.05	411.87899
468.538	397.90583
469.026	348.77755
469.513	320.63798
470.001	373.80256
470.489	349.78187
470.976	391.85321
471.463	307.72699
471.951	325.76515
472.438	312.69511
472.925	312.69712
473.412	301.69458
473.899	285.62325
474.385	322.74702
474.872	305.67543
475.359	292.68466
475.845	257.50964
476.331	270.54881
476.817	323.74444
477.303	275.61078
477.789	252.57608
478.275	257.61214
478.761	208.47818
479.247	304.643
479.732	232.55842
480.218	290.72616
480.703	237.56234
481.188	279.57577
481.673	274.60186
482.158	225.46934
482.643	273.6679
483.128	273.60886
483.612	275.62675
484.097	210.49011
484.581	251.55748
485.066	238.56177
485.55	246.52283
486.034	234.48844
486.518	266.61028
487.002	163.38707
487.486	153.36346
487.969	198.46682
488.453	191.46175
488.936	216.47007
489.42	239.50851
489.903	169.41026
490.386	82.16873
490.869	267.55942
491.352	136.32127
491.835	146.29297
492.318	163.35797
492.8	194.39001
493.283	216.53367
493.765	176.42059
494.247	190.42981
494.73	227.48445
495.212	191.43971
495.694	199.45539
496.175	220.51122
496.657	264.59865
497.139	199.32971
497.62	257.59329
498.102	176.42733
498.583	145.34896
499.064	153.33417
499.545	233.51148
500.026	255.55341
500.507	216.48065
500.988	309.73455
501.469	207.49986
501.949	238.56613
502.43	294.67532
502.91	344.68519
503.39	274.64974
503.87	305.68528
504.35	329.72675
504.83	310.64133
505.31	333.7583
505.79	364.80691
506.269	358.77046
506.749	426.89943
507.228	501.07322
507.707	566.12775
508.187	572.22689
508.666	591.31423
509.145	597.2434
509.623	712.44744
510.102	755.5778
510.581	790.6339
511.059	796.72698
511.538	928.01086
512.016	1020.98607
512.494	1065.0562
512.972	1195.22785
513.45	1265.24199
513.928	1359.48245
514.406	1491.66618
514.884	1518.88538
515.361	1647.7351
515.839	1799.71493
516.316	1884.00107
516.793	1909.19073
517.27	1965.01051
517.747	2041.37921
518.224	2144.91961
518.701	2195.754
519.178	2189.35038
519.654	2274.10928
520.131	2221.31445
520.607	2239.24981
521.083	2173.85596
521.56	2146.02642
522.036	2116.6597
522.512	2072.20933
522.987	2029.06536
523.463	1917.91613
523.939	1848.06703
524.414	1843.71862
524.89	1764.82902
525.365	1641.51888
525.84	1599.70818
526.315	1511.64583
526.79	1443.33662
527.265	1373.3406
527.74	1273.37022
528.215	1204.167
528.689	1175.97053
529.164	1127.86202
529.638	1071.20656
530.112	1022.94484
530.587	1024.73647
531.061	925.86521
531.534	950.89423
532.008	872.78999
532.482	832.61265
532.956	767.70174
533.429	793.66899
533.903	757.41297
534.376	666.28368
534.849	688.37889
535.322	671.39031
535.795	613.31976
536.268	657.40612
536.741	589.25064
537.213	604.23374
537.686	545.2083
538.158	589.19407
538.631	533.17136
539.103	444.92428
539.575	510.94456
540.047	449.89829
540.519	458.00733
540.991	481.07637
541.463	428.95585
541.934	391.82355
542.406	408.91458
542.877	381.80355
543.348	398.89877
543.82	407.92377
544.291	389.84921
544.762	398.88557
545.233	414.98161
545.703	336.7057
546.174	385.8355
546.645	351.80251
547.115	370.84067
547.585	342.74267
548.056	303.71198
548.526	361.80809
548.996	362.81549
549.466	299.69408
549.935	377.84702
550.405	315.65678
550.875	340.76469
551.344	321.72743
551.814	372.80058
552.283	378.77219
552.752	369.81442
553.221	333.69616
553.69	403.85032
554.159	375.88077
554.628	397.8417
555.096	363.87415
555.565	387.80008
556.033	427.9487
556.502	403.91025
556.97	369.77141
557.438	403.88423
557.906	434.95123
558.374	418.90304
558.842	413.92408
559.31	493.00688
559.777	438.99633
560.245	470.99145
560.712	497.03848
561.18	516.03558
561.647	594.17266
562.114	578.18802
562.581	622.36923
563.048	631.28052
563.514	766.67383
563.981	717.42683
564.448	774.49721
564.914	784.55999
565.381	912.72931
565.847	943.8138
566.313	918.76776
566.779	1048.88565
567.245	1024.91758
567.711	1053.03782
568.176	1180.04389
568.642	1189.37363
569.108	1284.4313
569.573	1283.24829
570.038	1433.11072
570.504	1533.43801
570.969	1543.76943
571.434	1613.4495
571.899	1709.76521
572.363	1778.69465
572.828	1888.78192
573.293	1914.78543
573.757	2057.9264
574.222	2121.8039
574.686	2187.95044
575.15	2242.19463
575.614	2303.12728
576.078	2305.09432
576.542	2397.98096
577.006	2385.93711
577.469	2432.38698
577.933	2438.99397
578.396	2457.19848
578.86	2532.18096
579.323	2536.31317
579.786	2458.76031
580.249	2492.18125
580.712	2472.33824
581.175	2396.385
581.637	2365.97567
582.1	2393.76615
582.563	2352.64277
583.025	2415.32401
583.487	2305.50204
583.95	2212.6454
584.412	2202.56046
584.874	2235.25558
585.336	2048.01788
585.797	2025.63679
586.259	1956.89941
586.721	1914.88351
587.182	1878.78521
587.643	1845.70694
588.105	1826.84804
588.566	1711.31001
589.027	1732.9188
589.488	1700.6386
589.949	1672.82746
590.41	1560.05707
590.87	1540.49011
591.331	1619.40391
591.791	1465.45459
592.252	1417.42376
592.712	1423.51944
593.172	1313.23778
593.632	1393.25633
594.092	1308.1728
594.552	1281.06794
595.011	1162.07519
595.471	1243.14843
595.931	1154.03027
596.39	1168.20895
596.849	1119.06216
597.308	1049.76513
597.768	1111.3268
598.227	1088.09822
598.685	1050.91815
599.144	1057.00771
599.603	966.85678
600.062	999.68253
600.52	1064.91744
600.978	931.82671
601.437	921.73157
601.895	939.63956
602.353	890.61873
602.811	995.82066
603.269	923.828
603.727	891.79741
604.184	942.76722
604.642	999.02035
605.099	922.78906
605.557	981.9674
606.014	913.61329
606.471	947.98722
606.928	962.7438
607.385	926.94867
607.842	957.80113
608.299	1001.90619
608.755	964.93194
609.212	986.78288
609.668	948.75408
610.125	1004.98075
610.581	946.83047
611.037	966.7626
611.493	969.85408
611.949	1018.02749
612.405	1008.62296
612.861	981.83827
613.316	1000.95997
613.772	1052.92857
614.227	1034.0176
614.683	987.67397
615.138	992.8977
615.593	984.86245
616.048	1016.8755
616.503	991.97561
616.958	986.04162
617.412	991.92451
617.867	947.73177
618.321	990.62266
618.776	920.66074
619.23	915.77841
619.684	934.70494
620.138	862.64944
620.592	935.88453
621.046	887.75335
621.5	866.7561
621.954	809.50574
622.407	830.53687
622.861	819.69507
623.314	753.45896
623.768	850.69227
624.221	794.29465
624.674	772.52468
625.127	730.46588
625.58	738.42066
626.033	755.40366
626.485	725.50502
626.938	711.4733
627.39	819.62179
627.843	627.27586
628.295	683.37233
628.747	679.41882
629.199	668.32764
629.651	653.31256
630.103	602.22464
630.555	556.03999
631.006	570.18472
631.458	553.16898
631.909	559.11714
632.361	471.99334
632.812	560.16079
633.263	576.10779
633.714	515.97883
634.165	514.11746
634.616	501.07553
635.067	516.02175
635.518	501.07876
635.968	529.92194
636.419	544.06121
636.869	450.98006
637.319	521.09161
637.769	505.02583
638.219	521.11085
638.669	463.00747
639.119	438.96647
639.569	504.09801
640.019	486.02062
640.468	524.05603
640.918	446.973
641.367	466.95151
641.816	490.98735
642.265	531.11652
642.714	473.98968
643.163	502.0515
643.612	527.17076
644.061	450.8784
644.51	533.09907
644.958	511.01631
645.406	491.06851
645.855	484.07264
646.303	501.04871
646.751	559.15794
647.199	551.11691
647.647	521.09209
648.095	518.0645
648.543	514.93156
648.99	530.15084
649.438	531.10475
649.885	558.25485
650.333	526.90582
650.78	548.19302
651.227	562.23699
651.674	578.1736
652.121	510.13786
652.568	500.11597
653.015	465.05545
653.461	460.00156
653.908	510.05745
654.354	479.04014
654.801	440.94975
655.247	471.92572
655.693	475.13592
656.139	466.0168
656.585	440.96804
657.031	486.03946
657.477	458.91269
657.922	365.77387
658.368	425.96696
658.813	411.86263
659.259	401.90425
659.704	437.95518
660.149	405.86429
660.594	434.94963
661.039	328.70317
661.484	408.89539
661.929	402.87071
662.373	337.79771
662.818	347.80707
663.262	337.76741
663.707	325.78237
664.151	347.79496
664.595	359.81386
665.039	348.81211
665.483	348.83375
665.927	321.70997
666.371	321.71264
666.814	330.73794
667.258	364.82134
667.701	300.60284
668.145	328.77056
668.588	334.78036
669.031	281.62826
669.474	322.72866
669.917	287.59494
670.36	322.75971
670.803	332.75557
671.245	200.39373
671.688	305.70268
672.13	307.65545
672.573	279.6714
673.015	324.73677
673.457	305.62519
673.899	290.66587
674.341	282.64569
674.783	245.56222
675.225	282.66044
675.666	290.67439
676.108	254.52265
676.549	240.53494
676.991	285.59159
677.432	240.45334
677.873	183.40426
678.314	280.63286
678.755	280.65704
679.196	207.45556
679.637	203.46846
680.078	243.54263
680.518	229.50355
680.959	239.54449
681.399	228.54192
681.839	219.51101
682.28	226.53986
682.72	210.46167
683.16	236.56482
683.6	259.56041
684.039	209.41348
684.479	203.48372
684.919	233.52524
685.358	153.37072
685.798	159.40283
686.237	203.46622
686.676	164.35964
687.115	241.54261
687.554	182.42142
687.993	244.51406
688.432	226.4935
688.871	188.41609
689.309	185.42896
689.748	224.44451
690.186	178.40233
690.625	178.40447
691.063	205.47043
691.501	215.51113
691.939	234.56494
692.377	149.35137
692.815	232.54357
693.253	166.3827
693.69	142.3022
694.128	131.31048
694.565	149.34303
695.003	182.45017
695.44	186.42521
695.877	169.38503
696.314	134.27424
696.751	180.39323
697.188	190.42437
697.625	121.26406
698.061	167.38707
698.498	167.3817
698.934	142.32998
699.371	119.27364
699.807	170.38785
700.243	158.36962
700.679	124.26929
701.115	164.36993
701.551	115.26084
701.987	90.1927
702.422	178.4102
702.858	131.30448
703.294	191.42123
703.729	120.2848
704.164	94.21999
704.599	170.36635
705.035	153.33233
705.47	119.28193
705.904	121.27311
706.339	159.35286
706.774	138.31396
707.209	171.38423
707.643	161.37258
708.078	108.25671
708.512	127.31039
708.946	100.23165
709.38	135.31179
709.814	129.28366
710.248	145.34433
710.682	165.3832
711.116	160.37738
711.549	85.2129
711.983	114.25673
712.416	150.34499
712.85	123.29658
713.283	142.32502
713.716	150.35997
714.149	60.13678
714.582	133.29
715.015	87.20898
715.448	126.30903
715.881	80.16818
716.313	116.2638
716.746	124.28553
717.178	84.19805
717.61	117.2902
718.043	78.18889
718.475	102.2418
718.907	131.31754
719.339	90.19969
719.77	88.20652
720.202	66.16242
720.634	101.24234
721.065	90.20733
721.497	95.22733
721.928	69.16556
722.359	68.16282
722.79	59.13903
723.221	85.20643
723.652	74.18438
724.083	94.20622
724.514	127.2829
724.945	100.22824
725.375	95.21696
725.806	89.21428
726.236	98.24445
726.666	140.31902
727.096	92.21969
727.526	143.35727
727.956	75.16804
728.386	128.30413
728.816	102.25498
729.246	115.27635
729.675	38.09137
730.105	87.20771
730.534	92.20897
730.964	63.15409
731.393	108.25711
731.822	117.29073
732.251	97.24015
732.68	135.30147
733.109	103.24751
733.537	104.24797
733.966	125.30311
734.395	98.22061
734.823	55.11916
735.251	64.15066
735.68	75.18071
736.108	71.17359
736.536	87.19845
736.964	104.23402
737.392	79.19286
737.82	59.13795
738.247	72.16758
738.675	79.18093
739.102	79.1925
739.53	76.19156
739.957	94.23761
740.384	67.15763
740.811	36.08807
741.238	89.21314
741.665	158.35757
742.092	27.06107
742.519	67.16308
742.945	137.32219
743.372	129.31058
743.798	52.13065
744.225	65.1503
744.651	53.13002
745.077	69.16826
745.503	70.16498
745.929	131.30712
746.355	83.19657
746.781	67.16082
747.207	122.28081
747.632	139.33402
748.058	115.28169
748.483	78.1748
748.908	78.18989
749.334	94.22584
749.759	106.24555
750.184	95.22316
750.609	121.28667
751.033	85.19272
751.458	96.20733
751.883	86.20591
752.307	84.19258
752.732	114.28353
753.156	59.14216
753.58	86.197
754.005	74.18109
754.429	139.31809
754.853	84.20419
755.277	89.20588
755.7	108.26007
756.124	108.26066
756.548	43.09963
756.971	127.29926
757.394	56.14014
757.818	83.20902
758.241	88.21807
758.664	86.21163
759.087	58.12816
759.51	80.19206
759.933	68.16095
760.356	123.30786
760.778	80.19162
761.201	69.16246
761.623	12.02811
762.046	56.12761
762.468	158.36193
762.89	75.17803
763.312	99.23546
763.734	71.16711
764.156	58.14014
764.578	109.23948
765	85.20146
765.421	72.17972
765.843	38.09766
766.264	73.16793
766.686	34.08268
767.107	43.10211
767.528	94.23532
767.949	20.04994
768.37	95.22907
768.791	97.22492
769.212	90.2209
769.632	70.16003
770.053	32.0821
770.473	103.23987
770.894	-17.04132
771.314	70.16029
771.734	52.11826
772.154	45.11231
772.575	61.13667
772.994	41.09065
773.414	97.2226
773.834	33.0805
774.254	54.12851
774.673	114.26972
775.093	97.23442
775.512	63.15185
775.931	78.19258
776.351	58.14141
776.77	43.10349
777.189	119.27221
777.607	48.11986
778.026	85.20558
778.445	63.15626
778.864	6.01494
779.282	54.12519
779.701	36.08836
780.119	38.09441
780.537	49.11896
780.955	71.17424
781.373	34.08212
781.791	107.2345
782.209	29.06377
782.627	51.13132
783.045	77.16911
783.462	45.11227
783.88	59.14917
784.297	46.11303
784.715	28.07088
785.132	56.13096
785.549	40.09756
785.966	44.10808
786.383	48.11585
786.8	122.27115
787.217	77.17869
787.633	66.16194
788.05	72.16162
788.466	78.17501
788.883	77.19252
789.299	-9.021
789.715	115.26993
790.131	69.1665
790.547	20.04876
790.963	56.1348
791.379	50.12322
791.795	-2.00442
792.21	94.20978
792.626	35.0801
793.041	54.12915
793.457	29.06942
793.872	35.07929
794.287	81.19005
794.702	37.08719
795.117	22.05374
795.532	62.15223
795.947	77.17593
796.362	27.06134
796.776	56.1241
797.191	80.18957
797.605	40.09262
798.02	-2.00476
798.434	89.18994
798.848	93.22407
799.262	62.14913
799.676	90.21129
800.09	29.06945
800.504	45.10538
800.918	17.03796
801.331	-3.00753
801.745	27.05987
802.158	25.06033
802.572	53.12445
802.985	70.16145
803.398	46.10588
803.811	18.04416
804.224	47.11183
804.637	40.09292
805.05	43.09559
805.462	68.1602
805.875	15.03818
806.288	42.09907
806.7	2.00486
807.112	31.069
807.525	20.04723
807.937	37.08915
808.349	20.04843
808.761	65.15513
809.173	58.13654
809.584	37.08817
809.996	23.05472
810.408	17.04339
810.819	24.05496
811.231	92.23801
811.642	103.24619
812.053	98.22989
812.464	58.13254
812.875	107.26404
813.286	79.1983
813.697	58.12698
814.108	43.10113
814.519	125.26689
814.929	39.0962
815.34	17.03965
815.75	73.1808
816.16	10.02395
816.571	16.04039
816.981	48.10792
817.391	54.12449
817.801	49.11837
818.211	48.11013
818.62	43.10077
819.03	53.12503
819.44	32.07973
819.849	40.09654
820.259	3.00741
820.668	97.22972
821.077	35.08522
821.486	55.12586
821.895	48.11273
822.304	9.02324
822.713	34.07738
823.122	20.0484
823.531	-14.03189
823.939	39.09244
824.348	32.0748
824.756	76.1819
825.164	44.10652
825.573	58.14062
825.981	34.08113
826.389	33.08017
826.797	60.14781
827.205	37.08269
827.612	61.14408
828.02	-23.05249
828.428	53.13026
828.835	38.0979
829.243	4.00919
829.65	66.15947
830.057	14.0328
830.464	63.14978
830.871	86.19795
831.278	45.10505
831.685	50.10655
832.092	52.12136
832.499	59.12433
832.905	30.07309
833.312	22.04747
833.718	76.18336
834.124	77.16868
834.531	32.07729
834.937	56.13933
835.343	48.11053
835.749	84.18421
836.155	40.10158
836.561	63.14932
836.966	40.09402
837.372	27.06628
837.777	86.20623
838.183	58.12263
838.588	44.10632
838.993	97.22563
839.399	45.10674
839.804	-6.01429
840.209	67.16649
840.613	37.07896
841.018	18.044
841.423	21.05239
841.828	68.16647
842.232	35.08222
842.637	92.20956
843.041	38.09489
843.445	43.10333
843.849	23.05546
844.253	33.0754
844.657	74.18042
845.061	98.21545
845.465	39.09097
845.869	87.19268
846.272	35.08286
846.676	30.06875
847.079	58.14352
847.483	58.13882
847.886	61.14105
848.289	53.13889
848.692	-27.06643
849.095	44.10128
849.498	85.20309
849.901	37.08085
850.304	69.15771
850.707	45.11039
851.109	49.11887
851.512	78.18426
851.914	10.02471
852.316	103.25201
852.718	63.16126
853.121	47.1111
853.523	64.14212
853.925	30.07683
854.326	51.1239
854.728	53.13213
855.13	28.07085
855.531	61.14032
855.933	27.06191
856.334	59.14291
856.736	60.12997
857.137	93.20794
857.538	7.01725
857.939	80.19242
858.34	52.12046
858.741	54.13582
859.142	39.08972
859.542	56.14392
859.943	63.15036
860.343	15.03632
860.744	67.15671
861.144	84.1979
861.544	31.07308
861.945	41.10084
862.345	82.1907
862.745	54.13028
863.145	59.13241
863.544	22.0541
863.944	66.14918
864.344	27.06394
864.743	68.16157
865.143	81.20171
865.542	55.12049
865.941	74.17637
866.34	23.05246
866.74	49.12753
867.139	35.08206
867.537	-7.01718
867.936	37.08627
868.335	-3.00741
868.734	49.12114
869.132	9.01995
869.531	17.03925
869.929	51.11205
870.327	60.13794
870.726	70.16549
871.124	67.14832
871.522	14.03449
871.92	67.15855
872.318	47.10967
872.715	37.08692
873.113	35.08174
873.511	39.0934
873.908	32.07959
874.306	93.22306
874.703	39.09315
875.1	47.11419
875.497	37.08505
875.894	101.24067
876.291	77.1813
876.688	54.13455
877.085	77.17508
877.482	39.09415
877.878	76.17759
878.275	47.11555
878.671	16.03315
879.068	76.17521
879.464	64.14814
879.86	4.00916
880.256	3.00706
880.652	20.04929
881.048	40.09442
881.444	43.09678
881.84	14.03446
882.236	30.07282
882.631	64.1516
883.027	75.17274
883.422	18.04433
883.817	40.09789
884.213	30.07456
884.608	56.13516
885.003	42.09652
885.398	40.09672
885.793	32.07723
886.188	13.03126
886.582	49.11994
886.977	47.10626
887.371	32.07761
887.766	2.00487
888.16	27.06392
888.554	66.15519
888.949	59.14226
889.343	50.11665
889.737	46.11991
890.131	56.13516
890.525	56.13898
890.918	59.14259
891.312	34.07742
891.706	8.02037
892.099	79.19193
892.492	53.10815
892.886	25.05891
893.279	8.01974
893.672	49.12118
894.065	51.12307
894.458	33.07927
894.851	86.19945
895.244	-28.06987
895.637	64.1482
896.029	74.17434
896.422	10.02334
896.814	38.09074
897.206	75.17322
897.599	84.19813
897.991	62.1447
898.383	69.15619
898.775	109.23555
899.167	35.07981
899.559	29.07027
899.951	65.14491
900.342	26.0633
900.734	73.17815
901.125	22.05557
901.517	16.03809
901.908	34.07717
902.299	45.10624
902.69	41.0939
903.082	61.14156
903.473	96.22256
903.863	21.05157
904.254	68.1527
904.645	35.08276
905.036	75.17748
905.426	35.0756
905.817	29.06815
906.207	-21.0481
906.597	71.16032
906.987	37.09184
907.378	59.14436
907.768	54.13835
908.158	61.14217
908.547	38.09636
908.937	4.00984
909.327	49.11398
909.717	38.09144
910.106	29.06677
910.495	19.04531
910.885	21.05165
911.274	40.09618
911.663	41.09935
912.052	-7.01657
912.441	45.11129
912.83	37.08081
913.219	72.18031
913.608	78.18341
913.997	28.06857
914.385	47.10777
914.774	18.04224
915.162	104.23824
915.55	67.1537
915.939	61.14925
916.327	41.0977
916.715	92.22798
917.103	31.07217
917.491	82.19296
917.878	44.10374
918.266	58.14415
918.654	84.20732
919.041	76.19334
919.429	-14.03207
919.816	62.15071
920.203	56.13168
920.591	52.12422
920.978	80.18701
921.365	43.10953
921.752	-12.0273
922.139	46.09534
922.525	41.09511
922.912	36.08415
923.299	44.10547
923.685	5.01256
924.072	-6.01303
924.458	42.10072
924.844	35.08356
925.231	8.0178
925.617	48.11908
926.003	76.1855
926.389	33.08032
926.774	25.06101
927.16	59.14027
927.546	53.13261
927.931	22.05268
928.317	7.01543
928.702	38.08586
929.088	72.16659
929.473	66.16272
929.858	53.12547
930.243	52.12113
930.628	20.04756
931.013	68.16176
931.398	0
931.783	33.0831
932.167	86.20293
932.552	54.12954
932.937	34.08079
933.321	35.08554
933.705	-3.00726
934.09	13.03111
934.474	56.12586
934.858	37.09301
935.242	0
935.626	64.15836
936.009	66.17104
936.393	68.16863
936.777	44.10943
937.16	59.14917
937.544	46.10198
937.927	45.11076
938.311	27.06303
938.694	64.16356
939.077	83.18925
939.46	7.01624
939.843	23.04465
940.226	35.08621
940.609	67.14863
940.991	18.04407
941.374	45.10649
941.757	75.17604
942.139	31.06711
942.522	38.08558
942.904	69.15854
943.286	54.13141
943.668	64.16132
944.05	45.1067
944.432	42.09926
944.814	13.03062
945.196	22.05225
945.578	54.12534
945.959	-12.02695
946.341	45.10389
946.722	11.02475
947.104	46.10554
947.485	66.14656
947.866	31.07613
948.247	74.18082
948.628	-16.03712
949.009	-19.04747
949.39	32.07624
949.771	17.03708
950.152	21.04985
950.532	38.09282
950.913	48.11084
951.293	54.1424
951.674	69.15949
952.054	66.16001
952.434	43.10294
952.814	22.04977
953.194	34.08481
953.574	64.15008
953.954	15.03395
954.334	61.14736
954.714	29.06852
955.093	35.08279
955.473	65.1578
955.853	60.14955
956.232	42.11135
956.611	13.02965
956.99	47.11423
957.37	47.11449
957.749	-9.02045
958.128	16.0393
958.506	33.08299
958.885	23.05588
959.264	74.1759
959.643	103.22316
960.021	57.13666
960.4	19.04132
960.778	70.16209
961.156	15.03622
961.535	32.07077
961.913	108.24053
962.291	43.10794
962.669	47.11534
963.047	62.15297
963.424	62.15431
963.802	27.06422
964.18	-3.00724
964.557	76.16533
964.935	46.10427
965.312	40.10129
965.69	32.07644
966.067	30.06944
966.444	14.03265
966.821	29.0724
967.198	79.1802
967.575	57.13322
967.952	71.15881
968.329	79.18471
968.705	110.22318
969.082	78.1947
969.458	18.04232
969.835	58.13516
970.211	61.15229
970.587	43.10325
970.963	15.03692
971.339	0
971.715	51.12265
972.091	23.05458
972.467	4.00951
972.843	28.06794
973.219	83.18742
973.594	-3.00764
973.97	38.08425
974.345	21.04869
974.721	14.03217
975.096	33.07755
975.471	99.22145
975.846	70.15913
976.221	44.10784
976.596	88.2045
976.971	76.18072
977.346	43.09491
977.72	-4.00985
978.095	25.06246
978.469	96.2162
978.844	30.07224
979.218	41.09601
979.593	51.11634
979.967	4.00923
980.341	47.10405
980.715	44.10704
981.089	26.06275
981.463	-10.02222
981.837	45.10707
982.21	39.08432
982.584	70.16228
982.957	34.08243
983.331	43.09575
983.704	72.17147
984.078	9.02141
984.451	-1.00237
984.824	30.0709
985.197	21.04833
985.57	48.11366
985.943	30.06991
986.316	24.05579
986.688	34.0786
987.061	76.17017
987.434	88.22276
987.806	22.05058
988.179	21.04746
988.551	64.15487
988.923	26.0613
989.295	48.11449
989.667	40.09332
990.039	77.18517
990.411	9.01961
990.783	23.05007
991.155	-13.03048
991.527	8.01863
991.898	5.01214
992.27	50.12008
992.641	49.11721
993.012	23.05053
993.384	47.10673
993.755	39.09649
994.126	82.18965
994.497	38.08973
994.868	74.15927
995.239	49.1134
995.61	29.07051
995.98	-12.02823
996.351	51.12223
996.722	79.17642
997.092	0
997.462	84.18902
997.833	39.0877
998.203	22.05052
998.573	16.03869
998.943	85.19044
999.313	36.08343
999.683	49.11313
1000.053	8.01727
1000.423	49.11313
1000.792	-43.10778
1001.162	22.05181
1001.531	30.07139
1001.901	30.07164
1002.27	18.03771
1002.639	33.08065
1003.009	8.0183
1003.378	43.10615
1003.747	56.12539
1004.116	14.03223
1004.485	38.08705
1004.853	1.00242
1005.222	-37.08928
1005.591	78.17537
1005.959	44.09519
1006.328	11.02391
1006.696	32.0738
1007.064	35.08388
1007.433	-2.0048
1007.801	43.09935
1008.169	10.02415
1008.537	107.22231
1008.905	44.09889
1009.273	30.07071
1009.64	39.09058
1010.008	49.11146
1010.375	43.09809
1010.743	45.09579
1011.11	114.2603
1011.478	39.09354
1011.845	38.08502
1012.212	48.10504
1012.579	33.07809
1012.946	35.07884
1013.313	57.12818
1013.68	79.16692
1014.047	21.04813
1014.414	4.0091
1014.78	36.08649
1015.147	19.04364
1015.513	69.15854
1015.88	71.17236
1016.246	55.12814
1016.612	40.08661
1016.978	72.16963
1017.344	72.17035
1017.71	83.19101
1018.076	55.12226
1018.442	47.11679
1018.808	104.24968
1019.174	10.0241
1019.539	-12.02544
1019.905	51.11568
1020.27	14.03328
1020.636	21.04769
1021.001	53.12178
1021.366	25.05806
1021.731	67.16776
1022.096	38.09331
1022.461	52.11797
1022.826	65.14863
1023.191	12.03056
1023.556	45.10016
1023.92	-1.00235
1024.285	49.11313
1024.649	16.03753
1025.014	-2.00473
1025.378	40.09745
1025.742	14.03324
1026.107	90.19137
1026.471	72.15843
1026.835	55.13061
1027.199	15.03489
1027.562	43.09436
1027.926	25.05841
1028.29	47.11444
1028.654	31.06791
1029.017	80.18796
1029.381	44.10108
1029.744	1.00248
1030.107	116.25856
1030.471	50.11523
1030.834	27.05772
1031.197	77.17614
1031.56	36.08084
1031.923	54.13455
1032.286	61.13639
1032.648	9.02041
1033.011	68.15075
1033.374	32.07115
1033.736	-10.02565
1034.099	48.11221
1034.461	25.06151
1034.823	-4.00971
1035.185	15.0361
1035.548	77.17947
1035.91	40.09156
1036.272	86.18629
1036.634	59.13784
1036.995	27.06032
1037.357	94.21844
1037.719	54.12588
1038.08	91.20674
1038.442	35.07945
1038.803	5.01137
1039.165	25.06051
1039.526	34.07895
1039.887	41.09383
1040.248	74.17732
1040.609	76.17682
1040.97	0
1041.331	59.14436
1041.692	47.10699
1042.053	37.07986
1042.413	57.12555
1042.774	94.21749
1043.134	68.15176
1043.495	46.11098
1043.855	94.21904
1044.215	51.1205
1044.576	40.0924
1044.936	55.11916
1045.296	82.19491
1045.656	18.04204
1046.016	57.13049
1046.375	16.03739
1046.735	69.15154
1047.095	54.12061
1047.454	56.11066
1047.814	36.0831
1048.173	51.11446
1048.533	41.08966
1048.892	7.0163
1049.251	17.04084
1049.61	30.07115
1049.969	78.17386
1050.328	61.12515
1050.687	16.03723
1051.046	13.03037
1051.405	-5.01192
1051.763	68.15044
1052.122	26.06235
1052.48	37.08742
1052.839	78.17753
1053.197	17.0384
1053.555	10.02135
1053.914	17.0399
1054.272	7.01593
1054.63	20.04725
1054.988	44.10112
1055.345	13.02632
1055.703	73.16759
1056.061	82.20424
1056.419	53.13428
1056.776	0
1057.134	-23.05051
1057.491	74.17705
1057.848	52.12318
1058.206	4.0089
1058.563	12.02525
1058.92	52.1135
1059.277	66.15543
1059.634	23.05109
1059.991	59.13524
1060.348	2.00437
1060.704	94.21775
1061.061	52.11259
1061.418	-7.01646
1061.774	65.15334
1062.131	41.10642
1062.487	16.03569
1062.843	47.1123
1063.199	48.11458
1063.555	33.07397
1063.911	-18.04387
1064.267	52.10058
1064.623	40.09438
1064.979	-29.06398
1065.335	52.11744
1065.691	-8.01822
1066.046	13.02726
1066.402	30.06465
1066.757	43.10439
1067.112	50.11683
1067.468	50.11454
1067.823	23.05191
1068.178	33.07597
1068.533	50.11587
1068.888	61.13802
1069.243	28.0665
1069.598	-9.021
1069.952	69.15103
1070.307	29.0695
1070.662	105.23903
1071.016	57.12339
1071.371	60.13052
1071.725	10.02279
1072.079	55.12667
1072.434	37.08664
1072.788	23.05179
1073.142	83.19452
1073.496	14.03185
1073.85	92.20099
1074.203	52.12079
1074.557	64.16591
1074.911	83.18627
1075.265	77.16946
1075.618	47.11002
1075.971	53.12012
1076.325	47.11581
1076.678	-1.0022
1077.031	-51.1096
1077.385	34.07097
1077.738	15.03235
1078.091	50.10946
1078.444	27.05917
1078.796	41.09721
1079.149	43.1029
1079.502	48.10925
1079.855	44.09816
1080.207	67.15683
1080.56	5.01262
1080.912	65.15054
1081.264	72.16586
1081.617	42.09856
1081.969	20.04905
1082.321	-2.0047
1082.673	22.049
1083.025	39.08788
1083.377	318.6729
1083.728	2.00446
1084.08	24.05729
1084.432	-7.01624
1084.783	23.05051
1085.135	50.12086
1085.486	57.12497
1085.838	62.14652
1086.189	49.11497
1086.54	41.09318
1086.891	51.12645
1087.242	116.27212
1087.593	36.0826
1087.944	77.16668
1088.295	69.14809
1088.646	80.1884
1088.996	32.07454
1089.347	25.05859
1089.698	34.07801
1090.048	15.03745
1090.398	43.0944
1090.749	11.02507
1091.099	34.08348
1091.449	59.14135
1091.799	21.05067
1092.149	28.06676
1092.499	16.03762
1092.849	41.10047
1093.199	60.14246
1093.548	79.18275
1093.898	19.04564
1094.248	11.02705
1094.597	-4.01006
1094.947	52.13411
1095.296	57.13557
1095.645	32.07994
1095.994	62.14197
1096.343	17.04149
1096.692	50.12891
1097.041	47.12517
1097.39	14.03369
1097.739	0
1098.088	44.11292
1098.437	46.11847
1098.785	25.06475
1099.134	3.0076
1099.482	51.13622
1099.83	43.10906
1100.179	47.12064
1100.527	-16.04095
1100.875	44.11328
1101.223	39.10088
1101.571	2.00537
1101.919	9.02339
1102.267	2.00555
1102.615	10.03209
1102.962	3.00962
1103.31	5.01606
1103.658	-12.03853
