Data from N3 R3 sample 2_Subt2__5__11-23-01-792.txt Node

Date: Thu Sep 18 11:23:01 PDT 2025
User: uwsun
Spectrometer: HDX01956
Trigger mode: 0
Integration Time (sec): 5.000000E-1
Scans to average: 1
Nonlinearity correction enabled: true
Boxcar width: 0
Storing dark spectrum: false
XAxis mode: Wavelengths
Number of Pixels in Spectrum: 2068
>>>>>Begin Spectral Data<<<<<
194.03	25.07231
194.578	35.11333
195.127	38.12128
195.676	37.11853
196.225	79.20821
196.773	64.17709
197.321	65.18017
197.87	142.36302
198.418	172.44064
198.966	181.47348
199.513	171.43262
200.061	142.36085
200.609	147.38716
201.156	173.37674
201.704	129.32544
202.251	171.45204
202.798	146.37796
203.345	172.42403
203.892	156.39348
204.438	165.38985
204.985	162.38388
205.532	138.36291
206.078	104.25583
206.624	207.51415
207.17	196.45582
207.716	210.50949
208.262	195.38307
208.808	203.50532
209.354	205.50212
209.899	163.40871
210.445	197.4886
210.99	195.47213
211.535	217.50515
212.08	188.43307
212.625	170.42249
213.17	188.47554
213.715	197.44646
214.259	206.47585
214.804	150.36707
215.348	211.48226
215.892	206.49491
216.436	135.30856
216.98	157.34364
217.524	167.39794
218.068	207.5164
218.612	207.52051
219.155	181.42484
219.698	152.36074
220.242	165.40445
220.785	156.36537
221.328	124.3066
221.871	185.46703
222.414	159.39061
222.956	115.27551
223.499	135.30035
224.041	153.34731
224.583	127.26739
225.126	171.37127
225.668	142.34349
226.21	192.47994
226.751	169.37334
227.293	122.27565
227.835	176.42685
228.376	173.38872
228.918	162.39953
229.459	141.35023
230	138.33042
230.541	130.29815
231.082	186.4472
231.622	114.25778
232.163	150.35915
232.704	157.39025
233.244	148.36487
233.784	158.37931
234.324	177.39428
234.864	111.25095
235.404	134.31397
235.944	119.27975
236.484	206.50541
237.023	170.39613
237.563	137.31742
238.102	172.40221
238.641	131.32776
239.18	169.3928
239.719	99.24833
240.258	182.40331
240.797	141.33521
241.335	172.41323
241.874	214.40859
242.412	220.52452
242.95	165.39544
243.488	141.31474
244.026	204.46692
244.564	182.36977
245.102	180.40337
245.64	145.3438
246.177	145.32005
246.715	216.50906
247.252	143.3225
247.789	218.39463
248.326	146.3501
248.863	177.38528
249.4	168.37694
249.936	228.46746
250.473	204.47479
251.009	148.33671
251.546	236.51534
252.082	116.25052
252.618	160.35516
253.154	186.44194
253.69	224.49141
254.226	185.43744
254.761	196.43307
255.297	181.39014
255.832	195.45716
256.367	162.37735
256.903	241.52325
257.438	212.48757
257.972	137.30404
258.507	165.37485
259.042	186.39928
259.576	249.53762
260.111	155.35313
260.645	216.45727
261.179	160.3721
261.713	199.43887
262.247	184.41437
262.781	131.27606
263.315	139.33541
263.849	161.39991
264.382	182.41272
264.915	167.39198
265.449	156.37806
265.982	167.37585
266.515	204.49252
267.048	235.4865
267.58	177.37709
268.113	161.34554
268.646	144.3503
269.178	184.40588
269.71	213.46305
270.243	221.50267
270.775	217.54742
271.307	144.3403
271.838	205.47571
272.37	165.40055
272.902	150.33766
273.433	204.44547
273.965	187.44833
274.496	147.36207
275.027	150.37143
275.558	221.52963
276.089	178.44027
276.62	131.32907
277.15	191.46297
277.681	158.33742
278.211	187.44986
278.741	213.46502
279.272	184.4164
279.802	167.41148
280.332	192.44757
280.861	175.4138
281.391	207.46282
281.921	155.36779
282.45	189.46225
282.98	188.48381
283.509	220.49178
284.038	212.47722
284.567	206.47244
285.096	202.48309
285.625	173.38537
286.153	233.54602
286.682	199.45117
287.21	189.44396
287.739	215.49911
288.267	214.51276
288.795	185.47734
289.323	199.46124
289.851	202.46884
290.378	181.39901
290.906	184.44575
291.433	177.43692
291.961	227.50921
292.488	211.5147
293.015	235.54402
293.542	245.61715
294.069	239.5806
294.596	184.44441
295.122	219.51683
295.649	220.47247
296.175	208.49268
296.702	242.57984
297.228	204.48377
297.754	246.54104
298.28	270.60528
298.806	190.45283
299.332	209.4615
299.857	234.52178
300.383	192.47699
300.908	233.56263
301.433	250.59992
301.958	208.46995
302.483	198.48435
303.008	268.65043
303.533	192.48928
304.058	208.47761
304.582	212.4938
305.107	190.48896
305.631	191.42846
306.155	193.44503
306.679	242.55811
307.203	246.55942
307.727	192.45039
308.251	236.57149
308.775	276.65499
309.298	235.55652
309.822	206.51046
310.345	260.60774
310.868	238.56373
311.391	237.57294
311.914	227.5595
312.437	272.60625
312.96	250.57702
313.482	237.54648
314.005	194.47879
314.527	174.44872
315.049	248.61541
315.571	306.66761
316.093	294.70763
316.615	273.63849
317.137	260.55427
317.659	278.65617
318.18	256.59651
318.702	289.65919
319.223	303.59749
319.744	304.66381
320.265	293.69465
320.786	277.67592
321.307	292.70148
321.828	248.5491
322.348	289.66211
322.869	370.84509
323.389	605.06635
323.909	263.58777
324.43	316.73078
324.95	309.686
325.47	252.61344
325.989	312.71809
326.509	349.75254
327.029	369.80828
327.548	305.67121
328.067	320.75294
328.587	362.87356
329.106	302.66084
329.625	341.85675
330.144	316.71305
330.662	383.8612
331.181	347.78986
331.7	348.77883
332.218	378.7848
332.736	370.83147
333.255	388.87441
333.773	377.85292
334.291	434.02882
334.808	384.82853
335.326	379.81512
335.844	389.87648
336.361	452.10155
336.879	397.89377
337.396	407.94695
337.913	381.84441
338.43	408.87691
338.947	432.9803
339.464	399.82155
339.981	394.89373
340.497	422.98745
341.014	429.99419
341.53	417.8949
342.046	477.12246
342.562	489.1436
343.078	441.98427
343.594	438.98786
344.11	503.12707
344.626	478.13636
345.141	480.03059
345.657	519.09269
346.172	481.09095
346.687	481.03518
347.202	519.10466
347.717	553.22097
348.232	525.21976
348.747	533.14385
349.261	521.06417
349.776	519.15153
350.29	582.34623
350.805	564.28958
351.319	563.20782
351.833	574.21795
352.347	540.18453
352.861	581.25559
353.374	547.15073
353.888	612.37251
354.401	560.17631
354.915	575.19698
355.428	601.37785
355.941	602.28411
356.454	602.22297
356.967	559.20438
357.48	600.24384
357.993	602.35945
358.505	590.31932
359.018	618.38654
359.53	624.39371
360.042	680.36911
360.554	687.51909
361.066	584.30857
361.578	716.40997
362.09	659.42073
362.602	647.30706
363.113	705.48947
363.625	705.43287
364.136	653.29507
364.647	664.42632
365.158	689.44228
365.669	677.45958
366.18	679.44074
366.691	633.25768
367.201	741.58199
367.712	730.4888
368.222	724.48791
368.733	721.39354
369.243	781.53492
369.753	716.47409
370.263	807.71409
370.773	712.55379
371.282	781.64803
371.792	827.67198
372.301	755.61955
372.811	842.94257
373.32	852.58946
373.829	832.70934
374.338	899.70503
374.847	948.85443
375.356	871.77388
375.865	983.75624
376.373	1014.92027
376.882	1005.15162
377.39	1015.05184
377.898	1077.19223
378.407	1201.16652
378.915	1220.09682
379.423	1171.18619
379.93	1344.40406
380.438	1330.48215
380.946	1385.45311
381.453	1395.55991
381.96	1500.6653
382.468	1585.70151
382.975	1634.89874
383.482	1734.66106
383.989	1689.14201
384.495	1884.93132
385.002	1889.53565
385.509	1989.09549
386.015	2206.57089
386.521	2331.0563
387.028	2324.04182
387.534	2374.78388
388.04	2552.40458
388.546	2528.95709
389.051	2686.9599
389.557	2855.22456
390.063	3031.07793
390.568	3211.42455
391.073	3301.93247
391.578	3400.49217
392.084	3608.98218
392.589	3605.67913
393.093	3903.19142
393.598	4241.76176
394.103	4638.7873
394.607	5140.59129
395.112	5376.6176
395.616	5854.28875
396.12	6160.77698
396.624	6760.85361
397.128	7430.05465
397.632	8348.58239
398.136	9050.55048
398.639	9496.47964
399.143	10403.91393
399.646	11869.26205
400.15	13132.19765
400.653	14652.77253
401.156	16474.67749
401.659	19282.11832
402.162	23510.91746
402.664	30850.03543
403.167	42795.63797
403.67	61007.07372
404.172	63919.58413
404.674	63858.43483
405.176	63738.15102
405.678	63977.72923
406.18	64011.81569
406.682	63863.44694
407.184	63926.60148
407.686	63841.39382
408.187	64025.8516
408.688	63892.51763
409.19	55238.77493
409.691	44051.90853
410.192	37684.20652
410.693	32450.23739
411.194	29385.33846
411.694	28197.43224
412.195	26027.17933
412.696	23489.26748
413.196	21953.02041
413.696	21440.05374
414.196	21866.48195
414.696	21609.57014
415.196	20790.45131
415.696	18934.55481
416.196	15162.1924
416.695	11732.60407
417.195	9785.17422
417.694	9489.48977
418.194	8860.11219
418.693	8332.47295
419.192	7984.24499
419.691	7895.12233
420.19	7750.17278
420.688	7472.15499
421.187	7075.19166
421.685	6751.76011
422.184	6234.94541
422.682	5291.82963
423.18	4429.65454
423.678	3917.86191
424.176	3651.95389
424.674	3522.83899
425.172	3310.2221
425.669	3107.50799
426.167	2989.18192
426.664	2649.04628
427.161	2470.07867
427.659	2310.29214
428.156	2231.67
428.652	2032.31972
429.149	1953.08898
429.646	1883.69557
430.143	1822.93612
430.639	1711.79767
431.135	1565.85461
431.632	1557.53115
432.128	1404.53104
432.624	1378.73578
433.12	1306.2632
433.616	1271.11617
434.111	1170.20202
434.607	1168.21966
435.103	1160.8794
435.598	1096.79315
436.093	1042.97434
436.588	1036.88872
437.083	960.77368
437.578	947.82325
438.073	873.86882
438.568	887.85635
439.062	836.50955
439.557	774.56507
440.051	761.47659
440.546	706.40394
441.04	720.51754
441.534	712.58324
442.028	760.59282
442.522	764.59276
443.015	659.24127
443.509	666.43799
444.002	666.44719
444.496	669.27249
444.989	630.36598
445.482	612.36126
445.975	670.3669
446.468	628.20393
446.961	687.30299
447.454	605.21035
447.947	606.29712
448.439	605.33371
448.931	619.26642
449.424	610.39767
449.916	637.38616
450.408	588.20535
450.9	572.25482
451.392	539.24838
451.884	550.14206
452.375	533.20223
452.867	477.98435
453.358	521.08487
453.849	530.02307
454.341	532.08791
454.832	471.93314
455.323	538.22019
455.814	465.9794
456.304	506.06737
456.795	510.05981
457.285	431.87825
457.776	480.00134
458.266	438.96404
458.756	420.92288
459.247	478.04964
459.737	464.03464
460.226	458.96232
460.716	444.98298
461.206	437.9693
461.695	386.89474
462.185	424.93558
462.674	423.89721
463.163	460.94906
463.653	406.80267
464.142	435.9781
464.63	348.79581
465.119	426.91875
465.608	389.85244
466.096	373.75696
466.585	391.83333
467.073	355.78811
467.561	327.74284
468.05	331.72016
468.538	361.82968
469.026	345.77132
469.513	335.66556
470.001	395.84587
470.489	317.71487
470.976	364.79884
471.463	337.79339
471.951	344.80688
472.438	328.72833
472.925	354.78409
473.412	286.66194
473.899	316.68651
474.385	270.63284
474.872	309.68372
475.359	332.77234
475.845	313.61256
476.331	212.43662
476.817	271.63108
477.303	266.5919
477.789	212.48854
478.275	215.51623
478.761	253.57638
479.247	256.54717
479.732	248.59512
480.218	275.69047
480.703	225.5351
481.188	232.48384
481.673	241.53305
482.158	240.49896
482.643	208.51503
483.128	264.58989
483.612	287.65251
484.097	212.49458
484.581	221.49392
485.066	284.66435
485.55	266.56287
486.034	245.51015
486.518	247.56885
487.002	186.43972
487.486	159.37728
487.969	178.4213
488.453	123.30117
488.936	198.43255
489.42	190.40857
489.903	169.41026
490.386	124.25274
490.869	229.48384
491.352	156.36709
491.835	156.31232
492.318	155.34098
492.8	173.34948
493.283	186.46208
493.765	123.29692
494.247	201.45367
494.73	161.34852
495.212	156.36165
495.694	201.45978
496.175	175.41027
496.657	220.50334
497.139	115.19497
497.62	166.39016
498.102	171.41558
498.583	107.25937
499.064	161.35105
499.545	137.30682
500.026	186.4096
500.507	122.27677
500.988	188.45732
501.469	96.23667
501.949	162.39098
502.43	180.4229
502.91	200.41172
503.39	141.34293
503.87	168.38808
504.35	111.25636
504.83	125.26932
505.31	97.23141
505.79	109.25445
506.269	138.31103
506.749	114.25715
507.228	162.37303
507.707	175.38093
508.187	159.37189
508.666	147.35739
509.145	113.26098
509.623	127.29285
510.102	130.30948
510.581	163.38468
511.059	111.27602
511.538	103.26254
512.016	129.30444
512.494	108.25652
512.972	114.26962
513.45	129.29639
513.928	86.20764
514.406	126.30456
514.884	106.27033
515.361	82.19506
515.839	129.29283
516.316	152.36241
516.793	95.23761
517.27	112.26612
517.747	98.24913
518.224	78.17882
518.701	92.20184
519.178	105.26005
519.654	106.24837
520.131	108.26459
520.607	111.26795
521.083	51.11563
521.56	71.16672
522.036	63.13702
522.512	129.31387
522.987	152.35935
523.463	69.16303
523.939	151.36794
524.414	100.22677
524.89	140.32854
525.365	97.21733
525.84	80.19133
526.315	117.27998
526.79	100.22364
527.265	148.33589
527.74	42.1021
528.215	37.08658
528.689	55.12064
529.164	107.22707
529.638	85.2139
530.112	62.14556
530.587	116.24536
531.061	101.24224
531.534	77.18468
532.008	98.23635
532.482	80.18304
532.956	59.15018
533.429	99.24025
533.903	90.19595
534.376	48.10637
534.849	32.07392
535.322	105.2453
535.795	70.16844
536.268	58.1403
536.741	98.23061
537.213	89.20326
537.686	69.16832
538.158	97.21903
538.631	89.21411
539.103	93.20871
539.575	8.01668
540.047	91.19716
540.519	140.32906
540.991	111.26775
541.463	68.16313
541.934	80.18002
542.406	71.17016
542.877	78.17544
543.348	107.25595
543.82	91.21975
544.291	83.19292
544.762	32.07659
545.233	130.32509
545.703	40.08949
546.174	87.20077
546.645	85.20472
547.115	114.27243
547.585	69.15854
548.056	102.24906
548.526	121.28423
548.996	80.1906
549.466	53.129
549.935	99.23509
550.405	89.19488
550.875	85.20115
551.344	51.1219
551.814	92.2099
552.283	131.28261
552.752	105.24453
553.221	153.33262
553.69	102.22943
554.159	146.35821
554.628	82.1858
555.096	103.26022
555.565	86.18979
556.033	158.37064
556.502	104.2492
556.97	100.22151
557.438	41.0968
557.906	76.17912
558.374	116.26679
558.842	110.26147
559.31	118.26193
559.777	95.23106
560.245	8.01858
560.712	40.09218
561.18	97.21384
561.647	69.15319
562.114	85.19436
562.581	56.13801
563.048	67.15363
563.514	112.27866
563.981	90.20542
564.448	78.17616
564.914	62.14419
565.381	106.24067
565.847	83.19276
566.313	11.02581
566.779	95.21285
567.245	7.01641
567.711	47.1129
568.176	13.02953
568.642	49.12362
569.108	16.03966
569.573	-2.00469
570.038	29.0613
570.504	56.12699
570.969	54.13391
571.434	42.09393
571.899	86.20308
572.363	30.06938
572.828	75.17232
573.293	59.13556
573.757	66.15337
574.222	48.10819
574.686	121.27567
575.15	97.23221
575.614	117.27387
576.078	70.16427
576.542	42.09633
577.006	44.10006
577.469	72.17672
577.933	87.19781
578.396	38.0906
578.86	87.20405
579.323	78.18761
579.786	82.17785
580.249	115.26877
580.712	40.09767
581.175	51.12594
581.637	81.18447
582.1	70.15279
582.563	45.09633
583.025	32.07834
583.487	88.18108
583.95	43.09289
584.412	90.18878
584.874	92.22322
585.336	114.26805
585.797	108.23354
586.259	67.15683
586.721	60.14103
587.182	73.1682
587.643	107.24151
588.105	87.20477
588.566	95.19755
589.027	163.39198
589.488	111.25289
589.949	127.30483
590.41	114.22453
590.87	182.40768
591.331	148.31894
591.791	82.18957
592.252	149.34193
592.712	140.33072
593.172	121.27278
593.632	171.37301
594.092	124.27364
594.552	143.30572
595.011	94.21438
595.471	204.45056
595.931	195.42969
596.39	192.45004
596.849	155.35499
597.308	225.46413
597.768	227.56834
598.227	210.49068
598.685	211.46748
599.144	244.55577
599.603	221.50125
600.062	271.54745
600.52	273.59196
600.978	293.66183
601.437	340.73109
601.895	361.72692
602.353	312.65125
602.811	435.90897
603.269	405.89983
603.727	455.00846
604.184	463.97176
604.642	441.00492
605.099	511.08761
605.557	537.18609
606.014	585.12108
606.471	590.33449
606.928	650.2708
607.385	691.52858
607.842	702.4031
608.299	775.55601
608.755	766.6047
609.212	794.50521
609.668	832.58351
610.125	870.76984
610.581	912.77888
611.037	914.68937
611.493	929.79454
611.949	1011.01678
612.405	1058.67983
612.861	1019.89181
613.316	1104.10989
613.772	1137.03922
614.227	1171.21195
614.683	1204.92488
615.138	1140.10255
615.593	1225.18311
616.048	1215.13194
616.503	1192.26539
616.958	1211.3832
617.412	1291.3295
617.867	1248.11111
618.321	1285.93767
618.776	1314.13761
619.23	1242.22771
619.684	1252.10426
620.138	1224.13943
620.592	1209.28393
621.046	1308.33344
621.5	1178.21927
621.954	1227.05031
622.407	1177.99426
622.861	1222.3024
623.314	1173.04723
623.768	1152.1332
624.221	1113.65668
624.674	1123.03663
625.127	1103.02551
625.58	1092.92603
626.033	1075.84239
626.485	1055.0291
626.938	1043.00117
627.39	1076.00291
627.843	1017.88809
628.295	992.85299
628.747	966.89147
629.199	900.69326
629.651	952.78339
630.103	919.73626
630.555	894.53499
631.006	809.59301
631.458	843.67016
631.909	816.53495
632.361	791.54949
632.812	780.53835
633.263	803.46128
633.714	769.37029
634.165	767.57885
634.616	711.4582
635.067	774.44155
635.518	763.5516
635.968	707.17337
636.419	730.36214
636.869	702.44523
637.319	737.47145
637.769	640.26067
638.219	702.43875
638.669	613.29205
639.119	585.24915
639.569	642.35829
640.019	695.39326
640.468	643.26095
640.918	605.27349
641.367	645.2619
641.816	645.25177
642.265	680.38356
642.714	607.23062
643.163	665.34348
643.612	660.42623
644.061	621.16154
644.51	666.33289
644.958	637.23034
645.406	647.36202
645.855	628.35064
646.303	609.24481
646.751	617.26176
647.199	603.20801
647.647	631.29101
648.095	642.28301
648.543	638.1185
648.99	645.36673
649.438	602.23298
649.885	682.49517
650.333	631.05499
650.78	627.34242
651.227	680.4601
651.674	611.2314
652.121	673.45157
652.568	650.4064
653.015	560.24701
653.461	638.33746
653.908	613.24224
654.354	633.33018
654.801	588.22707
655.247	604.14836
655.693	596.39281
656.139	587.24855
656.585	630.3288
657.031	604.2594
657.477	621.18906
657.922	612.22579
658.368	621.35474
658.813	568.14907
659.259	662.41104
659.704	630.31892
660.149	550.13495
660.594	641.33932
661.039	564.14565
661.484	622.30158
661.929	635.30507
662.373	539.2237
662.818	575.2749
663.262	570.23468
663.707	571.30795
664.151	553.21232
664.595	569.23277
665.039	579.28751
665.483	585.33577
665.927	580.21142
666.371	608.26719
666.814	579.22617
667.258	651.38066
667.701	644.1901
668.145	644.41712
668.588	667.45397
669.031	626.29782
669.474	666.3993
669.917	650.23659
670.36	717.5591
670.803	693.45961
671.245	618.09585
671.688	687.45963
672.13	684.33928
672.573	725.59385
673.015	740.53858
673.457	709.31929
673.899	738.53986
674.341	708.47981
674.783	741.52869
675.225	730.5568
675.666	710.5115
676.108	743.3594
676.549	721.44479
676.991	731.36502
677.432	751.24111
677.873	768.48701
678.314	753.53541
678.755	840.75212
679.196	812.55811
679.637	770.57331
680.078	832.62953
680.518	811.56329
680.959	785.58842
681.399	823.72838
681.839	861.75191
682.28	842.77025
682.72	832.58811
683.16	866.81915
683.6	899.67772
684.039	898.491
684.479	928.89905
684.919	936.8042
685.358	917.89722
685.798	895.96363
686.237	962.87034
686.676	984.78377
687.115	1001.90067
687.554	1050.0074
687.993	1061.8348
688.432	1089.94315
688.871	1031.87911
689.309	1086.06344
689.748	1090.72989
690.186	1109.02741
690.625	1149.09342
691.063	1140.12136
691.501	1222.33487
691.939	1190.34561
692.377	1174.21064
692.815	1293.39457
693.253	1204.19673
693.69	1327.10197
694.128	1332.41775
694.565	1269.26416
695.003	1316.56552
695.44	1355.36642
695.877	1345.33419
696.314	1431.08352
696.751	1453.32543
697.188	1444.39238
697.625	1495.322
698.061	1470.52495
698.498	1481.48961
698.934	1526.57475
699.371	1547.54266
699.807	1596.59725
700.243	1597.68025
700.679	1661.44494
701.115	1666.61355
701.551	1677.60624
701.987	1646.36057
702.422	1753.77745
702.858	1742.76529
703.294	1843.68279
703.729	1859.93581
704.164	1817.8233
704.599	1942.63465
705.035	1892.62319
705.47	1880.94342
705.904	1855.72513
706.339	1985.76795
706.774	2025.87812
707.209	1965.81869
707.643	1980.9461
708.078	2110.10001
708.512	2122.26186
708.946	2140.98655
709.38	2164.01664
709.814	2157.78417
710.248	2233.19607
710.682	2292.13068
711.116	2198.15912
711.549	2191.39213
711.983	2183.88833
712.416	2284.06424
712.85	2284.27794
713.283	2392.07079
713.716	2394.32825
714.149	2389.96654
714.582	2439.83432
715.015	2405.2725
715.448	2511.46939
715.881	2547.62056
716.313	2524.04495
716.746	2565.12822
717.178	2559.21324
717.61	2696.58209
718.043	2605.37077
718.475	2668.28636
718.907	2733.46378
719.339	2683.90908
719.77	2726.22079
720.202	2886.50383
720.634	2870.38329
721.065	2789.12172
721.497	2909.36182
721.928	2934.34835
722.359	2985.33445
722.79	2934.22386
723.221	3024.44699
723.652	3041.60615
724.083	3106.82668
724.514	3115.95371
724.945	3201.05355
725.375	3212.04914
725.806	3186.38617
726.236	3279.6362
726.666	3301.07493
727.096	3363.30833
727.526	3504.67648
727.956	3551.81357
728.386	3579.26957
728.816	3610.60044
729.246	3687.30008
729.675	3596.22652
730.105	3699.21032
730.534	3710.86749
730.964	3780.32789
731.393	3907.14155
731.822	3932.47378
732.251	4017.3821
732.68	4130.62522
733.109	4135.1057
733.537	4179.02679
733.966	4200.17803
734.395	4297.54201
734.823	4328.21079
735.251	4291.81691
735.68	4407.95037
736.108	4492.01674
736.536	4457.53274
736.964	4487.44476
737.392	4486.01991
737.82	4592.59724
738.247	4661.54411
738.675	4706.4112
739.102	4720.87712
739.53	4737.14735
739.957	4703.21877
740.384	4701.59498
740.811	4772.81478
741.238	4878.66453
741.665	4968.29156
742.092	4767.21316
742.519	4760.82755
742.945	4891.58833
743.372	4823.7982
743.798	4897.99248
744.225	4855.37602
744.651	4896.79339
745.077	4910.76113
745.503	4875.51427
745.929	5033.47498
746.355	4890.56209
746.781	4720.73867
747.207	4889.40631
747.632	4807.80721
748.058	4872.88944
748.483	4853.17285
748.908	4837.80243
749.334	4918.67492
749.759	4806.47687
750.184	4731.60761
750.609	4861.63821
751.033	4913.23031
751.458	4864.94434
751.883	4818.6925
752.307	4809.36729
752.732	4758.08001
753.156	4713.76054
753.58	4750.39787
754.005	4616.96167
754.429	4633.53355
754.853	4577.94362
755.277	4678.51412
755.7	4549.91972
756.124	4532.94686
756.548	4500.55808
756.971	4469.82297
757.394	4451.20738
757.818	4418.31856
758.241	4417.19136
758.664	4321.17921
759.087	4340.33673
759.51	4323.97288
759.933	4329.84385
760.356	4365.35391
760.778	4271.9814
761.201	4203.86988
761.623	4163.76948
762.046	4142.64722
762.468	4168.81544
762.89	4185.94798
763.312	4084.04515
763.734	4035.94974
764.156	4090.10307
764.578	3983.55362
765	3918.07197
765.421	3911.45254
765.843	3814.6742
766.264	3771.90344
766.686	3678.27801
767.107	3692.11366
767.528	3743.56382
767.949	3648.46757
768.37	3689.29666
768.791	3560.0649
769.212	3522.46699
769.632	3478.95989
770.053	3481.73299
770.473	3355.15603
770.894	3391.28161
771.314	3296.01743
771.734	3243.96288
772.154	3221.57587
772.575	3232.88538
772.994	3181.79284
773.414	3213.08156
773.834	3140.40784
774.254	3109.27236
774.673	3144.30675
775.093	3059.42923
775.512	2979.3709
775.931	2941.54459
776.351	2964.43871
776.77	2823.33
777.189	2787.11475
777.607	2702.54687
778.026	2744.399
778.445	2636.50563
778.864	2615.46204
779.282	2497.07486
779.701	2564.3928
780.119	2488.44186
780.537	2464.31225
780.955	2448.39099
781.373	2422.25376
781.791	2397.82323
782.209	2314.7414
782.627	2358.60937
783.045	2283.77348
783.462	2178.32459
783.88	2204.42527
784.297	2217.26754
784.715	2170.38106
785.132	2054.94452
785.549	1992.08698
785.966	2038.1558
786.383	1948.0143
786.8	1979.73865
787.217	1948.865
787.633	1830.01224
788.05	1874.67503
788.466	1860.66942
788.883	1776.05663
789.299	1706.64345
789.715	1693.74971
790.131	1660.79353
790.547	1685.8215
790.963	1588.7045
791.379	1590.79288
791.795	1618.38011
792.21	1573.44576
792.626	1535.4564
793.041	1456.54175
793.457	1437.50776
793.872	1433.32548
794.287	1411.44548
794.702	1330.34012
795.117	1424.55817
795.532	1310.46149
795.947	1310.24752
796.362	1225.1049
796.776	1288.12304
797.191	1251.28679
797.605	1225.16521
798.02	1160.13849
798.434	1208.95647
798.848	1191.26403
799.262	1067.0689
799.676	1054.00248
800.09	1047.01271
800.504	1011.91504
800.918	1010.79118
801.331	930.93312
801.745	951.70155
802.158	981.93307
802.572	973.8698
802.985	870.68321
803.398	897.71032
803.811	842.74465
804.224	809.63854
804.637	816.60117
805.05	777.46182
805.462	764.55258
805.875	771.69362
806.288	772.55888
806.7	722.51377
807.112	723.37606
807.525	664.36874
807.937	643.36783
808.349	647.37813
808.761	722.50245
809.173	643.33816
809.584	593.25914
809.996	538.15038
810.408	614.39784
810.819	602.21574
811.231	601.41355
811.642	579.255
812.053	581.23148
812.464	552.13348
812.875	537.21718
813.286	557.27432
813.697	504.99922
814.108	476.02242
814.519	515.00477
814.929	473.0706
815.34	413.88785
815.75	452.03894
816.16	384.85372
816.571	447.03827
816.981	400.83417
817.391	398.85432
817.801	386.87275
818.211	396.8449
818.62	389.84957
819.03	378.83515
819.44	321.7575
819.849	296.67964
820.259	336.77856
820.668	339.7651
821.077	339.7782
821.486	355.76318
821.895	289.64667
822.304	299.73285
822.713	306.65799
823.122	280.6442
823.531	296.63183
823.939	323.72334
824.348	296.65592
824.756	265.61127
825.164	268.62127
825.573	225.52831
825.981	269.61283
826.389	266.61785
826.797	265.62804
827.205	254.54219
827.612	241.54927
828.02	177.38757
828.428	216.51479
828.835	223.5559
829.243	218.47946
829.65	196.46193
830.057	216.48603
830.464	247.56635
830.871	238.53114
831.278	205.46345
831.685	214.43975
832.092	161.36769
832.499	230.46644
832.905	176.41705
833.312	160.33502
833.718	216.50728
834.124	238.50363
834.531	190.44517
834.937	181.44005
835.343	165.37105
835.749	149.32227
836.155	135.33704
836.561	150.34953
836.966	150.34499
837.372	124.29893
837.777	102.24385
838.183	187.38418
838.588	205.48022
838.993	165.37865
839.399	164.38005
839.804	128.29698
840.209	137.33607
840.613	179.37024
841.018	109.26193
841.423	131.32028
841.828	164.39431
842.232	117.27044
842.637	148.3333
843.041	120.29519
843.445	107.25399
843.849	110.26086
844.253	120.26936
844.657	99.24025
845.061	176.38058
845.465	122.27992
845.869	135.29598
846.272	131.30436
846.676	93.21043
847.079	80.19716
847.483	114.26993
847.886	128.29203
848.289	106.27527
848.692	116.27785
849.095	88.20077
849.498	104.24759
849.901	120.2576
850.304	137.30884
850.707	91.22133
851.109	100.24026
851.512	108.25365
851.914	114.27628
852.316	131.31885
852.718	122.30904
853.121	79.18558
853.523	85.18793
853.925	99.25047
854.326	57.13832
854.728	79.19602
855.13	107.26694
855.531	56.12895
855.933	79.17926
856.334	118.28264
856.736	93.20003
857.137	140.30999
857.538	102.24701
857.939	115.27477
858.34	80.18429
858.741	50.12585
859.142	90.20492
859.542	120.30495
859.943	78.18562
860.343	88.21014
860.744	93.21641
861.144	79.1863
861.544	91.21201
861.945	62.1519
862.345	62.14476
862.745	119.28357
863.145	110.24427
863.544	86.20897
863.944	97.21787
864.344	69.16209
864.743	132.30977
865.143	75.18698
865.542	56.12265
865.941	114.26962
866.34	66.14924
866.74	106.27318
867.139	121.2789
867.537	20.04884
867.936	105.24154
868.335	72.17548
868.734	57.14071
869.132	59.12941
869.531	70.1599
869.929	89.19398
870.327	78.17868
870.726	76.17947
871.124	89.19612
871.522	48.11751
871.92	100.23513
872.318	55.12814
872.715	54.12643
873.113	32.07477
873.511	37.08864
873.908	86.21179
874.306	96.23012
874.703	63.14978
875.1	53.12862
875.497	76.17333
875.894	97.23132
876.291	96.2252
876.688	85.2106
877.085	48.10978
877.482	115.27361
877.878	86.20056
878.275	28.06908
878.671	21.04346
879.068	90.20691
879.464	63.14585
879.86	63.14261
880.256	82.19003
880.652	65.15886
881.048	69.16196
881.444	30.0677
881.84	52.12711
882.236	69.16625
882.631	92.21675
883.027	88.20215
883.422	20.04924
883.817	59.14388
884.213	65.16052
884.608	76.18273
885.003	39.08968
885.398	47.1135
885.793	48.1155
886.188	44.10519
886.582	91.221
886.977	58.13083
887.371	68.16381
887.766	55.13247
888.16	38.08977
888.554	31.07339
888.949	82.19686
889.343	63.1466
889.737	44.11473
890.131	51.12321
890.525	127.31108
890.918	56.13541
891.312	40.09097
891.706	40.10126
892.099	52.12697
892.492	104.20976
892.886	60.14042
893.279	28.06883
893.672	73.17974
894.065	77.18489
894.458	47.1126
894.851	119.27418
895.244	79.19329
895.637	77.17784
896.029	120.28018
896.422	30.06974
896.814	51.12148
897.206	101.23206
897.599	74.17488
897.991	36.08445
898.383	72.16288
898.775	123.26501
899.167	80.18075
899.559	75.18016
899.951	48.10739
900.342	56.13557
900.734	55.13467
901.125	55.13811
901.517	93.21812
901.908	75.1688
902.299	57.13426
902.69	52.11883
903.082	52.12089
903.473	101.23392
903.863	20.04913
904.254	62.1394
904.645	69.16209
905.036	110.25855
905.426	101.21508
905.817	31.07282
906.207	59.13295
906.597	78.17588
906.987	29.07209
907.378	93.22611
907.768	74.18892
908.158	61.14217
908.547	69.17401
908.937	14.03438
909.327	73.169
909.717	54.12954
910.106	8.0185
910.495	70.1653
910.885	59.14409
911.274	29.06987
911.663	66.15917
912.052	20.04708
912.441	78.19173
912.83	40.08731
913.219	73.18278
913.608	104.2433
913.997	10.02457
914.385	88.20013
914.774	110.2535
915.162	104.23824
915.55	98.22341
915.939	78.19024
916.327	44.10479
916.715	53.13227
917.103	25.05827
917.491	53.12542
917.878	86.20111
918.266	72.17849
918.654	97.23883
919.041	72.1833
919.429	66.14876
919.816	74.17948
920.203	44.1037
920.591	68.16195
920.978	73.17088
921.365	40.10194
921.752	28.06319
922.139	81.16656
922.525	80.18414
922.912	82.18995
923.299	87.20684
923.685	15.03761
924.072	-23.05013
924.458	51.12209
924.844	56.13316
925.231	38.084
925.617	56.13872
926.003	62.15173
926.389	37.08999
926.774	50.12145
927.16	100.23587
927.546	89.22123
927.931	28.06697
928.317	57.12434
928.702	105.23399
929.088	114.26156
929.473	106.2594
929.858	50.11844
930.243	102.23525
930.628	68.1602
931.013	43.10278
931.398	50.10784
931.783	47.11806
932.167	129.30184
932.552	55.13192
932.937	57.13484
933.321	47.11461
933.705	21.05058
934.09	29.06918
934.474	63.14139
934.858	18.0454
935.242	44.09734
935.626	59.14613
936.009	94.24242
936.393	90.22229
936.777	58.14389
937.16	75.18908
937.544	41.09099
937.927	62.15212
938.311	91.20975
938.694	87.22144
939.077	51.11704
939.46	32.07386
939.843	67.1287
940.226	41.10088
940.609	77.17046
940.991	37.09026
941.374	22.05229
941.757	104.24273
942.139	100.21328
942.522	76.16982
942.904	89.20367
943.286	63.15306
943.668	105.26271
944.05	91.21385
944.432	38.08987
944.814	82.19055
945.196	50.11812
945.578	93.21419
945.959	36.08004
946.341	41.09473
946.722	79.17525
947.104	87.19797
947.485	108.23774
947.866	97.2353
948.247	83.20248
948.628	24.05524
949.009	72.17692
949.39	31.07387
949.771	1.00219
950.152	92.2154
950.532	115.27687
950.913	62.14277
951.293	48.1267
951.674	60.13893
952.054	116.27859
952.434	72.17141
952.814	23.05202
953.194	17.04254
953.574	68.15933
953.954	28.06321
954.334	126.30065
954.714	42.09899
955.093	114.26554
955.473	73.17695
955.853	61.15202
956.232	44.11661
956.611	45.10199
956.99	70.16939
957.37	21.0514
957.749	22.04967
958.128	61.14859
958.506	21.05292
958.885	53.12804
959.264	47.1123
959.643	111.24008
960.021	72.17213
960.4	77.1654
960.778	18.04211
961.156	46.11043
961.535	38.08393
961.913	74.16597
962.291	68.16992
962.669	58.14204
963.047	61.15053
963.424	98.24232
963.802	62.14647
964.18	45.1076
964.557	76.16533
964.935	71.16012
965.312	63.15888
965.69	67.15898
966.067	53.12212
966.444	34.07898
966.821	76.18813
967.198	55.12607
967.575	54.12628
967.952	58.13008
968.329	119.27604
968.705	99.20137
969.082	111.27542
969.458	53.12377
969.835	95.21976
970.211	66.16463
970.587	81.19309
970.963	9.02218
971.339	55.13915
971.715	94.22421
972.091	37.08756
972.467	16.03796
972.843	125.29775
973.219	80.18075
973.594	7.0178
973.97	43.09523
974.345	59.13578
974.721	37.08464
975.096	104.24101
975.471	84.18847
975.846	45.10281
976.221	35.08592
976.596	93.2159
976.971	104.24597
977.346	52.11456
977.72	32.07825
978.095	31.07737
978.469	76.17186
978.844	60.14366
979.218	67.1561
979.593	53.12085
979.967	33.07573
980.341	121.26372
980.715	67.16229
981.089	33.07954
981.463	62.13568
981.837	88.20764
982.21	31.06714
982.584	22.05149
982.957	84.20174
983.331	50.11117
983.704	69.16442
984.078	19.04512
984.451	47.11023
984.824	65.15257
985.197	19.04374
985.57	-1.00239
985.943	51.11835
986.316	72.16579
986.688	93.21248
987.061	118.26193
987.434	68.17275
987.806	77.17508
988.179	75.16762
988.551	54.13092
988.923	39.09172
989.295	81.19198
989.667	70.16235
990.039	77.18517
990.411	60.1293
990.783	26.05656
991.155	41.09511
991.527	47.10864
991.898	77.1844
992.27	73.17455
992.641	52.12432
993.012	44.09625
993.384	24.05476
993.755	70.1722
994.126	93.21462
994.497	35.0827
994.868	88.18883
995.239	5.01167
995.61	48.11629
995.98	41.09545
996.351	59.14119
996.722	103.22887
997.092	49.11177
997.462	50.11329
997.833	19.0429
998.203	63.14348
998.573	58.13914
998.943	65.14623
999.313	92.21083
999.683	60.13822
1000.053	-1.00216
1000.423	52.11998
1000.792	1.00249
1001.162	33.07755
1001.531	98.23016
1001.901	26.06213
1002.27	32.06683
1002.639	60.14591
1003.009	33.07512
1003.378	52.12815
1003.747	36.08094
1004.116	38.08705
1004.485	56.12782
1004.853	35.08414
1005.222	9.02153
1005.591	79.17758
1005.959	55.1187
1006.328	56.12058
1006.696	43.09896
1007.064	18.04328
1007.433	32.07633
1007.801	22.05104
1008.169	22.05302
1008.537	61.12804
1008.905	15.03391
1009.273	58.13595
1009.64	73.1684
1010.008	40.09115
1010.375	92.20778
1010.743	32.06831
1011.11	109.24914
1011.478	44.10543
1011.845	25.05608
1012.212	101.21854
1012.579	61.14357
1012.946	31.06989
1013.313	78.17465
1013.68	53.11262
1014.047	50.11394
1014.414	26.05887
1014.78	82.19529
1015.147	31.07103
1015.513	49.11304
1015.88	73.17715
1016.246	30.07024
1016.612	100.21374
1016.978	112.26181
1017.344	50.1188
1017.71	60.13871
1018.076	56.12446
1018.442	71.17565
1018.808	62.15003
1019.174	34.08156
1019.539	51.10662
1019.905	51.11568
1020.27	31.07345
1020.636	58.13073
1021.001	72.1648
1021.366	38.08803
1021.731	84.20968
1022.096	29.07133
1022.461	104.23344
1022.826	61.1396
1023.191	18.04579
1023.556	94.20709
1023.92	44.10265
1024.285	70.16093
1024.649	52.12113
1025.014	51.11948
1025.378	46.11194
1025.742	17.04034
1026.107	111.23494
1026.471	79.17357
1026.835	27.06446
1027.199	29.06727
1027.562	62.1355
1027.926	51.11854
1028.29	27.06599
1028.654	64.13922
1029.017	69.16246
1029.381	33.07597
1029.744	50.12268
1030.107	81.18186
1030.471	83.19002
1030.834	42.0895
1031.197	82.18739
1031.56	45.10087
1031.923	74.18371
1032.286	101.22396
1032.648	65.14575
1033.011	106.23314
1033.374	71.15659
1033.736	7.0179
1034.099	66.15374
1034.461	30.07374
1034.823	69.16512
1035.185	28.06722
1035.548	73.17028
1035.91	61.13903
1036.272	99.21385
1036.634	86.19985
1036.995	14.03136
1037.357	42.0986
1037.719	67.15579
1038.08	134.30177
1038.442	103.23058
1038.803	64.14384
1039.165	21.05087
1039.526	76.175
1039.887	76.1727
1040.248	62.1489
1040.609	51.11924
1040.97	47.10963
1041.331	90.21894
1041.692	74.16754
1042.053	78.16686
1042.413	60.13208
1042.774	57.13285
1043.134	53.11865
1043.495	42.10141
1043.855	86.20072
1044.215	42.09941
1044.576	58.1335
1044.936	94.20196
1045.296	88.20893
1045.656	68.15727
1046.016	72.16434
1046.375	61.14128
1046.735	103.22459
1047.095	15.03377
1047.454	53.1048
1047.814	96.21894
1048.173	56.12555
1048.533	83.1799
1048.892	33.07643
1049.251	65.15471
1049.61	54.12747
1049.969	70.15629
1050.328	71.14534
1050.687	56.12926
1051.046	21.04898
1051.405	-10.02386
1051.763	94.20683
1052.122	11.02645
1052.48	31.07333
1052.839	101.22881
1053.197	86.19153
1053.555	23.04896
1053.914	50.11661
1054.272	12.02728
1054.63	40.09413
1054.988	8.01852
1055.345	50.10038
1055.703	80.18341
1056.061	74.18458
1056.419	62.15683
1056.776	64.14519
1057.134	50.10812
1057.491	13.03146
1057.848	51.12083
1058.206	19.04215
1058.563	63.13107
1058.92	41.0897
1059.277	101.23624
1059.634	45.09949
1059.991	83.18933
1060.348	51.11026
1060.704	133.3057
1061.061	17.03708
1061.418	81.18715
1061.774	22.05233
1062.131	31.0806
1062.487	53.11733
1062.843	56.13357
1063.199	19.04561
1063.555	92.20371
1063.911	16.03875
1064.267	95.18187
1064.623	78.18269
1064.979	1.00219
1065.335	36.08157
1065.691	41.09247
1066.046	61.12657
1066.402	51.10941
1066.757	50.12122
1067.112	21.04935
1067.468	73.16645
1067.823	18.04067
1068.178	67.1532
1068.533	47.10898
1068.888	71.16032
1069.243	75.17652
1069.598	76.17438
1069.952	61.13374
1070.307	27.06473
1070.662	110.25016
1071.016	97.20818
1071.371	71.15409
1071.725	45.10182
1072.079	58.1335
1072.434	66.15368
1072.788	36.08084
1073.142	82.19221
1073.496	61.13746
1073.85	55.1211
1074.203	76.1757
1074.557	54.14023
1074.911	72.16195
1075.265	98.21473
1075.618	106.24525
1075.971	42.0954
1076.325	56.13776
1076.678	19.04171
1077.031	13.02755
1077.385	87.17946
1077.738	84.17845
1078.091	104.22508
1078.444	31.06788
1078.796	56.13239
1079.149	78.18541
1079.502	108.24282
1079.855	50.1114
1080.207	123.28476
1080.56	98.24329
1080.912	42.09772
1081.264	105.24028
1081.617	61.14262
1081.969	87.21073
1082.321	26.06078
1082.673	64.1413
1083.025	27.06099
1083.377	344.72377
1083.728	48.1061
1084.08	46.10934
1084.432	22.05076
1084.783	52.1135
1085.135	17.04135
1085.486	32.07053
1085.838	86.20229
1086.189	57.13353
1086.54	40.09093
1086.891	94.23123
1087.242	119.27899
1087.593	13.02997
1087.944	83.17944
1088.295	70.1502
1088.646	113.26441
1088.996	46.10685
1089.347	2.00471
1089.698	25.05746
1090.048	29.07222
1090.398	74.16139
1090.749	55.12424
1091.099	31.07616
1091.449	22.05308
1091.799	49.11761
1092.149	30.0715
1092.499	15.03528
1092.849	31.0761
1093.199	50.11894
1093.548	87.20093
1093.898	27.06476
1094.248	26.06377
1094.597	31.07745
1094.947	60.15452
1095.296	91.21501
1095.645	57.14174
1095.994	51.11704
1096.343	37.08996
1096.692	73.18745
1097.041	46.12252
1097.39	65.15489
1097.739	57.14226
1098.088	46.11802
1098.437	43.1108
1098.785	42.10847
1099.134	3.0076
1099.482	49.13093
1099.83	48.12164
1100.179	108.27426
1100.527	33.08373
1100.875	11.02848
1101.223	17.04414
1101.571	7.01878
1101.919	79.20285
1102.267	75.20593
1102.615	5.01606
1102.962	0
1103.31	3.00964
1103.658	6.01922
