Data from N3 R3 sample 2_Subt2__4__11-23-00-792.txt Node

Date: Thu Sep 18 11:23:00 PDT 2025
User: uwsun
Spectrometer: HDX01956
Trigger mode: 0
Integration Time (sec): 5.000000E-1
Scans to average: 1
Nonlinearity correction enabled: true
Boxcar width: 0
Storing dark spectrum: false
XAxis mode: Wavelengths
Number of Pixels in Spectrum: 2068
>>>>>Begin Spectral Data<<<<<
194.03	31.08959
194.578	37.11978
195.127	41.13081
195.676	39.1249
196.225	62.16388
196.773	74.20444
197.321	75.20756
197.87	145.3705
198.418	137.35313
198.966	164.43026
199.513	178.44977
200.061	122.31113
200.609	157.4128
201.156	163.35571
201.704	137.34512
202.251	167.44176
202.798	151.39056
203.345	216.52818
203.892	161.40573
204.438	163.38528
204.985	151.35857
205.532	93.24643
206.078	126.30869
206.624	159.39839
207.17	212.49146
207.716	157.3847
208.262	232.45178
208.808	187.46685
209.354	222.54204
209.899	176.44027
210.445	169.4213
210.99	182.44173
211.535	180.42208
212.08	196.45077
212.625	149.37172
213.17	204.51453
213.715	179.40715
214.259	160.37298
214.804	159.38845
215.348	156.3605
215.892	164.39715
216.436	131.29966
216.98	186.40461
217.524	158.37714
218.068	208.5188
218.612	217.54468
219.155	212.49458
219.698	164.38832
220.242	126.31109
220.785	188.43756
221.328	122.30177
221.871	219.5495
222.414	173.4239
222.956	132.31521
223.499	155.34341
224.041	138.31421
224.583	161.33644
225.126	182.39423
225.668	164.39506
226.21	154.3876
226.751	221.48289
227.293	152.34133
227.835	138.33708
228.376	139.31451
228.918	138.34184
229.459	167.41284
230	193.45724
230.541	125.28697
231.082	165.3983
231.622	128.28861
232.163	135.32416
232.704	187.46228
233.244	141.34806
233.784	161.38629
234.324	207.45823
234.864	122.2752
235.404	127.29798
235.944	168.39117
236.484	220.53835
237.023	133.31218
237.563	185.42454
238.102	194.4517
238.641	115.28856
239.18	124.29077
239.719	163.40413
240.258	141.31513
240.797	121.28877
241.335	137.33133
241.874	223.42484
242.412	189.45329
242.95	169.40471
243.488	110.24712
244.026	182.41841
244.564	224.45074
245.102	216.48045
245.64	163.38513
246.177	141.31148
246.715	169.40193
247.252	132.29836
247.789	163.29921
248.326	138.33142
248.863	186.4041
249.4	157.35306
249.936	189.39092
250.473	174.40737
251.009	156.35433
251.546	194.4274
252.082	182.38749
252.618	145.32286
253.154	156.3728
253.69	161.3579
254.226	177.41918
254.761	187.41396
255.297	211.45187
255.832	172.40505
256.367	178.4133
256.903	232.50467
257.438	161.37406
257.972	172.37893
258.507	130.29743
259.042	216.46068
259.576	254.54783
260.111	174.3949
260.645	208.44111
261.179	151.35179
261.713	186.41132
262.247	165.37303
262.781	197.40911
263.315	135.326
263.849	205.5051
264.382	198.44754
264.915	186.43495
265.449	147.35686
265.982	219.48763
266.515	227.54566
267.048	145.30623
267.58	185.39345
268.113	174.37239
268.646	133.3242
269.178	160.35471
269.71	272.58388
270.243	259.58457
270.775	227.57162
271.307	174.40881
271.838	182.42426
272.37	176.42637
272.902	184.41131
273.433	222.48292
273.965	198.4737
274.496	179.43828
275.027	178.4385
275.558	218.52274
276.089	171.4235
276.62	120.30203
277.15	178.43251
277.681	176.37439
278.211	195.46839
278.741	185.40629
279.272	183.41422
279.802	162.39953
280.332	195.4543
280.861	154.36563
281.391	205.45854
281.921	155.36779
282.45	176.43149
282.98	181.46637
283.509	211.47254
284.038	195.44049
284.567	188.43272
285.096	192.46005
285.625	116.26145
286.153	256.59721
286.682	209.47288
287.21	143.33892
287.739	212.49244
288.267	188.4527
288.795	179.46234
289.323	219.50558
289.851	248.57035
290.378	144.31991
290.906	210.50624
291.433	132.32853
291.961	227.50921
292.488	183.44874
293.015	217.50415
293.542	271.67946
294.069	231.56201
294.596	178.4304
295.122	252.59089
295.649	195.42103
296.175	173.41255
296.702	232.55694
297.228	221.52236
297.754	222.49072
298.28	254.57129
298.806	179.42751
299.332	227.49936
299.857	247.54928
300.383	204.50568
300.908	176.42957
301.433	224.54019
301.958	206.46562
302.483	181.44416
303.008	208.51051
303.533	205.52121
304.058	179.41341
304.582	215.50049
305.107	198.50884
305.631	262.57913
306.155	249.56773
306.679	245.56469
307.203	278.62808
307.727	270.62367
308.251	264.63591
308.775	273.64824
309.298	260.61274
309.822	219.54137
310.345	252.58996
310.868	231.54789
311.391	240.57986
311.914	200.49541
312.437	248.55551
312.96	254.58579
313.482	207.48016
314.005	231.56621
314.527	229.58489
315.049	266.6579
315.571	264.58111
316.093	271.65512
316.615	212.50177
317.137	288.61022
317.659	233.55477
318.18	244.56989
318.702	301.68489
319.223	279.55326
319.744	290.63512
320.265	295.69912
320.786	319.77229
321.307	267.64448
321.828	251.5554
322.348	319.72643
322.869	294.6818
323.389	616.08267
323.909	293.65076
324.43	265.61906
324.95	348.76631
325.47	321.77128
325.989	298.68779
326.509	312.67811
327.029	337.74318
327.548	301.66296
328.067	325.76396
328.587	360.86906
329.106	316.68943
329.625	367.91774
330.144	381.84828
330.662	370.83419
331.181	365.8278
331.7	335.75175
332.218	326.6847
332.736	370.83147
333.255	386.87026
333.773	352.80043
334.291	392.93878
334.808	371.80272
335.326	362.78141
335.844	423.94644
336.361	443.08139
336.879	416.9329
337.396	461.05903
337.913	385.85256
338.43	371.80375
338.947	416.94706
339.464	450.91593
339.981	379.86233
340.497	438.01953
341.014	419.97294
341.53	447.95307
342.046	482.13314
342.562	456.07317
343.078	439.98021
343.594	435.9817
344.11	514.14916
344.626	477.1342
345.141	504.07663
345.657	495.04755
346.172	514.15813
346.687	507.08516
347.202	517.10087
347.717	478.07162
348.232	500.1673
348.747	558.19116
349.261	516.05514
349.776	482.0775
350.29	541.26143
350.805	548.25696
351.319	542.16795
351.833	587.24205
352.347	538.18063
352.861	530.15768
353.374	538.134
353.888	529.2063
354.401	538.13549
354.915	552.15489
355.428	630.43603
355.941	531.14984
356.454	579.18232
356.967	547.18151
357.48	548.14904
357.993	598.3515
358.505	570.27978
359.018	644.43724
359.53	632.40928
360.042	629.2811
360.554	657.46176
361.066	572.2848
361.578	695.37529
362.09	651.40587
362.602	672.34988
363.113	673.43172
363.625	682.3933
364.136	677.33524
364.647	663.42448
365.158	682.42981
365.669	715.52907
366.18	709.49466
366.691	723.40675
367.201	718.54045
367.712	708.45106
368.222	717.47582
368.733	734.4143
369.243	743.47316
369.753	739.51365
370.263	813.72459
370.773	756.63458
371.282	816.70878
371.792	798.62396
372.301	768.64286
372.811	829.9175
373.32	878.62755
373.829	830.70599
374.338	862.64944
374.847	924.81764
375.356	889.8032
375.865	971.74009
376.373	1007.91023
376.882	971.0939
377.39	1047.10124
377.898	1070.1814
378.407	1156.10886
378.915	1203.07678
379.423	1193.21537
379.93	1354.41585
380.438	1285.42438
380.946	1321.37782
381.453	1429.60039
381.96	1467.62841
382.468	1540.65569
382.975	1679.94482
383.482	1685.62183
383.989	1800.25907
384.495	1773.8444
385.002	1897.54003
385.509	2071.15008
386.015	2196.56799
386.521	2261.02948
387.028	2396.06592
387.534	2319.77007
388.04	2547.40308
388.546	2568.96373
389.051	2682.95958
389.557	2900.22596
390.063	3045.07668
390.568	3063.43411
391.073	3331.92522
391.578	3424.48775
392.084	3545.00299
392.589	3508.71402
393.093	3907.18983
393.598	4208.77842
394.103	4662.774
394.607	5116.60484
395.112	5450.57715
395.616	5792.31778
396.12	6362.72088
396.624	6853.8486
397.128	7397.04525
397.632	8319.55144
398.136	9026.50689
398.639	9394.25466
399.143	10601.56794
399.646	11789.84888
400.15	13091.91447
400.653	14745.62763
401.156	16552.56357
401.659	19274.0083
402.162	23426.70104
402.664	31069.06643
403.167	43100.97895
403.67	61053.74157
404.172	63919.58413
404.674	63858.43483
405.176	63738.15102
405.678	63977.72923
406.18	64011.81569
406.682	63863.44694
407.184	63926.60148
407.686	63841.39382
408.187	64025.8516
408.688	63892.51763
409.19	55191.05166
409.691	44379.86698
410.192	37389.85039
410.693	32636.9357
411.194	29627.0358
411.694	28160.98838
412.195	26167.07433
412.696	23472.01828
413.196	21929.681
413.696	21488.75782
414.196	21718.32992
414.696	21721.18605
415.196	20811.75621
415.696	18701.43245
416.196	15248.03166
416.695	11797.93987
417.195	9969.66235
417.694	9581.73098
418.194	8955.29114
418.693	8271.40563
419.192	7956.22401
419.691	7903.12808
420.19	7639.11795
420.688	7552.18104
421.187	7132.21064
421.685	6737.76105
422.184	6219.95021
422.682	5308.82075
423.18	4492.62034
423.678	3899.86973
424.176	3717.92974
424.674	3491.84902
425.172	3352.21383
425.669	3088.50851
426.167	2938.18332
426.664	2656.04714
427.161	2408.0614
427.659	2360.31424
428.156	2195.65868
428.652	2070.34761
429.149	1979.10781
429.646	1884.6962
430.143	1780.90122
430.639	1634.72734
431.135	1569.85909
431.632	1505.48126
432.128	1420.54966
432.624	1391.75336
433.12	1305.26206
433.616	1313.16152
434.111	1196.23684
434.607	1190.24958
435.103	1124.83917
435.598	1122.82263
436.093	1082.029
436.588	1015.86013
437.083	960.77368
437.578	992.88948
438.073	905.92403
438.568	914.90153
439.062	808.46929
439.557	819.63917
440.051	738.43973
440.546	751.47795
441.04	702.48539
441.534	730.61726
442.028	763.59806
442.522	702.48345
443.015	597.14137
443.509	706.51143
444.002	707.52302
444.496	660.25808
444.989	664.42938
445.482	586.31037
445.975	662.353
446.468	656.24923
446.961	637.22269
447.454	591.18612
447.947	602.28966
448.439	557.24006
448.931	572.18254
449.424	598.37343
449.916	582.28107
450.408	554.14424
450.9	514.14113
451.392	534.23801
451.884	512.07201
452.375	514.16379
452.867	500.02467
453.358	519.08118
453.849	522.00953
454.341	513.05349
454.832	426.85287
455.323	542.22828
455.814	452.95474
456.304	505.06549
456.795	484.01149
457.285	451.91483
457.776	505.04777
458.266	463.01173
458.756	421.92488
459.247	484.0615
459.737	463.03261
460.226	447.94149
460.716	497.08617
461.206	378.84874
461.695	393.9097
462.185	438.96364
462.674	412.87598
463.163	404.84401
463.653	443.86822
464.142	411.92869
464.63	417.94032
465.119	396.85955
465.608	405.8845
466.096	349.71214
466.585	355.76252
467.073	315.70513
467.561	339.76822
468.05	363.78441
468.538	337.77825
469.026	309.69598
469.513	298.59716
470.001	355.76679
470.489	324.72961
470.976	374.81906
471.463	328.77356
471.951	329.77396
472.438	276.6195
472.925	348.77177
473.412	281.65101
473.899	332.71881
474.385	294.68585
474.872	239.53657
475.359	268.63134
475.845	268.53008
476.331	328.65788
476.817	296.6859
477.303	313.68968
477.789	209.48192
478.275	276.65499
478.761	233.53297
479.247	237.50864
479.732	252.60426
480.218	270.67853
480.703	264.62313
481.188	246.51144
481.673	236.52254
482.158	243.50486
482.643	258.63297
483.128	226.50894
483.612	274.6246
484.097	212.49458
484.581	235.52368
485.066	235.55501
485.55	227.48445
486.034	209.43868
486.518	281.64275
487.002	169.40085
487.486	152.36116
487.969	193.45547
488.453	155.37726
488.936	172.37782
489.42	213.45576
489.903	166.4032
490.386	118.24084
490.869	232.48986
491.352	177.4148
491.835	140.28132
492.318	157.34523
492.8	172.34754
493.283	139.34828
493.765	104.25195
494.247	208.4688
494.73	190.40874
495.212	118.27562
495.694	143.33092
496.175	176.41254
496.657	153.35477
497.139	141.23736
497.62	180.42191
498.102	128.31359
498.583	104.25224
499.064	124.2725
499.545	140.31335
500.026	160.35427
500.507	123.27898
500.988	194.47139
501.469	80.19781
501.949	158.38162
502.43	168.39563
502.91	219.44891
503.39	171.41356
503.87	164.37914
504.35	139.31924
504.83	138.2965
505.31	85.20325
505.79	85.19936
506.269	79.1802
506.749	127.28572
507.228	116.26956
507.707	151.33036
508.187	140.32867
508.666	115.28127
509.145	96.22247
509.623	110.25451
510.102	111.26521
510.581	110.26227
511.059	124.30761
511.538	138.34957
512.016	123.29062
512.494	97.23088
512.972	94.22318
513.45	92.21295
513.928	122.29255
514.406	145.34923
514.884	128.32516
515.361	155.36353
515.839	149.33686
516.316	138.32991
516.793	70.17587
517.27	87.20771
517.747	112.28402
518.224	92.21032
518.701	97.21258
519.178	89.22107
519.654	131.30544
520.131	81.19944
520.607	58.14141
521.083	74.16699
521.56	79.18521
522.036	95.20521
522.512	128.31149
522.987	100.23879
523.463	101.23716
523.939	161.39157
524.414	118.26661
524.89	126.2965
525.365	96.21513
525.84	75.17954
526.315	130.31031
526.79	114.25421
527.265	132.30055
527.74	117.2804
528.215	53.12363
528.689	86.1874
529.164	45.09679
529.638	56.14166
530.112	80.18715
530.587	68.14535
531.061	89.21395
531.534	117.27848
532.008	102.24581
532.482	95.2167
532.956	44.11229
533.429	86.20921
533.903	96.20875
534.376	120.26193
534.849	76.17403
535.322	72.1693
535.795	42.1016
536.268	140.33341
536.741	22.05254
537.213	116.26348
537.686	70.17073
538.158	114.25652
538.631	81.19516
539.103	43.09749
539.575	50.10326
540.047	84.18227
540.519	74.17617
540.991	105.25356
541.463	67.16076
541.934	64.14449
542.406	53.12746
542.877	84.18871
543.348	92.2207
543.82	82.19836
544.291	98.2271
544.762	79.18738
545.233	136.33972
545.703	97.21446
546.174	45.10472
546.645	63.15237
547.115	91.21843
547.585	97.22162
548.056	130.31577
548.526	107.25203
548.996	59.14113
549.466	91.21992
549.935	106.25138
550.405	87.19059
550.875	110.25905
551.344	97.22981
551.814	68.1559
552.283	152.32643
552.752	119.27637
553.221	128.27975
553.69	159.35345
554.159	104.25715
554.628	130.29168
555.096	71.1804
555.565	95.20925
556.033	162.37972
556.502	116.27732
556.97	101.22368
557.438	85.19897
557.906	73.17215
558.374	158.36033
558.842	84.20067
559.31	94.2097
559.777	93.22628
560.245	34.07857
560.712	61.13999
561.18	80.17699
561.647	36.08048
562.114	64.14696
562.581	61.15019
563.048	57.13097
563.514	77.1928
563.981	66.15137
564.448	69.15612
564.914	49.11425
565.381	41.09432
565.847	18.04234
566.313	40.09332
566.779	73.1643
567.245	23.05373
567.711	49.11766
568.176	3.00683
568.642	52.13112
569.108	68.16697
569.573	36.08382
570.038	29.0613
570.504	51.11577
570.969	30.07472
571.434	57.12708
571.899	17.04068
572.363	63.14475
572.828	119.27101
573.293	27.06243
573.757	119.27364
574.222	51.11488
574.686	126.28677
575.15	113.26968
575.614	105.24636
576.078	33.078
576.542	100.22668
577.006	71.16058
577.469	68.16703
577.933	85.19334
578.396	33.07876
578.86	47.1111
579.323	96.23012
579.786	66.14364
580.249	89.20907
580.712	45.10978
581.175	45.11125
581.637	31.07131
582.1	59.12908
582.563	34.07296
583.025	59.14371
583.487	77.15884
583.95	20.04342
584.412	94.197
584.874	76.18495
585.336	93.21957
585.797	126.27141
586.259	132.30504
586.721	42.09907
587.182	59.13632
587.643	94.21273
588.105	77.18158
588.566	83.17306
589.027	123.29804
589.488	73.16759
589.949	108.26017
590.41	157.30609
590.87	112.2545
591.331	134.28964
591.791	100.23036
592.252	160.36636
592.712	105.24973
593.172	155.34699
593.632	205.44395
594.092	140.30792
594.552	161.34286
595.011	129.29212
595.471	227.49894
595.931	181.40001
596.39	190.44552
596.849	166.37934
597.308	151.31666
597.768	238.59469
598.227	218.50857
598.685	223.49283
599.144	254.57738
599.603	258.58076
600.062	245.49788
600.52	312.67089
600.978	318.71463
601.437	269.58727
601.895	338.68421
602.353	330.68606
602.811	440.9184
603.269	415.92013
603.727	391.87991
604.184	432.9129
604.642	504.13418
605.099	514.09329
605.557	508.12872
606.014	561.08122
606.471	588.3305
606.928	645.2625
607.385	748.63516
607.842	720.43315
608.299	760.53112
608.755	799.66174
609.212	840.57476
609.668	832.58351
610.125	916.84409
610.581	916.785
611.037	909.6822
611.493	960.84081
611.949	1031.04727
612.405	1046.66638
612.861	1077.97105
613.316	1146.16828
613.772	1142.04561
614.227	1162.1997
614.683	1195.91528
615.138	1177.15107
615.593	1247.20995
616.048	1264.19008
616.503	1205.28298
616.958	1267.46111
617.412	1289.32706
617.867	1298.16669
618.321	1268.92152
618.776	1272.09305
619.23	1300.29777
619.684	1317.17531
620.138	1239.15729
620.592	1263.35501
621.046	1273.29109
621.5	1210.26199
621.954	1198.01739
622.407	1203.02312
622.861	1172.2348
623.314	1214.09641
623.768	1197.19213
624.221	1126.66959
624.674	1146.06643
625.127	1122.05074
625.58	1073.90175
626.033	1066.8313
626.485	1030.9942
626.938	1035.99104
627.39	1056.97665
627.843	1020.89227
628.295	984.84164
628.747	965.88995
629.199	951.76708
629.651	971.81056
630.103	872.66619
630.555	908.55328
631.006	812.5978
631.458	876.72229
631.909	812.52891
632.361	815.58755
632.812	761.50749
633.263	848.52581
633.714	789.39876
634.165	760.56688
634.616	738.50445
635.067	752.40812
635.518	734.50238
635.968	713.1814
636.419	734.36826
636.869	692.42781
637.319	685.38394
637.769	676.32047
638.219	670.38298
638.669	627.31755
639.119	608.29188
639.569	595.27163
640.019	678.36446
640.468	653.27758
640.918	611.28445
641.367	640.25358
641.816	615.20197
642.265	663.35413
642.714	628.26717
643.163	657.32972
643.612	655.41693
644.061	612.14722
644.51	657.31758
644.958	701.33347
645.406	628.32748
645.855	564.22946
646.303	627.27644
646.751	636.29509
647.199	639.26962
647.647	685.38457
648.095	609.22624
648.543	732.25215
648.99	689.44609
649.438	634.28925
649.885	714.55487
650.333	719.17365
650.78	648.38116
651.227	668.438
651.674	655.30691
652.121	643.39568
652.568	646.39892
653.015	600.32516
653.461	576.22379
653.908	605.22824
654.354	638.33922
654.801	640.32039
655.247	578.10577
655.693	582.36378
656.139	647.35844
656.585	585.24591
657.031	600.25215
657.477	654.2424
657.922	562.13846
658.368	593.30122
658.813	627.25154
659.259	641.37243
659.704	615.29173
660.149	567.16564
660.594	613.28866
661.039	630.26073
661.484	595.25241
661.929	575.19751
662.373	562.27005
662.818	573.27099
663.262	590.27262
663.707	617.40043
664.151	628.35527
664.595	620.32884
665.039	580.28947
665.483	626.41772
665.927	644.32627
666.371	623.29418
666.814	626.31227
667.258	631.34401
667.701	670.23022
668.145	645.41902
668.588	617.35906
669.031	620.28708
669.474	657.3831
669.917	628.20104
670.36	646.42568
670.803	723.51287
671.245	649.1417
671.688	669.4269
672.13	702.36874
672.573	691.52985
673.015	734.52812
673.457	693.29457
673.899	704.47989
674.341	696.45856
674.783	630.33171
675.225	704.50974
675.666	782.63897
676.108	744.3609
676.549	756.50281
676.991	730.36349
677.432	747.23585
677.873	797.53259
678.314	766.55736
678.755	815.70932
679.196	798.53635
679.637	760.55636
680.078	766.52342
680.518	798.54298
680.959	845.68659
681.399	813.71111
681.839	846.72721
682.28	854.79078
682.72	871.64703
683.16	895.86816
683.6	906.68789
684.039	904.49852
684.479	959.94885
684.919	985.87658
685.358	905.87737
685.798	959.07415
686.237	1015.94877
686.676	948.73404
687.115	1042.95902
687.554	1048.00453
687.993	1066.84104
688.432	1077.9276
688.871	1056.91267
689.309	1090.06906
689.748	1128.77112
690.186	1089.00071
690.625	1188.14353
691.063	1107.07652
691.501	1194.29657
691.939	1232.40484
692.377	1239.29652
692.815	1286.38568
693.253	1229.22845
693.69	1299.07371
694.128	1338.42502
694.565	1313.31665
695.003	1398.67332
695.44	1363.3755
695.877	1427.42414
696.314	1435.08686
696.751	1416.28938
697.188	1501.44887
697.625	1474.30297
698.061	1448.50141
698.498	1461.46901
698.934	1559.60756
699.371	1555.5503
699.807	1630.62815
700.243	1613.69565
700.679	1631.42195
701.115	1671.61774
701.551	1651.5846
701.987	1676.38202
702.422	1726.75507
702.858	1825.83101
703.294	1844.68346
703.729	1870.94423
704.164	1840.84066
704.599	1862.58892
705.035	1912.63477
705.47	1920.97275
705.904	1948.78442
706.339	1990.77073
706.774	1998.8626
707.209	2005.84207
707.643	2050.98904
708.078	2039.05735
708.512	2132.2681
708.946	2132.98254
709.38	2217.04155
709.814	2210.80465
710.248	2256.20725
710.682	2244.1098
711.116	2326.21878
711.549	2204.4
711.983	2266.92092
712.416	2381.09982
712.85	2344.30533
713.283	2400.07329
713.716	2407.3334
714.149	2413.97311
714.582	2570.85545
715.015	2429.28123
715.448	2413.43169
715.881	2487.61543
716.313	2607.06005
716.746	2617.13799
717.178	2612.22475
717.61	2626.56343
718.043	2743.39884
718.475	2802.30476
718.907	2731.46341
719.339	2750.91212
719.77	2759.2245
720.202	2811.49503
720.634	2858.38236
721.065	2863.12437
721.497	2946.36311
721.928	2859.34464
722.359	2958.33436
722.79	3012.22205
723.221	3040.44691
723.652	3168.60494
724.083	3162.81625
724.514	3205.93809
724.945	3149.06179
725.375	3304.03094
725.806	3226.38182
726.236	3314.63255
726.666	3344.0655
727.096	3447.29037
727.526	3441.68764
727.956	3585.80173
728.386	3645.24984
728.816	3589.60554
729.246	3650.31162
729.675	3639.21334
730.105	3726.20114
730.534	3787.83707
730.964	3833.30906
731.393	3897.14558
731.822	3971.45892
732.251	3975.39896
732.68	4069.65531
733.109	4197.07657
733.537	4140.04525
733.966	4294.13284
734.395	4350.51376
734.823	4328.21079
735.251	4410.75475
735.68	4407.95037
736.108	4434.04713
736.536	4419.55343
736.964	4542.41424
737.392	4644.93426
737.82	4568.61055
738.247	4727.50695
738.675	4645.4456
739.102	4667.90648
739.53	4788.11921
739.957	4812.15888
740.384	4881.49314
740.811	4836.77875
741.238	4990.60093
741.665	5013.26613
742.092	4740.2285
742.519	4944.72364
742.945	4919.57243
743.372	4834.792
743.798	4965.95405
744.225	4941.32719
744.651	4905.78829
745.077	4979.72197
745.503	4964.46372
745.929	5049.46592
746.355	4907.55244
746.781	4944.61206
747.207	4832.43868
747.632	4824.79764
748.058	4890.87927
748.483	4929.12981
748.908	4935.74695
749.334	4920.67379
749.759	4829.46382
750.184	4937.49089
750.609	4874.63083
751.033	4876.25129
751.458	4860.9466
751.883	4823.68968
752.307	4869.33321
752.732	4840.03436
753.156	4738.74655
753.58	4800.3695
754.005	4719.90497
754.429	4715.48744
754.853	4636.91145
755.277	4614.55
755.7	4739.81514
756.124	4601.90951
756.548	4544.5338
756.971	4551.77863
757.394	4539.16163
757.818	4500.27692
758.241	4446.17655
758.664	4499.08844
759.087	4421.29231
759.51	4412.92702
759.933	4399.80731
760.356	4358.35732
760.778	4343.94502
761.201	4279.83173
761.623	4125.78813
762.046	4147.64471
762.468	4135.83157
762.89	4145.96722
763.312	4087.04378
763.734	4135.90299
764.156	3988.14786
764.578	4057.51755
765	3945.06065
765.421	3898.45733
765.843	3900.64598
766.264	3838.87626
766.686	3848.21849
767.107	3745.09483
767.528	3735.56622
767.949	3645.46841
768.37	3653.30795
768.791	3643.03792
769.212	3594.44904
769.632	3497.95418
770.053	3496.73035
770.473	3440.13592
770.894	3362.28754
771.314	3343.0067
771.734	3278.95539
772.154	3267.57173
772.575	3275.8757
772.994	3268.77275
773.414	3254.07416
773.834	3093.4106
774.254	3119.27149
774.673	3163.30487
775.093	3068.429
775.512	2891.36805
775.931	3008.54802
776.351	2946.43804
776.77	2865.33325
777.189	2798.11534
777.607	2754.55791
778.026	2822.40951
778.445	2692.51945
778.864	2587.45428
779.282	2663.10536
779.701	2573.39534
780.119	2518.45235
780.537	2455.30918
780.955	2472.39982
781.373	2384.23989
781.791	2415.82725
782.209	2346.74949
782.627	2316.58643
783.045	2197.74534
783.462	2269.37576
783.88	2244.44907
784.297	2233.27603
784.715	2075.318
785.132	2147.99376
785.549	2054.1283
785.966	2028.14905
786.383	1984.03922
786.8	2014.75747
787.217	1941.86052
787.633	1844.02397
788.05	1821.64059
788.466	1886.68585
788.883	1845.11914
789.299	1743.67272
789.715	1787.82874
790.131	1672.80484
790.547	1677.81405
790.963	1723.83141
791.379	1645.8491
791.795	1601.36688
792.21	1646.50681
792.626	1465.3897
793.041	1507.5964
793.457	1499.57438
793.872	1410.30253
794.287	1454.49204
794.702	1371.38702
795.117	1364.48726
795.532	1355.51843
795.947	1333.27326
796.362	1300.19011
796.776	1254.086
797.191	1218.24465
797.605	1196.12959
798.02	1162.14113
798.434	1231.9811
798.848	1175.24216
799.262	1086.09635
799.676	1101.06827
800.09	1083.06419
800.504	1011.91504
800.918	986.75936
801.331	907.89489
801.745	976.7352
802.158	887.78606
802.572	915.78263
802.985	943.79297
803.398	834.61423
803.811	792.65922
804.224	803.62859
804.637	858.66708
805.05	792.48462
805.462	755.5374
805.875	778.7065
806.288	721.47275
806.7	733.53314
807.112	693.32846
807.525	684.40371
807.937	711.49035
808.349	641.36711
808.761	664.39938
809.173	635.32383
809.584	602.27578
809.996	526.12759
810.408	575.31923
810.819	547.11839
811.231	645.50417
811.642	588.2721
812.053	609.28305
812.464	497.03297
812.875	517.17653
813.286	518.19423
813.697	540.05988
814.108	506.07998
814.519	546.05755
814.929	492.10939
815.34	411.88393
815.75	444.02215
816.16	414.91467
816.571	424.99135
816.981	428.88701
817.391	352.76308
817.801	364.8267
818.211	403.85853
818.62	403.87753
819.03	372.82292
819.44	307.72643
819.849	324.73975
820.259	307.71546
820.668	338.763
821.077	330.75891
821.486	314.681
821.895	322.7156
822.304	321.78355
822.713	290.62574
823.122	306.70035
823.531	262.56339
823.939	289.65173
824.348	253.56566
824.756	239.55416
825.164	247.57497
825.573	272.63279
825.981	240.54997
826.389	258.60022
826.797	277.65495
827.205	284.60228
827.612	212.48601
828.02	172.37702
828.428	236.56029
828.835	211.52714
829.243	221.48575
829.65	215.50483
830.057	178.40365
830.464	253.57941
830.871	223.49921
831.278	172.39147
831.685	210.43192
832.092	186.42264
832.499	233.4722
832.905	195.46037
833.312	194.40315
833.718	205.48248
834.124	183.39191
834.531	152.35879
834.937	175.42594
835.343	136.30765
835.749	179.38467
836.155	142.35406
836.561	156.36308
836.966	177.40488
837.372	144.34583
837.777	166.39199
838.183	176.36248
838.588	161.3804
838.993	180.41183
839.399	135.31464
839.804	77.18045
840.209	173.42154
840.613	155.32232
841.018	151.35995
841.423	121.29638
841.828	135.32637
842.232	138.31764
842.637	191.42634
843.041	100.2469
843.445	94.22369
843.849	126.29788
844.253	122.27374
844.657	93.22594
845.061	157.34088
845.465	94.21689
845.869	147.32148
846.272	113.26347
846.676	101.22815
847.079	120.29355
847.483	126.29765
847.886	99.22719
848.289	90.23436
848.692	50.12127
849.095	109.24763
849.498	125.29638
849.901	85.18385
850.304	105.23825
850.707	96.23327
851.109	107.25673
851.512	115.26972
851.914	83.20233
852.316	111.27118
852.718	97.24681
853.121	113.26368
853.523	54.12017
853.925	98.24799
854.326	106.25486
854.728	93.23016
855.13	101.25225
855.531	70.16074
855.933	71.16137
856.334	72.17397
856.736	124.26492
857.137	87.19476
857.538	75.18255
857.939	73.17582
858.34	79.18202
858.741	96.23963
859.142	65.14875
859.542	103.26254
859.943	55.13146
860.343	61.14642
860.744	78.18205
861.144	115.2693
861.544	61.14296
861.945	77.18812
862.345	52.12165
862.745	90.21566
863.145	31.06997
863.544	113.27319
863.944	85.19138
864.344	70.1644
864.743	149.3485
865.143	118.29187
865.542	38.08354
865.941	92.21851
866.34	80.18039
866.74	74.19177
867.139	78.18133
867.537	53.12862
867.936	79.18268
868.335	49.11994
868.734	90.22082
869.132	67.14671
869.531	62.14185
869.929	95.20679
870.327	100.22806
870.726	76.17947
871.124	114.24989
871.522	40.09807
871.92	108.25355
872.318	68.15802
872.715	60.14031
873.113	37.08637
873.511	80.19009
873.908	48.11903
874.306	72.17338
874.703	30.07178
875.1	50.12141
875.497	65.14857
875.894	62.14885
876.291	86.20214
876.688	76.18861
877.085	35.08026
877.482	69.16562
877.878	85.19827
878.275	40.09847
878.671	24.04963
879.068	102.23394
879.464	43.09994
879.86	8.01831
880.256	16.03756
880.652	76.18537
881.048	62.14573
881.444	51.1146
881.84	65.15851
882.236	70.16863
882.631	79.18659
883.027	93.21342
883.422	35.08592
883.817	62.15111
884.213	76.1873
884.608	99.23699
885.003	53.12153
885.398	26.06304
885.793	36.08682
886.188	43.10282
886.582	75.18269
886.977	68.15308
887.371	8.01949
887.766	32.07741
888.16	25.05921
888.554	68.15983
888.949	72.17318
889.343	88.20377
889.737	58.15088
890.131	75.18036
890.525	30.0748
890.918	51.12344
891.312	92.20702
891.706	9.02291
892.099	112.27041
892.492	100.20187
892.886	73.17041
893.279	41.10054
893.672	63.1554
894.065	63.15168
894.458	50.11972
894.851	47.10985
895.244	32.07898
895.637	111.25463
896.029	26.06183
896.422	29.06743
896.814	42.10022
897.206	54.12524
897.599	116.2719
897.991	92.21345
898.383	91.20506
898.775	125.2692
899.167	62.1406
899.559	48.11589
899.951	38.08519
900.342	52.12598
900.734	103.24995
901.125	83.20737
901.517	22.05231
901.908	61.13768
902.299	41.09688
902.69	90.20409
903.082	127.29086
903.473	84.1952
903.863	63.15352
904.254	99.2209
904.645	91.21285
905.036	59.14005
905.426	59.12679
905.817	56.13091
906.207	18.0409
906.597	112.25078
906.987	27.06714
907.378	48.11768
907.768	57.14596
908.158	19.04465
908.547	63.15905
908.937	48.11712
909.327	48.11168
909.717	38.09144
910.106	40.09189
910.495	29.06903
910.885	86.20897
911.274	67.16027
911.663	24.05834
912.052	76.17696
912.441	71.17475
912.83	58.12612
913.219	93.23202
913.608	65.15323
913.997	26.0637
914.385	66.15076
914.774	46.10736
915.162	71.16372
915.55	82.18754
915.939	32.07872
916.327	59.14011
916.715	89.22067
917.103	37.08603
917.491	85.1999
917.878	80.1873
918.266	-15.03777
918.654	80.19759
919.041	65.16568
919.429	59.13317
919.816	72.17469
920.203	66.15489
920.591	56.13368
920.978	86.2008
921.365	84.21241
921.752	34.07663
922.139	116.23665
922.525	29.06743
922.912	89.20588
923.299	49.11735
923.685	-5.01258
924.072	33.07107
924.458	52.12446
924.844	74.17536
925.231	29.06423
925.617	37.09197
926.003	73.17828
926.389	66.15965
926.774	55.13347
927.16	43.10255
927.546	80.19919
927.931	25.05983
928.317	58.12649
928.702	28.06339
929.088	69.15974
929.473	71.17488
929.858	39.09258
930.243	86.19898
930.628	55.1299
931.013	113.26648
931.398	90.19245
931.783	20.05048
932.167	92.21683
932.552	45.10814
932.937	76.17912
933.321	78.18911
933.705	7.0169
934.09	16.03827
934.474	40.09019
934.858	46.11545
935.242	25.05553
935.626	50.12404
936.009	68.17616
936.393	106.26104
936.777	81.2001
937.16	47.11908
937.544	44.09759
937.927	46.1132
938.311	64.14831
938.694	96.24396
939.077	63.14423
939.46	51.11727
939.843	53.10215
940.226	47.11551
940.609	121.2654
940.991	22.05382
941.374	38.09005
941.757	38.08984
942.139	60.12908
942.522	69.15441
942.904	35.08096
943.286	64.15546
943.668	88.22086
944.05	56.1325
944.432	22.05219
944.814	31.07276
945.196	12.02856
945.578	58.13452
945.959	9.02012
946.341	45.10389
946.722	47.10496
947.104	98.22251
947.485	37.08266
947.866	51.12479
948.247	40.09836
948.628	3.00693
949.009	12.02981
949.39	62.14686
949.771	26.05661
950.152	22.05221
950.532	49.11945
950.913	85.19483
951.293	71.18669
951.674	54.12519
952.054	64.15522
952.434	70.16671
952.814	59.13246
953.194	-3.00753
953.574	70.16395
953.954	30.0677
954.334	88.21151
954.714	53.12465
955.093	50.11793
955.473	59.14339
955.853	45.11247
956.232	38.10081
956.611	21.04783
956.99	68.16462
957.37	6.01473
957.749	27.06089
958.128	60.14618
958.506	31.07798
958.885	44.10648
959.264	66.15712
959.643	114.24641
960.021	50.12004
960.4	45.09733
960.778	36.08392
961.156	49.11757
961.535	69.15141
961.913	87.1946
962.291	74.18472
962.669	56.1372
963.047	120.2929
963.424	49.12225
963.802	82.19296
964.18	36.08623
964.557	57.1245
964.935	57.12892
965.312	67.16885
965.69	35.08356
966.067	77.17656
966.444	32.07436
966.821	69.17102
967.198	34.07826
967.575	108.24988
967.952	83.1852
968.329	63.14776
968.705	124.25078
969.082	84.20945
969.458	32.07504
969.835	35.08193
970.211	47.11764
970.587	64.15306
970.963	41.10043
971.339	90.22628
971.715	64.15353
972.091	91.2131
972.467	52.12251
972.843	83.1993
973.219	70.15848
973.594	51.12871
973.97	28.0622
974.345	55.12667
974.721	14.03217
975.096	93.21599
975.471	91.20389
975.846	48.1096
976.221	55.13452
976.596	135.3108
976.971	108.25523
977.346	73.16012
977.72	59.14355
978.095	27.06743
978.469	63.14284
978.844	68.16257
979.218	74.17217
979.593	96.21699
979.967	8.01845
980.341	86.18883
980.715	47.11427
981.089	37.08912
981.463	47.10318
981.837	73.17275
982.21	48.10357
982.584	74.17142
982.957	47.11367
983.331	34.07585
983.704	88.20893
984.078	58.1367
984.451	44.10326
984.824	78.18262
985.197	-5.01157
985.57	21.04998
985.943	39.09072
986.316	59.13621
986.688	57.13118
987.061	64.14366
987.434	79.2003
987.806	24.05515
988.179	31.06991
988.551	80.19301
988.923	25.05896
989.295	97.22919
989.667	50.11642
990.039	116.27689
990.411	23.04996
990.783	75.16145
991.155	26.06049
991.527	32.07419
991.898	76.18204
992.27	67.16039
992.641	45.10773
993.012	31.068
993.384	55.1247
993.755	63.15518
994.126	69.16
994.497	46.10846
994.868	40.08672
995.239	45.10422
995.61	50.12109
995.98	32.07463
996.351	62.14828
996.722	61.13673
997.092	34.07779
997.462	71.16019
997.833	24.05414
998.203	40.09152
998.573	51.12251
998.943	82.18384
999.313	54.12469
999.683	45.10397
1000.053	49.10485
1000.423	42.0971
1000.792	1.00249
1001.162	8.01889
1001.531	79.18623
1001.901	52.12365
1002.27	37.07718
1002.639	53.12905
1003.009	73.16484
1003.378	69.16952
1003.747	41.09209
1004.116	62.14134
1004.485	53.12104
1004.853	-5.01211
1005.222	-15.03605
1005.591	38.08614
1005.959	102.21792
1006.328	81.17347
1006.696	21.04854
1007.064	17.04088
1007.433	62.14703
1007.801	84.1925
1008.169	41.09845
1008.537	49.10312
1008.905	46.10334
1009.273	72.16831
1009.64	83.19109
1010.008	46.1047
1010.375	69.15657
1010.743	46.0979
1011.11	83.1907
1011.478	89.21143
1011.845	67.149
1012.212	71.15462
1012.579	40.09453
1012.946	9.02038
1013.313	63.1415
1013.68	66.13985
1014.047	31.07091
1014.414	9.02045
1014.78	45.10793
1015.147	50.11412
1015.513	37.08556
1015.88	69.16757
1016.246	55.12814
1016.612	81.17384
1016.978	61.14402
1017.344	90.2122
1017.71	60.13871
1018.076	24.0537
1018.442	81.20003
1018.808	86.20717
1019.174	10.0241
1019.539	-26.05528
1019.905	108.24212
1020.27	31.07345
1020.636	7.01594
1021.001	76.17382
1021.366	13.03026
1021.731	79.19738
1022.096	48.11764
1022.461	62.14037
1022.826	86.19582
1023.191	75.18887
1023.556	57.12655
1023.92	27.0632
1024.285	49.11313
1024.649	22.05155
1025.014	23.05418
1025.378	33.0805
1025.742	56.13188
1026.107	85.18093
1026.471	61.13453
1026.835	37.08817
1027.199	29.06727
1027.562	10.0221
1027.926	65.15066
1028.29	38.09268
1028.654	32.07009
1029.017	87.20413
1029.381	82.18693
1029.744	65.15904
1030.107	96.21487
1030.471	71.16294
1030.834	35.0747
1031.197	82.18739
1031.56	22.04955
1031.923	99.24465
1032.286	139.30578
1032.648	69.1546
1033.011	108.23744
1033.374	43.09539
1033.736	19.04848
1034.099	24.05637
1034.461	44.10788
1034.823	61.1462
1035.185	49.11717
1035.548	63.14724
1035.91	32.07336
1036.272	59.12854
1036.634	106.24535
1036.995	41.09133
1037.357	89.20702
1037.719	83.19238
1038.08	89.20228
1038.442	58.13105
1038.803	17.03857
1039.165	43.10372
1039.526	86.19764
1039.887	107.24161
1040.248	61.14653
1040.609	66.15386
1040.97	36.08415
1041.331	60.14678
1041.692	102.22961
1042.053	122.2585
1042.413	97.21186
1042.774	96.22203
1043.134	61.13633
1043.495	41.09901
1043.855	92.21447
1044.215	63.14851
1044.576	75.17205
1044.936	88.18932
1045.296	108.25543
1045.656	65.15042
1046.016	33.07591
1046.375	44.10225
1046.735	77.16882
1047.095	69.15364
1047.454	59.11651
1047.814	43.09912
1048.173	30.06762
1048.533	100.21596
1048.892	33.07643
1049.251	55.13116
1049.61	41.09703
1049.969	115.25437
1050.328	90.18344
1050.687	30.06961
1051.046	72.16626
1051.405	36.08514
1051.763	77.17003
1052.122	-12.02898
1052.48	64.15043
1052.839	106.23989
1053.197	40.08993
1053.555	57.12043
1053.914	65.15114
1054.272	-5.01141
1054.63	39.09179
1054.988	53.12158
1055.345	10.02026
1055.703	77.17663
1056.061	73.18212
1056.419	75.18928
1056.776	44.10023
1057.134	-14.03069
1057.491	59.14156
1057.848	55.13021
1058.206	4.0089
1058.563	63.13107
1058.92	47.1027
1059.277	84.19713
1059.634	56.12353
1059.991	110.24955
1060.348	73.15708
1060.704	78.18126
1061.061	67.1446
1061.418	22.05143
1061.774	65.15334
1062.131	54.13985
1062.487	33.07336
1062.843	43.10282
1063.199	81.19213
1063.555	75.16665
1063.911	32.07726
1064.267	76.14616
1064.623	94.21947
1064.979	9.0197
1065.335	54.12191
1065.691	19.04304
1066.046	61.12657
1066.402	38.08175
1066.757	83.19998
1067.112	54.12608
1067.468	27.06214
1067.823	-6.01362
1068.178	41.09424
1068.533	80.18429
1068.888	48.1089
1069.243	50.11826
1069.598	19.04409
1069.952	70.15318
1070.307	62.14766
1070.662	79.18079
1071.016	47.10196
1071.371	77.1669
1071.725	87.19517
1072.079	93.21257
1072.434	43.10058
1072.788	38.0853
1073.142	85.19912
1073.496	33.07479
1073.85	48.10584
1074.203	87.20069
1074.557	70.18128
1074.911	45.10178
1075.265	66.14559
1075.618	94.21801
1075.971	45.10215
1076.325	70.17175
1076.678	-11.0243
1077.031	-11.02344
1077.385	105.21572
1077.738	48.10277
1078.091	28.06158
1078.444	24.05263
1078.796	53.12537
1079.149	58.1384
1079.502	90.2031
1079.855	36.08044
1080.207	43.10113
1080.56	59.14752
1080.912	62.14368
1081.264	92.21109
1081.617	63.14724
1081.969	73.17728
1082.321	16.03748
1082.673	75.1652
1083.025	24.05425
1083.377	330.69646
1083.728	84.18429
1084.08	15.03587
1084.432	61.13965
1084.783	57.12429
1085.135	59.14237
1085.486	63.13795
1085.838	107.25066
1086.189	83.19345
1086.54	96.21575
1086.891	62.15342
1087.242	118.2767
1087.593	54.12345
1087.944	57.12392
1088.295	87.186
1088.646	120.2804
1088.996	46.10685
1089.347	44.10273
1089.698	35.08029
1090.048	27.06726
1090.398	62.13556
1090.749	33.07488
1091.099	34.08348
1091.449	35.08423
1091.799	66.15791
1092.149	21.05014
1092.499	33.07734
1092.849	29.07122
1093.199	64.15183
1093.548	80.18502
1093.898	34.08144
1094.248	22.054
1094.597	90.22245
1094.947	96.24569
1095.296	60.14262
1095.645	63.15649
1095.994	65.14875
1096.343	57.13806
1096.692	71.18238
1097.041	63.16733
1097.39	6.01446
1097.739	24.06026
1098.088	44.11292
1098.437	72.18459
1098.785	47.12128
1099.134	37.09321
1099.482	49.13093
1099.83	51.12917
1100.179	71.18148
1100.527	8.02039
1100.875	64.1642
1101.223	63.16228
1101.571	-18.04848
1101.919	32.08284
1102.267	28.07745
1102.615	3.00964
1102.962	-4.01284
1103.31	8.02568
1103.658	-5.01604
