Data from N3 R3 sample 11_Subt2__5__11-07-57-812.txt Node

Date: Thu Sep 18 11:07:57 PDT 2025
User: uwsun
Spectrometer: HDX01956
Trigger mode: 0
Integration Time (sec): 5.000000E-1
Scans to average: 1
Nonlinearity correction enabled: true
Boxcar width: 0
Storing dark spectrum: false
XAxis mode: Wavelengths
Number of Pixels in Spectrum: 2068
>>>>>Begin Spectral Data<<<<<
194.03	31.08959
194.578	45.14555
195.127	47.14984
195.676	38.12172
196.225	37.09821
196.773	30.08345
197.321	83.22941
197.87	148.37796
198.418	142.3657
198.966	182.47602
199.513	148.37597
200.061	128.32608
200.609	144.37945
201.156	123.2707
201.704	145.36475
202.251	147.39016
202.798	117.3044
203.345	160.39532
203.892	140.35413
204.438	107.25566
204.985	161.38158
205.532	120.31654
206.078	114.27991
206.624	185.46135
207.17	219.50699
207.716	141.34652
208.262	191.37557
208.808	195.48611
209.354	178.43817
209.899	120.30322
210.445	137.34352
210.99	169.41118
211.535	214.49846
212.08	172.39748
212.625	150.37415
213.17	180.45595
213.715	185.42028
214.259	148.34582
214.804	139.34085
215.348	186.42726
215.892	134.32634
216.436	122.27958
216.98	120.26471
217.524	190.45074
218.068	193.4827
218.612	192.4841
219.155	154.36337
219.698	179.4226
220.242	164.40208
220.785	148.34718
221.328	147.36193
221.871	201.50597
222.414	150.36912
222.956	101.24261
223.499	122.27216
224.041	109.24964
224.583	137.28781
225.126	89.19661
225.668	158.38104
226.21	176.44122
226.751	215.47038
227.293	123.27785
227.835	143.34897
228.376	124.28142
228.918	105.26167
229.459	129.32113
230	187.44354
230.541	117.26904
231.082	159.38425
231.622	93.2112
232.163	105.25356
232.704	203.50035
233.244	151.37206
233.784	98.23795
234.324	207.45823
234.864	149.33425
235.404	121.28423
235.944	138.32322
236.484	180.44375
237.023	108.25474
237.563	161.37125
238.102	150.35228
238.641	144.35944
239.18	110.25865
239.719	134.334
240.258	154.34326
240.797	183.43154
241.335	111.26977
241.874	174.33544
242.412	174.41851
242.95	145.34883
243.488	95.21408
244.026	174.40066
244.564	181.36783
245.102	212.47194
245.64	129.3068
246.177	154.33928
246.715	195.46144
247.252	118.26748
247.789	274.48893
248.326	131.31503
248.863	164.35797
249.4	183.40933
249.936	215.4421
250.473	158.37107
251.009	126.28793
251.546	170.37641
252.082	149.31951
252.618	159.35301
253.154	155.37048
253.69	155.34499
254.226	161.38247
254.761	125.28029
255.297	104.22787
255.832	174.4096
256.367	158.36832
256.903	172.37893
257.438	166.38529
257.972	151.33413
258.507	132.30189
259.042	165.3558
259.576	218.47382
260.111	158.35975
260.645	199.42285
261.179	148.34501
261.713	143.31907
262.247	141.32033
262.781	196.40712
263.315	151.36354
263.849	162.40232
264.382	177.40179
264.915	161.37834
265.449	110.26889
265.982	154.34752
266.515	226.54336
267.048	161.33883
267.58	134.28815
268.113	133.28717
268.646	146.35503
269.178	184.40588
269.71	169.37084
270.243	196.44807
270.775	196.4963
271.307	139.32881
271.838	163.38139
272.37	153.37226
272.902	182.40701
273.433	180.39506
273.965	174.41819
274.496	154.37882
275.027	185.45515
275.558	214.51354
276.089	189.46654
276.62	104.26251
277.15	151.36876
277.681	170.3621
278.211	182.43825
278.741	176.38726
279.272	191.43163
279.802	163.40192
280.332	152.35712
280.861	187.44114
281.391	192.43061
281.921	147.34934
282.45	183.44807
282.98	158.40874
283.509	198.44462
284.038	231.51797
284.567	242.55099
285.096	202.48309
285.625	158.35305
286.153	209.49208
286.682	178.40528
287.21	151.35733
287.739	135.31836
288.267	156.37792
288.795	165.42721
289.323	193.44787
289.851	182.42409
290.378	164.36282
290.906	198.4784
291.433	191.47026
291.961	187.42293
292.488	182.44637
293.015	218.50637
293.542	262.65796
294.069	190.46581
294.596	146.35516
295.122	243.57079
295.649	221.47451
296.175	167.3987
296.702	184.44575
297.228	220.52009
297.754	152.34091
298.28	172.39337
298.806	217.51449
299.332	235.51609
299.857	219.48985
300.383	207.51284
300.908	213.51629
301.433	251.6022
301.958	220.49584
302.483	168.41325
303.008	271.65734
303.533	225.57003
304.058	182.42008
304.582	219.5094
305.107	222.56811
305.631	234.52027
306.155	233.53297
306.679	212.49185
307.203	194.44582
307.727	251.58198
308.251	236.57149
308.775	263.6257
309.298	216.51341
309.822	171.42644
310.345	234.54976
310.868	249.58853
311.391	197.47984
311.914	219.54058
312.437	263.58729
312.96	252.58141
313.482	163.38139
314.005	217.53328
314.527	209.5357
315.049	240.59643
315.571	234.51832
316.093	230.56031
316.615	228.53796
317.137	267.56833
317.659	275.64947
318.18	227.53196
318.702	290.66133
319.223	224.44991
319.744	274.60211
320.265	250.59763
320.786	303.73577
321.307	225.54742
321.828	269.59299
322.348	299.68364
322.869	264.61587
323.389	529.95216
323.909	312.69021
324.43	273.63674
324.95	308.68392
325.47	319.76677
325.989	315.72456
326.509	354.7625
327.029	350.76974
327.548	296.65264
328.067	331.77715
328.587	353.85329
329.106	297.65059
329.625	342.85911
330.144	344.77178
330.662	370.83419
331.181	357.81097
331.7	349.78091
332.218	371.77147
332.736	381.85425
333.255	384.8661
333.773	346.78774
334.291	417.99387
334.808	380.82061
335.326	398.85248
335.844	389.87648
336.361	432.05664
336.879	403.90616
337.396	437.0086
337.913	430.94326
338.43	415.89061
338.947	433.98237
339.464	392.80841
339.981	368.83917
340.497	450.04505
341.014	382.89353
341.53	402.86551
342.046	514.20098
342.562	448.05594
343.078	474.04869
343.594	447.00426
344.11	509.13913
344.626	485.15148
345.141	440.95463
345.657	478.01526
346.172	485.09914
346.687	484.04098
347.202	571.20182
347.717	516.14795
348.232	533.23642
348.747	520.11903
349.261	483.99674
349.776	555.22233
350.29	546.27185
350.805	521.20139
351.319	557.19647
351.833	557.18619
352.347	574.25023
352.861	556.2079
353.374	558.17107
353.888	606.3607
354.401	581.21486
354.915	622.28148
355.428	580.33523
355.941	572.22794
356.454	575.17521
356.967	537.16235
357.48	556.16379
357.993	600.35548
358.505	585.30947
359.018	653.45465
359.53	660.46328
360.042	627.2776
360.554	696.53613
361.066	674.48258
361.578	656.30982
362.09	663.42814
362.602	702.40051
363.113	689.46071
363.625	642.32333
364.136	670.32358
364.647	690.47396
365.158	687.43872
365.669	703.50727
366.18	711.49822
366.691	706.37916
367.201	718.54045
367.712	745.51427
368.222	770.56621
368.733	722.39514
369.243	766.5107
369.753	716.47409
370.263	844.77835
370.773	756.63458
371.282	816.70878
371.792	839.69163
372.301	804.7066
372.811	832.9233
373.32	869.61443
373.829	845.73101
374.338	904.71245
374.847	969.88619
375.356	935.87678
375.865	970.73874
376.373	1066.99345
376.882	1066.25251
377.39	1075.14371
377.898	1055.15804
378.407	1157.11016
378.915	1225.10267
379.423	1220.25058
379.93	1331.3886
380.438	1303.4477
380.946	1419.49167
381.453	1402.56833
381.96	1489.65311
382.468	1577.69349
382.975	1732.9969
383.482	1763.68337
383.989	1799.25806
384.495	1914.95312
385.002	1973.57922
385.509	2075.15261
386.015	2256.58435
386.521	2357.0654
387.028	2391.06436
387.534	2446.79898
388.04	2525.39629
388.546	2579.96538
389.051	2762.96403
389.557	2957.22607
390.063	3203.05571
390.568	3363.4031
391.073	3401.90683
391.578	3638.437
392.084	3640.9712
392.589	3733.62831
393.093	4035.13623
393.598	4527.60986
394.103	4834.67746
394.607	5300.50179
395.112	5691.45079
395.616	6030.21189
396.12	6524.68879
396.624	7340.9059
397.128	7829.23074
397.632	8721.05018
398.136	9423.30675
398.639	9969.67805
399.143	11004.0534
399.646	12490.79477
400.15	13879.85651
400.653	15452.49256
401.156	17535.26847
401.659	20187.63173
402.162	24751.62878
402.664	32851.68317
403.167	46241.19101
403.67	61392.71467
404.172	63919.58413
404.674	63858.43483
405.176	63738.15102
405.678	63977.72923
406.18	64011.81569
406.682	63863.44694
407.184	63926.60148
407.686	63841.39382
408.187	64025.8516
408.688	63892.51763
409.19	58749.52924
409.691	47199.90687
410.192	39794.77942
410.693	34457.62845
411.194	31353.1
411.694	29844.51156
412.195	27537.04003
412.696	24826.35306
413.196	22977.91306
413.696	22415.20707
414.196	22905.58792
414.696	22394.97118
415.196	21270.34876
415.696	19287.34559
416.196	15624.8221
416.695	12098.56021
417.195	10271.5494
417.694	9693.03549
418.194	9267.94894
418.693	8538.72628
419.192	8248.47601
419.691	8057.24926
420.19	7908.26739
420.688	7795.28875
421.187	7583.4464
421.685	7018.76324
422.184	6372.90541
422.682	5511.71886
423.18	4626.5462
423.678	4121.76743
424.176	3846.87843
424.674	3642.79687
425.172	3466.18739
425.669	3215.50135
426.167	3102.17387
426.664	2829.05898
427.161	2575.10215
427.659	2369.31803
428.156	2296.68821
428.652	2100.36882
429.149	2055.15983
429.646	1928.72312
430.143	1912.00537
430.639	1743.82546
431.135	1598.89111
431.632	1573.54605
432.128	1500.63941
432.624	1424.79731
433.12	1407.37465
433.616	1348.19817
434.111	1246.30212
434.607	1237.31205
435.103	1145.86277
435.598	1114.81362
436.093	1095.04692
436.588	1064.92622
437.083	1016.85124
437.578	993.89094
438.073	909.93086
438.568	956.97047
439.062	876.56585
439.557	831.65862
440.051	804.54421
440.546	778.52147
441.04	818.68734
441.534	749.65284
442.028	761.59457
442.522	712.50132
443.015	646.22062
443.509	731.55658
444.002	694.49914
444.496	658.25487
444.989	674.44783
445.482	700.52887
445.975	706.42871
446.468	644.22991
446.961	648.24055
447.454	597.19652
447.947	624.33052
448.439	651.42145
448.931	609.24875
449.424	616.40973
449.916	618.35018
450.408	586.20178
450.9	588.28564
451.392	564.29991
451.884	570.1784
452.375	523.18204
452.867	513.04828
453.358	547.13254
453.849	531.02476
454.341	502.03341
454.832	480.94897
455.323	570.28449
455.814	517.07462
456.304	504.06361
456.795	542.11842
457.285	504.00819
457.776	534.10089
458.266	449.98597
458.756	416.91486
459.247	450.99584
459.737	470.04674
460.226	526.0868
460.716	459.01101
461.206	418.93083
461.695	397.91823
462.185	422.93156
462.674	385.82339
463.163	429.89127
463.653	474.92218
464.142	436.98014
464.63	387.87803
465.119	401.86947
465.608	420.91435
466.096	387.78286
466.585	342.73666
467.073	336.74888
467.561	387.86841
468.05	332.72218
468.538	385.88058
469.026	328.73589
469.513	326.64904
470.001	371.7986
470.489	330.7422
470.976	367.80492
471.463	306.72477
471.951	296.70081
472.438	327.72626
472.925	360.79638
473.412	275.63787
473.899	261.57367
474.385	293.68365
474.872	277.61701
475.359	297.6957
475.845	295.5798
476.331	268.545
476.817	258.60235
477.303	255.56872
477.789	208.47971
478.275	246.58718
478.761	229.52424
479.247	257.54918
479.732	251.60197
480.218	306.76401
480.703	246.58268
481.188	276.56997
481.673	227.50355
482.158	246.51075
482.643	239.58842
483.128	225.5068
483.612	303.68665
484.097	206.48115
484.581	244.54272
485.066	220.5211
485.55	259.5489
486.034	216.45267
486.518	258.59288
487.002	162.38477
487.486	169.40023
487.969	191.45093
488.453	163.39614
488.936	181.39683
489.42	224.47815
489.903	149.36307
490.386	129.26263
490.869	199.42322
491.352	140.33047
491.835	181.36027
492.318	162.35585
492.8	208.41681
493.283	224.55262
493.765	215.50995
494.247	196.44284
494.73	227.48445
495.212	150.34816
495.694	214.48823
496.175	180.42158
496.657	242.55121
497.139	181.30138
497.62	207.48263
498.102	230.55277
498.583	141.33959
499.064	177.38463
499.545	210.46323
500.026	220.48101
500.507	198.44224
500.988	244.5873
501.469	203.49057
501.949	256.60683
502.43	299.68612
502.91	328.65576
503.39	254.60464
503.87	346.77085
504.35	333.73497
504.83	343.70435
505.31	345.78372
505.79	357.79255
506.269	318.69026
506.749	419.88601
507.228	452.98024
507.707	535.07354
508.187	569.22123
508.666	567.26705
509.145	607.26146
509.623	660.35744
510.102	751.57082
510.581	798.64752
511.059	817.76467
511.538	894.95282
512.016	992.94427
512.494	983.93611
512.972	1114.1178
513.45	1134.0769
513.928	1268.36842
514.406	1383.54034
514.884	1473.82987
515.361	1590.68062
515.839	1724.65783
516.316	1745.88672
516.793	1857.14629
517.27	1877.94786
517.747	1989.33835
518.224	2038.86579
518.701	2035.68711
519.178	2101.29499
519.654	2158.05505
520.131	2092.23713
520.607	2105.1749
521.083	2020.78348
521.56	2039.9682
522.036	1989.60413
522.512	2005.1635
522.987	1956.01645
523.463	1865.87895
523.939	1824.04645
524.414	1688.60318
524.89	1667.74457
525.365	1582.46911
525.84	1463.56666
526.315	1477.6088
526.79	1371.26383
527.265	1343.30749
527.74	1235.32074
528.215	1154.10309
528.689	1052.82255
529.164	1045.76505
529.638	1009.10739
530.112	989.89696
530.587	946.63752
531.061	925.86521
531.534	894.80552
532.008	871.78833
532.482	844.63128
532.956	737.6453
533.429	730.55748
533.903	752.40535
534.376	682.30954
534.849	626.27238
535.322	670.38855
535.795	598.29156
536.268	614.32616
536.741	536.15104
537.213	568.16953
537.686	547.21224
538.158	549.12299
538.631	564.23154
539.103	433.90359
539.575	457.85758
540.047	457.9126
540.519	478.04699
540.991	441.99686
541.463	407.91291
541.934	368.77903
542.406	409.91664
542.877	414.86682
543.348	409.92153
543.82	373.85246
544.291	419.90888
544.762	390.86921
545.233	368.88031
545.703	329.69206
546.174	337.73882
546.645	307.70814
547.115	361.82172
547.585	329.71642
548.056	386.89226
548.526	367.8205
548.996	293.66939
549.466	338.77854
549.935	346.78233
550.405	331.68768
550.875	300.68027
551.344	302.68703
551.814	368.79266
552.283	325.6719
552.752	385.84688
553.221	352.73278
553.69	403.85032
554.159	372.87424
554.628	383.81451
555.096	338.81781
555.565	369.76594
556.033	425.94465
556.502	360.82027
556.97	437.89979
557.438	360.79705
557.906	425.93328
558.374	434.93439
558.842	450.99916
559.31	462.95191
559.777	493.10689
560.245	450.95343
560.712	459.96889
561.18	495.99995
561.647	509.02456
562.114	582.19518
562.581	609.34422
563.048	640.29615
563.514	709.56777
563.981	684.37149
564.448	698.37447
564.914	766.53049
565.381	815.58153
565.847	897.74421
566.313	909.75417
566.779	970.77972
567.245	978.85198
567.711	1007.97139
568.176	1063.89858
568.642	1158.32812
569.108	1258.39691
569.573	1231.18598
570.038	1372.05737
570.504	1377.28503
570.969	1486.70521
571.434	1568.41194
571.899	1628.69229
572.363	1745.6696
572.828	1817.7328
573.293	1838.73472
573.757	1951.86347
574.222	2020.75533
574.686	2074.89585
575.15	2178.16205
575.614	2223.09243
576.078	2187.0429
576.542	2363.97104
577.006	2324.91908
577.469	2395.37214
577.933	2386.97986
578.396	2379.17253
578.86	2404.14427
579.323	2441.28335
579.786	2442.75756
580.249	2399.15287
580.712	2336.28562
581.175	2342.3614
581.637	2310.95795
582.1	2291.74098
582.563	2227.61236
583.025	2199.225
583.487	2207.48041
583.95	2068.59391
584.412	2099.5275
584.874	2051.14813
585.336	2024.00322
585.797	1988.61913
586.259	1943.89097
586.721	1843.83306
587.182	1794.72561
587.643	1756.64368
588.105	1681.72853
588.566	1711.31001
589.027	1647.83769
589.488	1614.56588
589.949	1637.79371
590.41	1483.00404
590.87	1564.51236
591.331	1503.3076
591.791	1382.3667
592.252	1394.39876
592.712	1351.43573
593.172	1293.21527
593.632	1347.20932
594.092	1251.10996
594.552	1197.97821
595.011	1123.02533
595.471	1164.05325
595.931	1130.00027
596.39	1073.07563
596.849	1065.99011
597.308	1012.71974
597.768	1050.2283
598.227	1034.0195
598.685	977.81728
599.144	996.92095
599.603	947.82849
600.062	939.6069
600.52	953.76554
600.978	896.7724
601.437	944.7649
601.895	987.70193
602.353	936.68281
602.811	968.78315
603.269	898.78878
603.727	915.83575
604.184	900.70569
604.642	927.90682
605.099	985.88293
605.557	902.84165
606.014	883.57231
606.471	832.78981
606.928	913.67534
607.385	962.00688
607.842	931.76326
608.299	943.82075
608.755	975.94907
609.212	918.68833
609.668	924.71979
610.125	995.9671
610.581	995.90299
611.037	920.69794
611.493	957.83637
611.949	1006.0091
612.405	989.60078
612.861	921.75107
613.316	1017.98537
613.772	972.81735
614.227	1039.02499
614.683	1052.75342
615.138	1008.92094
615.593	992.87397
616.048	930.75323
616.503	1012.00621
616.958	913.92256
617.412	1026.97606
617.867	999.80323
618.321	1018.65577
618.776	971.7303
619.23	975.86827
619.684	934.70494
620.138	924.74189
620.592	852.74968
621.046	936.8292
621.5	816.67343
621.954	847.56179
622.407	870.59508
622.861	830.71364
623.314	806.54212
623.768	831.66168
624.221	771.26512
624.674	794.56013
625.127	791.56627
625.58	744.43017
626.033	792.45909
626.485	723.50153
626.938	792.61174
627.39	690.40712
627.843	692.38756
628.295	638.29504
628.747	637.34329
629.199	656.30739
629.651	664.33133
630.103	606.23167
630.555	587.0897
631.006	585.21189
631.458	571.20235
631.909	546.09439
632.361	564.16337
632.812	544.1316
633.263	573.1028
633.714	537.01355
634.165	529.14647
634.616	477.02919
635.067	504.00073
635.518	520.11519
635.968	479.84579
636.419	535.04585
636.869	502.0793
637.319	502.05614
637.769	517.04739
638.219	563.18964
638.669	460.00156
639.119	499.08503
639.569	497.08434
640.019	528.09874
640.468	475.96967
640.918	462.00252
641.367	476.96973
641.816	524.04585
642.265	498.0546
642.714	493.0251
643.163	558.15458
643.612	562.23958
644.061	519.99652
644.51	527.08814
644.958	518.02859
645.406	509.10353
645.855	503.11042
646.303	549.1372
646.751	554.14885
647.199	574.15751
647.647	575.19114
648.095	574.16494
648.543	574.02294
648.99	562.21215
649.438	528.09923
649.885	607.35152
650.333	535.91911
650.78	507.1132
651.227	542.1979
651.674	542.1094
652.121	607.32751
652.568	562.23855
653.015	498.12294
653.461	522.12189
653.908	504.04639
654.354	563.20107
654.801	531.12192
655.247	501.97773
655.693	515.22234
656.139	512.1065
656.585	510.10358
657.031	472.01251
657.477	515.01096
657.922	437.91193
658.368	445.0063
658.813	447.93073
659.259	426.95571
659.704	508.09175
660.149	401.85649
660.594	410.90167
661.039	411.8653
661.484	474.0238
661.929	372.8109
662.373	342.80876
662.818	394.90786
663.262	382.86195
663.707	410.97101
664.151	381.86688
664.595	317.72479
665.039	329.77065
665.483	297.7185
665.927	383.83611
666.371	374.82113
666.814	359.79798
667.258	352.79621
667.701	363.71883
668.145	341.79906
668.588	360.8368
669.031	306.68061
669.474	269.61531
669.917	327.6718
670.36	345.81033
670.803	339.7704
671.245	238.46434
671.688	293.67666
672.13	290.62144
672.573	287.6896
673.015	308.70266
673.457	348.70639
673.899	337.76648
674.341	270.6197
674.783	267.60999
675.225	266.62493
675.666	271.63257
676.108	284.58043
676.549	261.57921
676.991	256.53484
677.432	237.448
677.873	243.53006
678.314	253.57499
678.755	292.68359
679.196	239.52244
679.637	219.50377
680.078	246.54899
680.518	245.53692
680.959	245.55748
681.399	237.56234
681.839	239.55548
682.28	241.57403
682.72	203.44694
683.16	229.5488
683.6	247.53582
684.039	235.46209
684.479	210.49972
684.919	227.51235
685.358	164.39655
685.798	147.37323
686.237	200.45961
686.676	197.429
687.115	200.45408
687.554	268.60994
687.993	249.52402
688.432	227.49558
688.871	225.49413
689.309	219.50437
689.748	248.48937
690.186	145.32995
690.625	200.45243
691.063	162.37497
691.501	239.56555
691.939	219.53023
692.377	155.36509
692.815	264.61466
693.253	181.41603
693.69	175.36975
694.128	184.43162
694.565	217.49278
695.003	192.47403
695.44	171.3921
695.877	159.36298
696.314	191.38584
696.751	143.31485
697.188	228.50524
697.625	139.30218
698.061	113.26472
698.498	151.34624
698.934	111.25952
699.371	142.32502
699.807	181.41203
700.243	138.3241
700.679	138.2988
701.115	176.39603
701.551	161.36176
701.987	111.23659
702.422	164.37899
702.858	161.37199
703.294	187.41275
703.729	153.3608
704.164	112.26119
704.599	154.33301
705.035	143.31128
705.47	123.29118
705.904	144.32349
706.339	149.33136
706.774	138.31396
707.209	104.2369
707.643	123.28679
708.078	132.31231
708.512	80.19723
708.946	104.24072
709.38	137.31628
709.814	139.30501
710.248	115.27467
710.682	160.37195
711.116	121.28756
711.549	101.25225
711.983	106.23911
712.416	150.34499
712.85	90.21836
713.283	127.29156
713.716	145.3483
714.149	108.24382
714.582	136.29635
715.015	109.26073
715.448	150.36625
715.881	146.30246
716.313	126.28596
716.746	144.33026
717.178	116.2718
717.61	124.30716
718.043	111.26714
718.475	93.22085
718.907	107.26054
719.339	89.19752
719.77	120.27985
720.202	85.20844
720.634	126.30088
721.065	122.27924
721.497	96.22968
721.928	96.22916
722.359	107.25429
722.79	81.19005
723.221	88.21359
723.652	111.27471
724.083	81.17819
724.514	102.22839
724.945	81.18559
725.375	102.23262
725.806	79.19056
726.236	96.23954
726.666	104.23871
727.096	124.29429
727.526	140.34996
727.956	165.36282
728.386	84.20128
728.816	90.22547
729.246	85.20542
729.675	10.02417
730.105	100.23815
730.534	111.25115
730.964	83.20225
731.393	122.28965
731.822	128.31742
732.251	50.12485
732.68	74.16733
733.109	99.23808
733.537	134.31765
733.966	147.35498
734.395	96.2162
734.823	48.10415
735.251	34.08051
735.68	94.22567
736.108	53.13002
736.536	88.20069
736.964	52.11826
737.392	95.23123
737.82	39.09154
738.247	90.20873
738.675	66.15155
739.102	71.17327
739.53	99.24851
739.957	106.26737
740.384	88.20619
740.811	44.10748
741.238	116.27636
741.665	121.2759
742.092	27.06107
742.519	75.18228
742.945	162.37913
743.372	92.22305
743.798	72.18025
744.225	62.14345
744.651	66.16152
745.077	99.24007
745.503	43.10188
745.929	109.25665
746.355	64.15213
746.781	62.14896
747.207	86.19938
747.632	126.30353
748.058	120.29366
748.483	103.22963
748.908	63.1538
749.334	99.23763
749.759	117.27044
750.184	114.2668
750.609	101.24021
751.033	97.21939
751.458	117.25154
751.883	88.21062
752.307	86.19708
752.732	80.2002
753.156	72.17305
753.58	85.19475
754.005	90.21959
754.429	119.27342
754.853	103.24948
755.277	110.2534
755.7	72.17456
756.124	103.24883
756.548	77.1772
756.971	82.19491
757.394	48.12029
757.818	102.25599
758.241	104.25696
758.664	90.22131
759.087	71.15645
759.51	52.1255
759.933	88.20748
760.356	110.27597
760.778	104.24797
761.201	97.22715
761.623	54.12544
762.046	55.12536
762.468	138.31739
762.89	85.20138
763.312	100.23779
763.734	104.2432
764.156	113.2702
764.578	86.18987
765	111.26176
765.421	59.14762
765.843	97.24672
766.264	71.16339
766.686	92.22129
767.107	71.16769
767.528	94.23532
767.949	78.19272
768.37	77.1863
768.791	94.21809
769.212	102.2498
769.632	85.19373
770.053	40.10248
770.473	36.08495
770.894	60.14372
771.314	56.12859
771.734	70.15861
772.154	59.14687
772.575	87.19388
772.994	19.0422
773.414	93.21359
773.834	56.13603
774.254	66.1567
774.673	125.29512
775.093	74.17961
775.512	71.17087
775.931	107.26277
776.351	62.15105
776.77	72.17233
777.189	112.25656
777.607	25.06269
778.026	91.21984
778.445	87.21484
778.864	47.11619
779.282	51.11831
779.701	28.06883
780.119	47.11658
780.537	39.09486
780.955	81.19841
781.373	86.20568
781.791	154.33415
782.209	35.07687
782.627	33.08524
783.045	29.06433
783.462	75.18609
783.88	43.10902
784.297	31.07638
784.715	30.07591
785.132	-11.02606
785.549	37.09029
785.966	59.14452
786.383	47.11346
786.8	79.17715
787.217	102.23553
787.633	42.10351
788.05	69.15498
788.466	88.19704
788.883	65.16287
789.299	68.15627
789.715	87.20532
790.131	74.1784
790.547	38.09234
790.963	15.03639
791.379	42.10366
791.795	74.16091
792.21	88.19664
792.626	15.03446
793.041	65.15513
793.457	20.04796
793.872	7.01595
794.287	91.2131
794.702	-3.00712
795.117	44.10704
795.532	54.13279
795.947	40.09207
796.362	37.08389
796.776	109.23888
797.191	53.12625
797.605	35.08113
798.02	38.0898
798.434	107.22747
798.848	88.21223
799.262	50.12054
799.676	69.16265
800.09	46.1098
800.504	61.1424
800.918	33.07345
801.331	-8.02009
801.745	36.07968
802.158	4.00969
802.572	62.14533
802.985	43.09971
803.398	66.15131
803.811	39.09532
804.224	19.04545
804.637	69.15936
805.05	45.09999
805.462	75.17645
805.875	20.05086
806.288	47.11075
806.7	27.06533
807.112	44.09767
807.525	-6.01424
807.937	24.05797
808.349	25.06049
808.761	56.13388
809.173	58.13654
809.584	20.04781
809.996	-27.06486
810.408	37.09411
810.819	15.03441
811.231	81.20995
811.642	93.22272
812.053	107.25056
812.464	43.09856
812.875	53.13208
813.286	80.20078
813.697	21.04633
814.108	63.14759
814.519	92.19784
814.929	45.11088
815.34	-9.0211
815.75	18.04503
816.16	4.00959
816.571	19.04793
816.981	45.10124
817.391	-2.00466
817.801	36.08718
818.211	36.0828
818.62	77.17925
819.03	38.08991
819.44	19.04745
819.849	-5.01217
820.259	16.03942
820.668	18.04328
821.077	36.08764
821.486	41.09409
821.895	76.17752
822.304	42.10783
822.713	32.07286
823.122	50.12031
823.531	9.02041
823.939	61.14396
824.348	31.07248
824.756	20.04838
825.164	28.06799
825.573	50.12141
825.981	52.12365
826.389	73.17602
826.797	100.24454
827.205	107.23568
827.612	24.05709
828.02	-1.00227
828.428	57.13998
828.835	45.11579
829.243	59.13409
829.65	45.10916
830.057	59.13703
830.464	58.13802
830.871	93.21377
831.278	46.10736
831.685	30.06421
832.092	49.11443
832.499	63.13264
832.905	47.11414
833.312	7.01515
833.718	109.26133
834.124	76.16652
834.531	45.10842
834.937	49.12207
835.343	36.0831
835.749	13.02893
836.155	17.04335
836.561	56.13291
836.966	54.12658
837.372	77.18728
837.777	64.15412
838.183	54.11427
838.588	42.10152
838.993	67.15677
839.399	18.04292
839.804	33.078
840.209	57.1419
840.613	48.1022
841.018	22.05374
841.423	26.06481
841.828	77.18819
842.232	47.11015
842.637	75.17143
843.041	10.0251
843.445	18.04346
843.849	62.14839
844.253	90.20326
844.657	42.10301
845.061	114.24978
845.465	28.06545
845.869	85.18833
846.272	59.13903
846.676	21.04821
847.079	34.0845
847.483	62.14828
847.886	50.11587
848.289	76.19838
848.692	33.08029
849.095	38.08757
849.498	28.06763
849.901	39.08518
850.304	59.13513
850.707	5.01236
851.109	87.20954
851.512	71.16795
851.914	7.01731
852.316	57.14066
852.718	48.12319
853.121	35.08292
853.523	15.03365
853.925	15.03852
854.326	59.14312
854.728	63.15677
855.13	36.09097
855.531	72.16526
855.933	54.12315
856.334	80.19301
856.736	50.10854
857.137	63.14173
857.538	58.14162
857.939	44.10656
858.34	12.02802
858.741	19.04809
859.142	19.04388
859.542	50.12864
859.943	33.07921
860.343	39.094
860.744	45.10571
861.144	97.22795
861.544	81.18909
861.945	22.0543
862.345	32.07516
862.745	39.09436
863.145	33.07445
863.544	39.0956
863.944	75.16921
864.344	22.05215
864.743	59.14043
865.143	66.16481
865.542	2.00443
865.941	34.08166
866.34	12.02743
866.74	56.14558
867.139	70.16299
867.537	-3.00736
867.936	33.077
868.335	29.07125
868.734	24.0596
869.132	13.02879
869.531	41.0942
869.929	21.04643
870.327	19.04404
870.726	28.06674
871.124	40.08905
871.522	14.03449
871.92	41.09751
872.318	9.02116
872.715	38.08925
873.113	4.0094
873.511	43.1029
873.908	33.08206
874.306	69.16625
874.703	21.05033
875.1	19.0464
875.497	4.00925
875.894	70.1678
876.291	34.08072
876.688	39.09744
877.085	36.08253
877.482	69.16562
877.878	95.22116
878.275	46.11312
878.671	22.04551
879.068	70.16158
879.464	76.17549
879.86	69.156
880.256	6.01411
880.652	17.04192
881.048	63.14805
881.444	29.06546
881.84	30.07363
882.236	35.08487
882.631	72.17029
883.027	20.04657
883.422	29.07127
883.817	36.08817
884.213	67.16539
884.608	72.17325
885.003	-1.00232
885.398	27.06545
885.793	39.094
886.188	41.09808
886.582	43.10537
886.977	20.04547
887.371	32.07761
887.766	33.07981
888.16	6.01426
888.554	40.09453
888.949	60.14465
889.343	63.1466
889.737	5.01312
890.131	-7.0171
890.525	47.11683
890.918	32.07773
891.312	-9.02067
891.706	31.0786
892.099	53.12939
892.492	80.16224
892.886	48.1126
893.279	39.09567
893.672	69.17002
894.065	60.14454
894.458	23.05535
894.851	82.19033
895.244	29.07161
895.637	95.21862
896.029	69.16272
896.422	35.08129
896.814	21.05031
897.206	47.10916
897.599	60.14218
897.991	77.17918
898.383	73.16511
898.775	61.13318
899.167	83.18742
899.559	34.08231
899.951	62.13831
900.342	4.00978
900.734	10.02469
901.125	35.0882
901.517	65.15328
901.908	35.07942
902.299	33.07809
902.69	102.23074
903.082	46.10707
903.473	56.13085
903.863	17.04178
904.254	82.18361
904.645	-4.00953
905.036	39.09293
905.426	41.08845
905.817	9.02123
906.207	-48.11053
906.597	41.09315
906.987	56.13852
907.378	80.19498
907.768	65.16621
908.158	50.11679
908.547	70.1765
908.937	1.00246
909.327	88.20312
909.717	-14.03402
910.106	32.07363
910.495	50.11853
910.885	32.07854
911.274	15.03624
911.663	57.1377
912.052	-1.00236
912.441	84.20625
912.83	73.15823
913.219	38.09575
913.608	77.18109
913.997	30.07344
914.385	82.18671
914.774	56.13044
915.162	69.15917
915.55	82.18754
915.939	28.06893
916.327	41.0977
916.715	63.15695
917.103	32.07448
917.491	43.10196
917.878	74.17346
918.266	46.11458
918.654	78.19272
919.041	14.03601
919.429	32.07263
919.816	47.11457
920.203	26.06149
920.591	26.06242
920.978	70.16395
921.365	40.10194
921.752	8.01813
922.139	66.13618
922.525	72.16599
922.912	29.06788
923.299	9.02172
923.685	-17.04287
924.072	-24.05232
924.458	36.08643
924.844	71.16834
925.231	-19.0425
925.617	49.12154
926.003	53.12992
926.389	37.08999
926.774	50.12145
927.16	56.13321
927.546	67.16721
927.931	55.13086
928.317	60.1308
928.702	73.16376
929.088	80.1848
929.473	67.16515
929.858	53.12547
930.243	36.08412
930.628	34.08063
931.013	25.05996
931.398	47.10144
931.783	44.11059
932.167	67.15868
932.552	35.08427
932.937	41.09729
933.321	48.11703
933.705	9.02173
934.09	23.05493
934.474	50.11251
934.858	0
935.242	13.02895
935.626	39.09695
936.009	47.1222
936.393	98.24169
936.777	45.1119
937.16	70.17663
937.544	-2.00448
937.927	60.14727
938.311	34.07926
938.694	75.1913
939.077	20.04618
939.46	20.04627
939.843	39.07542
940.226	16.03955
940.609	80.17699
940.991	-29.07161
941.374	16.03808
941.757	84.19682
942.139	35.0757
942.522	35.07887
942.904	77.17663
943.286	26.0636
943.668	91.22826
944.05	66.15585
944.432	31.07342
944.814	9.02122
945.196	8.01905
945.578	41.09541
945.959	-1.00224
946.341	60.13811
946.722	44.09832
947.104	39.08961
947.485	76.16842
947.866	18.04431
948.247	67.16393
948.628	-7.01621
949.009	5.01244
949.39	0
949.771	3.00656
950.152	14.03328
950.532	83.20104
950.913	61.14049
951.293	27.07152
951.674	14.03271
952.054	98.23617
952.434	10.02409
952.814	43.09686
953.194	19.04752
953.574	40.09424
953.954	31.06994
954.334	55.13302
954.714	56.13162
955.093	63.14822
955.473	6.01473
955.853	57.14215
956.232	21.05587
956.611	22.05009
956.99	63.15266
957.37	49.11931
957.749	-1.00227
958.128	33.0808
958.506	31.07798
958.885	23.05588
959.264	60.143
959.643	92.19979
960.021	20.04829
960.4	31.06725
960.778	21.0491
961.156	4.00968
961.535	52.11451
961.913	46.10376
962.291	8.02021
962.669	49.1202
963.047	61.15053
963.424	30.0751
963.802	14.03338
964.18	61.14542
964.557	78.16961
964.935	95.2132
965.312	47.11887
965.69	29.06932
966.067	30.06944
966.444	-13.03048
966.821	37.09224
967.198	5.01158
967.575	44.1031
967.952	74.16542
968.329	102.2374
968.705	71.14534
969.082	54.13538
969.458	32.07504
969.835	67.15585
970.211	52.13004
970.587	66.15779
970.963	22.05408
971.339	31.07877
971.715	67.16064
972.091	58.1367
972.467	31.07333
972.843	24.05827
973.219	37.08433
973.594	24.06086
973.97	16.03563
974.345	50.11527
974.721	27.06189
975.096	56.13101
975.471	76.17081
975.846	41.09375
976.221	1.00247
976.596	57.13327
976.971	37.08864
977.346	44.0971
977.72	10.02455
978.095	27.06743
978.469	0
978.844	43.10329
979.218	86.19961
979.593	36.08237
979.967	-10.02315
980.341	42.09307
980.715	59.14312
981.089	46.1106
981.463	46.101
981.837	50.11885
982.21	2.00436
982.584	52.12098
982.957	8.01949
983.331	0
983.704	97.2299
984.078	-12.02867
984.451	34.07995
984.824	33.07794
985.197	14.03226
985.57	-4.00957
985.943	3.00703
986.316	38.0881
986.688	68.15615
987.061	74.16576
987.434	42.10719
987.806	33.0757
988.179	16.0362
988.551	37.08999
988.923	14.03309
989.295	35.08369
989.667	55.12794
990.039	60.14476
990.411	-27.05927
990.783	27.05872
991.155	-10.02343
991.527	34.07879
991.898	64.15365
992.27	43.10341
992.641	73.17382
993.012	-8.01769
993.384	2.00458
993.755	67.16491
994.126	70.16228
994.497	30.07095
994.868	17.03704
995.239	15.03495
995.61	1.00244
995.98	18.04209
996.351	21.05062
996.722	-1.00227
997.092	46.10499
997.462	17.03878
997.833	49.10997
998.203	32.07333
998.573	34.08194
998.943	39.08821
999.313	39.09033
999.683	68.1564
1000.053	-51.11149
1000.423	48.11084
1000.792	-30.07502
1001.162	-12.02845
1001.531	41.09736
1001.901	6.01439
1002.27	-9.01897
1002.639	-9.02217
1003.009	37.08416
1003.378	23.05699
1003.747	-4.00907
1004.116	17.03911
1004.485	23.05285
1004.853	6.0145
1005.222	-23.05535
1005.591	11.02507
1005.959	16.03482
1006.328	59.12696
1006.696	-20.04661
1007.064	27.06481
1007.433	23.05495
1007.801	31.0718
1008.169	17.04101
1008.537	36.07598
1008.905	45.10111
1009.273	32.07539
1009.64	29.06748
1010.008	10.02293
1010.375	36.08224
1010.743	40.08524
1011.11	90.2065
1011.478	54.12915
1011.845	13.02923
1012.212	54.11802
1012.579	51.12027
1012.946	28.06316
1013.313	62.13928
1013.68	64.13567
1014.047	14.03213
1014.414	-11.02509
1014.78	57.1364
1015.147	33.07558
1015.513	38.08785
1015.88	45.10978
1016.246	32.07489
1016.612	20.04349
1016.978	41.09718
1017.344	81.19131
1017.71	59.13643
1018.076	53.11787
1018.442	73.18054
1018.808	84.20243
1019.174	0
1019.539	-50.10687
1019.905	55.12465
1020.27	21.04985
1020.636	43.09722
1021.001	55.12632
1021.366	16.03723
1021.731	69.1727
1022.096	50.1225
1022.461	82.18489
1022.826	53.12148
1023.191	29.07363
1023.556	46.10236
1023.92	31.07251
1024.285	33.07643
1024.649	1.00235
1025.014	-1.00237
1025.378	78.18868
1025.742	24.05687
1026.107	51.10936
1026.471	73.16059
1026.835	47.11178
1027.199	62.14288
1027.562	-24.05341
1027.926	26.06073
1028.29	25.06112
1028.654	9.01981
1029.017	60.14152
1029.381	7.0162
1029.744	41.10076
1030.107	70.15751
1030.471	72.1652
1030.834	5.01074
1031.197	74.16938
1031.56	51.11417
1031.923	3.00754
1032.286	76.1694
1032.648	36.08121
1033.011	60.13324
1033.374	2.00447
1033.736	2.00512
1034.099	37.08668
1034.461	5.01235
1034.823	41.09864
1035.185	2.00483
1035.548	65.15185
1035.91	-11.02544
1036.272	90.19478
1036.634	68.15858
1036.995	42.09354
1037.357	20.04716
1037.719	69.16038
1038.08	92.20897
1038.442	57.12881
1038.803	34.07688
1039.165	15.03637
1039.526	11.02566
1039.887	14.03221
1040.248	65.15602
1040.609	21.04939
1040.97	53.12348
1041.331	99.24043
1041.692	61.13847
1042.053	39.08414
1042.413	65.14293
1042.774	55.12824
1043.134	9.02033
1043.495	74.17759
1043.855	44.10354
1044.215	-2.00477
1044.576	42.09698
1044.936	63.13626
1045.296	55.13141
1045.656	23.05367
1046.016	65.14857
1046.375	16.03739
1046.735	78.17098
1047.095	71.15803
1047.454	99.19366
1047.814	79.18079
1048.173	29.06538
1048.533	32.07012
1048.892	-4.00933
1049.251	30.07189
1049.61	37.08763
1049.969	16.03612
1050.328	57.11705
1050.687	6.01399
1051.046	41.09526
1051.405	0
1051.763	99.21761
1052.122	3.00723
1052.48	21.04977
1052.839	72.16407
1053.197	52.11663
1053.555	-15.03219
1053.914	70.1626
1054.272	-12.02741
1054.63	4.00948
1054.988	19.04388
1055.345	-11.02239
1055.703	58.13356
1056.061	49.12278
1056.419	60.15183
1056.776	26.05944
1057.134	-20.0439
1057.491	36.08676
1057.848	-19.04562
1058.206	-17.03799
1058.563	43.08986
1058.92	51.11135
1059.277	84.19713
1059.634	9.02005
1059.991	74.16911
1060.348	72.15496
1060.704	102.23591
1061.061	-13.02854
1061.418	17.03978
1061.774	45.10657
1062.131	56.14498
1062.487	32.07115
1062.843	41.09808
1063.199	45.10748
1063.555	42.09397
1063.911	41.09882
1064.267	119.22649
1064.623	56.13173
1064.979	35.07619
1065.335	59.13306
1065.691	-11.02507
1066.046	34.07097
1066.402	-9.01956
1066.757	28.06817
1067.112	27.06338
1067.468	44.10091
1067.823	-27.06156
1068.178	26.05994
1068.533	33.07673
1068.888	36.08187
1069.243	56.13229
1069.598	-4.00932
1069.952	44.09682
1070.307	-26.06297
1070.662	61.1401
1071.016	64.13834
1071.371	92.19877
1071.725	-12.02747
1072.079	52.11984
1072.434	19.04465
1072.788	-18.04087
1073.142	34.08044
1073.496	-8.01828
1073.85	52.11456
1074.203	96.22106
1074.557	44.11446
1074.911	50.11297
1075.265	62.13688
1075.618	35.08212
1075.971	42.0954
1076.325	48.11825
1076.678	32.07006
1077.031	-4.00851
1077.385	5.0105
1077.738	32.06875
1078.091	11.02428
1078.444	-25.05539
1078.796	71.16737
1079.149	29.06958
1079.502	18.04122
1079.855	29.0649
1080.207	24.05665
1080.56	19.04785
1080.912	54.12534
1081.264	73.16813
1081.617	41.09624
1081.969	14.03438
1082.321	29.06775
1082.673	54.11947
1083.025	-8.0182
1083.377	303.64327
1083.728	72.15836
1084.08	19.0454
1084.432	31.0714
1084.783	21.04614
1085.135	29.07038
1085.486	39.08583
1085.838	36.08551
1086.189	28.06597
1086.54	35.07964
1086.891	57.14117
1087.242	109.25605
1087.593	29.06663
1087.944	40.08727
1088.295	110.234
1088.646	103.24148
1088.996	16.03739
1089.347	8.01881
1089.698	64.14596
1090.048	28.06974
1090.398	56.1226
1090.749	28.0636
1091.099	76.18516
1091.449	65.15554
1091.799	100.2377
1092.149	34.08097
1092.499	26.06102
1092.849	53.12958
1093.199	64.15183
1093.548	67.15536
1093.898	35.08382
1094.248	40.09785
1094.597	24.06004
1094.947	54.13922
1095.296	35.0836
1095.645	53.13189
1095.994	73.16679
1096.343	50.12127
1096.692	62.15951
1097.041	64.16996
1097.39	26.06242
1097.739	14.03521
1098.088	35.08997
1098.437	66.16939
1098.785	18.04668
1099.134	0
1099.482	33.08841
1099.83	8.02042
1100.179	50.12828
1100.527	-12.03069
1100.875	41.10561
1101.223	49.12652
1101.571	-10.0269
1101.919	43.11111
1102.267	43.11866
1102.615	8.02568
1102.962	0
1103.31	6.01926
1103.658	-1.00321
