Data from N3 R3 sample 10_Subt2__3__11-07-24-813.txt Node

Date: Thu Sep 18 11:07:24 PDT 2025
User: uwsun
Spectrometer: HDX01956
Trigger mode: 0
Integration Time (sec): 5.000000E-1
Scans to average: 1
Nonlinearity correction enabled: true
Boxcar width: 0
Storing dark spectrum: false
XAxis mode: Wavelengths
Number of Pixels in Spectrum: 2068
>>>>>Begin Spectral Data<<<<<
194.03	59.16981
194.578	56.18089
195.127	57.18151
195.676	61.19485
196.225	65.17172
196.773	68.18804
197.321	137.37543
197.87	126.32303
198.418	195.49754
198.966	183.47855
199.513	172.43507
200.061	126.3211
200.609	160.42048
201.156	128.28141
201.704	134.33775
202.251	172.4546
202.798	150.38804
203.345	223.54458
203.892	149.37629
204.438	123.29299
204.985	149.35396
205.532	168.43955
206.078	182.44124
206.624	204.50698
207.17	226.52246
207.716	163.39896
208.262	201.3943
208.808	175.43784
209.354	208.50918
209.899	190.47408
210.445	220.54335
210.99	210.50701
211.535	212.49399
212.08	150.34816
212.625	169.42008
213.17	199.50237
213.715	224.50485
214.259	185.42913
214.804	206.49885
215.348	232.52801
215.892	216.51794
216.436	153.34844
216.98	136.29899
217.524	190.45074
218.068	216.53797
218.612	192.4841
219.155	199.46544
219.698	164.38832
220.242	175.42817
220.785	178.4151
221.328	156.38346
221.871	198.49869
222.414	204.49698
222.956	126.30122
223.499	150.33268
224.041	143.32527
224.583	131.27557
225.126	157.34189
225.668	158.38104
226.21	187.46786
226.751	141.31331
227.293	151.33915
227.835	162.39393
228.376	189.42327
228.918	154.38036
229.459	185.45582
230	179.42522
230.541	181.41086
231.082	210.5026
231.622	138.31053
232.163	126.30307
232.704	190.46943
233.244	122.30221
233.784	176.42107
234.324	203.44975
234.864	131.29496
235.404	141.32992
235.944	177.41139
236.484	179.44137
237.023	208.48105
237.563	173.39796
238.102	183.42701
238.641	142.35458
239.18	146.34088
239.719	161.39932
240.258	233.51084
240.797	168.39733
241.335	152.36657
241.874	210.40134
242.412	202.48327
242.95	210.49895
243.488	135.30172
244.026	202.46253
244.564	206.41624
245.102	166.37307
245.64	158.37368
246.177	144.31791
246.715	189.44777
247.252	165.37044
247.789	278.49555
248.326	169.40348
248.863	206.44564
249.4	179.40071
249.936	229.46941
250.473	194.45241
251.009	198.44589
251.546	223.48829
252.082	131.282
252.618	145.32286
253.154	162.38669
253.69	161.3579
254.226	192.45338
254.761	168.37338
255.297	185.39842
255.832	183.43003
256.367	164.38185
256.903	246.53353
257.438	189.43667
257.972	199.43593
258.507	144.32854
259.042	182.39103
259.576	252.54375
260.111	166.37735
260.645	203.43098
261.179	234.53622
261.713	163.36219
262.247	196.44031
262.781	159.333
263.315	165.39619
263.849	192.4742
264.382	215.48427
264.915	191.4462
265.449	193.46447
265.982	206.45992
266.515	213.51337
267.048	239.49434
267.58	192.40771
268.113	188.40113
268.646	184.44424
269.178	202.4439
269.71	242.52284
270.243	223.50702
270.775	196.4963
271.307	157.37009
271.838	209.48461
272.37	178.43105
272.902	209.46478
273.433	214.46631
273.965	207.49438
274.496	206.50185
275.027	235.57281
275.558	180.43475
276.089	192.47368
276.62	142.35599
277.15	159.38772
277.681	167.35594
278.211	201.48225
278.741	219.47751
279.272	241.53905
279.802	200.48978
280.332	221.51223
280.861	206.48417
281.391	206.46068
281.921	177.4182
282.45	188.45989
282.98	202.51857
283.509	246.54695
284.038	192.43398
284.567	225.51405
285.096	230.5471
285.625	125.28122
286.153	274.63694
286.682	205.46421
287.21	168.39625
287.739	221.51243
288.267	210.50356
288.795	199.51221
289.323	197.45678
289.851	225.51984
290.378	180.39689
290.906	201.48537
291.433	216.52935
291.961	223.50065
292.488	188.46057
293.015	243.56165
293.542	311.7741
294.069	248.60145
294.596	219.52544
295.122	224.52811
295.649	199.4293
296.175	185.44015
296.702	228.54776
297.228	213.50423
297.754	207.459
298.28	223.50476
298.806	239.56424
299.332	257.56179
299.857	267.59129
300.383	256.62853
300.908	261.6269
301.433	259.62045
301.958	254.56848
302.483	203.49611
303.008	230.56219
303.533	170.4349
304.058	211.4842
304.582	267.61515
305.107	205.52618
305.631	248.54979
306.155	249.56773
306.679	253.5822
307.203	252.57237
307.727	251.58198
308.251	272.65419
308.775	300.70864
309.298	234.55426
309.822	185.46018
310.345	282.65631
310.868	271.63779
311.391	301.71884
311.914	240.59012
312.437	260.58095
312.96	275.63156
313.482	230.53108
314.005	233.5709
314.527	209.5357
315.049	290.71409
315.571	285.62457
316.093	303.72804
316.615	231.54472
317.137	290.61419
317.659	294.69178
318.18	282.65372
318.702	319.7232
319.223	272.54027
319.744	315.68623
320.265	310.73254
320.786	336.81083
321.307	306.73315
321.828	342.74235
322.348	314.71577
322.869	341.78341
323.389	559.99845
323.909	336.73958
324.43	334.76964
324.95	324.71706
325.47	397.94005
325.989	370.84169
326.509	382.81786
327.029	400.87045
327.548	380.82307
328.067	359.83827
328.587	428.01769
329.106	351.7601
329.625	387.96424
330.144	419.92552
330.662	400.89629
331.181	364.8257
331.7	345.77259
332.218	363.75618
332.736	416.92599
333.255	403.90542
333.773	365.8278
334.291	469.10446
334.808	477.00675
335.326	440.93388
335.844	463.02537
336.361	475.15274
336.879	478.05624
337.396	472.08197
337.913	451.98494
338.43	462.98142
338.947	465.04606
339.464	498.00077
339.981	457.02131
340.497	510.17062
341.014	486.11144
341.53	479.0123
342.046	575.32766
342.562	529.22761
343.078	494.08847
343.594	512.13527
344.11	547.21475
344.626	524.2349
345.141	559.18014
345.657	534.12062
346.172	562.25405
346.687	507.08516
347.202	584.22572
347.717	577.26766
348.232	567.30657
348.747	572.21739
349.261	578.16559
349.776	669.43862
350.29	616.41537
350.805	609.38002
351.319	630.33229
351.833	613.28979
352.347	634.36356
352.861	615.31953
353.374	652.34036
353.888	671.48677
354.401	581.21486
354.915	653.33609
355.428	677.52866
355.941	636.34676
356.454	701.39236
356.967	619.31671
357.48	620.27964
357.993	711.57024
358.505	653.44144
359.018	757.65032
359.53	725.58585
360.042	724.44312
360.554	724.58865
361.066	690.51272
361.578	728.4296
362.09	719.53034
362.602	735.45524
363.113	814.67908
363.625	732.47869
364.136	799.53128
364.647	814.69259
365.158	791.61882
365.669	777.63958
366.18	780.61895
366.691	757.46114
367.201	821.72267
367.712	799.60425
368.222	827.66054
368.733	828.55986
369.243	798.56212
369.753	852.70097
370.263	881.84135
370.773	817.74362
371.282	930.89886
371.792	910.80516
372.301	908.88402
372.811	995.22405
373.32	1027.83412
373.829	990.96222
374.338	1020.87821
374.847	1028.9733
375.356	1043.04047
375.865	1104.91193
376.373	1182.14672
376.882	1189.44561
377.39	1190.31068
377.898	1181.34789
378.407	1256.23457
378.915	1434.32776
379.423	1409.47915
379.93	1499.5771
380.438	1453.631
380.946	1524.60446
381.453	1599.78776
381.96	1689.85871
382.468	1815.90928
382.975	1951.18666
383.482	1976.82698
383.989	2017.45805
384.495	2108.07666
385.002	2156.65645
385.509	2288.26989
386.015	2439.61979
386.521	2646.13608
387.028	2641.12211
387.534	2753.82748
388.04	2881.46748
388.546	2885.9823
389.051	3075.94732
389.557	3293.19177
390.063	3507.98268
390.568	3715.31329
391.073	3786.77236
391.578	3960.3265
392.084	4116.76986
392.589	4285.3609
393.093	4560.87486
393.598	4956.36828
394.103	5379.37178
394.607	5864.21399
395.112	6259.20555
395.616	6722.01626
396.12	7348.74781
396.624	7966.22136
397.128	8679.04356
397.632	9678.91095
398.136	10417.11138
398.639	11006.26256
399.143	12279.1774
399.646	13902.79864
400.15	15461.26344
400.653	17328.50217
401.156	19286.15892
401.659	22716.02676
402.162	27825.51865
402.664	36779.33278
403.167	52333.32253
403.67	62023.68511
404.172	63919.58413
404.674	63858.43483
405.176	63738.15102
405.678	63977.72923
406.18	64011.81569
406.682	63863.44694
407.184	63926.60148
407.686	63841.39382
408.187	64025.8516
408.688	63892.51763
409.19	63833.37461
409.691	51917.41512
410.192	43963.15398
410.693	38158.37556
411.194	34777.67624
411.694	32767.74009
412.195	30231.73243
412.696	27139.58017
413.196	25537.08626
413.696	24912.10437
414.196	25257.04925
414.696	24891.91717
415.196	23648.84656
415.696	21455.03579
416.196	17300.62758
416.695	13270.06317
417.195	11342.62612
417.694	10829.02483
418.194	10186.5411
418.693	9495.47009
419.192	9237.92952
419.691	8979.43041
420.19	8879.32678
420.688	8664.0706
421.187	8299.1719
421.685	7765.01845
422.184	6969.83483
422.682	6001.51649
423.18	5128.26262
423.678	4560.5365
424.176	4193.71757
424.674	4005.64181
425.172	3799.08021
425.669	3574.43775
426.167	3404.1213
426.664	3101.04373
427.161	2871.13148
427.659	2626.40253
428.156	2427.7165
428.652	2304.49463
429.149	2263.27958
429.646	2131.82855
430.143	2015.07769
430.639	1944.98111
431.135	1788.08228
431.632	1686.64527
432.128	1626.76967
432.624	1543.9478
433.12	1473.44276
433.616	1477.32429
434.111	1356.43798
434.607	1303.39647
435.103	1358.07999
435.598	1252.96135
436.093	1213.20267
436.588	1222.12366
437.083	1109.97386
437.578	1046.96655
438.073	1005.08887
438.568	996.03305
439.062	974.69772
439.557	905.77563
440.051	869.64324
440.546	858.64652
441.04	818.68734
441.534	792.73213
442.028	853.75134
442.522	802.658
443.015	690.28991
443.509	772.62938
444.002	781.65595
444.496	670.27409
444.989	716.52428
445.482	710.54746
445.975	695.40995
446.468	702.3221
446.961	756.41005
447.454	699.36837
447.947	652.38188
448.439	661.44027
448.931	711.42473
449.424	674.52467
449.916	624.36158
450.408	697.39406
450.9	593.29522
451.392	642.45693
451.884	610.24995
452.375	545.22633
452.867	592.1884
453.358	578.18856
453.849	611.1569
454.341	605.21706
454.832	544.05769
455.323	607.35766
455.814	573.17641
456.304	569.18395
456.795	495.03201
457.285	571.1248
457.776	557.14247
458.266	463.01173
458.756	466.01208
459.247	543.17636
459.737	536.17771
460.226	507.05192
460.716	489.07046
461.206	472.03731
461.695	428.98382
462.185	483.05062
462.674	449.94695
463.163	522.06019
463.653	448.87699
464.142	409.92455
464.63	461.02815
465.119	391.8496
465.608	485.03933
466.096	413.83048
466.585	436.92014
467.073	364.80657
467.561	374.84149
468.05	377.81221
468.538	399.91002
469.026	433.95044
469.513	375.73808
470.001	346.74879
470.489	398.88263
470.976	434.9384
471.463	357.8372
471.951	372.86776
472.438	302.67423
472.925	287.64458
473.412	318.73131
473.899	343.74088
474.385	280.65499
474.872	308.68165
475.359	282.66251
475.845	309.60531
476.331	294.59432
476.817	282.65527
477.303	323.71022
477.789	227.52154
478.275	266.63247
478.761	237.54168
479.247	243.52084
479.732	260.62249
480.218	275.69047
480.703	258.60968
481.188	272.56221
481.673	277.60806
482.158	213.4455
482.643	268.65628
483.128	301.66741
483.612	284.64608
484.097	198.46319
484.581	230.51307
485.066	264.61999
485.55	246.52283
486.034	207.43467
486.518	273.62546
487.002	214.50317
487.486	216.50688
487.969	201.47362
488.453	165.40085
488.936	173.37993
489.42	174.37545
489.903	165.40085
490.386	113.2309
490.869	225.47581
491.352	187.43737
491.835	180.35836
492.318	187.40861
492.8	221.44153
493.283	142.3556
493.765	169.4044
494.247	161.36636
494.73	164.35479
495.212	145.33688
495.694	154.3556
496.175	169.39667
496.657	169.39062
497.139	161.26956
497.62	154.36281
498.102	172.41793
498.583	93.22602
499.064	91.20137
499.545	176.39099
500.026	165.36496
500.507	131.29665
500.988	202.49009
501.469	110.27049
501.949	186.44686
502.43	172.40474
502.91	200.41172
503.39	100.24508
503.87	176.40591
504.35	142.32593
504.83	145.31107
505.31	84.2009
505.79	87.20397
506.269	101.22936
506.749	111.25054
507.228	98.22854
507.707	159.34728
508.187	158.36962
508.666	161.3904
509.145	145.33275
509.623	105.24318
510.102	169.3993
510.581	188.44152
511.059	143.35351
511.538	138.34957
512.016	163.38214
512.494	211.49118
512.972	129.30421
513.45	152.34763
513.928	181.42915
514.406	156.37494
514.884	152.38449
515.361	185.43134
515.839	213.47525
516.316	220.51768
516.793	161.39786
517.27	202.47162
517.747	175.43879
518.224	215.47932
518.701	191.41028
519.178	233.56348
519.654	224.51269
520.131	191.4607
520.607	162.38728
521.083	175.38675
521.56	160.36916
522.036	155.33051
522.512	214.51237
522.987	215.50207
523.463	187.43171
523.939	218.52453
524.414	179.39939
524.89	188.43704
525.365	144.31951
525.84	163.38364
526.315	168.39809
526.79	192.42122
527.265	161.36443
527.74	128.30612
528.215	116.26722
528.689	90.19595
529.164	103.21877
529.638	94.23617
530.112	136.31466
530.587	154.32303
531.061	135.32169
531.534	138.32714
532.008	148.35355
532.482	139.31425
532.956	139.34878
533.429	155.37218
533.903	138.29739
534.376	129.28104
534.849	115.26126
535.322	101.23614
535.795	70.16844
536.268	168.39794
536.741	109.25595
537.213	133.30105
537.686	159.38135
538.158	150.33504
538.631	123.294
539.103	133.29602
539.575	101.20619
540.047	151.32296
540.519	142.33363
540.991	140.33584
541.463	133.3151
541.934	133.29602
542.406	148.34949
542.877	153.33884
543.348	171.40403
543.82	153.36514
544.291	171.39053
544.762	159.37131
545.233	186.4604
545.703	133.29185
546.174	139.31745
546.645	167.39595
547.115	214.5016
547.585	153.34562
548.056	210.50241
548.526	209.48249
548.996	184.4296
549.466	238.55915
549.935	237.54778
550.405	211.45011
550.875	258.59003
551.344	258.59216
551.814	280.61452
552.283	293.6101
552.752	324.72184
553.221	343.71547
553.69	344.73524
554.159	352.83047
554.628	381.81061
555.096	367.88311
555.565	343.71611
556.033	420.93451
556.502	393.88947
556.97	415.85873
557.438	404.88624
557.906	426.93528
558.374	441.94803
558.842	459.01523
559.31	473.97216
559.777	543.20686
560.245	504.05337
560.712	559.15226
561.18	581.14883
561.647	615.20822
562.114	652.31808
562.581	715.54356
563.048	731.45001
563.514	799.73386
563.981	771.51523
564.448	807.54887
564.914	849.66405
565.381	877.67697
565.847	973.85816
566.313	998.88532
566.779	1054.89358
567.245	1062.97035
567.711	1095.09818
568.176	1166.02698
568.642	1190.37509
569.108	1286.43392
569.573	1328.30031
570.038	1432.10987
570.504	1426.33528
570.969	1431.64058
571.434	1481.33463
571.899	1643.7062
572.363	1610.55801
572.828	1759.68973
573.293	1723.64935
573.757	1798.75736
574.222	1798.62179
574.686	1811.73169
575.15	1878.96871
575.614	1964.94791
576.078	1899.87487
576.542	1870.73514
577.006	1904.72368
577.469	1890.06813
577.933	1904.75887
578.396	1860.88851
578.86	1918.89983
579.323	1795.90741
579.786	1852.53583
580.249	1889.88799
580.712	1753.9048
581.175	1742.95148
581.637	1729.63711
582.1	1660.4221
582.563	1620.30843
583.025	1608.77225
583.487	1647.22932
583.95	1512.25197
584.412	1600.25973
584.874	1527.69618
585.336	1485.55424
585.797	1469.26148
586.259	1499.52143
586.721	1378.40115
587.182	1388.35687
587.643	1359.2833
588.105	1298.32855
588.566	1369.04977
589.027	1304.4478
589.488	1328.27977
589.949	1345.47153
590.41	1323.87965
590.87	1308.25002
591.331	1389.20219
591.791	1258.22436
592.252	1315.30941
592.712	1335.41652
593.172	1321.24668
593.632	1421.28406
594.092	1330.19631
594.552	1355.14299
595.011	1363.31109
595.471	1413.33493
595.931	1368.27557
596.39	1448.55535
596.849	1476.48316
597.308	1475.2022
597.768	1591.98471
598.227	1601.71738
598.685	1702.61287
599.144	1785.80959
599.603	1836.81317
600.062	1884.44616
600.52	1937.74373
600.978	2085.01952
601.437	2161.88447
601.895	2225.65123
602.353	2289.77526
602.811	2420.93817
603.269	2452.21159
603.727	2597.30276
604.184	2673.03363
604.642	2774.47545
605.099	2944.18323
605.557	3089.42327
606.014	3210.68142
606.471	3280.62557
606.928	3413.81114
607.385	3513.57844
607.842	3748.88798
608.299	3842.9768
608.755	3924.19725
609.212	4101.54797
609.668	4161.59284
610.125	4351.95861
610.581	4447.7029
611.037	4432.39566
611.493	4615.57568
611.949	4625.8994
612.405	4653.68501
612.861	4833.34496
613.316	4819.65601
613.772	4879.2928
614.227	4972.59615
614.683	4961.73676
615.138	4933.42825
615.593	4884.37994
616.048	4873.28467
616.503	4910.70057
616.958	4807.01262
617.412	4882.54881
617.867	4796.17681
618.321	4731.70184
618.776	4686.1294
619.23	4665.56527
619.684	4549.28831
620.138	4538.46513
620.592	4260.04016
621.046	4355.79831
621.5	4192.01183
621.954	4121.45517
622.407	4059.48643
622.861	3931.19157
623.314	3918.70421
623.768	3841.03042
624.221	3683.99433
624.674	3671.94134
625.127	3586.0112
625.58	3522.80511
626.033	3459.66401
626.485	3287.27266
626.938	3295.2429
627.39	3164.14666
627.843	3069.06943
628.295	3017.07427
628.747	2983.28111
629.199	2845.00846
629.651	2762.04517
630.103	2690.04199
630.555	2644.60528
631.006	2643.107
631.458	2554.15603
631.909	2444.87623
632.361	2368.00246
632.812	2348.01413
633.263	2324.70299
633.714	2235.56951
634.165	2216.13155
634.616	2071.98848
635.067	2059.67166
635.518	1978.94482
635.968	1929.18698
636.419	1931.57822
636.869	1853.85358
637.319	1820.74788
637.769	1752.57695
638.219	1727.7389
638.669	1656.70619
639.119	1627.70309
639.569	1589.67677
640.019	1565.52032
640.468	1457.32007
640.918	1501.54656
641.367	1526.37813
641.816	1452.28787
642.265	1537.52887
642.714	1342.27102
643.163	1439.40032
643.612	1375.52057
644.061	1350.08097
644.51	1294.21876
644.958	1286.10457
645.406	1275.31683
645.855	1222.29456
646.303	1223.15608
646.751	1228.16774
647.199	1284.1735
647.647	1211.15585
648.095	1097.9645
648.543	1103.70327
648.99	1105.10724
649.438	1121.02889
649.885	1112.21711
650.333	1103.61204
650.78	1040.02837
651.227	1097.14433
651.674	995.83071
652.121	1014.02697
652.568	1005.00941
653.015	986.00172
653.461	923.81439
653.908	941.76577
654.354	927.82312
654.801	941.81168
655.247	958.66712
655.693	858.90252
656.139	928.82894
656.585	866.73295
657.031	880.72368
657.477	914.62806
657.922	829.57817
658.368	891.83354
658.813	788.51489
659.259	884.79427
659.704	868.72255
660.149	789.54192
660.594	840.67854
661.039	771.49318
661.484	747.52041
661.929	835.63965
662.373	751.6324
662.818	756.61369
663.262	785.62319
663.707	724.60795
664.151	712.50919
664.595	752.56633
665.039	721.55652
665.483	703.56741
665.927	777.55286
666.371	683.40008
666.814	754.53641
667.258	684.44032
667.701	776.38743
668.145	728.57399
668.588	721.55387
669.031	669.37381
669.474	646.36319
669.917	654.243
670.36	669.46941
670.803	742.54616
671.245	632.11667
671.688	655.40123
672.13	673.32112
672.573	685.51844
673.015	663.40186
673.457	652.23017
673.899	676.42969
674.341	677.42463
674.783	639.34811
675.225	692.48781
675.666	679.45514
676.108	666.24189
676.549	669.35651
676.991	658.25062
677.432	707.18241
677.873	682.34732
678.314	690.42687
678.755	798.67989
679.196	663.31738
679.637	683.42277
680.078	664.35157
680.518	691.36992
680.959	726.48867
681.399	725.55515
681.839	746.55726
682.28	741.59223
682.72	716.40468
683.16	742.60087
683.6	775.49021
684.039	754.30093
684.479	769.62977
684.919	761.52786
685.358	713.54186
685.798	741.67802
686.237	740.514
686.676	731.40952
687.115	805.60072
687.554	843.6927
687.993	815.50042
688.432	786.51104
688.871	843.60875
689.309	821.6606
689.748	845.434
690.186	829.6225
690.625	882.7154
691.063	837.67447
691.501	877.81521
691.939	938.95839
692.377	877.77156
692.815	927.87266
693.253	799.60647
693.69	956.67414
694.128	911.8294
694.565	909.77176
695.003	945.00219
695.44	971.86595
695.877	961.83609
696.314	927.5575
696.751	964.7554
697.188	1051.92818
697.625	961.72301
698.061	947.85204
698.498	963.84524
698.934	1019.95365
699.371	985.86933
699.807	993.88637
700.243	988.93096
700.679	988.75025
701.115	1070.96459
701.551	953.79096
701.987	931.63067
702.422	1041.98249
702.858	1028.96195
703.294	1069.92304
703.729	1065.06012
704.164	1010.93498
704.599	1094.89055
705.035	1069.8692
705.47	1042.02175
705.904	984.82716
706.339	1101.96362
706.774	1125.0444
707.209	1087.98142
707.643	1062.01284
708.078	1074.07116
708.512	1004.04479
708.946	1043.96042
709.38	1045.97283
709.814	1060.87428
710.248	1050.05178
710.682	1120.10457
711.116	1099.11292
711.549	965.02335
711.983	1034.88791
712.416	1028.94588
712.85	981.97553
713.283	990.87656
713.716	1009.01835
714.149	972.80483
714.582	1055.85044
715.015	1001.98082
715.448	1010.06261
715.881	1005.6835
716.313	956.80145
716.746	979.86603
717.178	935.83543
717.61	974.02837
718.043	942.90429
718.475	914.82237
718.907	892.84751
719.339	952.73175
719.77	917.7992
720.202	864.80699
720.634	902.82918
721.065	890.7195
721.497	900.81765
721.928	866.7577
722.359	802.64691
722.79	872.72567
723.221	871.79797
723.652	880.86478
724.083	889.62222
724.514	886.66116
724.945	829.61104
725.375	812.58357
725.806	824.70276
726.236	832.79288
726.666	799.5755
727.096	812.66746
727.526	822.7955
727.956	794.51326
728.386	781.61851
728.816	830.79543
729.246	813.69013
729.675	757.56733
730.105	795.63655
730.534	770.50581
730.964	761.61491
731.393	748.55799
731.822	797.72951
732.251	766.65903
732.68	713.39977
733.109	728.53777
733.537	745.55414
733.966	762.6223
734.395	756.47002
734.823	717.33222
735.251	653.35779
735.68	702.48668
736.108	667.44598
736.536	665.33734
736.964	682.35047
737.392	719.54161
737.82	632.30853
738.247	645.32863
738.675	696.39366
739.102	622.35835
739.53	642.44987
739.957	614.40403
740.384	635.32559
740.811	613.33501
741.238	619.32927
741.665	635.2951
742.092	505.02863
742.519	563.23998
742.945	621.31982
743.372	571.25657
743.798	535.22392
744.225	535.11902
744.651	550.22168
745.077	552.22156
745.503	512.10037
745.929	564.20762
746.355	511.1074
746.781	507.11226
747.207	536.12928
747.632	502.12044
748.058	523.18108
748.483	494.01007
748.908	498.11425
749.334	499.10387
749.759	521.10508
750.184	488.0559
750.609	417.9311
751.033	454.95182
751.458	447.89263
751.883	427.95539
752.307	446.94785
752.732	494.14063
753.156	398.89694
753.58	422.90114
754.005	362.83813
754.429	453.97089
754.853	396.90592
755.277	354.77559
755.7	392.8928
756.124	381.87178
756.548	308.67596
756.971	371.83252
757.394	316.75336
757.818	348.83439
758.241	345.81443
758.664	333.78184
759.087	365.7546
759.51	334.76288
759.933	337.75593
760.356	333.80162
760.778	364.82436
761.201	371.82191
761.623	263.58559
762.046	298.64575
762.468	339.74821
762.89	301.68323
763.312	315.7179
763.734	275.62143
764.156	287.66333
764.578	320.6718
765	304.6899
765.421	237.5738
765.843	271.66793
766.264	262.57986
766.686	233.54538
767.107	240.54821
767.528	266.64509
767.949	243.58212
768.37	266.62054
768.791	202.45862
769.212	223.53381
769.632	233.51514
770.053	195.48594
770.473	198.45246
770.894	212.49302
771.314	219.48641
771.734	232.50832
772.154	165.4028
772.575	230.49735
772.994	156.33661
773.414	175.39531
773.834	144.34399
774.254	156.36394
774.673	249.57368
775.093	172.40977
775.512	190.44692
775.931	190.45942
776.351	195.46323
776.77	130.3077
777.189	175.39579
777.607	132.32459
778.026	220.51848
778.445	156.38034
778.864	140.34018
779.282	90.20716
779.701	135.32527
780.119	127.31039
780.537	120.28743
780.955	142.34388
781.373	138.32676
781.791	173.37385
782.209	147.31522
782.627	91.23269
783.045	103.22497
783.462	141.34563
783.88	142.35368
784.297	88.21455
784.715	88.22038
785.132	90.20906
785.549	108.26007
785.966	146.35183
786.383	98.23429
786.8	141.31214
787.217	142.32528
787.633	109.26531
788.05	91.20347
788.466	125.27776
788.883	132.32674
789.299	81.18566
789.715	109.25615
790.131	130.31007
790.547	109.26133
790.963	144.34083
791.379	94.22978
791.795	72.15663
792.21	113.2512
792.626	79.17919
793.041	95.22542
793.457	111.26156
793.872	67.15079
794.287	112.26119
794.702	29.06844
795.117	99.23835
795.532	90.21984
795.947	65.14887
796.362	71.15986
796.776	76.16772
797.191	78.18491
797.605	87.19957
798.02	96.22432
798.434	128.27086
798.848	110.26418
799.262	80.19177
799.676	123.2869
800.09	79.18738
800.504	51.11929
800.918	48.1065
801.331	0
801.745	68.1495
802.158	73.17455
802.572	104.24177
802.985	56.12952
803.398	56.12864
803.811	63.15329
804.224	74.17515
804.637	72.16619
805.05	78.17213
805.462	62.14624
805.875	61.154
806.288	96.22406
806.7	34.08215
807.112	53.11743
807.525	34.08007
807.937	62.14868
808.349	56.1347
808.761	112.26489
809.173	89.20825
809.584	90.21228
809.996	21.04998
810.408	73.18449
810.819	78.17667
811.231	93.24055
811.642	124.2952
812.053	125.29168
812.464	103.23324
812.875	94.23251
813.286	68.17103
813.697	60.1313
814.108	88.20514
814.519	123.26273
814.929	29.07167
815.34	47.10898
815.75	59.1465
816.16	30.07158
816.571	25.063
816.981	53.11904
817.391	5.01164
817.801	33.07996
818.211	68.15539
818.62	71.16548
819.03	68.15995
819.44	13.0325
819.849	47.11329
820.259	31.07616
820.668	56.13368
821.077	37.09006
821.486	7.01617
821.895	64.14984
822.304	44.11292
822.713	35.07964
823.122	58.13935
823.531	22.04975
823.939	73.17188
824.348	58.13489
824.756	41.09879
825.164	56.13526
825.573	56.13582
825.981	102.24021
826.389	40.09705
826.797	95.23253
827.205	71.15757
827.612	57.13473
828.02	21.0475
828.428	60.14727
828.835	22.05684
829.243	81.18327
829.65	54.13077
830.057	45.1048
830.464	96.22678
830.871	74.17074
831.278	88.20369
831.685	44.09388
832.092	19.04463
832.499	36.07625
832.905	55.13337
833.312	36.07745
833.718	94.22601
834.124	66.14492
834.531	35.08449
834.937	80.19817
835.343	34.07851
835.749	49.10825
836.155	15.03826
836.561	33.07867
836.966	48.11265
837.372	64.15604
837.777	35.08474
838.183	109.22788
838.588	75.18016
838.993	81.18901
839.399	43.10203
839.804	0
840.209	50.12463
840.613	33.07049
841.018	38.09255
841.423	38.09451
841.828	62.15195
842.232	38.08921
842.637	78.17818
843.041	21.0526
843.445	4.00968
843.849	59.14129
844.253	52.11835
844.657	21.05171
845.061	106.23265
845.465	31.07242
845.869	42.09389
846.272	29.06873
846.676	-8.01847
847.079	48.11899
847.483	53.12697
847.886	57.13191
848.289	30.07892
848.692	5.01223
849.095	44.10128
849.498	46.11073
849.901	65.14119
850.304	82.18693
850.707	24.0591
851.109	71.17152
851.512	58.13755
851.914	17.04195
852.316	78.19173
852.718	59.15113
853.121	65.15311
853.523	-11.02481
853.925	26.06663
854.326	46.11186
854.728	28.07012
855.13	39.0985
855.531	19.04407
855.933	18.04135
856.334	34.08274
856.736	60.12997
857.137	65.14617
857.538	63.15369
857.939	63.15202
858.34	59.13648
858.741	35.08833
859.142	14.03237
859.542	27.06974
859.943	51.122
860.343	51.12265
860.744	32.07536
861.144	50.11858
861.544	42.0988
861.945	20.04938
862.345	38.08914
862.745	55.13267
863.145	7.01588
863.544	104.25186
863.944	58.13131
864.344	3.00714
864.743	98.23151
865.143	70.17467
865.542	-20.04451
865.941	58.13866
866.34	20.04565
866.74	61.15844
867.139	52.12151
867.537	20.04884
867.936	54.12549
868.335	39.09564
868.734	39.09659
869.132	8.01774
869.531	20.04615
869.929	63.13807
870.327	49.1129
870.726	58.13744
871.124	45.10008
871.522	23.05657
871.92	74.17488
872.318	-21.04966
872.715	73.17028
873.113	27.06315
873.511	53.12659
873.908	35.087
874.306	50.1209
874.703	58.13802
875.1	19.0464
875.497	39.08961
875.894	8.0194
876.291	25.05946
876.688	54.13455
877.085	46.10525
877.482	18.04362
877.878	30.07073
878.275	48.11799
878.671	-50.10511
879.068	56.12962
879.464	70.16183
879.86	20.04567
880.256	26.06092
880.652	4.00989
881.048	43.10144
881.444	31.06994
881.84	42.10286
882.236	0
882.631	66.15628
883.027	41.09507
883.422	-34.08453
883.817	30.07355
884.213	70.1727
884.608	60.1447
885.003	17.03926
885.398	9.02189
885.793	20.04838
886.188	37.08857
886.582	56.13689
886.977	54.12191
887.371	36.08725
887.766	14.03398
888.16	3.00714
888.554	37.08749
888.949	78.1874
889.343	55.12819
889.737	15.03931
890.131	27.06552
890.525	32.07976
890.918	60.14498
891.312	15.03429
891.706	35.08868
892.099	75.18235
892.492	87.17615
892.886	63.14736
893.279	26.06393
893.672	72.17731
894.065	23.05579
894.458	-1.00242
894.851	59.13757
895.244	31.07653
895.637	54.12529
896.029	50.11835
896.422	12.028
896.814	35.08363
897.206	19.04437
897.599	115.26961
897.991	63.14701
898.383	55.12485
898.775	91.19741
899.167	72.16294
899.559	8.01946
899.951	73.16248
900.342	66.15947
900.734	86.20936
901.125	50.12567
901.517	23.05468
901.908	38.08617
902.299	23.05453
902.69	64.1459
903.082	88.20312
903.473	60.14009
903.863	9.02215
904.254	83.18581
904.645	40.09449
905.036	55.13066
905.426	33.07131
905.817	8.01888
906.207	-15.03431
906.597	45.10215
906.987	-4.01
907.378	60.14678
907.768	53.13581
908.158	1.00236
908.547	83.20879
908.937	11.02702
909.327	54.12549
909.717	59.1414
910.106	21.04842
910.495	41.09736
910.885	77.18742
911.274	44.10571
911.663	2.00488
912.052	22.05177
912.441	46.11374
912.83	19.04166
913.219	46.11574
913.608	52.12289
913.997	26.0637
914.385	76.17326
914.774	45.10505
915.162	107.24496
915.55	47.10825
915.939	63.15409
916.327	38.0906
916.715	50.12485
917.103	31.07217
917.491	36.08547
917.878	71.16652
918.266	8.02006
918.654	66.16343
919.041	59.15055
919.429	69.15542
919.816	26.06363
920.203	58.13633
920.591	48.11475
920.978	49.11524
921.365	41.10447
921.752	4.00907
922.139	61.126
922.525	45.1043
922.912	73.16941
923.299	12.02894
923.685	4.01005
924.072	-3.00651
924.458	16.03856
924.844	35.08356
925.231	54.11897
925.617	82.20216
926.003	79.19272
926.389	-5.01226
926.774	14.03424
927.16	61.14497
927.546	88.21879
927.931	62.14732
928.317	48.10491
928.702	71.15934
929.088	79.18253
929.473	54.13342
929.858	65.15352
930.243	46.10728
930.628	75.17645
931.013	62.14766
931.398	50.10784
931.783	-3.0076
932.167	99.23301
932.552	33.07948
932.937	66.15585
933.321	47.11461
933.705	-13.03151
934.09	29.06918
934.474	21.04754
934.858	13.03282
935.242	30.06657
935.626	45.11174
936.009	13.034
936.393	75.18575
936.777	49.12176
937.16	74.18659
937.544	16.03569
937.927	11.02724
938.311	55.12768
938.694	63.16104
939.077	55.12612
939.46	8.01855
939.843	53.10215
940.226	15.03708
940.609	109.23969
940.991	1.00246
941.374	79.18572
941.757	22.05217
942.139	53.11419
942.522	47.10565
942.904	62.14265
943.286	53.129
943.668	82.20602
944.05	13.03101
944.432	43.1016
944.814	26.06109
945.196	38.08998
945.578	48.11154
945.959	-3.00672
946.341	45.10389
946.722	40.08946
947.104	99.22473
947.485	68.15094
947.866	65.15863
948.247	78.19046
948.628	-23.05344
949.009	16.03972
949.39	21.05014
949.771	16.03491
950.152	45.10633
950.532	57.13874
950.913	65.14959
951.293	42.11098
951.674	21.049
952.054	79.19106
952.434	8.01928
952.814	34.07673
953.194	10.02505
953.574	52.12222
953.954	32.07218
954.334	44.10664
954.714	44.10366
955.093	66.15519
955.473	56.13618
955.853	39.09758
956.232	23.06117
956.611	26.05915
956.99	39.09493
957.37	-5.0123
957.749	-14.03184
958.128	42.10267
958.506	16.04036
958.885	26.06313
959.264	42.10045
959.643	75.16347
960.021	28.0675
960.4	50.10803
960.778	26.06073
961.156	-1.00242
961.535	40.08831
961.913	52.11715
962.291	16.04036
962.669	55.13477
963.047	37.09171
963.424	58.14446
963.802	17.04051
964.18	57.13598
964.557	78.16961
964.935	40.09078
965.312	21.05336
965.69	21.05027
966.067	19.04407
966.444	-45.10616
966.821	65.16122
967.198	-1.00232
967.575	55.12859
967.952	35.07887
968.329	75.17549
968.705	106.21526
969.082	83.20699
969.458	62.14453
969.835	54.12593
970.211	36.09029
970.587	43.10325
970.963	23.05653
971.339	32.08129
971.715	27.06523
972.091	28.06638
972.467	26.06156
972.843	61.14709
973.219	55.1249
973.594	-16.04086
973.97	33.07324
974.345	37.08552
974.721	21.04819
975.096	67.1564
975.471	41.09281
975.846	8.01841
976.221	54.1321
976.596	84.19536
976.971	59.14076
977.346	18.03994
977.72	22.0539
978.095	47.11696
978.469	52.11816
978.844	76.18142
979.218	48.11225
979.593	29.06645
979.967	-14.03243
980.341	79.17372
980.715	59.14312
981.089	54.12964
981.463	75.16367
981.837	95.22386
982.21	12.02609
982.584	62.14396
982.957	16.03892
983.331	38.0847
983.704	102.24152
984.078	39.09226
984.451	31.07293
984.824	38.08967
985.197	25.05749
985.57	46.10896
985.943	37.0861
986.316	19.04421
986.688	45.10381
987.061	61.13701
987.434	79.2003
987.806	25.05744
988.179	30.06767
988.551	38.09241
988.923	60.14053
989.295	61.14514
989.667	73.1692
990.039	80.19228
990.411	-14.03065
990.783	32.06952
991.155	13.03032
991.527	57.13149
991.898	54.12989
992.27	64.1533
992.641	22.0529
993.012	3.00662
993.384	-13.02988
993.755	60.14787
994.126	71.16457
994.497	25.05918
994.868	28.06086
995.239	2.00467
995.61	23.05598
995.98	18.04209
996.351	63.15064
996.722	60.13451
997.092	27.06186
997.462	21.04786
997.833	54.12106
998.203	20.04594
998.573	58.13914
998.943	70.15732
999.313	31.07191
999.683	48.11084
1000.053	-35.07625
1000.423	57.13139
1000.792	-12.02991
1001.162	-17.04034
1001.531	67.15831
1001.901	21.05023
1002.27	29.0606
1002.639	17.04167
1003.009	42.09544
1003.378	50.12327
1003.747	51.11431
1004.116	35.08022
1004.485	60.13684
1004.853	-4.00969
1005.222	-44.10632
1005.591	30.06811
1005.959	66.14211
1006.328	66.1418
1006.696	18.04163
1007.064	30.07197
1007.433	49.1165
1007.801	21.04873
1008.169	40.09607
1008.537	46.09687
1008.905	15.03391
1009.273	48.11273
1009.64	35.08135
1010.008	31.07077
1010.375	89.20113
1010.743	57.12101
1011.11	101.23122
1011.478	63.15041
1011.845	63.14022
1012.212	64.13958
1012.579	29.06868
1012.946	49.11006
1013.313	53.11929
1013.68	53.11262
1014.047	14.03213
1014.414	38.08582
1014.78	30.07216
1015.147	48.1096
1015.513	41.09473
1015.88	30.07339
1016.246	-9.02123
1016.612	74.15906
1016.978	47.11127
1017.344	65.154
1017.71	78.17968
1018.076	39.08698
1018.442	34.08469
1018.808	69.16675
1019.174	20.04811
1019.539	17.03581
1019.905	32.07286
1020.27	-9.02149
1020.636	22.04995
1021.001	83.18956
1021.366	47.10868
1021.731	109.27085
1022.096	38.09331
1022.461	78.17602
1022.826	97.22037
1023.191	11.02802
1023.556	16.03583
1023.92	-2.00471
1024.285	41.09481
1024.649	37.08644
1025.014	33.07758
1025.378	8.01961
1025.742	2.00476
1026.107	46.09875
1026.471	92.20158
1026.835	-3.0072
1027.199	19.04416
1027.562	9.01989
1027.926	63.14608
1028.29	36.08784
1028.654	15.03297
1029.017	82.19259
1029.381	50.11472
1029.744	70.17111
1030.107	44.09954
1030.471	61.14027
1030.834	28.05985
1031.197	78.17839
1031.56	7.01581
1031.923	26.06511
1032.286	70.15622
1032.648	63.14133
1033.011	58.12885
1033.374	30.06673
1033.736	36.09158
1034.099	47.10989
1034.461	70.1708
1034.823	39.09386
1035.185	9.02168
1035.548	71.16568
1035.91	22.05054
1036.272	62.13499
1036.634	57.13322
1036.995	13.02913
1037.357	31.07293
1037.719	46.1074
1038.08	76.17319
1038.442	14.03192
1038.803	-10.02282
1039.165	10.02427
1039.526	44.10197
1039.887	30.06881
1040.248	46.11081
1040.609	13.03062
1040.97	30.07021
1041.331	79.19258
1041.692	70.15861
1042.053	38.082
1042.413	-8.01786
1042.774	87.20157
1043.134	44.09868
1043.495	41.09901
1043.855	41.09654
1044.215	15.03569
1044.576	40.0924
1044.936	48.10415
1045.296	37.08871
1045.656	35.08148
1046.016	49.11236
1046.375	22.05135
1046.735	66.14504
1047.095	61.13605
1047.454	44.08719
1047.814	70.16048
1048.173	33.07433
1048.533	24.05268
1048.892	25.05799
1049.251	69.16411
1049.61	14.0333
1049.969	44.09877
1050.328	76.1554
1050.687	16.03723
1051.046	4.00936
1051.405	37.08749
1051.763	41.09122
1052.122	25.05996
1052.48	17.04032
1052.839	25.05751
1053.197	22.04965
1053.555	32.06798
1053.914	5.01176
1054.272	12.02728
1054.63	18.04254
1054.988	31.07143
1055.345	-10.02035
1055.703	84.19242
1056.061	64.15993
1056.419	58.14682
1056.776	26.05944
1057.134	-35.07706
1057.491	34.08197
1057.848	41.09733
1058.206	-37.08304
1058.563	11.02315
1058.92	54.11782
1059.277	49.11578
1059.634	-2.00447
1059.991	64.14655
1060.348	41.08883
1060.704	72.16751
1061.061	34.0739
1061.418	20.04677
1061.774	34.08069
1062.131	36.09352
1062.487	44.09759
1062.843	70.16652
1063.199	13.03124
1063.555	41.09175
1063.911	13.0315
1064.267	107.20424
1064.623	42.09907
1064.979	-80.17839
1065.335	17.03867
1065.691	-10.02279
1066.046	92.18956
1066.402	12.02596
1066.757	53.12842
1067.112	31.07271
1067.468	61.13943
1067.823	41.0922
1068.178	57.1306
1068.533	26.06054
1068.888	48.1089
1069.243	45.10653
1069.598	5.01164
1069.952	70.15318
1070.307	39.09329
1070.662	67.1537
1071.016	44.09551
1071.371	115.24724
1071.725	22.05001
1072.079	77.17656
1072.434	21.04933
1072.788	46.10309
1073.142	28.06633
1073.496	15.03412
1073.85	30.0664
1074.203	67.15517
1074.557	58.15052
1074.911	70.15751
1075.265	37.08211
1075.618	66.15392
1075.971	59.13355
1076.325	42.10358
1076.678	29.06353
1077.031	-59.12701
1077.385	81.16731
1077.738	28.06021
1078.091	63.13754
1078.444	37.08092
1078.796	20.04761
1079.149	56.13368
1079.502	4.00919
1079.855	31.06934
1080.207	26.06135
1080.56	51.1277
1080.912	27.063
1081.264	98.22458
1081.617	61.14262
1081.969	8.01967
1082.321	4.00939
1082.673	82.18035
1083.025	8.01814
1083.377	327.69058
1083.728	40.08857
1084.08	-13.03125
1084.432	11.02544
1084.783	11.02422
1085.135	20.04862
1085.486	39.08583
1085.838	56.1325
1086.189	57.13353
1086.54	72.16261
1086.891	11.02747
1087.242	67.15868
1087.593	8.01846
1087.944	55.11962
1088.295	55.1184
1088.646	81.19072
1088.996	-2.00469
1089.347	35.08186
1089.698	76.17291
1090.048	55.13632
1090.398	27.05947
1090.749	40.09064
1091.099	61.14903
1091.449	72.17206
1091.799	28.06748
1092.149	53.12576
1092.499	67.15597
1092.849	15.03693
1093.199	26.06213
1093.548	85.19639
1093.898	56.13357
1094.248	18.04421
1094.597	11.02758
1094.947	66.1698
1095.296	49.11672
1095.645	18.04508
1095.994	39.08972
1096.343	51.12367
1096.692	45.11612
1097.041	46.12252
1097.39	0
1097.739	63.15706
1098.088	34.08741
1098.437	38.098
1098.785	-2.0052
1099.134	-15.03814
1099.482	50.13358
1099.83	57.14421
1100.179	79.20165
1100.527	31.07868
1100.875	30.07742
1101.223	81.20799
1101.571	-24.06471
1101.919	68.17494
1102.267	26.07194
1102.615	5.01606
1102.962	0
1103.31	5.01606
1103.658	-5.01604
