Data from N3 R3 sample 4_Subt2__2__11-01-30-321.txt Node

Date: Thu Sep 18 11:01:30 PDT 2025
User: uwsun
Spectrometer: HDX01956
Trigger mode: 0
Integration Time (sec): 5.000000E-1
Scans to average: 1
Nonlinearity correction enabled: true
Boxcar width: 0
Storing dark spectrum: false
XAxis mode: Wavelengths
Number of Pixels in Spectrum: 2068
>>>>>Begin Spectral Data<<<<<
194.03	176.49775
194.578	167.53238
195.127	149.46914
195.676	178.5605
196.225	171.44366
196.773	198.53624
197.321	296.79037
197.87	378.9259
198.418	441.0737
198.966	426.06501
199.513	483.15112
200.061	400.96959
200.609	433.08235
201.156	410.84781
201.704	397.9531
202.251	386.98314
202.798	404.99872
203.345	475.10299
203.892	417.00002
204.438	412.92658
204.985	460.02485
205.532	391.98373
206.078	423.97873
206.624	475.11948
207.17	483.0573
207.716	459.05905
208.262	417.77633
208.808	453.07374
209.354	485.12359
209.899	418.99949
210.445	466.09632
210.99	449.03265
211.535	443.98506
212.08	447.97621
212.625	400.95209
213.17	465.11535
213.715	468.00003
214.259	449.9868
214.804	401.9352
215.348	480.03546
215.892	497.12547
216.436	397.85933
216.98	473.96602
217.524	469.05033
218.068	472.1182
218.612	456.09269
219.155	443.98628
219.698	437.97977
220.242	437.0146
220.785	412.91633
221.328	390.91688
221.871	421.01537
222.414	387.91036
222.956	385.87456
223.499	394.82933
224.041	350.76263
224.583	331.66559
225.126	340.71158
225.668	401.92232
226.21	414.99295
226.751	461.95604
227.293	389.83086
227.835	422.97584
228.376	347.75176
228.918	368.87292
229.459	394.93313
230	436.98416
230.541	410.88728
231.082	416.95624
231.622	371.79483
232.163	375.85909
232.704	399.9477
233.244	397.93351
233.784	377.86714
234.324	435.91702
234.864	391.83333
235.404	351.78732
235.944	371.8291
236.484	441.03237
237.023	421.93227
237.563	434.94602
238.102	386.86457
238.641	383.91426
239.18	396.87893
239.719	433.01796
240.258	437.91679
240.797	415.93429
241.335	414.9486
241.874	484.86377
242.412	426.97531
242.95	366.84336
243.488	375.79645
244.026	408.89539
244.564	473.89724
245.102	469.98826
245.64	406.91384
246.177	421.87543
246.715	458.02628
247.252	401.85649
247.789	420.72127
248.326	433.98117
248.863	425.87627
249.4	435.92226
249.936	489.94344
250.473	443.9822
251.009	396.85552
251.546	426.89273
252.082	423.85333
252.618	409.86071
253.154	418.94854
253.69	442.92503
254.226	462.03144
254.761	447.9357
255.297	429.87537
255.832	446.99399
256.367	437.96245
256.903	440.91473
257.438	463.00917
257.972	468.96687
258.507	433.93004
259.042	456.9218
259.576	478.98133
260.111	439.94251
260.645	430.86765
261.179	461.00608
261.713	452.94386
262.247	449.95609
262.781	441.86594
263.315	423.96552
263.849	472.10313
264.382	474.00894
264.915	487.06921
265.449	397.91823
265.982	448.95002
266.515	512.16161
267.048	491.95821
267.58	487.96755
268.113	457.91811
268.646	434.998
269.178	423.88625
269.71	488.99869
270.243	516.10136
270.775	495.18382
271.307	443.98587
271.838	484.05882
272.37	449.02936
272.902	481.00721
273.433	492.00688
273.965	506.13683
274.496	415.97126
275.027	462.07592
275.558	499.13001
276.089	448.05063
276.62	470.10574
277.15	478.09356
277.681	459.91617
278.211	459.04475
278.741	483.99405
279.272	492.04142
279.802	473.09704
280.332	464.0214
280.861	497.09944
281.391	521.08728
281.921	448.00054
282.45	498.14532
282.98	517.25107
283.509	493.03785
284.038	454.97114
284.567	528.13043
285.096	542.20936
285.625	492.02143
286.153	507.12206
286.682	524.10734
287.21	456.01299
287.739	579.24486
288.267	487.10368
288.795	473.15645
289.323	495.07769
289.851	552.19004
290.378	519.06104
290.906	571.27967
291.433	574.31036
291.961	487.03194
292.488	513.17822
293.015	543.17786
293.542	555.3174
294.069	521.19615
294.596	498.12888
295.122	545.20228
295.649	563.11786
296.175	537.18856
296.702	591.31912
297.228	541.19693
297.754	550.13038
298.28	562.18207
298.806	558.23331
299.332	588.1934
299.857	612.25576
300.383	549.27207
300.908	576.29803
301.433	577.29578
301.958	570.19051
302.483	542.23822
303.008	613.38853
303.533	593.40067
304.058	573.21714
304.582	565.22201
305.107	582.39188
305.631	553.14601
306.155	596.2614
306.679	626.33075
307.203	621.30263
307.727	611.31319
308.251	623.39577
308.775	702.52613
309.298	594.30643
309.822	631.4386
310.345	685.46485
310.868	693.49411
311.391	677.49758
311.914	643.46009
312.437	734.47731
312.96	731.52288
313.482	645.36376
314.005	660.48571
314.527	634.50019
315.049	701.59189
315.571	678.3607
316.093	751.64759
316.615	660.4238
317.137	698.34482
317.659	766.63364
318.18	683.4549
318.702	747.54384
319.223	709.2638
319.744	756.49095
320.265	726.57434
320.786	750.66504
321.307	758.65634
321.828	764.50745
322.348	787.62007
322.869	823.70563
323.389	786.32103
323.909	803.59229
324.43	876.7974
324.95	804.5991
325.47	859.84911
325.989	836.71988
326.509	847.62967
327.029	902.75186
327.548	886.71013
328.067	907.88654
328.587	886.92232
329.106	898.71595
329.625	914.0525
330.144	948.86054
330.662	920.83859
331.181	1011.98946
331.7	926.82328
332.218	998.7854
332.736	1045.01942
333.255	1062.05967
333.773	1009.98645
334.291	1030.16029
334.808	1029.91231
335.326	1038.91524
335.844	1062.05967
336.361	1120.38724
336.879	1112.13338
337.396	1117.22967
337.913	1138.1218
338.43	1127.04598
338.947	1181.2688
339.464	1189.0146
339.981	1206.28101
340.497	1211.38986
341.014	1234.39857
341.53	1205.14623
342.046	1253.50275
342.562	1279.52781
343.078	1259.33255
343.594	1266.36931
344.11	1328.47355
344.626	1341.65792
345.141	1385.40144
345.657	1369.35116
346.172	1338.50936
346.687	1369.39099
347.202	1394.41016
347.717	1461.61894
348.232	1442.7445
348.747	1440.49405
349.261	1420.32026
349.776	1497.65246
350.29	1493.83025
350.805	1532.82415
351.319	1536.61397
351.833	1554.60405
352.347	1481.61186
352.861	1553.6677
353.374	1489.49372
353.888	1540.79972
354.401	1582.58852
354.915	1588.57554
355.428	1677.01923
355.941	1601.68701
356.454	1647.56795
356.967	1587.67624
357.48	1650.63552
357.993	1617.90143
358.505	1600.83956
359.018	1752.02448
359.53	1695.95773
360.042	1845.74938
360.554	1746.01719
361.066	1728.97121
361.578	1763.64262
362.09	1772.92463
362.602	1807.70793
363.113	1862.95972
363.625	1903.84393
364.136	1879.69635
364.647	1907.02373
365.158	1905.94327
365.669	1997.11522
366.18	1947.01705
366.691	1971.74112
367.201	1995.12976
367.712	1954.91193
368.222	2039.98971
368.733	2032.74736
369.243	2098.89727
369.753	2125.03783
370.263	2190.29317
370.773	2055.23811
371.282	2202.2459
371.792	2238.12262
372.301	2242.31603
372.811	2359.82782
373.32	2331.85005
373.829	2438.28022
374.338	2560.01994
374.847	2606.22134
375.356	2611.33024
375.865	2661.86393
376.373	2882.17144
376.882	2929.81487
377.39	2924.50941
377.898	3060.62915
378.407	3207.13784
378.915	3332.8996
379.423	3419.23588
379.93	3599.18758
380.438	3669.38068
380.946	3918.07479
381.453	4053.23268
381.96	4258.10303
382.468	4457.8885
382.975	4776.02065
383.482	4855.32667
383.989	4943.31336
384.495	5241.39391
385.002	5452.60413
385.509	5818.24966
386.015	6089.22169
386.521	6432.71576
387.028	6733.66162
387.534	6679.34578
388.04	7144.00201
388.546	7305.59459
389.051	7530.67836
389.557	8121.28347
390.063	8892.2323
390.568	9195.86674
391.073	9381.2045
391.578	9813.24448
392.084	10061.0035
392.589	10378.17653
393.093	11219.15064
393.598	12191.38487
394.103	13444.3765
394.607	14805.57899
395.112	15815.11933
395.616	16691.93627
396.12	17895.83006
396.624	19938.3426
397.128	21675.47283
397.632	24158.00884
398.136	26478.58327
398.639	27777.69551
399.143	31059.68865
399.646	34894.1435
400.15	38641.52922
400.653	42523.07958
401.156	48066.36852
401.659	56250.10821
402.162	62437.56688
402.664	62394.7573
403.167	63977.72923
403.67	63769.22307
404.172	63919.58413
404.674	63858.43483
405.176	63738.15102
405.678	63977.72923
406.18	64011.81569
406.682	63863.44694
407.184	63926.60148
407.686	63841.39382
408.187	64025.8516
408.688	63892.51763
409.19	63833.37461
409.691	63977.72923
410.192	63945.6488
410.693	63713.09355
411.194	63812.32447
411.694	63919.58413
412.195	64038.8851
412.696	63881.49072
413.196	62808.33831
413.696	61094.52861
414.196	62355.94372
414.696	60957.71401
415.196	58308.5431
415.696	52586.37727
416.196	42234.57661
416.695	32584.34076
417.195	28250.03252
417.694	26683.59492
418.194	25228.87502
418.693	23630.28997
419.192	22766.95313
419.691	22546.15625
420.19	21850.08979
420.688	21203.17046
421.187	20323.60005
421.685	18774.86133
422.184	17154.98213
422.682	14961.73266
423.18	12736.7913
423.678	11207.337
424.176	10560.69097
424.674	9862.45716
425.172	9457.38465
425.669	8809.24346
426.167	8281.419
426.664	7591.78335
427.161	6930.65335
427.659	6492.02393
428.156	6107.33597
428.652	5738.61235
429.149	5514.434
429.646	5269.9698
430.143	4968.64351
430.639	4688.71777
431.135	4423.27334
431.632	4094.78051
432.128	3912.20207
432.624	3807.77805
433.12	3628.96195
433.616	3517.75746
434.111	3403.28169
434.607	3312.34889
435.103	3179.59475
435.598	3114.5767
436.093	3017.20482
436.588	2825.01758
437.083	2693.98695
437.578	2621.14963
438.073	2431.51707
438.568	2392.40613
439.062	2324.70494
439.557	2174.04229
440.051	2112.83642
440.546	2141.89592
441.04	2089.11903
441.534	2010.28691
442.028	2015.08482
442.522	1945.01908
443.015	1863.5146
443.509	1899.03967
444.002	1897.06352
444.496	1805.52005
444.989	1758.91079
445.482	1765.99951
445.975	1809.76239
446.468	1740.47138
446.961	1743.48416
447.454	1617.49609
447.947	1718.80999
448.439	1668.86884
448.931	1627.58601
449.424	1642.98748
449.916	1636.81492
450.408	1584.53196
450.9	1510.66532
451.392	1513.82966
451.884	1550.51479
452.375	1496.71532
452.867	1453.349
453.358	1424.37965
453.849	1430.17974
454.341	1440.35057
454.832	1354.13591
455.323	1379.59593
455.814	1368.31279
456.304	1378.35856
456.795	1309.24282
457.285	1340.17171
457.776	1287.21079
458.266	1304.34769
458.756	1222.2308
459.247	1272.33054
459.737	1274.36801
460.226	1248.16678
460.716	1150.16849
461.206	1159.18179
461.695	1095.17662
462.185	1126.11691
462.674	1101.98984
463.163	1169.02849
463.653	1154.88534
464.142	1084.1094
464.63	1057.06792
465.119	1023.92276
465.608	1025.94349
466.096	977.70968
466.585	949.77645
467.073	921.80197
467.561	985.93643
468.05	911.73622
468.538	951.92469
469.026	894.77009
469.513	894.54481
470.001	944.78053
470.489	885.76163
470.976	932.79905
471.463	886.85956
471.951	835.76745
472.438	787.57868
472.925	788.58541
473.412	741.5574
473.899	789.53974
474.385	769.6234
474.872	729.46959
475.359	718.54045
475.845	711.25953
476.331	664.22713
476.817	677.44773
477.303	701.41696
477.789	652.36805
478.275	682.48889
478.761	625.3145
479.247	663.29044
479.732	602.34453
480.218	632.48162
480.703	588.29808
481.188	619.17836
481.673	617.25549
482.158	603.15063
482.643	586.34745
483.128	603.25091
483.612	630.33055
484.097	496.09015
484.581	515.07902
485.066	549.21516
485.55	509.01798
486.034	535.04041
486.518	533.15516
487.002	481.06974
487.486	455.01558
487.969	443.99445
488.453	401.93079
488.936	463.95461
489.42	451.91525
489.903	447.026
490.386	399.76239
490.869	426.86116
491.352	392.87981
491.835	396.74878
492.318	431.89303
492.8	431.81916
493.283	413.98321
493.765	389.89152
494.247	380.82623
494.73	372.76889
495.212	346.7718
495.694	367.81136
496.175	369.83211
496.657	387.85556
497.139	367.57995
497.62	357.80768
498.102	382.89143
498.583	282.66096
499.064	388.8052
499.545	365.77893
500.026	352.7481
500.507	342.74109
500.988	391.91476
501.469	302.71612
501.949	318.74474
502.43	326.74401
502.91	374.73975
503.39	344.80467
503.87	332.7418
504.35	281.62696
504.83	316.65286
505.31	248.57446
505.79	243.55226
506.269	254.55887
506.749	282.61421
507.228	271.6104
507.707	281.59787
508.187	330.74585
508.666	300.70836
509.145	289.64401
509.623	281.628
510.102	311.71451
510.581	320.73209
511.059	272.65642
511.538	267.66074
512.016	320.72708
512.494	289.66238
512.972	263.604
513.45	270.60279
513.928	269.62692
514.406	245.57885
514.884	240.59752
515.361	249.57323
515.839	264.58282
516.316	305.70577
516.793	277.66987
517.27	207.48282
517.747	226.56144
518.224	223.49633
518.701	280.5899
519.178	247.59576
519.654	289.6528
520.131	264.62796
520.607	202.47921
521.083	211.4628
521.56	288.64749
522.036	226.47447
522.512	251.5967
522.987	323.73821
523.463	271.61514
523.939	291.69044
524.414	228.50356
524.89	277.63258
525.365	235.51153
525.84	211.49196
526.315	258.6007
526.79	247.53559
527.265	275.60799
527.74	216.50787
528.215	186.42247
528.689	224.47379
529.164	222.45928
529.638	245.59874
530.112	199.45465
530.587	267.54606
531.061	226.5291
531.534	300.68882
532.008	288.66948
532.482	264.5816
532.956	233.57471
533.429	271.6363
533.903	235.49586
534.376	235.50043
534.849	210.46788
535.322	247.5609
535.795	182.4286
536.268	239.55833
536.741	222.50975
537.213	242.5356
537.686	219.51923
538.158	284.61673
538.631	281.65127
539.103	232.50575
539.575	255.50236
540.047	226.47551
540.519	275.62928
540.991	283.66032
541.463	258.59643
541.934	228.49745
542.406	294.67451
542.877	308.66001
543.348	285.65845
543.82	275.6409
544.291	293.65265
544.762	319.72143
545.233	343.82444
545.703	304.643
546.174	288.63792
546.645	271.62959
547.115	365.83015
547.585	390.83823
548.056	406.93475
548.526	392.87186
548.996	412.91861
549.466	461.03365
549.935	428.95151
550.405	399.81638
550.875	431.95122
551.344	430.95279
551.814	387.83017
552.283	426.86076
552.752	480.0328
553.221	538.07186
553.69	516.0599
554.159	507.15792
554.628	560.1432
555.096	493.15567
555.565	534.06585
556.033	581.24756
556.502	510.12472
556.97	498.00951
557.438	497.06693
557.906	495.06902
558.374	546.14534
558.842	531.15717
559.31	553.11432
559.777	581.28128
560.245	536.11245
560.712	563.15948
561.18	605.18966
561.647	612.20317
562.114	619.26071
562.581	654.43012
563.048	653.3186
563.514	695.54127
563.981	712.41851
564.448	761.47659
564.914	754.51066
565.381	812.57683
565.847	765.53379
566.313	795.57567
566.779	831.57739
567.245	812.5993
567.711	843.71369
568.176	808.53701
568.642	882.88606
569.108	861.79793
569.573	972.84149
570.038	970.62866
570.504	955.7675
570.969	978.00614
571.434	1042.84809
571.899	1092.06885
572.363	1093.99038
572.828	1161.08349
573.293	1128.03283
573.757	1119.05396
574.222	1138.99181
574.686	1190.12213
575.15	1178.23007
575.614	1224.23783
576.078	1140.10986
576.542	1059.93026
577.006	1124.99498
577.469	1206.32744
577.933	1173.07722
578.396	1163.16695
578.86	1192.18567
579.323	1201.26437
579.786	1131.90571
580.249	1179.17417
580.712	1105.1529
581.175	1074.14319
581.637	1116.00602
582.1	1090.8657
582.563	1044.75336
583.025	1127.18758
583.487	1088.73853
583.95	1046.77486
584.412	1108.80482
584.874	1136.20665
585.336	1145.14486
585.797	1129.90953
586.259	1120.07479
586.721	1109.06706
587.182	1133.0538
587.643	1175.07112
588.105	1144.13197
588.566	1124.80551
589.027	1245.37037
589.488	1250.18964
589.949	1299.41403
590.41	1337.89142
590.87	1380.32944
591.331	1414.22623
591.791	1455.44431
592.252	1507.51726
592.712	1536.6418
593.172	1513.44406
593.632	1701.52578
594.092	1648.49079
594.552	1777.48494
595.011	1715.64149
595.471	1911.74313
595.931	1922.73303
596.39	2068.08616
596.849	2077.95185
597.308	2130.59245
597.768	2322.60816
598.227	2413.25471
598.685	2480.00174
599.144	2620.21093
599.603	2717.17679
600.062	2923.62257
600.52	3107.97684
600.978	3126.24092
601.437	3289.9782
601.895	3529.5578
602.353	3672.64528
602.811	3871.73336
603.269	3996.03585
603.727	4229.99629
604.184	4428.5228
604.642	4498.04066
605.099	4659.56863
605.557	4929.71397
606.014	5095.77476
606.471	5464.67064
606.928	5611.71533
607.385	5781.49348
607.842	6075.72488
608.299	6170.81666
608.755	6436.9832
609.212	6662.44362
609.668	6854.50648
610.125	7075.89149
610.581	7114.7369
611.037	7203.52642
611.493	7411.79005
611.949	7572.07696
612.405	7605.38323
612.861	7765.90596
613.316	7827.12315
613.772	7970.04703
614.227	7951.22372
614.683	7941.78146
615.138	8077.2244
615.593	8040.15324
616.048	8049.11139
616.503	8048.33634
616.958	7916.39145
617.412	7977.18865
617.867	7884.89278
618.321	7921.69312
618.776	7681.68084
619.23	7502.83843
619.684	7359.55296
620.138	7317.65152
620.592	7282.95081
621.046	7185.78481
621.5	7081.87105
621.954	6826.37934
622.407	6728.37498
622.861	6597.94628
623.314	6454.52387
623.768	6297.82947
624.221	6086.86012
624.674	6027.76576
625.127	5879.86393
625.58	5710.70071
626.033	5581.58906
626.485	5517.23671
626.938	5476.22581
627.39	5356.15533
627.843	5108.18681
628.295	4992.25192
628.747	4905.5506
629.199	4796.27376
629.651	4718.36688
630.103	4590.44187
630.555	4475.94884
631.006	4320.68081
631.458	4259.79858
631.909	4074.54762
632.361	3975.7943
632.812	3959.8266
633.263	3833.46525
633.714	3761.34599
634.165	3601.20327
634.616	3542.12381
635.067	3408.71345
635.518	3310.19887
635.968	3158.17755
636.419	3202.72473
636.869	3038.2256
637.319	2974.10823
637.769	2863.93217
638.219	2847.20319
638.669	2700.23315
639.119	2711.27084
639.569	2582.26205
640.019	2621.06435
640.468	2584.90187
640.918	2411.15068
641.367	2413.86326
641.816	2402.82638
642.265	2346.04956
642.714	2269.93562
643.163	2209.95237
643.612	2196.23301
644.061	2164.59126
644.51	2107.8688
644.958	2034.67256
645.406	2000.99405
645.855	2009.07014
646.303	1940.80858
646.751	1953.82518
647.199	1913.71243
647.647	1895.80162
648.095	1804.66419
648.543	1848.26287
648.99	1783.85902
649.438	1808.72148
649.885	1746.98192
650.333	1760.08002
650.78	1666.77967
651.227	1632.79618
651.674	1639.54215
652.121	1636.81048
652.568	1606.77459
653.015	1574.77604
653.461	1518.57352
653.908	1457.39366
654.354	1475.53292
654.801	1388.38964
655.247	1361.12192
655.693	1334.66539
656.139	1294.33316
656.585	1313.35857
657.031	1328.32933
657.477	1304.09294
657.922	1245.13376
658.368	1262.38144
658.813	1269.16125
659.259	1197.25681
659.704	1183.17615
660.149	1114.01057
660.594	1166.15493
661.039	1162.04228
661.484	1050.99146
661.929	1094.01745
662.373	982.02881
662.818	1061.11476
663.262	961.90954
663.707	965.03487
664.151	985.96454
664.595	987.94945
665.039	974.98967
665.483	983.06385
665.927	962.84111
666.371	922.78906
666.814	925.81236
667.258	948.8815
667.701	891.54655
668.145	910.89152
668.588	911.88395
669.031	860.69079
669.474	870.74658
669.917	824.50223
670.36	822.74786
670.803	842.71593
671.245	742.27405
671.688	765.59802
672.13	746.43953
672.573	758.65494
673.015	779.60574
673.457	797.45108
673.899	746.55382
674.341	694.455
674.783	758.55786
675.225	707.5152
675.666	739.56341
676.108	714.31578
676.549	709.42464
676.991	656.24742
677.432	728.21065
677.873	688.35729
678.314	668.3881
678.755	666.44228
679.196	648.29202
679.637	684.42454
680.078	676.37229
680.518	672.33809
680.959	659.3715
681.399	689.48928
681.839	619.32813
682.28	659.44076
682.72	615.23493
683.16	645.42021
683.6	674.32714
684.039	570.03102
684.479	617.35054
684.919	637.31507
685.358	619.36518
685.798	583.36213
686.237	640.3387
686.676	564.13053
687.115	692.41184
687.554	623.31373
687.993	652.24883
688.432	663.31187
688.871	644.28761
689.309	615.30195
689.748	619.11386
690.186	598.23361
690.625	591.22816
691.063	623.30741
691.501	631.37716
691.939	661.46398
692.377	627.33837
692.815	684.45798
693.253	632.31903
693.69	648.2256
694.128	613.31467
694.565	636.31917
695.003	648.46224
695.44	660.36231
695.877	661.3537
696.314	648.17064
696.751	666.30336
697.188	666.33904
697.625	609.18966
698.061	651.36144
698.498	595.24033
698.934	659.37211
699.371	636.3086
699.807	679.38748
700.243	688.43923
700.679	651.25322
701.115	688.38334
701.551	698.39316
701.987	689.28264
702.422	687.4197
702.858	696.43415
703.294	766.48384
703.729	734.53218
704.164	651.35423
704.599	757.42413
705.035	756.42956
705.47	703.47421
705.904	682.36055
706.339	722.41247
706.774	745.48401
707.209	782.53436
707.643	743.51774
708.078	762.57945
708.512	747.61063
708.946	729.47498
709.38	748.51381
709.814	750.43203
710.248	791.64071
710.682	794.61142
711.116	771.59919
711.549	716.58425
711.983	788.52725
712.416	838.65908
712.85	815.70331
713.283	817.6133
713.716	830.72971
714.149	754.47517
714.582	802.49897
715.015	801.65852
715.448	854.80651
715.881	830.456
716.313	846.63671
716.746	786.5676
717.178	832.67251
717.61	845.81118
718.043	881.80563
718.475	868.74896
718.907	869.80905
719.339	823.54549
719.77	807.62406
720.202	765.63468
720.634	899.82433
721.065	843.64683
721.497	931.86703
721.928	798.64457
722.359	835.70203
722.79	825.65043
723.221	836.73914
723.652	894.8887
724.083	912.65464
724.514	854.61365
724.945	897.71528
725.375	899.71745
725.806	890.8122
726.236	859.84042
726.666	885.71024
727.096	882.78289
727.526	893.9215
727.956	911.68758
728.386	905.82401
728.816	875.87471
729.246	952.91839
729.675	839.70555
730.105	855.73654
730.534	889.69013
730.964	827.72993
731.393	906.82143
731.822	903.91562
732.251	891.87867
732.68	902.69288
733.109	910.84625
733.537	893.80227
733.966	876.81919
734.395	908.70249
734.823	838.51086
735.251	903.7742
735.68	880.79182
736.108	821.72191
736.536	844.62817
736.964	823.57659
737.392	841.75614
737.82	855.68292
738.247	798.58789
738.675	846.63593
739.102	804.68882
739.53	827.79769
739.957	843.83945
740.384	779.57483
740.811	748.58282
741.238	816.67869
741.665	812.59031
742.092	691.34886
742.519	752.59129
742.945	789.61618
743.372	769.62269
743.798	760.66071
744.225	729.46017
744.651	672.45529
745.077	687.478
745.503	706.45478
745.929	774.58292
746.355	708.47067
746.781	718.50603
747.207	644.32508
747.632	718.53185
748.058	688.502
748.483	657.29452
748.908	682.4688
749.334	681.45001
749.759	649.33868
750.184	685.42062
750.609	598.28329
751.033	636.27805
751.458	578.11752
751.883	592.27749
752.307	585.20378
752.732	634.42364
753.156	585.26587
753.58	579.19249
754.005	538.19993
754.429	588.22164
754.853	556.22889
755.277	578.20457
755.7	531.17331
756.124	507.12859
756.548	443.94455
756.971	535.15802
757.394	482.11023
757.818	459.075
758.241	459.05737
758.664	462.0552
759.087	440.89435
759.51	470.04199
759.933	443.97198
760.356	447.05052
760.778	415.93008
761.201	416.91294
761.623	381.82752
762.046	396.84013
762.468	451.97203
762.89	401.89169
763.312	424.94497
763.734	407.89489
764.156	362.82416
764.578	342.7145
765	388.86547
765.421	343.81379
765.843	375.90645
766.264	330.71997
766.686	321.73836
767.107	344.76925
767.528	304.73197
767.949	328.77296
768.37	298.6908
768.791	293.65292
769.212	280.66294
769.632	305.66416
770.053	276.67762
770.473	272.61227
770.894	233.53961
771.314	296.64689
771.734	247.53947
772.154	259.62116
772.575	279.59697
772.994	231.49042
773.414	278.61475
773.834	216.50886
774.254	224.51558
774.673	340.76907
775.093	265.62003
775.512	241.56123
775.931	199.48036
776.351	265.621
776.77	202.47144
777.189	210.47156
777.607	194.47156
778.026	225.52975
778.445	207.49986
778.864	191.45966
779.282	179.40468
779.701	192.45759
780.119	186.44958
780.537	189.44673
780.955	197.47212
781.373	198.46337
781.791	220.47063
782.209	166.3545
782.627	164.41395
783.045	143.30969
783.462	184.44742
783.88	164.40684
784.297	175.41972
784.715	152.37624
785.132	138.31751
785.549	158.37686
785.966	161.38688
786.383	180.42356
786.8	173.38041
787.217	172.39162
787.633	130.31518
788.05	136.30126
788.466	121.26909
788.883	148.36527
789.299	128.29062
789.715	181.41936
790.131	133.31705
790.547	121.28944
790.963	142.33623
791.379	115.28001
791.795	148.31675
792.21	131.29012
792.626	83.18811
793.041	127.29949
793.457	120.28227
793.872	94.21039
794.287	112.26119
794.702	132.30529
795.117	102.24543
795.532	156.37636
795.947	82.18716
796.362	83.18642
796.776	112.2453
797.191	105.24761
797.605	102.23328
798.02	110.25633
798.434	159.33418
798.848	173.4105
799.262	95.22707
799.676	162.37497
800.09	109.25704
800.504	128.29486
800.918	81.17849
801.331	75.18555
801.745	77.16896
802.158	94.22387
802.572	74.17305
802.985	107.24496
803.398	79.18064
803.811	44.10744
804.224	52.1236
804.637	59.13654
805.05	77.16996
805.462	88.20652
805.875	61.154
806.288	82.19191
806.7	11.02669
807.112	65.14365
807.525	58.13595
807.937	53.12731
808.349	40.0965
808.761	107.25331
809.173	108.25177
809.584	61.14469
809.996	36.08544
810.408	78.19696
810.819	54.1229
811.231	126.32404
811.642	166.39199
812.053	155.35955
812.464	115.25978
812.875	177.43113
813.286	99.24761
813.697	106.22971
814.108	91.21201
814.519	108.23144
814.929	112.27256
815.34	35.08135
815.75	62.15387
816.16	10.02395
816.571	58.1453
816.981	51.1146
817.391	50.11537
817.801	62.14941
818.211	53.12148
818.62	25.0588
819.03	95.22229
819.44	46.11433
819.849	48.11567
820.259	12.02958
820.668	72.17134
821.077	58.14062
821.486	71.16196
821.895	52.12203
822.304	37.09508
822.713	26.05927
823.122	63.15122
823.531	13.02945
823.939	71.16724
824.348	83.19208
824.756	65.1559
825.164	83.19945
825.573	34.0828
825.981	60.14246
826.389	82.19738
826.797	95.23253
827.205	54.12027
827.612	53.12537
828.02	53.11909
828.428	85.20766
828.835	50.12855
829.243	54.12286
829.65	41.09953
830.057	43.10018
830.464	72.17088
830.871	67.1548
831.278	63.14655
831.685	50.10655
832.092	44.10285
832.499	78.16368
832.905	82.19783
833.312	27.0582
833.718	97.23309
834.124	81.17729
834.531	21.05083
834.937	77.19085
835.343	39.08997
835.749	65.14311
836.155	41.1041
836.561	16.03827
836.966	48.11265
837.372	43.10525
837.777	51.12311
838.183	34.07226
838.588	43.10392
838.993	48.11273
839.399	81.19079
839.804	10.02374
840.209	72.17875
840.613	49.1043
841.018	54.13112
841.423	55.13637
841.828	47.11551
842.232	13.03067
842.637	81.18492
843.041	45.11223
843.445	0
843.849	39.09375
844.253	70.15874
844.657	47.11517
845.061	127.27751
845.465	46.10715
845.869	41.09167
846.272	41.09695
846.676	56.12766
847.079	70.17283
847.483	29.06979
847.886	68.15702
848.289	40.10505
848.692	18.04392
849.095	-2.00465
849.498	56.13454
849.901	32.07
850.304	46.10563
850.707	48.11768
851.109	55.13327
851.512	39.09283
851.914	49.1202
852.316	89.21833
852.718	103.2618
853.121	25.05935
853.523	1.00225
853.925	34.08702
854.326	51.1239
854.728	26.06514
855.13	59.14847
855.531	35.08093
855.933	36.0824
856.334	45.10929
856.736	60.12997
857.137	73.16389
857.538	52.12711
857.939	76.18294
858.34	45.10439
858.741	32.0808
859.142	39.08972
859.542	33.08515
859.943	72.17154
860.343	68.163
860.744	52.12198
861.144	86.20253
861.544	56.13137
861.945	43.10572
862.345	5.0118
862.745	20.04856
863.145	42.09459
863.544	24.059
863.944	61.13802
864.344	7.01664
864.743	64.15219
865.143	66.16481
865.542	9.01991
865.941	78.18576
866.34	66.14924
866.74	61.15844
867.139	107.24732
867.537	15.03666
867.936	80.18495
868.335	20.04922
868.734	33.08182
869.132	15.03321
869.531	8.0185
869.929	53.1164
870.327	68.15608
870.726	51.12102
871.124	39.08684
871.522	32.07857
871.92	74.17488
872.318	66.15343
872.715	48.11251
873.113	32.07477
873.511	20.04807
873.908	32.07959
874.306	37.08969
874.703	7.01682
875.1	40.09731
875.497	18.04153
875.894	60.1441
876.291	77.1813
876.688	46.11478
877.085	30.06886
877.482	27.06533
877.878	106.24623
878.275	60.14716
878.671	38.07833
879.068	40.09288
879.464	33.07685
879.86	6.01374
880.256	32.07489
880.652	62.15161
881.048	52.12246
881.444	-1.00227
881.84	74.18015
882.236	45.10892
882.631	94.22137
883.027	69.15911
883.422	16.03942
883.817	36.08817
884.213	25.06219
884.608	79.18984
885.003	48.11018
885.398	-1.00244
885.793	27.06523
886.188	5.01204
886.582	45.11023
886.977	71.15973
887.371	26.06313
887.766	18.04366
888.16	-21.05018
888.554	57.13426
888.949	41.0992
889.343	68.15808
889.737	38.09919
890.131	44.10644
890.525	87.21468
890.918	18.04384
891.312	33.07515
891.706	24.06093
892.099	93.22535
892.492	54.11016
892.886	31.07296
893.279	20.04924
893.672	68.16758
894.065	22.05338
894.458	-6.01452
894.851	56.13065
895.244	10.02478
895.637	16.0374
896.029	96.2252
896.422	9.02101
896.814	36.086
897.206	22.05135
897.599	133.31071
897.991	30.07046
898.383	65.14725
898.775	60.13102
899.167	21.04802
899.559	-6.01463
899.951	-4.00905
900.342	14.03416
900.734	67.16369
901.125	41.10321
901.517	65.15328
901.908	26.0591
902.299	15.03562
902.69	64.1459
903.082	71.16444
903.473	92.21345
903.863	-9.02223
904.254	67.15049
904.645	15.03561
905.036	80.18913
905.426	15.03254
905.817	33.07749
906.207	-34.07807
906.597	63.14249
906.987	-7.01751
907.378	63.15403
907.768	46.11802
908.158	3.00707
908.547	35.0888
908.937	11.02702
909.327	38.08859
909.717	33.07948
910.106	-19.04416
910.495	41.09736
910.885	24.059
911.274	46.11048
911.663	53.12813
912.052	47.11006
912.441	86.21108
912.83	32.06997
913.219	62.15555
913.608	56.13224
913.997	38.09289
914.385	98.22242
914.774	41.09579
915.162	78.17961
915.55	9.02089
915.939	38.09337
916.327	52.12365
916.715	74.18398
917.103	69.15943
917.491	60.1418
917.878	32.07562
918.266	18.04506
918.654	61.15119
919.041	37.09478
919.429	71.15986
919.816	67.16271
920.203	49.11537
920.591	38.09102
920.978	76.1778
921.365	74.18746
921.752	0
922.139	83.1706
922.525	56.12952
922.912	39.09111
923.299	20.04816
923.685	-68.17305
924.072	10.02164
924.458	41.09834
924.844	38.09067
925.231	2.00445
925.617	26.06476
926.003	24.05915
926.389	31.07548
926.774	34.08283
927.16	44.10491
927.546	20.05034
927.931	41.09781
928.317	73.1587
928.702	8.01819
929.088	93.21428
929.473	69.17002
929.858	92.21616
930.243	37.08644
930.628	47.11118
931.013	52.12408
931.398	52.11211
931.783	2.00506
932.167	66.15634
932.552	28.0675
932.937	31.0737
933.321	41.10009
933.705	-14.03394
934.09	36.08577
934.474	58.1303
934.858	31.07801
935.242	19.04225
935.626	56.13877
936.009	50.12993
936.393	97.23927
936.777	36.08967
937.16	72.18161
937.544	8.01788
937.927	-1.00248
938.311	62.14374
938.694	79.20137
939.077	8.01852
939.46	38.08761
939.843	33.06391
940.226	30.07396
940.609	90.1987
940.991	7.01717
941.374	14.03333
941.757	42.09922
942.139	42.09071
942.522	68.1522
942.904	19.04409
943.286	54.13141
943.668	57.14385
944.05	48.11374
944.432	20.04747
944.814	50.11693
945.196	51.12046
945.578	3.00703
945.959	35.07784
946.341	28.06486
946.722	30.06723
947.104	70.15984
947.485	51.11361
947.866	46.11266
948.247	61.14942
948.628	-19.04411
949.009	48.11847
949.39	24.05727
949.771	9.01967
950.152	61.14368
950.532	46.1122
950.913	32.07413
951.293	26.06888
951.674	51.11831
952.054	76.18391
952.434	46.11006
952.814	16.03624
953.194	-13.0327
953.574	34.0802
953.954	-1.00227
954.334	80.19257
954.714	13.03081
955.093	64.15055
955.473	70.16978
955.853	30.07518
956.232	11.02931
956.611	33.07497
956.99	52.12626
957.37	-9.02215
957.749	-22.05011
958.128	40.09782
958.506	37.09298
958.885	17.04135
959.264	41.09808
959.643	94.20405
960.021	35.08427
960.4	21.04565
960.778	40.09317
961.156	24.05786
961.535	60.13191
961.913	64.14384
962.291	45.11292
962.669	26.06405
963.047	43.10646
963.424	42.10492
963.802	40.0949
964.18	8.01926
964.557	79.17175
964.935	39.08853
965.312	49.12388
965.69	35.08356
966.067	4.00931
966.444	11.02567
966.821	55.13667
967.198	27.06224
967.575	43.10077
967.952	78.17422
968.329	62.14544
968.705	84.17144
969.082	95.2364
969.458	46.10757
969.835	45.10513
970.211	61.15229
970.587	55.13177
970.963	26.06386
971.339	21.05345
971.715	46.11073
972.091	29.06873
972.467	16.03796
972.843	49.11842
973.219	107.24043
973.594	20.05075
973.97	48.10619
974.345	36.08323
974.721	86.19479
975.096	67.1564
975.471	69.1553
975.846	4.00921
976.221	7.01727
976.596	104.24091
976.971	89.2111
977.346	43.09491
977.72	20.04902
978.095	61.15141
978.469	42.09563
978.844	49.11757
979.218	54.12613
979.593	-7.01615
979.967	-8.01851
980.341	54.11937
980.715	67.16229
981.089	26.06275
981.463	60.13136
981.837	18.04305
982.21	6.01306
982.584	34.07939
982.957	8.01949
983.331	30.06698
983.704	67.15972
984.078	11.02616
984.451	-9.02134
984.824	44.1037
985.197	20.04604
985.57	20.04761
985.943	29.06759
986.316	32.07427
986.688	54.12435
987.061	75.16797
987.434	86.21778
987.806	30.06886
988.179	21.04746
988.551	67.16204
988.923	24.05661
989.295	74.17563
989.667	43.10026
990.039	77.18517
990.411	-7.0153
990.783	37.0803
991.155	-11.02578
991.527	-2.00467
991.898	10.02425
992.27	52.12484
992.641	53.12668
993.012	-9.01991
993.384	22.05021
993.755	51.1259
994.126	59.13708
994.497	24.05683
994.868	60.12952
995.239	48.1111
995.61	49.11869
995.98	11.02576
996.351	46.11035
996.722	48.10788
997.092	50.11403
997.462	13.02968
997.833	56.1255
998.203	0
998.573	69.16518
998.943	57.12845
999.313	36.08343
999.683	33.07643
1000.053	-22.0478
1000.423	12.02791
1000.792	-13.03241
1001.162	25.05884
1001.531	52.12322
1001.901	24.05738
1002.27	-3.00631
1002.639	36.08794
1003.009	55.12465
1003.378	33.08161
1003.747	54.12096
1004.116	9.02074
1004.485	39.08932
1004.853	4.00967
1005.222	-21.05052
1005.591	60.1354
1005.959	67.14423
1006.328	35.0757
1006.696	-29.0677
1007.064	8.01927
1007.433	14.03351
1007.801	4.00931
1008.169	-1.00242
1008.537	56.11767
1008.905	63.14104
1009.273	24.05663
1009.64	66.15246
1010.008	19.04348
1010.375	52.1184
1010.743	37.0789
1011.11	99.22674
1011.478	74.1763
1011.845	27.06054
1012.212	71.15462
1012.579	52.1226
1012.946	18.04069
1013.313	59.13263
1013.68	55.11682
1014.047	48.10943
1014.414	-21.048
1014.78	41.09841
1015.147	39.08921
1015.513	23.05333
1015.88	-15.037
1016.246	78.1809
1016.612	30.0651
1016.978	73.17195
1017.344	8.01916
1017.71	51.11812
1018.076	15.03362
1018.442	25.06237
1018.808	65.15721
1019.174	8.01929
1019.539	-19.04034
1019.905	45.10219
1020.27	25.0593
1020.636	19.04317
1021.001	102.23206
1021.366	21.04881
1021.731	122.30243
1022.096	8.01975
1022.461	29.0661
1022.826	69.15765
1023.191	4.0102
1023.556	0
1023.92	4.00941
1024.285	2.00466
1024.649	15.03519
1025.014	6.01418
1025.378	74.17914
1025.742	16.03797
1026.107	33.07104
1026.471	95.20802
1026.835	74.17508
1027.199	20.04648
1027.562	35.07693
1027.926	-12.02824
1028.29	29.07085
1028.654	60.13063
1029.017	38.09001
1029.381	33.07597
1029.744	33.08122
1030.107	83.18627
1030.471	17.03944
1030.834	40.08527
1031.197	82.18739
1031.56	48.10752
1031.923	21.05264
1032.286	84.18692
1032.648	-9.02049
1033.011	82.18126
1033.374	66.14571
1033.736	1.00256
1034.099	28.06571
1034.461	0
1034.823	6.01453
1035.185	5.01206
1035.548	30.07057
1035.91	59.13453
1036.272	88.19054
1036.634	30.07049
1036.995	-33.07464
1037.357	17.04011
1037.719	19.0446
1038.08	77.17543
1038.442	27.06139
1038.803	1.00228
1039.165	-6.01461
1039.526	44.10197
1039.887	4.00922
1040.248	57.13703
1040.609	54.12618
1040.97	-25.05914
1041.331	57.13952
1041.692	77.17422
1042.053	31.06699
1042.413	60.13208
1042.774	39.09122
1043.134	-9.02041
1043.495	64.15388
1043.855	82.19153
1044.215	0
1044.576	46.10614
1044.936	33.07183
1045.296	68.16207
1045.656	-43.10164
1046.016	27.06219
1046.375	2.00469
1046.735	95.2075
1047.095	20.04499
1047.454	47.09307
1047.814	48.11053
1048.173	47.10556
1048.533	52.11346
1048.892	14.03255
1049.251	0
1049.61	15.03568
1049.969	17.03837
1050.328	72.14735
1050.687	22.05112
1051.046	-13.03053
1051.405	-26.06223
1051.763	28.06246
1052.122	5.01204
1052.48	51.12018
1052.839	61.13931
1053.197	5.01132
1053.555	36.07641
1053.914	66.15343
1054.272	10.02274
1054.63	49.1151
1054.988	31.07143
1055.345	11.02228
1055.703	48.11075
1056.061	53.13271
1056.419	43.10914
1056.776	5.01148
1057.134	27.05867
1057.491	30.07238
1057.848	-14.03359
1058.206	15.0333
1058.563	28.05871
1058.92	41.0897
1059.277	44.10406
1059.634	-10.02236
1059.991	80.1826
1060.348	57.12307
1060.704	72.16751
1061.061	30.06526
1061.418	62.14379
1061.774	-8.01914
1062.131	24.06248
1062.487	3.00671
1062.843	53.12649
1063.199	34.08138
1063.555	36.08064
1063.911	15.03633
1064.267	47.09102
1064.623	-5.0119
1064.979	8.01751
1065.335	84.18847
1065.691	42.0947
1066.046	52.10811
1066.402	34.07321
1066.757	49.11882
1067.112	17.03998
1067.468	42.09637
1067.823	0
1068.178	36.08283
1068.533	26.06054
1068.888	45.10215
1069.243	25.05941
1069.598	45.10389
1069.952	84.18328
1070.307	25.05996
1070.662	50.11509
1071.016	60.1298
1071.371	42.09172
1071.725	3.00685
1072.079	70.16074
1072.434	18.04231
1072.788	2.00452
1073.142	72.1691
1073.496	-9.02057
1073.85	35.07738
1074.203	58.13457
1074.557	62.16078
1074.911	66.14864
1075.265	23.05119
1075.618	64.14931
1075.971	57.12908
1076.325	49.12069
1076.678	17.03734
1077.031	-20.04269
1077.385	84.17339
1077.738	11.02374
1078.091	34.07469
1078.444	19.04171
1078.796	47.11131
1079.149	35.08388
1079.502	29.06626
1079.855	23.05153
1080.207	17.04018
1080.56	32.0804
1080.912	28.06532
1081.264	15.03495
1081.617	36.08458
1081.969	46.11228
1082.321	8.01877
1082.673	50.11071
1083.025	6.01361
1083.377	-4.00906
1083.728	26.05774
1084.08	32.07627
1084.432	16.03696
1084.783	49.10702
1085.135	37.08965
1085.486	38.08365
1085.838	40.09493
1086.189	80.18657
1086.54	29.06607
1086.891	72.17783
1087.242	77.18201
1087.593	22.05062
1087.944	58.12606
1088.295	94.20066
1088.646	98.22998
1088.996	-9.02113
1089.347	19.04458
1089.698	46.10529
1090.048	16.03994
1090.398	56.1226
1090.749	-13.02977
1091.099	54.1321
1091.449	44.10571
1091.799	19.04587
1092.149	13.03109
1092.499	50.11679
1092.849	10.02464
1093.199	22.05262
1093.548	47.10941
1093.898	-1.00241
1094.248	-15.03707
1094.597	18.04508
1094.947	29.07509
1095.296	38.09071
1095.645	23.05755
1095.994	38.08743
1096.343	55.13327
1096.692	34.0879
1097.041	40.10665
1097.39	70.16665
1097.739	5.0126
1098.088	20.05154
1098.437	21.05432
1098.785	7.01819
1099.134	-15.03814
1099.482	17.04566
1099.83	65.16422
1100.179	38.0977
1100.527	-22.05636
1100.875	35.09025
1101.223	46.11884
1101.571	-23.062
1101.919	57.14693
1102.267	23.06367
1102.615	2.00642
1102.962	0
1103.31	16.05131
1103.658	2.00641
