Data from N3 R3 sample 8_Subt2__4__11-05-45-316.txt Node

Date: Thu Sep 18 11:05:45 PDT 2025
User: uwsun
Spectrometer: HDX01956
Trigger mode: 0
Integration Time (sec): 5.000000E-1
Scans to average: 1
Nonlinearity correction enabled: true
Boxcar width: 0
Storing dark spectrum: false
XAxis mode: Wavelengths
Number of Pixels in Spectrum: 2068
>>>>>Begin Spectral Data<<<<<
194.03	64.18407
194.578	69.22255
195.127	53.16885
195.676	59.18851
196.225	112.29354
196.773	41.11386
197.321	83.22941
197.87	140.35804
198.418	204.51968
198.966	221.57416
199.513	204.51306
200.061	162.41022
200.609	191.4993
201.156	148.32401
201.704	144.3623
202.251	217.56919
202.798	175.45075
203.345	222.54224
203.892	227.56526
204.438	165.38985
204.985	155.36779
205.532	181.47251
206.078	187.45293
206.624	232.57361
207.17	297.67688
207.716	229.5536
208.262	211.41294
208.808	213.52925
209.354	238.57937
209.899	231.57208
210.445	237.5835
210.99	230.55319
211.535	246.56937
212.08	215.49259
212.625	176.43692
213.17	258.64442
213.715	230.51774
214.259	264.60278
214.804	187.45446
215.348	234.53235
215.892	227.54318
216.436	218.48993
216.98	230.49564
217.524	229.53917
218.068	252.62351
218.612	231.57835
219.155	208.48563
219.698	231.53985
220.242	187.4565
220.785	196.45546
221.328	178.43575
221.871	206.51809
222.414	165.4049
222.956	144.34307
223.499	168.37121
224.041	137.312
224.583	187.38852
225.126	145.31657
225.668	159.38338
226.21	228.5662
226.751	200.43895
227.293	207.45957
227.835	180.43622
228.376	174.39089
228.918	173.42579
229.459	145.3599
230	167.39763
230.541	201.45441
231.082	202.48419
231.622	142.31926
232.163	164.39162
232.704	207.50984
233.244	179.43877
233.784	171.4095
234.324	252.5526
234.864	181.40335
235.404	178.41347
235.944	195.45161
236.484	183.4509
237.023	181.42085
237.563	199.45539
238.102	193.44946
238.641	159.3958
239.18	187.43308
239.719	192.47351
240.258	215.47316
240.797	197.46329
241.335	207.494
241.874	197.37768
242.412	217.51767
242.95	204.48526
243.488	144.32124
244.026	211.48226
244.564	210.42393
245.102	200.44634
245.64	187.43977
246.177	175.38384
246.715	249.58305
247.252	169.37911
247.789	230.41508
248.326	204.48377
248.863	199.43114
249.4	205.45646
249.936	280.56732
250.473	242.559
251.009	198.44589
251.546	258.56075
252.082	159.34022
252.618	195.42969
253.154	227.53508
253.69	200.44098
254.226	233.54581
254.761	201.44365
255.297	202.43344
255.832	234.54439
256.367	250.5722
256.903	209.45687
257.438	227.5205
257.972	207.45269
258.507	183.41422
259.042	193.41368
259.576	281.60255
260.111	201.45367
260.645	194.41268
261.179	252.57538
261.713	241.52681
262.247	209.46826
262.781	211.43681
263.315	198.47244
263.849	190.46943
264.382	185.41926
264.915	221.51324
265.449	171.41325
265.982	204.45564
266.515	247.59148
267.048	203.42326
267.58	235.49434
268.113	212.44999
268.646	164.39745
269.178	171.37823
269.71	256.55143
270.243	231.52435
270.775	257.64367
271.307	209.48768
271.838	226.52226
272.37	216.51932
272.902	174.38976
273.433	231.50154
273.965	246.58313
274.496	185.45246
275.027	253.61461
275.558	260.61845
276.089	244.59619
276.62	197.48896
277.15	221.53265
277.681	170.3621
278.211	217.51905
278.741	230.50032
279.272	257.57294
279.802	212.51801
280.332	231.53434
280.861	207.48643
281.391	225.50119
281.921	191.45006
282.45	232.56286
282.98	248.63152
283.509	220.49178
284.038	274.60894
284.567	267.60483
285.096	271.63953
285.625	176.39181
286.153	218.51237
286.682	234.52674
287.21	193.453
287.739	224.51908
288.267	228.54484
288.795	227.58142
289.323	188.43669
289.851	295.67205
290.378	240.52252
290.906	235.56382
291.433	235.57388
291.961	286.63376
292.488	241.58458
293.015	275.63156
293.542	309.7694
294.069	263.63602
294.596	268.63698
295.122	238.55959
295.649	258.54953
296.175	278.64955
296.702	251.60037
297.228	236.55619
297.754	289.62986
298.28	289.64534
298.806	286.66902
299.332	267.58241
299.857	285.62878
300.383	241.59335
300.908	248.59715
301.433	271.6477
301.958	277.61701
302.483	216.5266
303.008	283.6849
303.533	273.6857
304.058	250.5692
304.582	272.62604
305.107	274.69475
305.631	255.56448
306.155	292.65998
306.679	278.63653
307.203	297.6684
307.727	304.69745
308.251	235.56918
308.775	340.79687
309.298	282.66174
309.822	247.60744
310.345	333.76718
310.868	371.85607
311.391	311.7413
311.914	292.71106
312.437	312.68964
312.96	292.66831
313.482	283.64654
314.005	280.68006
314.527	312.78518
315.049	340.82946
315.571	374.80419
316.093	346.82454
316.615	283.66058
317.137	340.71221
317.659	332.77539
318.18	281.65153
318.702	408.90819
319.223	302.59565
319.744	298.65154
320.265	369.86195
320.786	381.91157
321.307	344.81821
321.828	385.82802
322.348	377.84841
322.869	381.86828
323.389	480.87479
323.909	407.88248
324.43	363.83161
324.95	337.7438
325.47	413.9749
325.989	376.85429
326.509	412.87636
327.029	421.91205
327.548	382.82705
328.067	428.98578
328.587	426.01331
329.106	401.85909
329.625	429.0584
330.144	429.94562
330.662	421.93925
331.181	439.98062
331.7	412.90987
332.218	470.95576
332.736	456.0046
333.255	487.07325
333.773	438.97858
334.291	505.18107
334.808	494.03882
335.326	462.97586
335.844	527.15184
336.361	572.36326
336.879	536.17031
337.396	547.23536
337.913	521.11902
338.43	506.0627
338.947	544.20433
339.464	482.97391
339.981	480.06773
340.497	575.3029
341.014	564.26992
341.53	531.10966
342.046	612.40281
342.562	569.31014
343.078	606.30439
343.594	574.25657
344.11	634.38284
344.626	604.40159
345.141	656.35586
345.657	650.32964
346.172	605.33816
346.687	612.28062
347.202	721.46809
347.717	668.43985
348.232	586.3453
348.747	668.39241
349.261	633.26061
349.776	699.49353
350.29	707.59515
350.805	681.52083
351.319	733.51555
351.833	739.51229
352.347	700.48438
352.861	721.512
353.374	736.48474
353.888	762.65667
354.401	737.48846
354.915	712.43758
355.428	736.64205
355.941	716.48995
356.454	738.45335
356.967	728.51226
357.48	713.44125
357.993	790.71613
358.505	729.58387
359.018	820.76399
359.53	814.74733
360.042	787.546
360.554	851.81779
361.066	829.76466
361.578	877.66243
362.09	874.79812
362.602	833.61191
363.113	929.86729
363.625	909.76255
364.136	896.67747
364.647	898.83264
365.158	888.77784
365.669	885.82363
366.18	903.8233
366.691	939.73437
367.201	889.83761
367.712	997.91141
368.222	978.89608
368.733	979.77693
369.243	962.811
369.753	936.83265
370.263	1050.11162
370.773	920.91995
371.282	1068.11157
371.792	1044.00549
372.301	1039.09184
372.811	1089.38744
373.32	1076.89772
373.829	1107.13342
374.338	1174.07847
374.847	1177.17802
375.356	1204.26729
375.865	1265.09809
376.373	1405.41077
376.882	1326.64453
377.39	1399.58388
377.898	1349.57877
378.407	1505.50981
378.915	1573.45704
379.423	1568.64752
379.93	1686.75869
380.438	1722.91112
380.946	1772.83406
381.453	1866.03205
381.96	1945.07268
382.468	2053.07873
382.975	2226.37191
383.482	2283.97393
383.989	2319.6718
384.495	2421.21811
385.002	2462.73444
385.509	2652.39515
386.015	2880.62329
386.521	2985.15323
387.028	3183.11895
387.534	3148.78744
388.04	3317.45274
388.546	3392.90161
389.051	3562.82815
389.557	3822.03517
390.063	4077.75489
390.568	4229.10233
391.073	4396.47474
391.578	4566.03771
392.084	4699.45863
392.589	4903.01476
393.093	5201.51479
393.598	5677.98418
394.103	6148.01609
394.607	6905.94101
395.112	7274.09293
395.616	7706.17364
396.12	8363.49181
396.624	9251.95485
397.128	10006.76675
397.632	11121.75873
398.136	12100.75054
398.639	12745.47726
399.143	14143.13809
399.646	16204.73635
400.15	17796.8827
400.653	19866.92496
401.156	22397.54375
401.659	26067.52077
402.162	31871.84218
402.664	42206.46393
403.167	59852.22906
403.67	62824.19704
404.172	63919.58413
404.674	63858.43483
405.176	63738.15102
405.678	63977.72923
406.18	64011.81569
406.682	63863.44694
407.184	63926.60148
407.686	63841.39382
408.187	64025.8516
408.688	63892.51763
409.19	63833.37461
409.691	59276.81424
410.192	50293.93497
410.693	43283.38096
411.194	39353.78769
411.694	37225.6841
412.195	34225.76052
412.696	31080.85591
413.196	29123.01073
413.696	28646.81991
414.196	28976.38716
414.696	28535.76001
415.196	26886.55339
415.696	24421.90278
416.196	19715.17767
416.695	15057.09842
417.195	13069.44301
417.694	12446.66182
418.194	11697.14443
418.693	10916.02396
419.192	10625.79796
419.691	10295.69439
420.19	10145.17013
420.688	9988.70538
421.187	9617.86838
421.685	8872.24247
422.184	8029.26068
422.682	6888.4
423.18	5806.91716
423.678	5184.18509
424.176	4933.31139
424.674	4645.30223
425.172	4381.81093
425.669	4125.23898
426.167	3874.96366
426.664	3465.96633
427.161	3237.10004
427.659	2985.44903
428.156	2835.73771
428.652	2587.61822
429.149	2585.40304
429.646	2399.92265
430.143	2276.22457
430.639	2176.12104
431.135	2085.32312
431.632	2000.86728
432.128	1876.98894
432.624	1841.26977
433.12	1752.69059
433.616	1650.47181
434.111	1566.6682
434.607	1505.63117
435.103	1431.14607
435.598	1508.19225
436.093	1408.43321
436.588	1388.30905
437.083	1259.15444
437.578	1199.16948
438.073	1097.23401
438.568	1121.22428
439.062	1053.79783
439.557	1041.97771
440.051	1013.84902
440.546	997.84997
441.04	944.89269
441.534	933.98014
442.028	979.95346
442.522	927.86327
443.015	831.50012
443.509	879.81206
444.002	861.79397
444.496	795.46645
444.989	865.78238
445.482	776.66785
445.975	840.64832
446.468	855.55061
446.961	826.51425
447.454	755.45866
447.947	731.52288
448.439	776.64998
448.931	833.62266
449.424	818.79653
449.916	760.61103
450.408	734.45563
450.9	677.45272
451.392	701.57196
451.884	676.3648
452.375	623.37974
452.867	696.3641
453.358	696.39366
453.849	652.22235
454.341	656.30436
454.832	657.24356
455.323	681.50018
455.814	640.29438
456.304	621.2774
456.795	624.26427
457.285	558.1025
457.776	599.21714
458.266	614.29955
458.756	579.22777
459.247	600.28427
459.737	601.30275
460.226	645.29765
460.716	611.30362
461.206	523.1373
461.695	531.19332
462.185	527.13582
462.674	490.02225
463.163	539.09055
463.653	534.02242
464.142	498.10326
464.63	508.12218
465.119	509.07629
465.608	570.19945
466.096	471.93445
466.585	443.93348
467.073	424.92775
467.561	467.02866
468.05	464.98094
468.538	431.97664
469.026	444.97233
469.513	393.77023
470.001	438.92923
470.489	453.99308
470.976	465.99875
471.463	357.8372
471.951	452.03563
472.438	396.86686
472.925	388.8533
473.412	373.84834
473.899	433.91722
474.385	358.8246
474.872	347.7617
475.359	362.83713
475.845	324.63244
476.331	312.62811
476.817	360.82358
477.303	355.77532
477.789	315.71094
478.275	295.6975
478.761	302.68119
479.247	321.67642
479.732	282.67232
480.218	349.86454
480.703	229.5442
481.188	305.62575
481.673	254.56028
482.158	269.55564
482.643	299.72796
483.128	329.72523
483.612	297.67388
484.097	245.56785
484.581	306.67186
485.066	311.72364
485.55	263.55689
486.034	294.6055
486.518	273.62546
487.002	191.45111
487.486	195.45948
487.969	208.48944
488.453	206.4966
488.936	252.54422
489.42	204.43735
489.903	208.50123
490.386	119.24282
490.869	254.53372
491.352	164.38531
491.835	214.42268
492.318	160.35161
492.8	216.43204
493.283	201.49798
493.765	161.38585
494.247	225.50534
494.73	232.49458
495.212	171.39525
495.694	183.42012
496.175	205.47778
496.657	204.46823
497.139	132.22276
497.62	152.35823
498.102	183.44374
498.583	148.35598
499.064	145.31724
499.545	156.348
500.026	145.32206
500.507	109.24793
500.988	212.51338
501.469	160.3898
501.949	134.32512
502.43	189.44327
502.91	180.37222
503.39	140.34057
503.87	185.4259
504.35	162.37035
504.83	138.2965
505.31	133.3151
505.79	95.22238
506.269	127.28689
506.749	122.27475
507.228	134.31028
507.707	175.38093
508.187	143.33552
508.666	125.30516
509.145	141.32383
509.623	155.35542
510.102	145.34419
510.581	189.44378
511.059	155.38233
511.538	97.24751
512.016	149.35028
512.494	116.27509
512.972	153.35912
513.45	97.2243
513.928	122.29255
514.406	111.26906
514.884	137.34747
515.361	143.33617
515.839	155.34999
516.316	149.35546
516.793	111.27682
517.27	111.26379
517.747	122.30882
518.224	109.24833
518.701	149.32296
519.178	109.26976
519.654	150.34843
520.131	132.32195
520.607	98.23715
521.083	90.20244
521.56	86.20135
522.036	97.20944
522.512	151.36588
522.987	164.38681
523.463	128.29897
523.939	151.36794
524.414	107.2423
524.89	133.31254
525.365	135.3001
525.84	126.29869
526.315	109.26123
526.79	129.28676
527.265	193.43401
527.74	49.11896
528.215	63.14666
528.689	52.11413
529.164	44.09466
529.638	81.20398
530.112	96.22388
530.587	158.33112
531.061	122.29144
531.534	133.31559
532.008	182.43193
532.482	132.29885
532.956	88.22284
533.429	137.33008
533.903	111.24059
534.376	87.19123
534.849	82.18754
535.322	119.27724
535.795	104.24863
536.268	110.26348
536.741	99.23292
537.213	102.23234
537.686	126.3041
538.158	130.29157
538.631	144.34281
539.103	109.24381
539.575	73.14998
540.047	139.29807
540.519	124.29236
540.991	94.22747
541.463	123.29197
541.934	119.26563
542.406	143.33801
542.877	124.27628
543.348	104.24892
543.82	105.25289
544.291	145.33289
544.762	141.33044
545.233	195.48188
545.703	133.29185
546.174	117.26839
546.645	116.27774
547.115	151.3583
547.585	132.29946
548.056	187.44935
548.526	158.36846
548.996	156.36623
549.466	153.36542
549.935	203.47237
550.405	148.32004
550.875	177.41139
551.344	134.3152
551.814	169.37958
552.283	236.49765
552.752	195.44605
553.221	218.46736
553.69	216.47446
554.159	239.57625
554.628	269.58627
555.096	245.60319
555.565	176.38107
556.033	318.72254
556.502	245.57122
556.97	282.60091
557.438	265.59835
557.906	269.61011
558.374	331.72842
558.842	264.60885
559.31	288.61662
559.777	244.57682
560.245	265.58417
560.712	294.64307
561.18	307.64693
561.647	269.57234
562.114	336.72933
562.581	322.7544
563.048	334.72468
563.514	371.87918
563.981	350.7568
564.448	408.85917
564.914	321.70819
565.381	385.82446
565.847	369.80828
566.313	394.85484
566.779	381.8032
567.245	375.81519
567.711	414.9246
568.176	388.81418
568.642	422.99286
569.108	433.99073
569.573	458.97716
570.038	463.88556
570.504	511.04938
570.969	449.03018
571.434	513.03358
571.899	473.03058
572.363	549.13618
572.828	545.13192
573.293	519.08022
573.757	543.14029
574.222	480.98588
574.686	591.21615
575.15	595.28589
575.614	631.32539
576.078	549.16508
576.542	573.17164
577.006	507.04255
577.469	530.18742
577.933	565.15787
578.396	533.14729
578.86	519.11184
579.323	529.1606
579.786	558.08548
580.249	580.22909
580.712	539.19052
581.175	482.093
581.637	536.10601
582.1	547.07137
582.563	544.03709
583.025	557.22726
583.487	593.08009
583.95	579.10528
584.412	623.1515
584.874	631.37251
585.336	621.31295
585.797	670.27285
586.259	636.31976
586.721	619.29329
587.182	628.28399
587.643	694.37619
588.105	687.42478
588.566	793.39203
589.027	787.66433
589.488	834.61961
589.949	882.80809
590.41	917.46714
590.87	933.76447
591.331	998.75795
591.791	1001.88778
592.252	1092.02777
592.712	1117.13223
593.172	1195.09997
593.632	1285.14312
594.092	1273.13455
594.552	1355.14299
595.011	1398.34859
595.471	1599.51096
595.931	1641.53208
596.39	1718.82543
596.849	1725.71254
597.308	1865.47351
597.768	2018.40109
598.227	2117.11701
598.685	2216.91903
599.144	2416.1585
599.603	2471.12917
600.062	2684.63949
600.52	2776.99606
600.978	2962.25002
601.437	3115.01005
601.895	3329.62468
602.353	3467.72007
602.811	3733.79119
603.269	3841.10022
603.727	4139.03992
604.184	4380.54879
604.642	4640.96371
605.099	4846.46297
605.557	5125.60278
606.014	5335.64852
606.471	5467.669
606.928	5886.59928
607.385	6158.32629
607.842	6424.63098
608.299	6553.72452
608.755	6667.93778
609.212	7035.46999
609.668	7278.58729
610.125	7485.98389
610.581	7625.9085
611.037	7816.84605
611.493	7973.11893
611.949	8171.46086
612.405	8369.23065
612.861	8470.59452
613.316	8608.8854
613.772	8746.98518
614.227	8806.17612
614.683	8768.92388
615.138	8854.19962
615.593	8902.26247
616.048	8986.39272
616.503	8908.35592
616.958	8775.23947
617.412	8772.09488
617.867	8718.90091
618.321	8571.55899
618.776	8469.49589
619.23	8441.6042
619.684	8357.37268
620.138	8207.26475
620.592	8058.33774
621.046	8035.21361
621.5	7675.04876
621.954	7605.64048
622.407	7409.53358
622.861	7271.95071
623.314	7119.53902
623.768	7010.75333
624.221	6740.85312
624.674	6664.62033
625.127	6450.68667
625.58	6310.49923
626.033	6338.34028
626.485	6047.99435
626.938	6044.96482
627.39	5916.88747
627.843	5698.8818
628.295	5446.00496
628.747	5405.27209
629.199	5335.97432
629.651	5130.1343
630.103	5050.18178
630.555	4784.77367
631.006	4772.43187
631.458	4638.59503
631.909	4575.27934
632.361	4434.56249
632.812	4335.64138
633.263	4192.2869
633.714	4102.17815
634.165	3983.06143
634.616	3762.04994
635.067	3811.5602
635.518	3652.10813
635.968	3529.03783
636.419	3456.6523
636.869	3307.19171
637.319	3260.07301
637.769	3196.89285
638.219	3030.20167
638.669	2918.24997
639.119	2868.28625
639.569	2806.29818
640.019	2820.08177
640.468	2703.91247
640.918	2656.21071
641.367	2586.89357
641.816	2564.85471
642.265	2556.10702
642.714	2484.99869
643.163	2340.00148
643.612	2384.32216
644.061	2264.62053
644.51	2241.92701
644.958	2233.75204
645.406	2151.08151
645.855	2002.06547
646.303	2033.86305
646.751	2024.86692
647.199	1958.73892
647.647	1966.84694
648.095	1881.71584
648.543	1876.27561
648.99	1896.94687
649.438	1789.70757
649.885	1839.06432
650.333	1766.08279
650.78	1686.79813
651.227	1683.84544
651.674	1680.5757
652.121	1648.8223
652.568	1642.81047
653.015	1539.73844
653.461	1521.57658
653.908	1453.38967
654.354	1539.59892
654.801	1432.43723
655.247	1446.20048
655.693	1406.76318
656.139	1364.41637
656.585	1366.42117
657.031	1359.36479
657.477	1386.17431
657.922	1246.13492
658.368	1248.36295
658.813	1190.06889
659.259	1289.37653
659.704	1240.24904
660.149	1162.07201
660.594	1158.14434
661.039	1133.00612
661.484	1128.09793
661.929	1094.01745
662.373	1028.10226
662.818	1065.12079
663.262	1089.09865
663.707	1040.15741
664.151	1028.02854
664.595	966.91727
665.039	966.97687
665.483	950.00887
665.927	956.83225
666.371	948.82824
666.814	904.77991
667.258	901.80763
667.701	893.54921
668.145	904.88154
668.588	852.78501
669.031	770.5456
669.474	796.62503
669.917	846.53387
670.36	863.8188
670.803	832.69937
671.245	773.31645
671.688	774.61362
672.13	809.5378
672.573	754.64759
673.015	774.59721
673.457	788.43792
673.899	743.54859
674.341	769.58581
674.783	671.4058
675.225	717.53335
675.666	724.53666
676.108	683.2683
676.549	676.36854
676.991	693.30608
677.432	658.11501
677.873	667.32226
678.314	674.39872
678.755	679.4664
679.196	636.27159
679.637	639.34398
680.078	662.34811
680.518	660.31782
680.959	612.28684
681.399	619.35778
681.839	628.34485
682.28	653.42943
682.72	648.29142
683.16	686.49763
683.6	639.26844
684.039	630.1224
684.479	628.37147
684.919	704.43181
685.358	583.29534
685.798	603.4034
686.237	665.38339
686.676	570.141
687.115	694.41529
687.554	668.39488
687.993	671.2794
688.432	613.22694
688.871	696.37502
689.309	655.37465
689.748	671.1916
690.186	599.2354
690.625	656.34375
691.063	662.37745
691.501	654.42048
691.939	698.53413
692.377	679.43323
692.815	743.56367
693.253	649.34947
693.69	702.31044
694.128	687.45013
694.565	702.43486
695.003	729.61806
695.44	702.43551
695.877	681.38843
696.314	706.25682
696.751	724.39767
697.188	772.51471
697.625	691.32398
698.061	720.483
698.498	737.48846
698.934	712.46519
699.371	734.47731
699.807	750.50817
700.243	768.57843
700.679	753.41451
701.115	792.55474
701.551	804.56572
701.987	784.42556
702.422	830.66083
702.858	847.68668
703.294	876.65287
703.729	827.69105
704.164	818.63905
704.599	905.6415
705.035	892.6314
705.47	917.83301
705.904	858.64256
706.339	903.69185
706.774	946.79737
707.209	920.74705
707.643	1005.93232
708.078	991.95006
708.512	945.9517
708.946	988.88185
709.38	977.8748
709.814	999.79406
710.248	1027.0176
710.682	1047.00213
711.116	1071.07274
711.549	982.05137
711.983	1033.88655
712.416	1115.06499
712.85	1136.20561
713.283	1144.0869
713.716	1096.14891
714.149	1105.98494
714.582	1255.08711
715.015	1118.15108
715.448	1223.37882
715.881	1179.8831
716.313	1217.14768
716.746	1259.2382
717.178	1217.23111
717.61	1246.44021
718.043	1282.39113
718.475	1241.28774
718.907	1329.48575
719.339	1216.06556
719.77	1254.2665
720.202	1267.41469
720.634	1363.47611
721.065	1290.2565
721.497	1319.41033
721.928	1292.36967
722.359	1398.48961
722.79	1351.37785
723.221	1309.43865
723.652	1417.65345
724.083	1437.26727
724.514	1426.32498
724.945	1398.35493
725.375	1405.36106
725.806	1405.52965
726.236	1406.65911
726.666	1436.41544
727.096	1391.48786
727.526	1538.85486
727.956	1541.41763
728.386	1467.58038
728.816	1414.67945
729.246	1535.6853
729.675	1381.46486
730.105	1543.65041
730.534	1474.41181
730.964	1413.57631
731.393	1499.60838
731.822	1483.75174
732.251	1470.70945
732.68	1542.44899
733.109	1507.647
733.537	1555.66975
733.966	1539.73005
734.395	1510.42081
734.823	1481.24301
735.251	1471.51001
735.68	1484.61246
736.108	1454.62818
736.536	1473.42147
736.964	1436.35178
737.392	1437.60846
737.82	1483.49568
738.247	1415.41775
738.675	1415.37028
739.102	1468.63756
739.53	1473.76536
739.957	1456.76723
740.384	1462.50052
740.811	1378.51792
741.238	1408.51519
741.665	1444.41329
742.092	1291.16724
742.519	1323.45272
742.945	1353.42208
743.372	1339.47514
743.798	1291.50546
744.225	1352.32365
744.651	1292.42994
745.077	1298.42819
745.503	1300.32504
745.929	1349.40382
746.355	1269.30937
746.781	1211.26553
747.207	1254.22985
747.632	1236.34244
748.058	1246.40025
748.483	1222.09248
748.908	1159.24132
749.334	1193.25909
749.759	1171.13471
750.184	1147.13495
750.609	1153.17998
751.033	1140.02742
751.458	1158.934
751.883	1108.12772
752.307	1127.03875
752.732	1109.24728
753.156	1044.03811
753.58	1066.95821
754.005	1078.13633
754.429	1083.00356
754.853	1022.03923
755.277	977.85772
755.7	951.91856
756.124	987.98035
756.548	853.65538
756.971	991.9382
757.394	913.9234
757.818	940.99544
758.241	919.9242
758.664	863.81324
759.087	886.61714
759.51	887.7975
759.933	860.71934
760.356	880.89473
760.778	885.78937
761.201	818.64132
761.623	775.54027
762.046	813.5664
762.468	841.65921
762.89	787.60772
763.312	825.68391
763.734	736.50444
764.156	723.52353
764.578	752.42684
765	757.55755
765.421	737.61279
765.843	685.55616
766.264	654.32696
766.686	636.36846
767.107	667.39002
767.528	681.51958
767.949	622.37952
768.37	681.45629
768.791	568.19157
769.212	623.37458
769.632	585.19622
770.053	594.36967
770.473	572.20631
770.894	475.045
771.314	578.18589
771.734	519.06632
772.154	536.21515
772.575	556.11653
772.994	483.969
773.414	508.06738
773.834	518.14621
774.254	489.0637
774.673	535.15999
775.093	528.16934
775.512	469.04084
775.931	441.01341
776.351	480.07523
776.77	418.93391
777.189	410.88273
777.607	417.97098
778.026	436.98416
778.445	435.00278
778.864	387.89653
779.282	386.8357
779.701	359.82806
780.119	367.8566
780.537	358.81835
780.955	394.90858
781.373	351.7967
781.791	391.80545
782.209	346.71003
782.627	363.8834
783.045	263.55494
783.462	352.82886
783.88	341.81839
784.297	302.70672
784.715	308.74047
785.132	344.75877
785.549	306.70906
785.966	341.79124
786.383	354.80465
786.8	291.62399
787.217	311.68815
787.633	282.66406
788.05	222.48292
788.466	274.58995
788.883	264.6376
789.299	193.43241
789.715	276.62738
790.131	339.77602
790.547	260.60535
790.963	220.51304
791.379	250.59329
791.795	238.49944
792.21	278.59676
792.626	219.48257
793.041	237.54691
793.457	209.48307
793.872	176.38726
794.287	200.45832
794.702	155.35684
795.117	202.47681
795.532	207.49457
795.947	227.50292
796.362	162.35795
796.776	206.44221
797.191	174.40482
797.605	205.4591
798.02	188.43134
798.434	216.44827
798.848	232.54421
799.262	140.33175
799.676	171.39509
800.09	173.40289
800.504	173.39494
800.918	131.28564
801.331	108.26557
801.745	139.30103
802.158	131.30976
802.572	180.41216
802.985	160.36239
803.398	113.25662
803.811	83.20119
804.224	79.18681
804.637	112.25646
805.05	125.27314
805.462	144.33423
805.875	111.27773
806.288	107.24919
806.7	106.25264
807.112	111.24295
807.525	90.20964
807.937	129.30539
808.349	126.29904
808.761	145.34074
809.173	156.36022
809.584	131.30652
809.996	56.13239
810.408	117.29337
810.819	77.17444
811.231	167.42641
811.642	186.43751
812.053	162.37526
812.464	121.273
812.875	81.20083
813.286	119.29656
813.697	117.25295
814.108	120.27798
814.519	162.34311
814.929	98.23911
815.34	65.15018
815.75	82.20276
816.16	42.09999
816.571	98.24374
816.981	71.15888
817.391	86.197
817.801	86.20631
818.211	88.20029
818.62	113.26119
819.03	62.14601
819.44	49.12171
819.849	43.10372
820.259	73.17795
820.668	75.17838
821.077	106.25467
821.486	84.19111
821.895	58.13595
822.304	92.23413
822.713	25.057
823.122	79.18905
823.531	54.12131
823.939	85.19967
824.348	58.13489
824.756	77.18426
825.164	91.21834
825.573	38.09248
825.981	115.27014
826.389	87.20922
826.797	87.21326
827.205	99.21843
827.612	58.13707
828.02	13.02945
828.428	54.13269
828.835	88.22474
829.243	51.1161
829.65	61.14753
830.057	62.14391
830.464	130.30508
830.871	92.21151
831.278	56.13044
831.685	46.09811
832.092	46.10749
832.499	57.12017
832.905	36.08761
833.312	31.06676
833.718	92.22129
834.124	55.12104
834.531	54.12989
834.937	58.14425
835.343	46.10597
835.749	103.22497
836.155	58.14682
836.561	44.10467
836.966	8.01892
837.372	47.11496
837.777	68.16362
838.183	83.17452
838.588	37.08952
838.993	51.11971
839.399	48.11379
839.804	37.08739
840.209	64.15912
840.613	56.11902
841.018	42.10221
841.423	74.18284
841.828	38.09355
842.232	42.09853
842.637	101.22964
843.041	51.12705
843.445	24.05788
843.849	95.22594
844.253	49.11159
844.657	24.05906
845.061	123.26899
845.465	66.15313
845.869	95.21004
846.272	55.1297
846.676	-14.03237
847.079	28.06967
847.483	34.08175
847.886	84.19335
848.289	42.11027
848.692	-2.0049
849.095	46.10584
849.498	55.13217
849.901	54.11757
850.304	-2.00464
850.707	59.14436
851.109	34.08271
851.512	48.11405
851.914	28.06895
852.316	97.2376
852.718	87.22176
853.121	23.05462
853.523	37.08263
853.925	38.09718
854.326	37.09013
854.728	54.1346
855.13	50.12603
855.531	46.10614
855.933	47.10734
856.334	52.12612
856.736	60.12997
857.137	62.13951
857.538	31.07608
857.939	39.09454
858.34	53.12275
858.741	18.04557
859.142	39.08972
859.542	62.15918
859.943	41.09826
860.343	14.0339
860.744	67.15671
861.144	106.24866
861.544	16.03783
861.945	23.05676
862.345	53.12397
862.745	59.14221
863.145	25.0565
863.544	106.2566
863.944	83.18696
864.344	54.12722
864.743	108.25464
865.143	47.11777
865.542	25.05511
865.941	48.11497
866.34	47.10669
866.74	22.05752
867.139	51.11919
867.537	33.08038
867.936	58.13468
868.335	25.06146
868.734	2.00499
869.132	-13.02895
869.531	31.07137
869.929	42.09245
870.327	24.05557
870.726	15.03584
871.124	11.02464
871.522	38.0932
871.92	49.11636
872.318	26.06092
872.715	14.03303
873.113	32.07477
873.511	21.05046
873.908	57.14112
874.306	68.16387
874.703	53.12625
875.1	36.08764
875.497	22.05072
875.894	50.12031
876.291	44.10427
876.688	39.09744
877.085	-11.02546
877.482	74.17745
877.878	25.059
878.275	20.04942
878.671	-29.06068
879.068	61.14105
879.464	34.07917
879.86	48.10898
880.256	7.01646
880.652	9.02223
881.048	32.07565
881.444	9.0204
881.84	18.04428
882.236	48.11611
882.631	40.09519
883.027	39.09047
883.422	-1.00247
883.817	39.09546
884.213	40.09923
884.608	59.14232
885.003	-14.03253
885.398	22.05338
885.793	-12.0292
886.188	-37.08982
886.582	71.17307
886.977	47.10626
887.371	-12.02934
887.766	35.08462
888.16	-21.05018
888.554	2.00476
888.949	84.20159
889.343	47.10972
889.737	34.08881
890.131	68.16375
890.525	64.1586
890.918	65.15691
891.312	3.00687
891.706	16.04068
892.099	56.13664
892.492	29.0595
892.886	23.05422
893.279	52.12726
893.672	34.08432
894.065	40.09672
894.458	45.10785
894.851	35.08199
895.244	26.06424
895.637	63.14591
896.029	75.17666
896.422	10.02334
896.814	13.03119
897.206	72.16639
897.599	90.21203
897.991	35.08212
898.383	57.12934
898.775	75.16326
899.167	54.12266
899.559	66.15881
899.951	15.03379
900.342	61.14753
900.734	63.15403
901.125	42.10571
901.517	8.01907
901.908	10.02281
902.299	51.12027
902.69	69.15714
903.082	51.11859
903.473	37.08678
903.863	35.08573
904.254	67.15049
904.645	50.11789
905.036	52.1236
905.426	48.1034
905.817	16.0377
906.207	-3.00685
906.597	41.09315
906.987	72.17757
907.378	37.0909
907.768	36.09252
908.158	40.09361
908.547	57.14406
908.937	9.02212
909.327	34.07932
909.717	19.04588
910.106	16.03693
910.495	31.07376
910.885	41.10047
911.274	30.07227
911.663	20.04865
912.052	47.11006
912.441	79.19415
912.83	66.14327
913.219	30.0757
913.608	54.12757
913.997	29.07101
914.385	67.15302
914.774	50.11661
915.162	48.11119
915.55	87.19877
915.939	56.13715
916.327	27.06451
916.715	87.21579
917.103	25.05827
917.491	50.11839
917.878	49.11542
918.266	20.05005
918.654	75.18541
919.041	0
919.429	14.03189
919.816	69.16751
920.203	53.12469
920.591	50.11949
920.978	58.13617
921.365	44.11205
921.752	-15.03415
922.139	113.23069
922.525	30.06974
922.912	23.0539
923.299	35.08404
923.685	21.0526
924.072	3.0065
924.458	42.10072
924.844	-37.08955
925.231	10.02223
925.617	35.08703
926.003	2.00495
926.389	51.12372
926.774	38.09251
927.16	50.11908
927.546	63.15735
927.931	45.10727
928.317	42.09191
928.702	10.02272
929.088	92.21202
929.473	77.18945
929.858	53.12547
930.243	86.19898
930.628	97.22724
931.013	63.15001
931.398	37.08003
931.783	13.03286
932.167	75.17735
932.552	58.13903
932.937	18.0429
933.321	51.12427
933.705	-25.06074
934.09	53.12586
934.474	38.08572
934.858	21.05294
935.242	13.02895
935.626	37.09201
936.009	40.10413
936.393	79.19552
936.777	45.1119
937.16	74.18659
937.544	31.06894
937.927	2.00496
938.311	66.15289
938.694	65.16609
939.077	41.09428
939.46	17.03936
939.843	43.08308
940.226	36.08866
940.609	95.20952
940.991	17.04163
941.374	56.13224
941.757	42.09922
942.139	52.11206
942.522	41.09228
942.904	47.10846
943.286	23.0563
943.668	60.15134
944.05	78.18376
944.432	9.02141
944.814	69.16076
945.196	36.08528
945.578	40.0931
945.959	28.06236
946.341	64.1472
946.722	57.12703
947.104	40.09189
947.485	82.18149
947.866	62.15139
948.247	40.09836
948.628	-13.03014
949.009	9.02237
949.39	26.06202
949.771	11.02403
950.152	50.11803
950.532	90.21771
950.913	-9.02102
951.293	57.15023
951.674	4.00937
952.054	92.22196
952.434	66.1573
952.814	9.02041
953.194	-47.11895
953.574	38.08956
953.954	-3.00682
954.334	34.08256
954.714	43.10133
955.093	69.16215
955.473	46.11207
955.853	30.07518
956.232	43.11398
956.611	39.0885
956.99	50.12145
957.37	12.02942
957.749	9.02037
958.128	5.01231
958.506	29.07298
958.885	27.06555
959.264	27.06476
959.643	97.21043
960.021	55.13192
960.4	44.09519
960.778	9.02109
961.156	13.03141
961.535	71.15573
961.913	53.11938
962.291	13.03281
962.669	62.15173
963.047	72.17731
963.424	76.18868
963.802	30.07131
964.18	27.06478
964.557	41.08985
964.935	84.18894
965.312	49.12388
965.69	-1.0024
966.067	-19.04441
966.444	17.03962
966.821	52.12928
967.198	40.09196
967.575	35.08215
967.952	61.13673
968.329	18.04259
968.705	54.11097
969.082	38.09554
969.458	19.04467
969.835	33.07728
970.211	82.20394
970.587	53.12702
970.963	21.05163
971.339	26.06612
971.715	35.08443
972.091	79.18543
972.467	34.08038
972.843	44.10644
973.219	98.22061
973.594	12.0305
973.97	43.09523
974.345	42.09698
974.721	21.04819
975.096	87.20229
975.471	83.18627
975.846	34.07785
976.221	49.11998
976.596	68.15864
976.971	80.19009
977.346	19.04215
977.72	-2.00492
978.095	34.08481
978.469	27.06166
978.844	43.10329
979.218	75.17446
979.593	16.03676
979.967	-31.07205
980.341	77.16939
980.715	38.09255
981.089	72.17226
981.463	41.09012
981.837	74.17508
982.21	-28.0614
982.584	70.16228
982.957	50.12086
983.331	30.06698
983.704	73.17382
984.078	8.01904
984.451	-6.01422
984.824	8.01899
985.197	17.03915
985.57	-35.0842
985.943	15.03506
986.316	37.0858
986.688	89.20351
987.061	106.23588
987.434	91.23023
987.806	-10.02314
988.179	11.02491
988.551	67.16204
988.923	31.07302
989.295	70.16626
989.667	45.10488
990.039	69.16619
990.411	34.07368
990.783	51.11035
991.155	51.11807
991.527	37.08569
991.898	65.15602
992.27	39.09386
992.641	18.04331
993.012	9.01983
993.384	41.09322
993.755	38.09403
994.126	73.16914
994.497	45.10612
994.868	42.09102
995.239	35.08122
995.61	66.15935
995.98	23.05373
996.351	34.08175
996.722	75.16762
997.092	8.0184
997.462	74.16686
997.833	32.07207
998.203	0
998.573	24.05795
998.943	30.06798
999.313	52.12012
999.683	72.16546
1000.053	-13.02819
1000.423	38.08792
1000.792	3.00746
1001.162	-8.01895
1001.531	45.10678
1001.901	28.06689
1002.27	-26.055
1002.639	18.04412
1003.009	26.05927
1003.378	52.12815
1003.747	36.08094
1004.116	3.00692
1004.485	55.12556
1004.853	-10.02424
1005.222	-23.05535
1005.591	19.04324
1005.959	52.1123
1006.328	99.21119
1006.696	2.00464
1007.064	-20.04843
1007.433	14.03351
1007.801	-18.04209
1008.169	-14.03397
1008.537	59.12389
1008.905	41.0922
1009.273	19.04488
1009.64	26.06054
1010.008	57.12944
1010.375	80.18112
1010.743	86.18143
1011.11	96.22
1011.478	78.18569
1011.845	48.10717
1012.212	46.10071
1012.579	18.04272
1012.946	33.07436
1013.313	58.13041
1013.68	55.11682
1014.047	18.04128
1014.414	8.01818
1014.78	32.07694
1015.147	42.09602
1015.513	6.01396
1015.88	71.17236
1016.246	50.11661
1016.612	49.10589
1016.978	51.12064
1017.344	12.02872
1017.71	74.1706
1018.076	6.01347
1018.442	58.14383
1018.808	74.17867
1019.174	18.04331
1019.539	33.06927
1019.905	27.06154
1020.27	9.02141
1020.636	38.086
1021.001	71.16254
1021.366	46.10639
1021.731	78.19491
1022.096	38.09331
1022.461	91.20481
1022.826	41.0942
1023.191	31.07868
1023.556	37.08249
1023.92	19.04455
1024.285	46.10626
1024.649	17.03987
1025.014	46.10787
1025.378	6.01471
1025.742	-5.01191
1026.107	65.13896
1026.471	65.14323
1026.835	-2.0048
1027.199	20.04648
1027.562	21.04629
1027.926	11.02577
1028.29	21.05138
1028.654	49.10693
1029.017	65.15317
1029.381	37.08512
1029.744	-9.02232
1030.107	51.11521
1030.471	42.09695
1030.834	12.02574
1031.197	78.17839
1031.56	35.07861
1031.923	-17.0429
1032.286	70.15622
1032.648	5.01135
1033.011	74.16385
1033.374	50.11076
1033.736	8.02045
1034.099	23.05403
1034.461	42.10301
1034.823	32.07712
1035.185	10.02409
1035.548	61.14262
1035.91	7.01613
1036.272	33.07229
1036.634	80.18613
1036.995	4.00898
1037.357	29.06826
1037.719	74.17183
1038.08	92.20897
1038.442	18.041
1038.803	0
1039.165	-8.01948
1039.526	61.14089
1039.887	51.11648
1040.248	65.15602
1040.609	19.0447
1040.97	0
1041.331	62.15161
1041.692	78.17645
1042.053	26.05625
1042.413	35.07745
1042.774	102.23562
1043.134	69.15396
1043.495	61.14675
1043.855	71.1662
1044.215	2.00477
1044.576	48.11071
1044.936	65.14053
1045.296	81.19257
1045.656	14.03273
1046.016	24.05531
1046.375	33.07685
1046.735	89.19464
1047.095	-2.00452
1047.454	93.18218
1047.814	-5.01164
1048.173	14.03166
1048.533	60.13069
1048.892	18.04181
1049.251	53.12644
1049.61	45.10641
1049.969	16.03612
1050.328	82.16744
1050.687	37.08573
1051.046	41.09526
1051.405	30.07104
1051.763	61.13515
1052.122	-6.01448
1052.48	50.11784
1052.839	109.24653
1053.197	52.11663
1053.555	33.07009
1053.914	36.08419
1054.272	17.03861
1054.63	28.06604
1054.988	75.17129
1055.345	11.02228
1055.703	63.14493
1056.061	59.14757
1056.419	23.05858
1056.776	1.0023
1057.134	1.00219
1057.491	70.16761
1057.848	26.0619
1058.206	29.0642
1058.563	5.01054
1058.92	62.13505
1059.277	27.06407
1059.634	42.09292
1059.991	83.18933
1060.348	48.10384
1060.704	48.11221
1061.061	68.14673
1061.418	34.07929
1061.774	-15.03594
1062.131	83.21387
1062.487	-5.0112
1062.843	41.09808
1063.199	48.11458
1063.555	28.06283
1063.911	9.02182
1064.267	66.12724
1064.623	42.09907
1064.979	-38.084
1065.335	41.09281
1065.691	-5.01138
1066.046	37.07718
1066.402	26.05608
1066.757	77.18574
1067.112	54.12608
1067.468	33.07585
1067.823	3.0068
1068.178	43.0988
1068.533	76.17521
1068.888	12.02742
1069.243	57.13463
1069.598	6.01396
1069.952	39.0859
1070.307	45.10752
1070.662	116.26348
1071.016	109.23333
1071.371	51.11116
1071.725	-14.03206
1072.079	68.15621
1072.434	58.13526
1072.788	6.01356
1073.142	85.19912
1073.496	3.00684
1073.85	52.11456
1074.203	75.17343
1074.557	32.08341
1074.911	72.16195
1075.265	73.16079
1075.618	24.05643
1075.971	44.0999
1076.325	59.14506
1076.678	40.08742
1077.031	-17.03627
1077.385	60.12452
1077.738	50.10701
1078.091	17.03748
1078.444	32.07006
1078.796	24.05709
1079.149	56.13368
1079.502	78.17645
1079.855	31.06934
1080.207	45.10579
1080.56	36.09038
1080.912	45.10463
1081.264	61.14083
1081.617	54.12643
1081.969	35.08561
1082.321	29.06775
1082.673	18.04012
1083.025	16.03622
1083.377	283.60343
1083.728	30.06657
1084.08	31.0739
1084.432	11.02544
1084.783	-22.04877
1085.135	17.04135
1085.486	56.12281
1085.838	31.0737
1086.189	58.13585
1086.54	37.08416
1086.891	47.11662
1087.242	77.18201
1087.593	27.06206
1087.944	59.12821
1088.295	23.04985
1088.646	82.19304
1088.996	35.08148
1089.347	22.05159
1089.698	31.07117
1090.048	14.03496
1090.398	39.08569
1090.749	4.00913
1091.099	34.08348
1091.449	53.12712
1091.799	3.00726
1092.149	30.0715
1092.499	68.15827
1092.849	56.13684
1093.199	12.02875
1093.548	96.22132
1093.898	5.01204
1094.248	-3.0074
1094.597	11.02758
1094.947	39.10081
1095.296	52.12379
1095.645	37.09234
1095.994	59.13518
1096.343	25.06092
1096.692	42.10843
1097.041	47.12517
1097.39	3.00723
1097.739	32.08023
1098.088	20.05154
1098.437	8.02074
1098.785	40.10334
1099.134	-33.08417
1099.482	35.09374
1099.83	37.09394
1100.179	47.12064
1100.527	6.0153
1100.875	29.07486
1101.223	37.09574
1101.571	-24.06471
1101.919	18.04671
1102.267	58.15968
1102.615	5.01606
1102.962	-4.01284
1103.31	6.01926
1103.658	-14.04496
