Data from N3 R3 sample 10_Subt2__1__11-07-22-813.txt Node

Date: Thu Sep 18 11:07:22 PDT 2025
User: uwsun
Spectrometer: HDX01956
Trigger mode: 0
Integration Time (sec): 5.000000E-1
Scans to average: 1
Nonlinearity correction enabled: true
Boxcar width: 0
Storing dark spectrum: false
XAxis mode: Wavelengths
Number of Pixels in Spectrum: 2068
>>>>>Begin Spectral Data<<<<<
194.03	29.08384
194.578	59.19052
195.127	54.17202
195.676	42.13446
196.225	53.1403
196.773	64.17709
197.321	83.22941
197.87	114.29288
198.418	190.48521
198.966	184.48108
199.513	191.48149
200.061	163.41267
200.609	178.46635
201.156	152.33248
201.704	195.48611
202.251	156.41343
202.798	159.41069
203.345	218.53287
203.892	163.41062
204.438	142.33701
204.985	169.39992
205.532	157.41154
206.078	168.40837
206.624	173.43237
207.17	231.53349
207.716	178.43446
208.262	201.3943
208.808	170.42572
209.354	163.40236
209.899	183.45719
210.445	205.5077
210.99	161.39231
211.535	198.46265
212.08	180.4153
212.625	142.35471
213.17	173.43877
213.715	177.40276
214.259	218.50237
214.804	202.48953
215.348	213.48664
215.892	197.4741
216.436	189.42728
216.98	146.3203
217.524	194.45988
218.068	232.57613
218.612	224.56154
219.155	220.51243
219.698	201.47251
220.242	160.39256
220.785	214.49551
221.328	207.50401
221.871	215.53985
222.414	175.42864
222.956	103.24732
223.499	135.30035
224.041	153.34731
224.583	109.2304
225.126	147.3208
225.668	124.30097
226.21	171.42907
226.751	177.39035
227.293	137.30859
227.835	187.45259
228.376	153.34519
228.918	156.38515
229.459	131.32599
230	212.50041
230.541	168.38236
231.082	195.46804
231.622	144.32363
232.163	117.2819
232.704	208.5122
233.244	151.37206
233.784	187.44645
234.324	195.43275
234.864	131.29496
235.404	164.382
235.944	134.31409
236.484	188.46279
237.023	139.32588
237.563	156.36007
238.102	197.45841
238.641	160.39822
239.18	143.33407
239.719	156.38728
240.258	192.42459
240.797	185.43609
241.335	192.45952
241.874	202.3868
242.412	205.49017
242.95	192.45777
243.488	138.30823
244.026	228.51933
244.564	245.49061
245.102	152.34259
245.64	157.37138
246.177	158.3478
246.715	218.51357
247.252	110.24975
247.789	234.42187
248.326	142.34077
248.863	196.42492
249.4	192.42866
249.936	232.47523
250.473	225.5215
251.009	144.32787
251.546	183.40409
252.082	174.3711
252.618	165.36587
253.154	173.41208
253.69	175.38788
254.226	181.42832
254.761	212.46685
255.297	164.35479
255.832	161.37996
256.367	200.46236
256.903	218.47563
257.438	211.48537
257.972	214.4673
258.507	194.43814
259.042	183.39309
259.576	266.57223
260.111	180.40801
260.645	197.41879
261.179	224.51434
261.713	266.57838
262.247	155.35113
262.781	219.45256
263.315	156.37522
263.849	178.44076
264.382	160.36445
264.915	212.49322
265.449	123.29994
265.982	188.4213
266.515	256.61198
267.048	214.44511
267.58	193.40975
268.113	147.31645
268.646	156.37863
269.178	164.36328
269.71	180.39406
270.243	254.57387
270.775	246.61734
271.307	158.37237
271.838	240.55306
272.37	163.39584
272.902	189.42205
273.433	187.40982
273.965	185.4437
274.496	193.47133
275.027	211.51662
275.558	219.52504
276.089	193.47606
276.62	156.3901
277.15	171.41605
277.681	176.37439
278.211	193.46377
278.741	177.38937
279.272	218.48993
279.802	187.45905
280.332	197.45877
280.861	184.43432
281.391	182.40903
281.921	157.37239
282.45	140.34553
282.98	191.49128
283.509	242.5385
284.038	246.5499
284.567	226.51623
285.096	247.58561
285.625	152.34006
286.153	232.54378
286.682	212.47937
287.21	149.35273
287.739	237.54778
288.267	220.52653
288.795	165.42721
289.323	249.5714
289.851	253.58127
290.378	165.36496
290.906	221.53165
291.433	199.48923
291.961	235.52629
292.488	190.4653
293.015	219.5086
293.542	244.61475
294.069	245.59451
294.596	186.44907
295.122	228.53713
295.649	211.45402
296.175	240.56495
296.702	263.62763
297.228	216.51103
297.754	234.51595
298.28	269.60317
298.806	224.53037
299.332	229.50355
299.857	292.64328
300.383	231.56978
300.908	255.61319
301.433	280.66806
301.958	214.48291
302.483	204.49846
303.008	268.65043
303.533	241.60882
304.058	229.52361
304.582	241.55813
305.107	215.55088
305.631	238.52872
306.155	229.52424
306.679	253.5822
307.203	272.61528
307.727	267.61711
308.251	262.63134
308.775	281.66621
309.298	219.52023
309.822	257.63087
310.345	331.76288
310.868	267.62887
311.391	290.69403
311.914	276.67411
312.437	311.68757
312.96	286.65537
313.482	238.54867
314.005	288.69844
314.527	218.55788
315.049	304.74662
315.571	316.68797
316.093	300.72124
316.615	229.54022
317.137	312.65761
317.659	353.82102
318.18	247.57656
318.702	344.7759
319.223	227.45562
319.744	374.80454
320.265	308.72809
320.786	329.79499
321.307	265.63989
321.828	318.69379
322.348	321.73069
322.869	330.75982
323.389	611.07527
323.909	291.64658
324.43	327.75456
324.95	335.7397
325.47	373.88733
325.989	347.79305
326.509	364.78236
327.029	375.82038
327.548	371.80512
328.067	371.86424
328.587	409.97817
329.106	342.74204
329.625	380.94801
330.144	430.94763
330.662	407.91065
331.181	444.99076
331.7	377.83868
332.218	395.81698
332.736	457.00659
333.255	409.91777
333.773	418.93776
334.291	444.05055
334.808	395.85026
335.326	425.90499
335.844	478.05536
336.361	526.26451
336.879	463.02623
337.396	511.16238
337.913	488.05545
338.43	504.05896
338.947	478.0725
339.464	420.86071
339.981	460.02739
340.497	481.11034
341.014	514.16898
341.53	501.0538
342.046	542.25955
342.562	523.2151
343.078	490.08054
343.594	516.1432
344.11	576.27156
344.626	554.2981
345.141	560.182
345.657	586.21586
346.172	575.27966
346.687	521.11181
347.202	608.26943
347.717	574.26186
348.232	597.36758
348.747	610.28769
349.261	594.19352
349.776	639.38287
350.29	644.47151
350.805	582.32598
351.319	578.23605
351.833	578.22538
352.347	621.33929
352.861	633.35295
353.374	627.29613
353.888	653.45225
354.401	580.21303
354.915	675.37431
355.428	649.47372
355.941	627.33028
356.454	680.35718
356.967	640.35524
357.48	647.32738
357.993	687.52477
358.505	631.39922
359.018	686.51782
359.53	764.65751
360.042	741.47124
360.554	755.64596
361.066	690.51272
361.578	752.46847
362.09	724.53933
362.602	743.46836
363.113	722.51976
363.625	800.59113
364.136	766.47959
364.647	819.70111
365.158	758.56276
365.669	785.65358
366.18	755.57572
366.691	740.43408
367.201	796.67934
367.712	831.65632
368.222	856.70739
368.733	822.55081
369.243	850.64368
369.753	890.76134
370.263	929.9212
370.773	837.77862
371.282	868.79697
371.792	967.89298
372.301	944.94312
372.811	1005.24182
373.32	968.7547
373.829	950.90035
374.338	1028.8892
374.847	997.92792
375.356	1036.03008
375.865	1113.92299
376.373	1121.06689
376.882	1166.41055
377.39	1188.30788
377.898	1201.3767
378.407	1269.25026
378.915	1337.22794
379.423	1355.41703
379.93	1466.54199
380.438	1425.59828
380.946	1534.61471
381.453	1613.80209
381.96	1740.90576
382.468	1810.90523
382.975	1920.16204
383.482	1946.80887
383.989	2054.48813
384.495	2085.06343
385.002	2208.6741
385.509	2306.27826
386.015	2494.62634
386.521	2608.12987
387.028	2649.12329
387.534	2807.82682
388.04	2863.46579
388.546	2822.98322
389.051	3111.94214
389.557	3245.20013
390.063	3505.98328
390.568	3681.32418
391.073	3729.79547
391.578	3903.34871
392.084	4060.79674
392.589	4102.4566
393.093	4498.90827
393.598	4944.37508
394.103	5347.38916
394.607	5894.20055
395.112	6287.19606
395.616	6874.00229
396.12	7179.70135
396.624	7968.22286
397.128	8656.0128
397.632	9650.84194
398.136	10452.23265
398.639	10974.13075
399.143	12155.48665
399.646	13851.38659
400.15	15434.99839
400.653	17060.27263
401.156	19223.30043
401.659	22568.88664
402.162	27538.9442
402.664	36457.72234
403.167	51956.05766
403.67	61952.50515
404.172	63919.58413
404.674	63858.43483
405.176	63738.15102
405.678	63977.72923
406.18	64011.81569
406.682	63863.44694
407.184	63926.60148
407.686	63841.39382
408.187	64025.8516
408.688	63892.51763
409.19	63833.37461
409.691	51945.88858
410.192	43977.32223
410.693	38121.07035
411.194	34625.42508
411.694	32660.76489
412.195	29977.96808
412.696	27233.78755
413.196	25463.07652
413.696	24601.72863
414.196	24943.69935
414.696	24960.88717
415.196	23363.73025
415.696	21376.90497
416.196	17146.77897
416.695	13238.83864
417.195	11408.92791
417.694	10770.77988
418.194	10209.61953
418.693	9521.5316
419.192	9052.5812
419.691	8971.41651
420.19	8903.36443
420.688	8497.86886
421.187	8218.06594
421.685	7683.97102
422.184	6965.83467
422.682	5982.52289
423.18	5131.26095
423.678	4489.57566
424.176	4218.70492
424.674	3988.64987
425.172	3701.11602
425.669	3626.42373
426.167	3402.12179
426.664	3145.03766
427.161	2795.12893
427.659	2591.39365
428.156	2527.73079
428.652	2287.48536
429.149	2237.26638
429.646	2220.86533
430.143	2035.09077
430.639	1958.99076
431.135	1807.09984
431.632	1708.66337
432.128	1604.74789
432.624	1572.98258
433.12	1484.45376
433.616	1500.34531
434.111	1415.5065
434.607	1315.41141
435.103	1284.00849
435.598	1259.96841
436.093	1243.2403
436.588	1171.0619
437.083	1056.90492
437.578	1104.04506
438.073	994.07099
438.568	1007.05045
439.062	985.71199
439.557	917.79413
440.051	900.68912
440.546	797.5517
441.04	805.66532
441.534	817.77744
442.028	805.67052
442.522	769.60142
443.015	713.32543
443.509	814.70234
444.002	749.59908
444.496	667.2693
444.989	702.49898
445.482	728.58069
445.975	701.42019
446.468	681.28907
446.961	681.29347
447.454	625.24465
447.947	648.37459
448.439	646.41201
448.931	700.40621
449.424	650.47749
449.916	630.37294
450.408	657.32608
450.9	644.39162
451.392	621.41521
451.884	574.18562
452.375	569.27414
452.867	569.1482
453.358	533.10695
453.849	593.12768
454.341	590.19092
454.832	496.97693
455.323	556.25648
455.814	523.08566
456.304	538.12704
456.795	534.10385
457.285	548.08524
457.776	569.16397
458.266	514.11131
458.756	539.15277
459.247	524.13972
459.737	487.08086
460.226	590.20182
460.716	486.06455
461.206	438.97132
461.695	458.04436
462.185	494.07209
462.674	444.93743
463.163	479.98405
463.653	491.95139
464.142	426.95963
464.63	413.93207
465.119	437.94024
465.608	456.98512
466.096	380.76993
466.585	380.81182
467.073	373.82496
467.561	381.856
468.05	370.79833
468.538	413.93929
469.026	368.81883
469.513	381.74883
470.001	342.74077
470.489	359.80262
470.976	393.85721
471.463	365.85461
471.951	340.79812
472.438	349.77157
472.925	367.81068
473.412	326.74851
473.899	368.79061
474.385	336.77733
474.872	296.65674
475.359	337.7832
475.845	245.4872
476.331	305.61501
476.817	337.77454
477.303	314.69174
477.789	266.60636
478.275	312.73526
478.761	200.46052
479.247	242.51881
479.732	275.65651
480.218	325.80864
480.703	212.50545
481.188	245.50947
481.673	272.59771
482.158	242.5029
482.643	312.75776
483.128	283.62985
483.612	265.60518
484.097	213.49681
484.581	242.5385
485.066	293.68419
485.55	245.52082
486.034	227.47457
486.518	253.58197
487.002	176.41689
487.486	207.48662
487.969	162.38462
488.453	185.44775
488.936	169.37146
489.42	226.48221
489.903	183.44308
490.386	59.12203
490.869	238.50186
491.352	168.3944
491.835	153.30652
492.318	109.2421
492.8	222.44342
493.283	203.50275
493.765	165.39513
494.247	179.40583
494.73	172.37146
495.212	150.34816
495.694	189.43337
496.175	133.31437
496.657	164.37944
497.139	148.24867
497.62	176.41286
498.102	181.43906
498.583	97.23557
499.064	130.28532
499.545	167.37169
500.026	158.34999
500.507	171.38407
500.988	148.36272
501.469	124.30413
501.949	153.36989
502.43	171.40246
502.91	193.39794
503.39	145.3524
503.87	184.42369
504.35	156.35706
504.83	157.33594
505.31	89.21265
505.79	80.18781
506.269	52.11926
506.749	153.34237
507.228	150.34623
507.707	177.38512
508.187	172.40127
508.666	139.33845
509.145	138.31713
509.623	152.34875
510.102	138.32802
510.581	225.52459
511.059	167.41102
511.538	137.3471
512.016	216.50113
512.494	144.33964
512.972	141.33173
513.45	119.27396
513.928	125.29958
514.406	158.3796
514.884	180.45303
515.361	148.34759
515.839	170.38268
516.316	184.43601
516.793	138.34247
517.27	169.39714
517.747	191.47752
518.224	167.37601
518.701	172.37098
519.178	156.38275
519.654	169.39109
520.131	166.4023
520.607	132.31738
521.083	97.21787
521.56	111.25861
522.036	191.40409
522.512	163.39406
522.987	177.41642
523.463	161.37361
523.939	191.46192
524.414	150.3367
524.89	221.5104
525.365	163.36023
525.84	124.29406
526.315	160.37972
526.79	151.33413
527.265	193.43401
527.74	117.2804
528.215	135.30981
528.689	99.21513
529.164	86.18334
529.638	120.30008
530.112	97.22617
530.587	95.20187
531.061	106.25399
531.534	134.3179
532.008	189.44794
532.482	149.33617
532.956	92.2328
533.429	157.37684
533.903	129.27853
534.376	134.29162
534.849	90.2055
535.322	135.31353
535.795	99.2369
536.268	116.27753
536.741	65.15394
537.213	165.37105
537.686	92.22347
538.158	159.35448
538.631	141.33586
539.103	145.32193
539.575	99.2022
540.047	140.30015
540.519	147.34504
540.991	108.26066
541.463	126.29892
541.934	109.24381
542.406	142.33571
542.877	130.28929
543.348	114.27233
543.82	160.38133
544.291	148.33957
544.762	126.29615
545.233	167.41481
545.703	207.44713
546.174	179.4055
546.645	152.36143
547.115	220.51506
547.585	145.32808
548.056	247.58674
548.526	207.47807
548.996	194.45206
549.466	210.49607
549.935	210.48799
550.405	209.44604
550.875	216.49816
551.344	217.50216
551.814	245.54167
552.283	241.50763
552.752	312.69684
553.221	277.58628
553.69	353.753
554.159	317.75299
554.628	375.79888
555.096	334.80875
555.565	315.66174
556.033	419.93248
556.502	404.91232
556.97	458.93857
557.438	402.88222
557.906	381.84441
558.374	471.00406
558.842	487.071
559.31	510.03766
559.777	524.16914
560.245	450.95343
560.712	535.10864
561.18	563.11786
561.647	579.14701
562.114	658.3284
562.581	667.45458
563.048	728.44506
563.514	836.79996
563.981	842.62741
564.448	885.66703
564.914	922.77632
565.381	961.80072
565.847	969.85229
566.313	995.88102
566.779	1132.99369
567.245	1079.99354
567.711	1172.20472
568.176	1166.02698
568.642	1341.5843
569.108	1366.53582
569.573	1423.4044
570.038	1502.16742
570.504	1567.46866
570.969	1610.84134
571.434	1688.50846
571.899	1708.76434
572.363	1837.73727
572.828	1913.79829
573.293	1918.78798
573.757	2013.90131
574.222	2042.76654
574.686	2115.91674
575.15	2102.11941
575.614	2172.06779
576.078	2094.99579
576.542	2145.88848
577.006	2175.86429
577.469	2155.2518
577.933	2172.9024
578.396	2141.06685
578.86	2158.04188
579.323	2110.12966
579.786	2068.64539
580.249	2079.00882
580.712	2019.1107
581.175	1922.10354
581.637	1950.78905
582.1	1959.6097
582.563	1872.46755
583.025	1903.03257
583.487	1859.35105
583.95	1746.42473
584.412	1894.4398
584.874	1697.86776
585.336	1683.74693
585.797	1647.40798
586.259	1599.61873
586.721	1564.59551
587.182	1548.5185
587.643	1575.49552
588.105	1525.58064
588.566	1511.16917
589.027	1516.70076
589.488	1472.43244
589.949	1536.69054
590.41	1457.98582
590.87	1456.40845
591.331	1520.3224
591.791	1520.5096
592.252	1467.47655
592.712	1423.51944
593.172	1471.40354
593.632	1490.34961
594.092	1486.35126
594.552	1496.27332
595.011	1486.4383
595.471	1598.51009
595.931	1622.51622
596.39	1577.69206
596.849	1600.60382
597.308	1714.38254
597.768	1757.16409
598.227	1751.85584
598.685	1834.71081
599.144	1929.91587
599.603	1928.87765
600.062	2026.51183
600.52	2098.82983
600.978	2162.06085
601.437	2232.91391
601.895	2390.69172
602.353	2515.82494
602.811	2615.97458
603.269	2690.26764
603.727	2807.3378
604.184	2840.043
604.642	3070.49632
605.099	3135.17026
605.557	3307.40187
606.014	3400.62772
606.471	3512.58963
606.928	3692.71396
607.385	3875.47433
607.842	3925.81402
608.299	4115.85545
608.755	4188.08085
609.212	4421.37916
609.668	4493.41582
610.125	4577.83873
610.581	4748.53613
611.037	4756.21373
611.493	4874.42947
611.949	4963.70981
612.405	5064.45771
612.861	5046.22439
613.316	5231.42325
613.772	5159.13548
614.227	5261.43344
614.683	5155.63152
615.138	5367.18716
615.593	5238.18147
616.048	5310.04201
616.503	5309.47577
616.958	5101.84586
617.412	5178.38152
617.867	5151.97725
618.321	5082.50832
618.776	5016.94248
619.23	4956.40051
619.684	4837.12523
620.138	4813.3101
620.592	4658.83011
621.046	4646.64051
621.5	4425.89358
621.954	4447.2807
622.407	4290.36654
622.861	4170.08645
623.314	4150.59281
623.768	4087.92288
624.221	3888.8929
624.674	3904.84816
625.127	3790.93697
625.58	3733.72683
626.033	3607.61067
626.485	3560.20997
626.938	3452.20948
627.39	3477.08129
627.843	3320.02739
628.295	3295.03289
628.747	3271.25472
629.199	3205.97287
629.651	3006.04153
630.103	2914.0491
630.555	2773.60156
631.006	2739.11812
631.458	2688.17987
631.909	2625.90432
632.361	2609.05819
632.812	2502.05706
633.263	2509.73694
633.714	2443.61028
634.165	2353.1913
634.616	2236.07127
635.067	2167.71579
635.518	2163.05005
635.968	2086.23501
636.419	2111.66135
636.869	1986.94468
637.319	1900.80326
637.769	1912.68163
638.219	1856.83929
638.669	1770.8039
639.119	1705.77398
639.569	1700.78028
640.019	1740.66883
640.468	1610.45567
640.918	1643.68402
641.367	1609.4491
641.816	1522.35138
642.265	1534.52597
642.714	1500.43303
643.163	1462.42373
643.612	1432.58825
644.061	1403.13004
644.51	1387.32057
644.958	1370.19098
645.406	1358.41683
645.855	1268.3545
646.303	1283.22725
646.751	1286.23658
647.199	1257.14299
647.647	1294.25527
648.095	1210.10382
648.543	1297.89206
648.99	1208.24718
649.438	1198.1266
649.885	1212.36127
650.333	1216.71713
650.78	1175.21953
651.227	1143.21031
651.674	1101.97269
652.121	1104.16159
652.568	1090.13713
653.015	1025.06266
653.461	1074.03565
653.908	1027.88689
654.354	1039.99014
654.801	1014.9184
655.247	1009.7326
655.693	942.05073
656.139	924.82275
656.585	946.85836
657.031	960.84523
657.477	956.68465
657.922	862.62799
658.368	906.85817
658.813	886.66361
659.259	893.80885
659.704	941.83595
660.149	810.57518
660.594	844.68498
661.039	858.62754
661.484	823.64643
661.929	855.6711
662.373	752.63423
662.818	776.64927
663.262	792.63512
663.707	786.72334
664.151	774.61862
664.595	753.56807
665.039	758.62355
665.483	734.62613
665.927	742.49481
666.371	746.5077
666.814	713.46626
667.258	729.52005
667.701	766.37303
668.145	748.61038
668.588	708.53006
669.031	695.41893
669.474	743.53488
669.917	658.24941
670.36	708.54245
670.803	753.56529
671.245	624.1048
671.688	733.54192
672.13	671.31781
672.573	682.51273
673.015	673.41993
673.457	665.25076
673.899	679.4351
674.341	685.43895
674.783	657.38067
675.225	703.50792
675.666	726.54024
676.108	731.34144
676.549	673.36339
676.991	640.22166
677.432	710.18647
677.873	667.32226
678.314	709.45999
678.755	780.64843
679.196	713.40043
679.637	680.41746
680.078	713.43532
680.518	700.38488
680.959	738.50922
681.399	705.51871
681.839	729.52745
682.28	761.62823
682.72	755.46772
683.16	754.62261
683.6	755.45866
684.039	794.35558
684.479	776.64212
684.919	816.61773
685.358	770.64502
685.798	756.7068
686.237	774.5715
686.676	801.51887
687.115	789.57469
687.554	874.74253
687.993	831.52381
688.432	817.55905
688.871	861.63602
689.309	875.74816
689.748	825.40752
690.186	763.51639
690.625	873.7015
691.063	886.7526
691.501	882.82353
691.939	943.96667
692.377	956.89652
692.815	984.96209
693.253	943.83378
693.69	952.66886
694.128	922.84683
694.565	908.77023
695.003	955.01902
695.44	941.82122
695.877	952.82281
696.314	960.59868
696.751	1008.81535
697.188	954.79241
697.625	984.75397
698.061	926.81987
698.498	934.80206
698.934	1007.93617
699.371	1007.90097
699.807	1058.97846
700.243	1001.95041
700.679	999.76475
701.115	1070.96459
701.551	968.81252
701.987	996.71522
702.422	1018.94939
702.858	1047.98913
703.294	1158.03522
703.729	1058.04995
704.164	1025.95669
704.599	999.76933
705.035	1052.84757
705.47	1030.00409
705.904	1039.90326
706.339	1068.92075
706.774	1083.99001
707.209	1094.9907
707.643	1097.06174
708.078	1004.96966
708.512	1022.07306
708.946	1067.99385
709.38	1093.03816
709.814	1060.87428
710.248	1071.08258
710.682	1074.04058
711.116	1041.02889
711.549	970.03162
711.983	1050.90948
712.416	1063.99515
712.85	983.97865
713.283	1053.96571
713.716	1022.03829
714.149	971.80342
714.582	1005.78551
715.015	955.90993
715.448	992.03399
715.881	981.65391
716.313	952.79565
716.746	997.89214
717.178	978.90058
717.61	1003.07549
718.043	933.88995
718.475	925.83964
718.907	983.99494
719.339	908.6699
719.77	944.84051
720.202	830.74883
720.634	938.88669
721.065	900.73471
721.497	968.92481
721.928	852.73476
722.359	866.75291
722.79	813.6309
723.221	854.76953
723.652	843.80069
724.083	851.56761
724.514	868.63455
724.945	849.64213
725.375	802.56774
725.806	781.62931
726.236	838.8035
726.666	786.55455
727.096	798.64384
727.526	853.85109
727.956	776.48534
728.386	828.69806
728.816	828.79187
729.246	803.67303
729.675	722.50644
730.105	727.51923
730.534	812.57233
730.964	687.48116
731.393	772.59948
731.822	755.6529
732.251	696.52973
732.68	723.4161
733.109	721.5253
733.537	783.61977
733.966	706.52119
734.395	697.3741
734.823	652.23077
735.251	633.322
735.68	699.48129
736.108	662.43666
736.536	657.32365
736.964	636.27276
737.392	676.46271
737.82	649.33868
738.247	610.26629
738.675	623.26829
739.102	583.28355
739.53	640.44594
739.957	607.38995
740.384	584.23273
740.811	598.30643
741.238	596.28613
741.665	637.2986
742.092	466.95928
742.519	530.17524
742.945	616.3106
743.372	604.32011
743.798	571.29696
744.225	535.11902
744.651	511.14409
745.077	519.1563
745.503	555.18193
745.929	533.14877
746.355	490.06656
746.781	467.03296
747.207	498.05782
747.632	520.15638
748.058	521.17704
748.483	530.075
748.908	466.04938
749.334	516.1375
749.759	509.0824
750.184	507.09264
750.609	445.98786
751.033	445.93481
751.458	472.93709
751.883	422.94518
752.307	440.93632
752.732	432.00949
753.156	395.89073
753.58	380.81885
754.005	354.82091
754.429	393.85322
754.853	374.85938
755.277	392.85195
755.7	395.89909
756.124	312.72382
756.548	356.7734
756.971	388.86762
757.394	343.81348
757.818	310.74867
758.241	352.82982
758.664	356.83208
759.087	303.63513
759.51	297.68344
759.933	356.79542
760.356	359.85994
760.778	342.77801
761.201	328.73317
761.623	290.64209
762.046	284.61726
762.468	322.71322
762.89	260.59508
763.312	321.73069
763.734	295.6639
764.156	279.64587
764.578	267.56709
765	305.69202
765.421	229.55527
765.843	263.64917
766.264	240.53361
766.686	204.48022
767.107	214.49138
767.528	279.67496
767.949	233.55923
768.37	278.647
768.791	257.57697
769.212	255.60667
769.632	214.47501
770.053	210.52189
770.473	191.43708
770.894	185.43253
771.314	185.4138
771.734	154.34297
772.154	178.43348
772.575	213.46226
772.994	175.37607
773.414	145.32955
773.834	174.41327
774.254	190.44029
774.673	251.57806
775.093	185.43964
775.512	180.42422
775.931	178.43138
776.351	192.45637
776.77	148.34908
777.189	152.34539
777.607	145.35569
778.026	159.37917
778.445	137.3352
778.864	153.37086
779.282	113.2589
779.701	117.28286
780.119	126.308
780.537	92.22154
780.955	155.37444
781.373	137.32445
781.791	182.39255
782.209	107.23143
782.627	98.25028
783.045	110.2399
783.462	137.33607
783.88	120.30008
784.297	92.22414
784.715	81.20311
785.132	100.23183
785.549	105.25299
785.966	95.23114
786.383	142.33662
786.8	99.22108
787.217	153.3497
787.633	119.2891
788.05	100.22317
788.466	112.24954
788.883	118.29284
789.299	59.13583
789.715	114.26763
790.131	88.21159
790.547	88.21183
790.963	118.2807
791.379	105.25614
791.795	85.1844
792.21	87.19444
792.626	80.18142
793.041	43.10306
793.457	81.19198
793.872	47.10621
794.287	127.2953
794.702	36.08485
795.117	82.19806
795.532	58.14252
795.947	96.2185
796.362	63.14208
796.776	80.1764
797.191	69.16385
797.605	84.19281
798.02	69.16209
798.434	114.24198
798.848	106.25477
799.262	59.14199
799.676	91.2136
800.09	88.20837
800.504	72.16771
800.918	19.04241
801.331	10.02503
801.745	52.11471
802.158	29.06993
802.572	84.19605
802.985	87.19997
803.398	75.17163
803.811	55.13402
804.224	12.02874
804.637	84.19343
805.05	75.16562
805.462	69.16253
805.875	48.12146
806.288	55.1294
806.7	12.02912
807.112	83.18274
807.525	26.06133
807.937	61.14631
808.349	40.0965
808.761	91.2161
809.173	114.26544
809.584	58.13765
809.996	6.01432
810.408	67.16951
810.819	45.10261
811.231	92.23801
811.642	127.30216
812.053	132.30759
812.464	42.09629
812.875	111.2737
813.286	88.22054
813.697	62.13562
814.108	30.07073
814.519	125.26689
814.929	54.13284
815.34	17.03965
815.75	97.23918
816.16	13.03112
816.571	8.02022
816.981	70.15668
817.391	76.17445
817.801	23.05584
818.211	-10.02321
818.62	53.12397
819.03	75.17618
819.44	15.03749
819.849	45.10851
820.259	41.10054
820.668	70.16665
821.077	121.28988
821.486	42.09637
821.895	78.18212
822.304	65.16621
822.713	46.10444
823.122	24.05803
823.531	52.11687
823.939	47.11122
824.348	82.1898
824.756	46.11073
825.164	89.21363
825.573	39.09489
825.981	68.1612
826.389	48.11629
826.797	104.25413
827.205	121.26574
827.612	62.14641
828.02	-13.02961
828.428	59.14484
828.835	63.1616
829.243	78.17659
829.65	35.08506
830.057	41.09556
830.464	87.20588
830.871	63.14568
831.278	71.16489
831.685	56.11918
832.092	66.15362
832.499	77.16162
832.905	16.03908
833.312	20.04317
833.718	87.20946
834.124	115.2499
834.531	45.10842
834.937	62.15409
835.343	51.11737
835.749	79.17343
836.155	37.09401
836.561	18.04303
836.966	69.16126
837.372	56.13674
837.777	32.07752
838.183	52.11009
838.588	41.09912
838.993	75.17522
839.399	16.03816
839.804	5.01188
840.209	59.14682
840.613	40.08531
841.018	22.05374
841.423	29.07225
841.828	49.12038
842.232	61.14257
842.637	96.2185
843.041	35.08745
843.445	24.05788
843.849	38.09137
844.253	34.07767
844.657	37.09083
845.061	93.20468
845.465	53.12329
845.869	55.12262
846.272	49.11569
846.676	-29.06724
847.079	36.08944
847.483	77.18363
847.886	67.15474
848.289	60.15704
848.692	20.04878
849.095	71.16254
849.498	61.14642
849.901	30.06565
850.304	88.20037
850.707	41.10065
851.109	51.12367
851.512	45.10699
851.914	30.07385
852.316	85.20867
852.718	91.23179
853.121	-4.00955
853.523	33.07375
853.925	69.1755
854.326	62.15032
854.728	27.06763
855.13	29.07337
855.531	45.10385
855.933	45.10281
856.334	23.05609
856.736	26.05673
857.137	43.09714
857.538	20.04918
857.939	60.14487
858.34	19.0443
858.741	36.09084
859.142	16.03698
859.542	62.15918
859.943	44.10539
860.343	40.0964
860.744	36.08472
861.144	107.25096
861.544	71.16607
861.945	73.17848
862.345	42.09845
862.745	41.09916
863.145	24.05425
863.544	22.0541
863.944	84.18917
864.344	23.05451
864.743	56.13337
865.143	47.11777
865.542	29.06388
865.941	71.16932
866.34	49.11119
866.74	56.14558
867.139	32.07507
867.537	13.03178
867.936	34.07932
868.335	47.11508
868.734	39.09659
869.132	33.07278
869.531	43.09876
869.929	70.15318
870.327	30.06938
870.726	57.1351
871.124	13.0291
871.522	34.08345
871.92	37.08807
872.318	16.03756
872.715	5.01182
873.113	2.0047
873.511	36.08626
873.908	34.08453
874.306	54.13048
874.703	42.10026
875.1	22.0537
875.497	-12.02785
875.894	79.18905
876.291	68.16039
876.688	20.05014
877.085	45.10298
877.482	77.18454
877.878	67.15683
878.275	27.06663
878.671	-19.03967
879.068	44.10209
879.464	43.09994
879.86	19.04339
880.256	4.00941
880.652	28.0689
881.048	42.0991
881.444	11.02492
881.84	22.05408
882.236	18.04379
882.631	44.10463
883.027	50.11573
883.422	22.05414
883.817	7.01724
884.213	31.07703
884.608	105.25107
885.003	18.04156
885.398	1.00244
885.793	44.10595
886.188	17.04085
886.582	34.08345
886.977	21.04773
887.371	21.05104
887.766	61.14675
888.16	-9.02145
888.554	50.11793
888.949	49.11837
889.343	37.08654
889.737	18.04715
890.131	46.11123
890.525	85.20983
890.918	38.0922
891.312	56.12694
891.706	33.08364
892.099	81.19671
892.492	56.11419
892.886	20.04717
893.279	32.0786
893.672	61.15053
894.065	48.11589
894.458	31.07449
894.851	61.14217
895.244	25.06178
895.637	96.22088
896.029	65.1534
896.422	64.14778
896.814	27.06461
897.206	61.14128
897.599	59.13984
897.991	45.10538
898.383	43.09785
898.775	105.2271
899.167	74.1674
899.559	24.05821
899.951	11.0248
900.342	21.05117
900.734	59.14436
901.125	24.0606
901.517	43.10184
901.908	47.10639
902.299	24.05689
902.69	61.13915
903.082	57.13238
903.473	39.09144
903.863	38.09303
904.254	66.14827
904.645	31.07336
905.036	78.18448
905.426	101.21508
905.817	34.07982
906.207	-23.0527
906.597	47.10665
906.987	37.09184
907.378	43.10552
907.768	50.12819
908.158	28.06568
908.547	46.11649
908.937	-20.04942
909.327	91.20992
909.717	17.04107
910.106	28.06448
910.495	39.09265
910.885	78.18982
911.274	22.05308
911.663	52.12574
912.052	28.06581
912.441	67.16503
912.83	31.0678
913.219	31.07821
913.608	92.21573
913.997	49.11954
914.385	56.12818
914.774	13.03054
915.162	97.22251
915.55	38.08768
915.939	50.12259
916.327	15.03592
916.715	65.16187
917.103	45.10447
917.491	36.08547
917.878	28.06622
918.266	38.09479
918.654	41.10199
919.041	40.10241
919.429	13.02962
919.816	41.10006
920.203	43.10136
920.591	55.13131
920.978	71.16626
921.365	17.0435
921.752	-21.04786
922.139	87.17866
922.525	52.12036
922.912	79.18311
923.299	45.10785
923.685	-10.02519
924.072	6.013
924.458	24.05775
924.844	13.03117
925.231	-7.01562
925.617	32.07962
926.003	2.00495
926.389	-21.05163
926.774	38.09251
927.16	75.17776
927.546	72.17953
927.931	35.0836
928.317	76.16512
928.702	30.06789
929.088	130.29731
929.473	59.14564
929.858	70.16517
930.243	77.17848
930.628	53.12523
931.013	31.07427
931.398	35.07573
931.783	31.0781
932.167	61.14463
932.552	19.04588
932.937	61.14419
933.321	55.13392
933.705	21.05058
934.09	22.05256
934.474	5.01135
934.858	53.13285
935.242	30.06657
935.626	69.17058
936.009	39.10154
936.393	102.25137
936.777	109.26788
937.16	54.13665
937.544	-34.07663
937.927	14.03466
938.311	55.12768
938.694	76.19382
939.077	16.03698
939.46	3.00696
939.843	32.06199
940.226	50.12282
940.609	90.1987
940.991	-1.00246
941.374	19.04519
941.757	28.06633
942.139	33.07141
942.522	26.0587
942.904	50.11532
943.286	24.05873
943.668	69.17376
944.05	28.06661
944.432	10.02378
944.814	12.02827
945.196	43.10172
945.578	56.12993
945.959	12.02681
946.341	24.05564
946.722	57.12703
947.104	65.14857
947.485	61.1356
947.866	46.11266
948.247	68.16635
948.628	-18.04178
949.009	31.07675
949.39	28.06676
949.771	-4.00876
950.152	59.13903
950.532	49.11945
950.913	24.05568
951.293	3.00798
951.674	46.10681
952.054	79.19106
952.434	27.06483
952.814	6.01362
953.194	12.03005
953.574	51.1199
953.954	18.04072
954.334	70.16882
954.714	28.06617
955.093	56.13193
955.473	24.05871
955.853	37.09261
956.232	15.03995
956.611	35.07948
956.99	6.01469
957.37	28.06845
957.749	8.01811
958.128	55.13412
958.506	20.05041
958.885	-1.00244
959.264	55.13121
959.643	111.24008
960.021	46.11052
960.4	17.03699
960.778	29.0677
961.156	28.06745
961.535	4.0089
961.913	86.19241
962.291	50.12535
962.669	29.0714
963.047	34.08432
963.424	61.15185
963.802	5.01194
964.18	23.05523
964.557	21.04622
964.935	76.17123
965.312	43.10883
965.69	44.10487
966.067	-1.00233
966.444	-41.09665
966.821	13.03255
967.198	45.10335
967.575	65.15168
967.952	58.13008
968.329	75.17549
968.705	60.12313
969.082	57.14282
969.458	31.07271
969.835	66.15355
970.211	32.08031
970.587	74.17664
970.963	58.14162
971.339	37.09391
971.715	32.07723
972.091	19.04512
972.467	2.00476
972.843	74.17799
973.219	58.13163
973.594	15.0381
973.97	41.09084
974.345	45.10385
974.721	69.15682
975.096	91.21143
975.471	62.13974
975.846	5.01152
976.221	-17.04214
976.596	81.18849
976.971	129.30362
977.346	26.05759
977.72	29.07096
978.095	41.10214
978.469	73.16517
978.844	88.20958
979.218	67.1561
979.593	8.01841
979.967	15.03455
980.341	54.11937
980.715	53.12871
981.089	28.06755
981.463	23.05075
981.837	57.13531
982.21	8.01741
982.584	41.0956
982.957	21.05104
983.331	-27.06099
983.704	78.18555
984.078	33.07815
984.451	24.05654
984.824	39.09201
985.197	0
985.57	12.02861
985.943	41.09533
986.316	51.11793
986.688	32.07401
987.061	58.13035
987.434	86.21778
987.806	1.00231
988.179	29.06543
988.551	52.12612
988.923	24.05661
989.295	80.18965
989.667	75.17377
990.039	79.18991
990.411	10.02178
990.783	60.12958
991.155	20.04659
991.527	46.10635
991.898	91.21735
992.27	32.07712
992.641	34.08156
993.012	-31.06888
993.384	30.06836
993.755	39.09649
994.126	59.13708
994.497	33.078
994.868	0
995.239	50.11569
995.61	-6.01468
995.98	7.01641
996.351	13.03138
996.722	69.15441
997.092	6.01381
997.462	65.14683
997.833	48.10774
998.203	7.01612
998.573	58.13914
998.943	40.09045
999.313	49.11326
999.683	68.1564
1000.053	16.03448
1000.423	48.11084
1000.792	10.02483
1001.162	34.07988
1001.531	69.16297
1001.901	10.02397
1002.27	-19.04013
1002.639	10.02454
1003.009	23.05246
1003.378	63.15495
1003.747	48.10766
1004.116	13.02993
1004.485	18.0414
1004.853	-9.02182
1005.222	15.03584
1005.591	63.14208
1005.959	-18.03946
1006.328	65.13969
1006.696	-14.03259
1007.064	30.07197
1007.433	69.16341
1007.801	8.01861
1008.169	28.0674
1008.537	46.09687
1008.905	79.17627
1009.273	26.06133
1009.64	45.10439
1010.008	45.10244
1010.375	19.04355
1010.743	-8.01723
1011.11	129.29366
1011.478	42.10068
1011.845	55.12262
1012.212	80.17388
1012.579	75.17604
1012.946	30.06764
1013.313	54.12151
1013.68	52.11052
1014.047	50.11394
1014.414	31.07011
1014.78	8.01932
1015.147	29.06647
1015.513	19.04409
1015.88	48.11703
1016.246	-11.02596
1016.612	55.1187
1016.978	84.19744
1017.344	48.1141
1017.71	54.12499
1018.076	50.11126
1018.442	83.20489
1018.808	87.20954
1019.174	-23.05577
1019.539	26.05466
1019.905	94.21135
1020.27	22.05221
1020.636	48.10841
1021.001	50.11495
1021.366	59.1361
1021.731	88.2195
1022.096	10.02468
1022.461	22.05021
1022.826	55.12602
1023.191	2.0051
1023.556	21.04697
1023.92	15.03519
1024.285	26.0603
1024.649	61.14184
1025.014	14.03303
1025.378	44.10712
1025.742	34.08041
1026.107	61.13052
1026.471	71.15626
1026.835	29.06921
1027.199	-16.03745
1027.562	-5.01108
1027.926	46.10702
1028.29	36.08784
1028.654	55.11988
1029.017	48.11348
1029.381	45.10335
1029.744	56.13725
1030.107	95.21267
1030.471	40.09237
1030.834	44.09372
1031.197	50.115
1031.56	-4.00906
1031.923	56.13948
1032.286	49.10983
1032.648	4.00908
1033.011	85.18778
1033.374	70.15441
1033.736	10.02556
1034.099	50.11683
1034.461	58.14183
1034.823	21.05071
1035.185	16.0385
1035.548	37.08692
1035.91	-12.02775
1036.272	53.11561
1036.634	73.17008
1036.995	63.1397
1037.357	42.0986
1037.719	50.11665
1038.08	88.20005
1038.442	-15.0344
1038.803	-13.02968
1039.165	9.02185
1039.526	59.13632
1039.887	25.0574
1040.248	68.16313
1040.609	3.00708
1040.97	26.0609
1041.331	66.16128
1041.692	33.07534
1042.053	67.14367
1042.413	69.1516
1042.774	37.08658
1043.134	42.09424
1043.495	64.15388
1043.855	114.2646
1044.215	40.09471
1044.576	48.11071
1044.936	-2.00439
1045.296	101.2392
1045.656	22.05135
1046.016	71.16209
1046.375	29.06759
1046.735	61.13419
1047.095	50.11177
1047.454	36.07147
1047.814	59.13556
1048.173	24.05416
1048.533	31.06794
1048.892	-5.01167
1049.251	38.09092
1049.61	22.05225
1049.969	43.09654
1050.328	67.13728
1050.687	7.01632
1051.046	12.02804
1051.405	17.04035
1051.763	-1.00224
1052.122	7.01685
1052.48	38.08977
1052.839	90.20434
1053.197	47.10552
1053.555	52.10999
1053.914	23.05392
1054.272	21.04765
1054.63	9.02131
1054.988	48.11022
1055.345	43.08647
1055.703	57.13128
1056.061	46.11532
1056.419	52.13177
1056.776	-13.02995
1057.134	9.01963
1057.491	61.14631
1057.848	31.07373
1058.206	13.02887
1058.563	59.12285
1058.92	81.17572
1059.277	53.12513
1059.634	5.01115
1059.991	93.21171
1060.348	42.09098
1060.704	71.16522
1061.061	7.0153
1061.418	27.06305
1061.774	58.13702
1062.131	48.12444
1062.487	-13.02917
1062.843	21.05043
1063.199	31.07424
1063.555	63.14034
1063.911	45.10838
1064.267	70.13482
1064.623	63.14799
1064.979	-26.05733
1065.335	64.14419
1065.691	18.04079
1066.046	42.08751
1066.402	-7.01521
1066.757	21.05119
1067.112	23.05403
1067.468	71.16196
1067.823	-48.10991
1068.178	45.10335
1068.533	38.08827
1068.888	57.12908
1069.243	46.10888
1069.598	37.08556
1069.952	104.22595
1070.307	-13.03141
1070.662	67.1537
1071.016	63.1362
1071.371	43.09388
1071.725	11.02506
1072.079	52.11984
1072.434	21.04933
1072.788	31.06969
1073.142	80.18759
1073.496	21.04771
1073.85	36.07958
1074.203	62.14374
1074.557	55.1428
1074.911	72.16195
1075.265	56.12379
1075.618	67.15622
1075.971	53.12012
1076.325	66.16206
1076.678	17.03734
1077.031	-17.03627
1077.385	33.0689
1077.738	43.09217
1078.091	5.01105
1078.444	52.11336
1078.796	55.13006
1079.149	19.04568
1079.502	8.01836
1079.855	63.13999
1080.207	38.08946
1080.56	59.14752
1080.912	77.17791
1081.264	37.08583
1081.617	35.08225
1081.969	8.01967
1082.321	25.05845
1082.673	67.14783
1083.025	28.06324
1083.377	320.67684
1083.728	44.09734
1084.08	-5.012
1084.432	34.07826
1084.783	-7.01547
1085.135	78.18754
1085.486	24.05299
1085.838	42.09964
1086.189	36.08468
1086.54	13.02971
1086.891	64.15831
1087.242	80.18899
1087.593	8.01846
1087.944	84.18157
1088.295	71.15232
1088.646	104.24378
1088.996	50.11605
1089.347	3.00706
1089.698	81.1841
1090.048	69.17058
1090.398	53.1161
1090.749	19.04324
1091.099	68.16592
1091.449	47.11286
1091.799	83.19793
1092.149	9.02154
1092.499	1.00236
1092.849	47.11504
1093.199	21.05023
1093.548	66.15307
1093.898	-21.05083
1094.248	24.05889
1094.597	22.05506
1094.947	-1.0026
1095.296	48.11436
1095.645	24.06004
1095.994	-2.00464
1096.343	101.24261
1096.692	61.15696
1097.041	57.15155
1097.39	13.03129
1097.739	47.11751
1098.088	39.10018
1098.437	27.06977
1098.785	18.04668
1099.134	-14.03559
1099.482	48.12828
1099.83	47.11912
1100.179	56.14352
1100.527	9.02293
1100.875	54.13878
1101.223	64.16483
1101.571	-3.00806
1101.919	21.05447
1102.267	2.00555
1102.615	4.01285
1102.962	5.01603
1103.31	-2.00643
1103.658	-5.01604
