Data from N3 R3 sample 9_Subt2__5__11-07-08-799.txt Node

Date: Thu Sep 18 11:07:08 PDT 2025
User: uwsun
Spectrometer: HDX01956
Trigger mode: 0
Integration Time (sec): 5.000000E-1
Scans to average: 1
Nonlinearity correction enabled: true
Boxcar width: 0
Storing dark spectrum: false
XAxis mode: Wavelengths
Number of Pixels in Spectrum: 2068
>>>>>Begin Spectral Data<<<<<
194.03	27.07808
194.578	51.16484
195.127	32.1022
195.676	43.13765
196.225	71.18738
196.773	29.08068
197.321	81.22395
197.87	111.28532
198.418	131.33802
198.966	169.443
199.513	145.36854
200.061	131.33355
200.609	139.36659
201.156	126.27713
201.704	87.22113
202.251	138.36683
202.798	128.33239
203.345	150.37129
203.892	132.33437
204.438	131.31156
204.985	172.40678
205.532	129.33976
206.078	126.30869
206.624	180.44929
207.17	180.41993
207.716	175.42737
208.262	153.30354
208.808	174.43542
209.354	171.42149
209.899	162.40627
210.445	169.4213
210.99	165.40175
211.535	161.37893
212.08	143.33237
212.625	126.31565
213.17	193.48775
213.715	199.45081
214.259	151.35262
214.804	158.38607
215.348	183.42063
215.892	157.3807
216.436	110.25269
216.98	129.28402
217.524	201.47582
218.068	168.42208
218.612	231.57835
219.155	187.4384
219.698	152.36074
220.242	139.34237
220.785	186.43307
221.328	149.36672
221.871	190.47923
222.414	151.37151
222.956	61.14764
223.499	84.18886
224.041	148.3363
224.583	157.32837
225.126	151.32925
225.668	131.31754
226.21	143.36063
226.751	194.42632
227.293	120.27124
227.835	171.41511
228.376	135.3057
228.918	111.27632
229.459	108.26988
230	170.40454
230.541	123.28249
231.082	150.36311
231.622	91.20674
232.163	125.30072
232.704	169.41916
233.244	107.26578
233.784	161.38629
234.324	199.44126
234.864	100.22659
235.404	129.30255
235.944	147.34369
236.484	154.38147
237.023	162.37809
237.563	196.44879
238.102	173.40447
238.641	77.19453
239.18	135.31588
239.719	133.33156
240.258	174.38623
240.797	124.29576
241.335	107.26024
241.874	169.3262
242.412	164.39521
242.95	174.41629
243.488	134.29955
244.026	163.37616
244.564	214.43161
245.102	210.46769
245.64	112.26724
246.177	130.28784
246.715	156.37194
247.252	111.25197
247.789	244.43877
248.326	178.42423
248.863	142.3114
249.4	97.22082
249.936	214.44015
250.473	195.45465
251.009	142.32345
251.546	169.37427
252.082	122.26314
252.618	161.3573
253.154	129.30987
253.69	144.32124
254.226	161.38247
254.761	155.34542
255.297	142.30864
255.832	165.3891
256.367	175.40658
256.903	192.42122
257.438	163.37855
257.972	173.38105
258.507	137.31301
259.042	185.39722
259.576	212.46137
260.111	148.33766
260.645	179.38201
261.179	158.36759
261.713	164.36434
262.247	126.28712
262.781	201.41704
263.315	90.21918
263.849	172.42637
264.382	180.40835
264.915	149.35096
265.449	125.3047
265.982	174.39105
266.515	179.43421
267.048	152.32052
267.58	204.43206
268.113	160.34347
268.646	136.33133
269.178	108.24202
269.71	203.44225
270.243	194.44368
270.775	213.53771
271.307	125.29649
271.838	169.39497
272.37	158.38406
272.902	154.34638
273.433	186.40771
273.965	185.4437
274.496	141.34767
275.027	185.45515
275.558	216.51814
276.089	156.38742
276.62	153.3828
277.15	202.48861
277.681	110.23736
278.211	166.40094
278.741	150.33185
279.272	155.35285
279.802	185.45431
280.332	205.47665
280.861	150.3564
281.391	146.33054
281.921	162.38388
282.45	184.45044
282.98	190.48879
283.509	224.50031
284.038	183.41439
284.567	182.41941
285.096	226.538
285.625	194.43026
286.153	253.59056
286.682	209.47288
287.21	135.32046
287.739	189.44101
288.267	158.38262
288.795	180.46484
289.323	174.40529
289.851	204.4733
290.378	110.2461
290.906	142.34672
291.433	171.42257
291.961	205.46194
292.488	160.39401
293.015	194.45277
293.542	248.62437
294.069	187.45871
294.596	183.44208
295.122	233.54837
295.649	160.34806
296.175	214.5063
296.702	259.61855
297.228	213.50423
297.754	150.33656
298.28	211.47876
298.806	191.45512
299.332	222.48887
299.857	215.4813
300.383	217.53663
300.908	180.43901
301.433	210.50777
301.958	239.53657
302.483	178.43704
303.008	268.65043
303.533	165.42248
304.058	233.53233
304.582	154.36281
305.107	161.41643
305.631	235.52238
306.155	203.46715
306.679	200.46512
307.203	219.50075
307.727	215.50207
308.251	184.44993
308.775	270.64149
309.298	229.54294
309.822	164.40951
310.345	237.55648
310.868	244.57727
311.391	209.50792
311.914	220.54295
312.437	231.51925
312.96	233.53961
313.482	189.43997
314.005	178.4406
314.527	206.52828
315.049	222.55351
315.571	256.56445
316.093	241.5859
316.615	251.58958
317.137	239.51183
317.659	242.5752
318.18	218.51177
318.702	251.57691
319.223	184.37298
319.744	280.61452
320.265	233.55881
320.786	283.68979
321.307	264.6376
321.828	307.67136
322.348	286.65563
322.869	286.6643
323.389	550.98465
323.909	284.63195
324.43	286.66535
324.95	281.62748
325.47	303.73053
325.989	316.72672
326.509	339.73255
327.029	340.74932
327.548	320.702
328.067	317.74632
328.587	336.81481
329.106	298.65264
329.625	329.82839
330.144	321.72359
330.662	325.73949
331.181	327.74735
331.7	314.70767
332.218	350.73121
332.736	349.78766
333.255	370.83692
333.773	308.70662
334.291	410.9785
334.808	351.7627
335.326	343.74341
335.844	376.84945
336.361	438.07015
336.879	417.93495
337.396	448.03178
337.913	372.82601
338.43	443.94496
338.947	394.90098
339.464	396.81593
339.981	392.88956
340.497	414.97025
341.014	389.90865
341.53	401.86354
342.046	448.06003
342.562	443.04515
343.078	442.9863
343.594	434.97964
344.11	479.07849
344.626	430.03145
345.141	526.11837
345.657	508.07207
346.172	432.99142
346.687	460.99631
347.202	497.0628
347.717	519.15391
348.232	537.24473
348.747	500.08053
349.261	498.0224
349.776	566.24373
350.29	516.20895
350.805	522.20346
351.319	517.11995
351.833	554.18056
352.347	538.18063
352.861	576.2461
353.374	524.10783
353.888	579.30719
354.401	515.09233
354.915	569.18605
355.428	584.34338
355.941	535.15752
356.454	591.20359
356.967	549.18533
357.48	586.21856
357.993	578.31156
358.505	569.27779
359.018	628.40612
359.53	610.36633
360.042	667.34691
360.554	582.31477
361.066	604.34789
361.578	660.3166
362.09	604.31733
362.602	623.26541
363.113	663.41348
363.625	617.27885
364.136	646.28326
364.647	681.45754
365.158	685.43516
365.669	648.40565
366.18	686.4534
366.691	669.3182
367.201	646.40725
367.712	740.5058
368.222	721.48273
368.733	676.32047
369.243	707.41343
369.753	746.5256
370.263	748.609
370.773	718.56491
371.282	794.67073
371.792	722.49445
372.301	766.63929
372.811	824.90782
373.32	847.58206
373.829	790.63827
374.338	839.61425
374.847	911.79749
375.356	874.77879
375.865	976.74684
376.373	1027.93879
376.882	1027.1884
377.39	1094.17212
377.898	1003.07549
378.407	1140.08793
378.915	1201.07441
379.423	1162.17413
379.93	1348.40879
380.438	1246.37285
380.946	1322.37902
381.453	1393.5575
381.96	1529.69695
382.468	1546.6619
382.975	1639.90395
383.482	1683.62019
383.989	1746.20343
384.495	1844.90114
385.002	1857.51767
385.509	2021.11742
386.015	2189.56593
386.521	2250.02495
387.028	2348.05025
387.534	2400.78972
388.04	2528.39723
388.546	2480.9478
389.051	2640.95574
389.557	2867.22505
390.063	3009.07969
390.568	3195.42614
391.073	3213.95144
391.578	3387.49445
392.084	3629.97502
392.589	3550.69931
393.093	3912.18783
393.598	4337.71215
394.103	4684.76176
394.607	5152.58452
395.112	5492.55449
395.616	5719.35311
396.12	6236.75391
396.624	6869.84822
397.128	7328.02799
397.632	8336.56949
398.136	9032.51773
398.639	9566.6409
399.143	10704.92959
399.646	12063.30794
400.15	13395.10053
400.653	14876.85486
401.156	16738.70702
401.659	19523.40947
402.162	23630.6444
402.664	31413.20292
403.167	44683.62106
403.67	61195.79844
404.172	63919.58413
404.674	63858.43483
405.176	63738.15102
405.678	63977.72923
406.18	64011.81569
406.682	63863.44694
407.184	63926.60148
407.686	63841.39382
408.187	64025.8516
408.688	63892.51763
409.19	55179.88215
409.691	44465.92194
410.192	37524.93009
410.693	32827.65121
411.194	29519.84473
411.694	28135.67959
412.195	26158.96476
412.696	23788.58216
413.196	22165.10526
413.696	21511.08067
414.196	21985.20773
414.696	21462.44344
415.196	20436.40604
415.696	18409.57627
416.196	14996.5993
416.695	11399.98439
417.195	9898.4692
417.694	9347.1371
418.194	8874.13795
418.693	8286.42187
419.192	8066.31027
419.691	7832.07889
420.19	7662.12854
420.688	7469.1541
421.187	7097.19871
421.685	6716.76266
422.184	6170.96648
422.682	5220.86722
423.18	4434.65184
423.678	3927.85753
424.176	3670.94709
424.674	3423.86973
425.172	3319.22039
425.669	3059.50892
426.167	2916.18347
426.664	2656.04714
427.161	2468.07815
427.659	2337.3043
428.156	2171.65065
428.652	1973.27414
429.149	1887.03875
429.646	1883.69557
430.143	1828.94098
430.639	1685.77447
431.135	1590.88235
431.632	1477.45345
432.128	1402.5287
432.624	1389.75067
433.12	1338.29946
433.616	1291.13796
434.111	1206.25007
434.607	1118.15005
435.103	1096.8071
435.598	1126.82712
436.093	1108.06468
436.588	1010.85327
437.083	977.79752
437.578	945.82027
438.073	884.8879
438.568	917.9065
439.062	823.49094
439.557	767.55338
440.051	745.451
440.546	748.47308
441.04	791.64144
441.534	695.55084
442.028	753.58056
442.522	694.46908
443.015	632.1982
443.509	717.53137
444.002	690.49176
444.496	616.18658
444.989	620.34713
445.482	647.42878
445.975	676.37728
446.468	651.2412
446.961	604.16844
447.454	632.25657
447.947	601.28779
448.439	603.32985
448.931	610.25052
449.424	597.3714
449.916	610.33492
450.408	566.16593
450.9	545.20228
451.392	542.2546
451.884	508.06456
452.375	470.0735
452.867	555.12349
453.358	522.08672
453.849	543.04496
454.341	540.10231
454.832	527.02871
455.323	523.18972
455.814	542.12042
456.304	474.00675
456.795	458.96444
457.285	416.85058
457.776	461.96756
458.266	441.97003
458.756	386.85424
459.247	432.95961
459.737	461.02857
460.226	494.02787
460.716	414.92231
461.206	420.93489
461.695	359.83662
462.185	424.93558
462.674	374.80177
463.163	448.9268
463.653	487.94454
464.142	421.94934
464.63	393.89056
465.119	379.82563
465.608	409.89248
466.096	349.71214
466.585	341.73466
467.073	295.66309
467.561	365.82276
468.05	308.6734
468.538	329.76099
469.026	308.69387
469.513	320.63798
470.001	351.7588
470.489	356.7964
470.976	383.83717
471.463	322.7603
471.951	304.71864
472.438	322.7159
472.925	323.72006
473.412	286.66194
473.899	286.6253
474.385	247.58154
474.872	295.65465
475.359	297.6957
475.845	223.44573
476.331	264.53735
476.817	266.62005
477.303	235.52629
477.789	202.46643
478.275	240.57351
478.761	229.52424
479.247	237.50864
479.732	239.57451
480.218	285.71429
480.703	224.53283
481.188	229.4779
481.673	258.56862
482.158	208.43552
482.643	254.62362
483.128	273.60886
483.612	267.6095
484.097	212.49458
484.581	216.48324
485.066	265.62221
485.55	200.42933
486.034	193.40653
486.518	225.52046
487.002	150.35709
487.486	172.4071
487.969	191.45093
488.453	173.41965
488.936	148.32674
489.42	193.41475
489.903	162.39378
490.386	134.2725
490.869	211.44757
491.352	129.30515
491.835	158.31618
492.318	123.2724
492.8	141.28693
493.283	145.36292
493.765	119.28748
494.247	181.4102
494.73	180.38807
495.212	114.26648
495.694	200.45758
496.175	157.36937
496.657	164.37944
497.139	162.27116
497.62	183.42869
498.102	185.44842
498.583	140.33725
499.064	100.22087
499.545	157.35016
500.026	153.33926
500.507	133.30105
500.988	173.42202
501.469	120.29453
501.949	156.37693
502.43	154.36365
502.91	185.38213
503.39	144.35003
503.87	155.35898
504.35	139.31924
504.83	146.31314
505.31	82.19619
505.79	72.1693
506.269	106.24047
506.749	110.24833
507.228	132.30577
507.707	137.30062
508.187	147.34463
508.666	152.3692
509.145	119.27451
509.623	105.24318
510.102	177.41756
510.581	185.43473
511.059	140.34629
511.538	117.29748
512.016	173.40479
512.494	122.28899
512.972	183.42701
513.45	114.26272
513.928	161.3832
514.406	170.40749
514.884	196.49188
515.361	172.40206
515.839	185.41517
516.316	218.51317
516.793	182.44802
517.27	125.29626
517.747	165.41446
518.224	194.43438
518.701	176.37928
519.178	186.45381
519.654	158.36643
520.131	153.3717
520.607	145.34777
521.083	115.25734
521.56	172.3959
522.036	150.32019
522.512	165.39875
522.987	136.32252
523.463	124.28986
523.939	218.52453
524.414	136.30615
524.89	145.33994
525.365	107.23924
525.84	136.32177
526.315	191.45058
526.79	121.26943
527.265	184.41454
527.74	104.24987
528.215	88.20385
528.689	91.19809
529.164	120.25393
529.638	73.1841
530.112	85.19866
530.587	134.28232
531.061	121.28911
531.534	132.31328
532.008	113.27175
532.482	125.28341
532.956	99.2502
533.429	144.34649
533.903	109.23636
534.376	119.2598
534.849	85.19428
535.322	107.24988
535.795	102.24394
536.268	107.25644
536.741	72.17029
537.213	120.27235
537.686	75.18276
538.158	100.22567
538.631	67.16186
539.103	90.2021
539.575	75.15401
540.047	92.19928
540.519	79.18789
540.991	102.24646
541.463	70.16786
541.934	69.15561
542.406	119.28259
542.877	93.20854
543.348	97.23247
543.82	62.15054
544.291	122.28138
544.762	97.22928
545.233	128.3202
545.703	111.2447
546.174	116.26615
546.645	99.23781
547.115	143.33984
547.585	144.32588
548.056	130.31577
548.526	108.25434
548.996	109.25824
549.466	103.24836
549.935	141.33212
550.405	81.17767
550.875	130.30496
551.344	89.21119
551.814	182.40768
552.283	149.3202
552.752	149.34399
553.221	169.36615
553.69	208.45766
554.159	183.44591
554.628	161.35894
555.096	177.44125
555.565	156.33921
556.033	187.43617
556.502	129.30763
556.97	213.46069
557.438	123.28577
557.906	174.40226
558.374	228.51261
558.842	168.39486
559.31	249.53762
559.777	221.52478
560.245	169.38004
560.712	224.49721
561.18	178.38573
561.647	225.48331
562.114	295.64593
562.581	274.64798
563.048	308.67198
563.514	395.9317
563.981	321.69841
564.448	374.79347
564.914	395.85792
565.381	450.9501
565.847	404.8784
566.313	435.93554
566.779	493.01189
567.245	450.96259
567.711	561.21283
568.176	536.0862
568.642	541.24114
569.108	615.35352
569.573	670.36195
570.038	673.22055
570.504	743.4471
570.969	790.68996
571.434	880.62559
571.899	840.68938
572.363	913.73751
572.828	997.86464
573.293	1006.86994
573.757	1082.00418
574.222	1121.97067
574.686	1130.04575
575.15	1184.2382
575.614	1318.35376
576.078	1248.24877
576.542	1251.1703
577.006	1249.1452
577.469	1349.51587
577.933	1324.25482
578.396	1322.36817
578.86	1304.32508
579.323	1354.45908
579.786	1358.14961
580.249	1405.4478
580.712	1309.42908
581.175	1245.38748
581.637	1285.21202
582.1	1211.00584
582.563	1199.93041
583.025	1208.3003
583.487	1270.92686
583.95	1143.88961
584.412	1211.91696
584.874	1177.26433
585.336	1154.15701
585.797	1181.9699
586.259	1085.02718
586.721	1084.03276
587.182	1035.92348
587.643	1008.85422
588.105	1062.01869
588.566	1048.71906
589.027	1074.12839
589.488	948.79158
589.949	994.98663
590.41	1015.57955
590.87	987.84227
591.331	959.70622
591.791	911.75552
592.252	962.84465
592.712	991.95006
593.172	996.84125
593.632	1058.87364
594.092	960.74633
594.552	987.72451
595.011	947.7849
595.471	993.82976
595.931	985.80956
596.39	953.89714
596.849	993.88819
597.308	1018.72719
597.768	1099.30769
598.227	1136.16599
598.685	1100.9845
599.144	1162.15177
599.603	1187.16072
600.062	1221.93509
600.52	1325.23066
600.978	1374.4179
601.437	1358.28346
601.895	1458.20718
602.353	1498.31528
602.811	1602.49491
603.269	1608.68506
603.727	1765.86307
604.184	1776.66948
604.642	1900.07267
605.099	1995.91695
605.557	2088.15338
606.014	2094.62398
606.471	2236.40113
606.928	2415.86575
607.385	2459.50123
607.842	2614.05678
608.299	2737.17447
608.755	2786.38654
609.212	2812.924
609.668	3030.97445
610.125	3217.35215
610.581	3266.16595
611.037	3276.88549
611.493	3409.10441
611.949	3469.38434
612.405	3578.24802
612.861	3580.95685
613.316	3719.1897
613.772	3815.84467
614.227	3858.16383
614.683	3943.2964
615.138	3939.95004
615.593	3865.90912
616.048	3972.7651
616.503	3999.17191
616.958	4184.33371
617.412	4064.9821
617.867	4092.56076
618.321	4016.09899
618.776	4043.47799
619.23	3969.92286
619.684	3907.6219
620.138	3866.80397
620.592	3850.22056
621.046	3778.06324
621.5	3649.23211
621.954	3576.6977
622.407	3494.7265
622.861	3474.3402
623.314	3453.8815
623.768	3432.16425
624.221	3301.15509
624.674	3204.06805
625.127	3132.11607
625.58	3098.91014
626.033	3120.75431
626.485	3015.29985
626.938	3040.27198
627.39	2923.16448
627.843	2795.07858
628.295	2729.07449
628.747	2668.25728
629.199	2586.99002
629.651	2591.02725
630.103	2511.01477
630.555	2521.60011
631.006	2452.06768
631.458	2319.0858
631.909	2287.83482
632.361	2308.98293
632.812	2221.96698
633.263	2169.65735
633.714	2141.54181
634.165	2054.04316
634.616	2020.95865
635.067	2021.65414
635.518	1978.94482
635.968	1983.20538
636.419	1943.58449
636.869	1883.87534
637.319	1900.80326
637.769	1887.66657
638.219	1865.8458
638.669	1755.79165
639.119	1757.81846
639.569	1762.83367
640.019	1772.69331
640.468	1771.57789
640.918	1749.77574
641.367	1694.51599
641.816	1767.54231
642.265	1657.63863
642.714	1728.63018
643.163	1744.67505
643.612	1741.90666
644.061	1756.39882
644.51	1762.65754
644.958	1680.45914
645.406	1689.75681
645.855	1685.81391
646.303	1669.61159
646.751	1707.65035
647.199	1721.58187
647.647	1738.68742
648.095	1744.62072
648.543	1735.20563
648.99	1710.79679
649.438	1696.63535
649.885	1726.96308
650.333	1749.0749
650.78	1616.73207
651.227	1677.83976
651.674	1718.60559
652.121	1641.81542
652.568	1637.80555
653.015	1592.79497
653.461	1610.66374
653.908	1591.51968
654.354	1611.66904
654.801	1564.57011
655.247	1619.3421
655.693	1557.95334
656.139	1567.63378
656.585	1552.62172
657.031	1499.51465
657.477	1524.2986
657.922	1503.40341
658.368	1484.65158
658.813	1493.394
659.259	1519.64337
659.704	1613.65638
660.149	1498.44597
660.594	1515.56223
661.039	1507.41664
661.484	1507.54589
661.929	1476.46846
662.373	1392.61603
662.818	1455.63994
663.262	1462.57088
663.707	1410.6873
664.151	1476.61306
664.595	1478.58841
665.039	1487.68876
665.483	1473.76402
665.927	1512.51678
666.371	1502.51904
666.814	1473.51878
667.258	1522.62309
667.701	1594.26945
668.145	1514.72884
668.588	1568.77251
669.031	1591.60122
669.474	1558.64038
669.917	1572.33958
670.36	1638.87323
670.803	1647.7544
671.245	1572.12272
671.688	1583.7167
672.13	1649.51217
672.573	1645.92507
673.015	1697.79135
673.457	1660.38388
673.899	1722.82433
674.341	1679.76904
674.783	1716.78203
675.225	1756.92639
675.666	1759.90693
676.108	1701.38737
676.549	1757.70072
676.991	1754.47614
677.432	1802.15721
677.873	1737.60775
678.314	1741.77226
678.755	1909.05929
679.196	1828.67755
679.637	1828.86261
680.078	1976.8617
680.518	1899.73895
680.959	1859.86295
681.399	1911.07276
681.839	1896.97387
682.28	1937.11337
682.72	1898.72162
683.16	2000.17772
683.6	2011.76465
684.039	1983.36462
684.479	1973.10877
684.919	2021.92017
685.358	2009.16812
685.798	2050.42448
686.237	2152.04823
686.676	2099.77943
687.115	2137.98505
687.554	2246.11265
687.993	2259.74123
688.432	2220.86913
688.871	2253.90648
689.309	2314.15168
689.748	2383.49336
690.186	2339.02712
690.625	2411.07665
691.063	2396.14981
691.501	2522.39102
691.939	2510.49495
692.377	2474.26056
692.815	2601.34992
693.253	2584.18408
693.69	2684.75191
694.128	2677.31938
694.565	2711.17833
695.003	2771.65706
695.44	2790.18828
695.877	2801.14993
696.314	2827.54412
696.751	2796.93081
697.188	2966.06099
697.625	2975.84756
698.061	3011.25125
698.498	2986.1676
698.934	3004.23694
699.371	3042.14246
699.807	3093.15259
700.243	3129.29058
700.679	3098.80641
701.115	3195.06206
701.551	3205.03287
701.987	3137.67882
702.422	3251.20424
702.858	3257.19814
703.294	3398.91279
703.729	3335.30837
704.164	3293.1892
704.599	3372.75461
705.035	3403.7708
705.47	3437.27408
705.904	3386.97002
706.339	3436.89945
706.774	3461.02267
707.209	3492.97668
707.643	3473.16171
708.078	3592.24131
708.512	3511.48861
708.946	3597.05051
709.38	3648.06059
709.814	3507.78154
710.248	3629.27397
710.682	3637.14301
711.116	3677.23139
711.549	3565.60282
711.983	3661.85907
712.416	3641.05483
712.85	3639.35083
713.283	3649.00884
713.716	3652.34972
714.149	3566.90053
714.582	3660.67898
715.015	3582.2905
715.448	3701.46331
715.881	3634.40138
716.313	3601.94713
716.746	3677.01528
717.178	3620.14304
717.61	3694.5386
718.043	3637.32107
718.475	3590.21473
718.907	3613.408
719.339	3596.75575
719.77	3527.14421
720.202	3551.44632
720.634	3550.31023
721.065	3548.01533
721.497	3570.27757
721.928	3437.29534
722.359	3548.25119
722.79	3568.1214
723.221	3548.37604
723.652	3453.57134
724.083	3475.73282
724.514	3492.86431
724.945	3513.97822
725.375	3482.98489
725.806	3399.35393
726.236	3493.60448
726.666	3501.0243
727.096	3516.27331
727.526	3566.66371
727.956	3460.84318
728.386	3563.2741
728.816	3477.62947
729.246	3401.37475
729.675	3334.2903
730.105	3343.30428
730.534	3371.97647
730.964	3350.43966
731.393	3383.30434
731.822	3376.62191
732.251	3332.57465
732.68	3356.9291
733.109	3373.36431
733.537	3424.30091
733.966	3416.44909
734.395	3373.92723
734.823	3427.62397
735.251	3351.17765
735.68	3332.35334
736.108	3284.45736
736.536	3296.01489
736.964	3258.95974
737.392	3267.45953
737.82	3322.13205
738.247	3266.13027
738.675	3273.03498
739.102	3214.45251
739.53	3188.68929
739.957	3221.73218
740.384	3127.21343
740.811	3164.42884
741.238	3156.3535
741.665	3198.07406
742.092	3067.9291
742.519	3037.43952
742.945	3083.3016
743.372	3040.44444
743.798	2952.63093
744.225	2973.11545
744.651	2921.47055
745.077	2952.45285
745.503	2973.23782
745.929	2952.27892
746.355	2824.27875
746.781	2876.34577
747.207	2780.15317
747.632	2815.43216
748.058	2830.52595
748.483	2769.95298
748.908	2818.44191
749.334	2754.37062
749.759	2714.16519
750.184	2645.22214
750.609	2633.29744
751.033	2589.00754
751.458	2546.76627
751.883	2552.30025
752.307	2519.05237
752.732	2474.52432
753.156	2495.2904
753.58	2389.01696
754.005	2318.324
754.429	2380.0629
754.853	2378.32382
755.277	2291.03548
755.7	2209.21874
756.124	2256.25442
756.548	2145.93682
756.971	2205.12616
757.394	2172.34781
757.818	2166.40344
758.241	2059.25365
758.664	2089.23703
759.087	2002.67103
759.51	1966.03037
759.933	1956.94955
760.356	1918.22569
760.778	1931.99603
761.201	1864.8633
761.623	1837.77474
762.046	1852.70838
762.468	1793.76955
762.89	1758.8193
763.312	1806.88581
763.734	1692.72604
764.156	1680.80928
764.578	1592.41938
765	1600.67882
765.421	1609.8797
765.843	1515.86517
766.264	1491.45801
766.686	1458.589
767.107	1373.41801
767.528	1457.73257
767.949	1392.59569
768.37	1418.5538
768.791	1378.3811
769.212	1265.41782
769.632	1293.22586
770.053	1263.52391
770.473	1218.20788
770.894	1222.26994
771.314	1158.06802
771.734	1177.06391
772.154	1188.3373
772.575	1183.03671
772.994	1059.84295
773.414	1111.02701
773.834	1095.13237
774.254	1059.02611
774.673	1057.03781
775.093	1000.99863
775.512	962.91818
775.931	973.99971
776.351	929.8904
776.77	881.77802
777.189	934.78314
777.607	938.95667
778.026	885.81221
778.445	817.74136
778.864	800.69884
779.282	816.60267
779.701	756.60324
780.119	796.6984
780.537	721.5253
780.955	715.54092
781.373	734.53421
781.791	779.46344
782.209	724.3576
782.627	640.47408
783.045	650.25339
783.462	663.46415
783.88	681.52583
784.297	608.33502
784.715	649.45646
785.132	594.23961
785.549	540.19099
785.966	580.27987
786.383	576.24822
786.8	572.1503
787.217	577.20382
787.633	547.21928
788.05	533.08085
788.466	519.05672
788.883	516.18441
789.299	460.97376
789.715	515.11181
790.131	481.06752
790.547	449.00422
790.963	470.03982
791.379	453.03066
791.795	392.79461
792.21	455.93938
792.626	421.88829
793.041	367.8249
793.457	350.78621
793.872	447.92742
794.287	326.7281
794.702	284.63693
795.117	363.82994
795.532	367.84987
795.947	357.76946
796.362	337.71731
796.776	395.81332
797.191	365.81704
797.605	303.66485
798.02	337.75002
798.434	390.7779
798.848	327.75276
799.262	299.68667
799.676	319.71526
800.09	274.62535
800.504	270.60429
800.918	251.53334
801.331	182.4414
801.745	205.43769
802.158	234.54225
802.572	273.61339
802.985	257.57057
803.398	240.53095
803.811	180.42834
804.224	199.45959
804.637	212.47566
805.05	246.52374
805.462	218.49856
805.875	217.53249
806.288	173.39764
806.7	143.3384
807.112	184.39652
807.525	139.32065
807.937	185.43321
808.349	169.39776
808.761	186.43359
809.173	218.49716
809.584	170.39473
809.996	147.3414
810.408	179.4438
810.819	163.36279
811.231	202.51258
811.642	226.52744
812.053	214.49059
812.464	159.35594
812.875	194.47103
813.286	171.42211
813.697	159.34066
814.108	102.23712
814.519	188.39591
814.929	138.33419
815.34	97.22269
815.75	169.41118
816.16	97.22848
816.571	97.24129
816.981	83.18527
817.391	105.23961
817.801	58.13988
818.211	95.21591
818.62	93.21582
819.03	97.22688
819.44	82.20246
819.849	52.12522
820.259	98.23777
820.668	102.24133
821.077	152.36199
821.486	89.20228
821.895	86.20048
822.304	71.18136
822.713	70.15816
823.122	91.21726
823.531	93.20725
823.939	139.32307
824.348	100.23064
824.756	119.28248
825.164	138.32815
825.573	96.23108
825.981	98.23097
826.389	84.20212
826.797	123.29949
827.205	73.16194
827.612	67.15806
828.02	-8.0182
828.428	65.15939
828.835	69.17681
829.243	57.1296
829.65	89.21411
830.057	84.19412
830.464	96.22678
830.871	121.27656
831.278	91.21051
831.685	69.14643
832.092	37.08661
832.499	116.24138
832.905	17.04152
833.312	59.1263
833.718	120.2871
834.124	97.21159
834.531	54.12989
834.937	81.20061
835.343	41.09454
835.749	27.05992
836.155	73.1843
836.561	64.15166
836.966	48.11265
837.372	73.17768
837.777	69.166
838.183	71.14969
838.588	49.11829
838.993	89.20735
839.399	48.11379
839.804	-32.07659
840.209	83.20564
840.613	26.05562
841.018	46.11186
841.423	63.15598
841.828	32.07886
842.232	24.0565
842.637	53.12168
843.041	44.10975
843.445	1.00242
843.849	53.12707
844.253	67.15203
844.657	32.07863
845.061	112.24551
845.465	17.03983
845.869	74.16433
846.272	45.10633
846.676	43.09828
847.079	55.13617
847.483	87.20708
847.886	48.11128
848.289	68.17774
848.692	47.11406
849.095	90.20525
849.498	33.07963
849.901	62.13476
850.304	78.17796
850.707	47.11525
851.109	70.16914
851.512	42.09991
851.914	14.03457
852.316	94.23038
852.718	106.26928
853.121	66.15543
853.523	19.04259
853.925	60.15286
854.326	53.12871
854.728	55.13707
855.13	15.03805
855.531	52.11984
855.933	23.05278
856.334	22.05366
856.736	88.18948
857.137	75.16832
857.538	78.18975
857.939	122.29111
858.34	39.09058
858.741	28.07075
859.142	5.01158
859.542	48.12353
859.943	55.13146
860.343	32.07723
860.744	75.17515
861.144	64.15137
861.544	46.10812
861.945	1.00248
862.345	15.03535
862.745	82.19679
863.145	13.02945
863.544	17.04184
863.944	33.07509
864.344	18.0427
864.743	68.16157
865.143	59.14752
865.542	-15.03334
865.941	33.07927
866.34	12.02743
866.74	37.0965
867.139	102.236
867.537	48.11659
867.936	56.13008
868.335	42.10294
868.734	23.05713
869.132	26.05743
869.531	26.05992
869.929	65.14239
870.327	9.0209
870.726	19.04536
871.124	72.15922
871.522	24.05902
871.92	82.19349
872.318	31.07257
872.715	28.06589
873.113	32.07477
873.511	11.02648
873.908	19.04737
874.306	73.17575
874.703	-15.0362
875.1	22.0537
875.497	21.04842
875.894	52.12508
876.291	68.16039
876.688	69.17146
877.085	31.07114
877.482	29.07014
877.878	100.23257
878.275	62.15201
878.671	-4.00832
879.068	71.16385
879.464	53.12294
879.86	25.05703
880.256	-8.01887
880.652	4.00989
881.048	6.01426
881.444	36.08114
881.84	48.11742
882.236	69.16625
882.631	80.18891
883.027	38.08817
883.422	5.01234
883.817	8.01969
884.213	27.06714
884.608	33.07999
885.003	-11.02555
885.398	31.07509
885.793	-5.01215
886.188	-7.0169
886.582	88.21383
886.977	9.0205
887.371	9.02192
887.766	-14.03416
888.16	23.05449
888.554	37.08749
888.949	48.11598
889.343	17.03992
889.737	25.0654
890.131	13.03163
890.525	57.14143
890.918	39.09461
891.312	16.03656
891.706	7.01782
892.099	30.07355
892.492	46.09401
892.886	45.10563
893.279	-7.01732
893.672	76.18702
894.065	33.0799
894.458	1.00242
894.851	13.03059
895.244	32.07898
895.637	44.10229
896.029	73.17202
896.422	20.04659
896.814	1.0024
897.206	44.10225
897.599	87.20509
897.991	55.12854
898.383	69.15619
898.775	90.19528
899.167	15.03434
899.559	83.19907
899.951	58.1295
900.342	38.0923
900.734	49.12011
901.125	21.05306
901.517	40.09479
901.908	10.02281
902.299	45.10624
902.69	94.21299
903.082	120.27522
903.473	72.16771
903.863	27.06623
904.254	67.15049
904.645	37.08746
905.036	85.20076
905.426	6.01304
905.817	-25.05937
906.207	1.00228
906.597	83.18696
906.987	2.005
907.378	49.12011
907.768	49.12565
908.158	37.08664
908.547	57.14406
908.937	5.0123
909.327	62.14385
909.717	34.08187
910.106	4.00925
910.495	29.06903
910.885	52.12716
911.274	32.07706
911.663	33.08008
912.052	39.09147
912.441	63.15529
912.83	60.13041
913.219	50.12571
913.608	51.12055
913.997	18.04416
914.385	65.14851
914.774	26.06092
915.162	98.22476
915.55	79.18079
915.939	44.108
916.327	25.05976
916.715	77.19133
917.103	60.13888
917.491	40.0949
917.878	50.11775
918.266	4.01004
918.654	90.22188
919.041	55.14044
919.429	51.1153
919.816	43.1049
920.203	60.14097
920.591	66.15724
920.978	45.10591
921.365	62.15739
921.752	-10.02274
922.139	58.11988
922.525	37.0859
922.912	21.04923
923.299	31.07449
923.685	-24.0606
924.072	42.09028
924.458	64.15283
924.844	33.07882
925.231	32.07083
925.617	57.14117
926.003	2.00495
926.389	24.05852
926.774	64.15505
927.16	43.10255
927.546	58.14499
927.931	33.07885
928.317	79.17153
928.702	56.12606
929.088	68.15746
929.473	75.1846
929.858	68.16052
930.243	31.07251
930.628	46.10884
931.013	49.11699
931.398	54.11637
931.783	50.12553
932.167	83.19596
932.552	45.10814
932.937	19.04528
933.321	63.15317
933.705	-43.10482
934.09	30.07156
934.474	35.079
934.858	23.05796
935.242	20.04447
935.626	39.09695
936.009	31.08082
936.393	112.27551
936.777	80.19767
937.16	87.21886
937.544	-13.02917
937.927	32.07895
938.311	57.13228
938.694	75.1913
939.077	15.03467
939.46	-14.03261
939.843	19.03692
940.226	15.03708
940.609	68.15082
940.991	9.02207
941.374	38.09005
941.757	71.16678
942.139	58.12483
942.522	57.12787
942.904	68.15627
943.286	74.17941
943.668	86.21591
944.05	47.1114
944.432	57.13431
944.814	7.01651
945.196	24.05698
945.578	45.10463
945.959	28.06236
946.341	38.08785
946.722	52.116
947.104	72.16434
947.485	85.18801
947.866	56.13689
948.247	41.1008
948.628	24.05524
949.009	49.12092
949.39	38.09043
949.771	32.06958
950.152	82.19236
950.532	78.18911
950.913	80.18355
951.293	39.1031
951.674	81.18678
952.054	72.17436
952.434	51.1219
952.814	43.09686
953.194	-8.02011
953.574	63.14776
953.954	13.02944
954.334	52.12584
954.714	26.06147
955.093	85.19912
955.473	45.10965
955.853	52.1298
956.232	18.04791
956.611	31.07046
956.99	44.107
957.37	29.07088
957.749	32.0721
958.128	23.05642
958.506	64.16005
958.885	36.08725
959.264	42.10045
959.643	68.14843
960.021	55.13192
960.4	50.10803
960.778	6.01407
961.156	19.04585
961.535	28.06197
961.913	75.16818
962.291	20.05041
962.669	57.13962
963.047	78.19187
963.424	64.15923
963.802	52.12308
964.18	14.03367
964.557	105.22701
964.935	33.075
965.312	47.11887
965.69	33.07882
966.067	2.00466
966.444	14.03265
966.821	22.055
967.198	52.11926
967.575	27.06347
967.952	51.11455
968.329	28.06612
968.705	102.20733
969.082	57.14282
969.458	4.00943
969.835	37.08658
970.211	56.13994
970.587	48.11515
970.963	56.13679
971.339	26.06612
971.715	49.11788
972.091	21.04985
972.467	17.04032
972.843	48.11602
973.219	24.05485
973.594	-8.0204
973.97	46.10181
974.345	37.08552
974.721	2.00461
975.096	87.20229
975.471	57.1286
975.846	12.0276
976.221	8.01974
976.596	89.20678
976.971	93.22042
977.346	21.04657
977.72	9.0221
978.095	65.16122
978.469	43.09789
978.844	20.04825
979.218	68.1584
979.593	73.16578
979.967	-7.01619
980.341	77.16939
980.715	36.08771
981.089	23.05554
981.463	27.05952
981.837	43.10235
982.21	-3.00654
982.584	74.17142
982.957	-10.02445
983.331	47.10457
983.704	57.13614
984.078	29.06873
984.451	24.05654
984.824	27.06385
985.197	-4.00925
985.57	-5.01196
985.943	13.03039
986.316	37.0858
986.688	21.04868
987.061	67.1503
987.434	100.2526
987.806	15.03453
988.179	22.04971
988.551	38.09241
988.923	14.03309
989.295	63.14984
989.667	50.11642
990.039	39.09447
990.411	20.04347
990.783	29.06305
991.155	29.06743
991.527	26.06035
991.898	51.12274
992.27	39.09386
992.641	58.1385
993.012	12.02643
993.384	30.06836
993.755	61.15031
994.126	56.13019
994.497	11.02611
994.868	24.05221
995.239	25.05813
995.61	42.10187
995.98	16.03743
996.351	56.13408
996.722	115.2549
997.092	8.0184
997.462	24.05467
997.833	35.07877
998.203	13.02991
998.573	59.14151
998.943	60.13512
999.313	44.1018
999.683	54.12454
1000.053	-5.01082
1000.423	45.10397
1000.792	-21.05243
1001.162	8.01889
1001.531	44.10443
1001.901	17.0407
1002.27	27.05645
1002.639	-3.00738
1003.009	31.0706
1003.378	52.12815
1003.747	24.05409
1004.116	21.04827
1004.485	34.07795
1004.853	15.0362
1005.222	-11.02641
1005.591	19.04324
1005.959	73.15694
1006.328	37.07999
1006.696	-9.02093
1007.064	-9.02175
1007.433	29.06921
1007.801	3.00699
1008.169	1.00242
1008.537	73.15282
1008.905	94.20909
1009.273	43.10109
1009.64	65.15018
1010.008	55.12495
1010.375	64.14537
1010.743	21.04493
1011.11	82.18844
1011.478	34.08163
1011.845	64.14242
1012.212	86.18668
1012.579	42.09922
1012.946	13.02941
1013.313	57.12818
1013.68	75.1586
1014.047	-7.01614
1014.414	14.03177
1014.78	36.08649
1015.147	59.13442
1015.513	74.16986
1015.88	65.15797
1016.246	67.15573
1016.612	30.0651
1016.978	92.2159
1017.344	64.15166
1017.71	44.10205
1018.076	58.12885
1018.442	88.21703
1018.808	49.11887
1019.174	-15.03632
1019.539	13.02741
1019.905	21.04792
1020.27	20.04749
1020.636	77.17288
1021.001	48.1104
1021.366	53.12241
1021.731	93.23176
1022.096	9.02222
1022.461	47.10673
1022.826	98.2226
1023.191	29.07363
1023.556	36.08028
1023.92	67.1556
1024.285	63.14504
1024.649	47.10959
1025.014	15.03539
1025.378	73.17675
1025.742	12.0285
1026.107	64.13685
1026.471	45.09958
1026.835	37.08817
1027.199	6.01398
1027.562	-7.01552
1027.926	14.03278
1028.29	60.14574
1028.654	64.13922
1029.017	99.23174
1029.381	44.10108
1029.744	73.17835
1030.107	89.19949
1030.471	80.18326
1030.834	-15.03236
1031.197	82.18739
1031.56	16.03608
1031.923	41.1024
1032.286	39.0876
1032.648	16.03624
1033.011	84.18561
1033.374	38.08439
1033.736	21.05357
1034.099	46.10757
1034.461	41.10058
1034.823	38.09147
1035.185	-3.00724
1035.548	53.12411
1035.91	58.13228
1036.272	53.11561
1036.634	66.15398
1036.995	57.12655
1037.357	-5.01185
1037.719	62.14431
1038.08	66.1507
1038.442	16.03646
1038.803	-23.05261
1039.165	-4.00973
1039.526	59.13632
1039.887	34.07792
1040.248	77.1844
1040.609	49.11461
1040.97	52.12117
1041.331	62.15161
1041.692	48.10925
1042.053	6.01304
1042.413	68.14944
1042.774	49.11439
1043.134	51.11422
1043.495	6.01459
1043.855	107.2487
1044.215	-2.00477
1044.576	9.02092
1044.936	54.11702
1045.296	37.08871
1045.656	21.04902
1046.016	114.25799
1046.375	43.09994
1046.735	98.21391
1047.095	25.05617
1047.454	65.12817
1047.814	62.14237
1048.173	61.13662
1048.533	1.00221
1048.892	14.03255
1049.251	51.12172
1049.61	34.08057
1049.969	32.07201
1050.328	55.113
1050.687	-13.03042
1051.046	7.01637
1051.405	0
1051.763	34.07575
1052.122	-22.05324
1052.48	43.10148
1052.839	85.19319
1053.197	45.10107
1053.555	42.08903
1053.914	16.03756
1054.272	-15.03429
1054.63	19.04489
1054.988	39.08972
1055.345	35.07051
1055.703	34.07867
1056.061	96.2385
1056.419	54.13679
1056.776	26.05944
1057.134	16.03485
1057.491	68.16288
1057.848	43.10203
1058.206	-7.01561
1058.563	63.13107
1058.92	67.14578
1059.277	62.14613
1059.634	39.08634
1059.991	67.15333
1060.348	29.06299
1060.704	93.21548
1061.061	61.13182
1061.418	25.05841
1061.774	28.06653
1062.131	23.05988
1062.487	28.06231
1062.843	33.07906
1063.199	47.11221
1063.555	25.05613
1063.911	20.0484
1064.267	69.13292
1064.623	62.14567
1064.979	4.00876
1065.335	24.05451
1065.691	12.02722
1066.046	39.08132
1066.402	0
1066.757	41.09957
1067.112	68.15833
1067.468	35.08042
1067.823	21.04742
1068.178	22.05076
1068.533	57.13191
1068.888	63.14249
1069.243	63.14863
1069.598	34.07867
1069.952	60.13158
1070.307	29.0695
1070.662	47.10825
1071.016	25.05449
1071.371	63.13696
1071.725	38.0861
1072.079	32.07404
1072.434	50.11679
1072.788	9.02032
1073.142	76.17835
1073.496	25.05675
1073.85	34.07519
1074.203	38.08852
1074.557	34.0886
1074.911	51.11521
1075.265	14.03122
1075.618	50.11697
1075.971	22.05017
1076.325	27.06677
1076.678	-14.03095
1077.031	5.01062
1077.385	81.16731
1077.738	36.07728
1078.091	26.05721
1078.444	6.01321
1078.796	31.07364
1079.149	55.13131
1079.502	55.125
1079.855	22.0493
1080.207	84.19597
1080.56	27.0679
1080.912	20.04673
1081.264	55.12713
1081.617	52.12179
1081.969	36.08803
1082.321	37.0863
1082.673	29.06449
1083.025	-6.01365
1083.377	300.63732
1083.728	8.01783
1084.08	-29.06993
1084.432	2.00463
1084.783	24.0527
1085.135	56.13521
1085.486	4.00887
1085.838	45.1067
1086.189	57.13353
1086.54	13.02971
1086.891	91.22398
1087.242	96.22608
1087.593	10.02306
1087.944	54.11747
1088.295	39.08424
1088.646	62.14652
1088.996	32.07454
1089.347	8.01881
1089.698	30.06889
1090.048	-16.04017
1090.398	36.07915
1090.749	21.04777
1091.099	37.0908
1091.449	51.12237
1091.799	38.0914
1092.149	27.06439
1092.499	44.1029
1092.849	76.18502
1093.199	37.08824
1093.548	61.14161
1093.898	6.01445
1094.248	20.04911
1094.597	-12.03021
1094.947	46.11876
1095.296	34.08122
1095.645	-6.01509
1095.994	29.06685
1096.343	27.06577
1096.692	57.14677
1097.041	20.0535
1097.39	32.07674
1097.739	22.05525
1098.088	57.14596
1098.437	36.09288
1098.785	41.1059
1099.134	3.0076
1099.482	21.05637
1099.83	58.14672
1100.179	61.1562
1100.527	-12.03069
1100.875	2.00519
1101.223	54.13931
1101.571	-12.03229
1101.919	29.07512
1102.267	21.05815
1102.615	5.01606
1102.962	-4.01284
1103.31	4.01285
1103.658	-2.00641
