Data from N3 R3 sample 10_Subt2__2__11-07-23-811.txt Node

Date: Thu Sep 18 11:07:23 PDT 2025
User: uwsun
Spectrometer: HDX01956
Trigger mode: 0
Integration Time (sec): 5.000000E-1
Scans to average: 1
Nonlinearity correction enabled: true
Boxcar width: 0
Storing dark spectrum: false
XAxis mode: Wavelengths
Number of Pixels in Spectrum: 2068
>>>>>Begin Spectral Data<<<<<
194.03	36.10397
194.578	50.16163
195.127	45.1435
195.676	58.18533
196.225	74.1952
196.773	55.1524
197.321	84.23213
197.87	136.34805
198.418	170.43567
198.966	201.524
199.513	210.52758
200.061	148.3757
200.609	177.46381
201.156	145.31764
201.704	155.38921
202.251	141.37461
202.798	154.39812
203.345	208.50937
203.892	146.36891
204.438	180.42406
204.985	190.44779
205.532	158.4141
206.078	177.42952
206.624	223.55227
207.17	213.49369
207.716	196.47678
208.262	198.38869
208.808	184.45961
209.354	244.5933
209.899	154.38677
210.445	191.47424
210.99	197.47679
211.535	207.48282
212.08	186.42863
212.625	167.41526
213.17	203.5121
213.715	196.44428
214.259	194.44921
214.804	165.40265
215.348	195.44713
215.892	219.52484
216.436	183.41422
216.98	140.30753
217.524	230.54142
218.068	193.4827
218.612	215.53985
219.155	200.46769
219.698	229.53539
220.242	147.36153
220.785	204.4733
221.328	156.38346
221.871	225.56394
222.414	203.49464
222.956	125.29889
223.499	145.32193
224.041	123.28091
224.583	170.35454
225.126	137.29961
225.668	149.35995
226.21	183.45819
226.751	186.40943
227.293	150.33697
227.835	144.35134
228.376	165.37135
228.918	160.39474
229.459	180.44391
230	157.37454
230.541	160.36474
231.082	144.34898
231.622	108.24451
232.163	116.27954
232.704	204.50273
233.244	169.41502
233.784	144.34662
234.324	186.41355
234.864	131.29496
235.404	167.38876
235.944	159.37087
236.484	191.46991
237.023	170.39613
237.563	226.51436
238.102	177.4135
238.641	144.35944
239.18	185.42862
239.719	205.50435
240.258	157.34973
240.797	177.41788
241.335	174.41788
241.874	220.41943
242.412	198.47406
242.95	195.46465
243.488	164.36434
244.026	224.51063
244.564	195.39501
245.102	203.45275
245.64	162.38284
246.177	134.29645
246.715	189.44777
247.252	179.40071
247.789	232.41848
248.326	197.4678
248.863	203.43943
249.4	166.37261
249.936	222.45578
250.473	235.54359
251.009	176.39814
251.546	196.43162
252.082	145.3112
252.618	201.44235
253.154	149.35655
253.69	192.42405
254.226	190.44883
254.761	191.42246
255.297	196.42111
255.832	188.44135
256.367	231.53073
256.903	227.49432
257.438	162.3763
257.972	194.42542
258.507	163.37046
259.042	217.46271
259.576	246.53149
260.111	158.35975
260.645	209.44313
261.179	176.40801
261.713	212.46627
262.247	143.32474
262.781	262.5362
263.315	121.29297
263.849	143.35636
264.382	222.49932
264.915	189.44171
265.449	177.42726
265.982	213.47486
266.515	209.50412
267.048	231.47865
267.58	186.39549
268.113	166.35589
268.646	181.43724
269.178	141.31383
269.71	247.53308
270.243	249.56314
270.775	223.56195
271.307	206.48096
271.838	210.48683
272.37	193.46605
272.902	145.32674
273.433	241.52213
273.965	180.43212
274.496	222.53921
275.027	231.56348
275.558	229.54796
276.089	197.48557
276.62	175.4361
277.15	162.39482
277.681	182.38665
278.211	199.47764
278.741	222.48374
279.272	186.42076
279.802	201.49214
280.332	177.41383
280.861	201.47288
281.391	192.43061
281.921	157.37239
282.45	220.53495
282.98	223.57037
283.509	265.58686
284.038	232.5201
284.567	216.49438
285.096	244.57883
285.625	129.28998
286.153	230.53931
286.682	250.56091
287.21	191.44848
287.739	185.43202
288.267	273.64674
288.795	206.52958
289.323	246.56485
289.851	201.46661
290.378	200.43914
290.906	206.49697
291.433	214.52465
291.961	233.52202
292.488	228.5544
293.015	247.57044
293.542	274.6866
294.069	273.65896
294.596	175.42339
295.122	214.50552
295.649	233.49898
296.175	252.59181
296.702	258.61628
297.228	249.58534
297.754	223.49283
298.28	258.57981
298.806	199.47346
299.332	231.50773
299.857	292.64328
300.383	225.55559
300.908	244.58797
301.433	301.71527
301.958	245.54936
302.483	211.5149
303.008	256.62271
303.533	218.55298
304.058	205.471
304.582	232.53825
305.107	217.55581
305.631	261.57704
306.155	211.48478
306.679	247.56908
307.203	245.55726
307.727	251.58198
308.251	226.54831
308.775	305.71975
309.298	246.58133
309.822	273.66815
310.345	294.68261
310.868	291.68219
311.391	264.63495
311.914	267.65323
312.437	316.69789
312.96	264.60763
313.482	218.50457
314.005	221.54271
314.527	271.68703
315.049	303.74431
315.571	304.66353
316.093	305.73257
316.615	257.60296
317.137	320.67328
317.659	355.82535
318.18	237.55431
318.702	330.74646
319.223	283.56067
319.744	279.61245
320.265	276.6565
320.786	318.77001
321.307	320.76464
321.828	303.66317
322.348	353.79831
322.869	343.78769
323.389	603.06337
323.909	299.66325
324.43	315.72861
324.95	357.78464
325.47	391.92692
325.989	334.76534
326.509	358.77046
327.029	365.8002
327.548	369.80112
328.067	371.86424
328.587	382.91832
329.106	375.8079
329.625	386.96192
330.144	411.90937
330.662	413.92293
331.181	439.98062
331.7	312.70345
332.218	413.85076
332.736	406.90561
333.255	474.04738
333.773	405.91103
334.291	432.02446
334.808	475.00296
335.326	463.97776
335.844	473.04539
336.361	489.18367
336.879	443.98791
337.396	478.09443
337.913	519.1152
338.43	530.10732
338.947	490.09677
339.464	504.01145
339.981	415.93734
340.497	485.1187
341.014	504.14852
341.53	504.05942
342.046	575.32766
342.562	532.23385
343.078	488.07658
343.594	514.13923
344.11	573.26572
344.626	543.27502
345.141	557.17643
345.657	622.28033
346.172	555.2402
346.687	532.13262
347.202	572.20367
347.717	558.23075
348.232	621.41578
348.747	624.31325
349.261	577.16384
349.776	625.35656
350.29	591.36464
350.805	592.34607
351.319	617.30847
351.833	622.30617
352.347	666.42264
352.861	662.40615
353.374	612.26932
353.888	685.51341
354.401	636.31388
354.915	649.32909
355.428	665.50521
355.941	663.39574
356.454	680.35718
356.967	610.30007
357.48	641.31683
357.993	731.60772
358.505	656.44717
359.018	737.61347
359.53	763.65569
360.042	722.4398
360.554	785.70057
361.066	725.57784
361.578	761.48291
362.09	735.55901
362.602	785.53627
363.113	796.64852
363.625	759.52384
364.136	774.49222
364.647	781.63579
365.158	803.63896
365.669	785.65358
366.18	801.65482
366.691	773.48636
367.201	807.69848
367.712	821.64015
368.222	871.73132
368.733	842.58085
369.243	794.55574
369.753	867.72496
370.263	908.88653
370.773	838.78036
371.282	903.85492
371.792	935.84404
372.301	900.87072
372.811	908.06556
373.32	986.77926
373.829	961.91751
374.338	1024.88371
374.847	1031.97764
375.356	1083.099
375.865	1088.89208
376.373	1114.05751
376.882	1164.40748
377.39	1213.34265
377.898	1199.37383
378.407	1268.24906
378.915	1388.28141
379.423	1404.4735
379.93	1496.57395
380.438	1440.61589
380.946	1546.62691
381.453	1616.80514
381.96	1696.8653
382.468	1823.91573
382.975	1961.19443
383.482	1940.80517
383.989	2038.47526
384.495	2110.07779
385.002	2186.66686
385.509	2346.29603
386.015	2462.62275
386.521	2611.1304
387.028	2673.12661
387.534	2701.82657
388.04	2888.46809
388.546	2964.97809
389.051	3031.95278
389.557	3354.1796
390.063	3522.97808
390.568	3688.32197
391.073	3709.80334
391.578	3964.3249
392.084	4063.79532
392.589	4111.45203
393.093	4478.91893
393.598	4937.37905
394.103	5406.35722
394.607	5920.18911
395.112	6349.17609
395.616	6754.01232
396.12	7242.71639
396.624	8106.33486
397.128	8607.95026
397.632	9638.81265
398.136	10485.34843
398.639	11150.87264
399.143	12285.21163
399.646	13871.54775
400.15	15392.572
400.653	17136.17955
401.156	19509.22354
401.659	22559.75379
402.162	27821.46852
402.664	36636.16765
403.167	51849.28199
403.67	62009.44784
404.172	63919.58413
404.674	63858.43483
405.176	63738.15102
405.678	63977.72923
406.18	64011.81569
406.682	63863.44694
407.184	63926.60148
407.686	63841.39382
408.187	64025.8516
408.688	63892.51763
409.19	63833.37461
409.691	52353.6597
410.192	44264.77533
410.693	38279.36823
411.194	34461.06656
411.694	32752.60248
412.195	30161.97714
412.696	27245.94292
413.196	25391.09178
413.696	24679.83312
414.196	25304.70694
414.696	24949.73038
415.196	23458.09432
415.696	21638.69764
416.196	16969.67958
416.695	13167.32946
417.195	11260.2594
417.694	10722.58057
418.194	10262.80283
418.693	9543.58426
419.192	9161.78194
419.691	8980.43215
420.19	8827.24723
420.688	8605.99712
421.187	8195.03701
421.685	7647.95159
422.184	6928.83362
422.682	5938.53823
423.18	5089.28444
423.678	4524.55642
424.176	4237.69523
424.674	3977.65505
425.172	3825.07016
425.669	3563.44057
426.167	3431.11457
426.664	2989.05477
427.161	2785.12834
427.659	2646.40724
428.156	2537.73188
428.652	2300.49247
429.149	2229.26222
429.646	2173.8466
430.143	2007.07237
430.639	1929.97061
431.135	1807.09984
431.632	1780.71989
432.128	1598.74188
432.624	1565.97425
433.12	1489.45872
433.616	1431.28091
434.111	1403.4928
434.607	1310.4052
435.103	1218.94187
435.598	1294.00212
436.093	1206.19377
436.588	1171.0619
437.083	1056.90492
437.578	1077.00823
438.073	1016.10663
438.568	986.01714
439.062	962.68203
439.557	926.80793
440.051	884.66555
440.546	864.65566
441.04	854.74749
441.534	833.80614
442.028	852.74968
442.522	838.71859
443.015	791.44231
443.509	784.65039
444.002	765.62763
444.496	733.37282
444.989	725.54045
445.482	739.60086
445.975	772.53893
446.468	741.38236
446.961	702.32663
447.454	718.39933
447.947	660.39642
448.439	729.56575
448.931	713.42808
449.424	692.5597
449.916	651.41246
450.408	636.2898
450.9	629.36352
451.392	651.47469
451.884	624.27465
452.375	538.21229
452.867	594.19187
453.358	579.19035
453.849	553.06168
454.341	564.14513
454.832	500.98388
455.323	583.31034
455.814	537.1113
456.304	586.21478
456.795	496.03387
457.285	520.03641
457.776	547.12445
458.266	528.13822
458.756	470.01991
459.247	509.11056
459.737	531.16793
460.226	574.17342
460.716	548.18494
461.206	468.02936
461.695	431.99012
462.185	497.07793
462.674	466.97913
463.163	484.9932
463.653	510.98373
464.142	428.96374
464.63	429.965
465.119	401.86947
465.608	437.94792
466.096	408.82137
466.585	376.80397
467.073	357.79222
467.561	422.94012
468.05	361.78042
468.538	424.96215
469.026	372.82704
469.513	352.69656
470.001	387.83017
470.489	377.83972
470.976	372.81502
471.463	361.84591
471.951	348.81562
472.438	295.65955
472.925	381.83914
473.412	290.67066
473.899	329.71277
474.385	302.7034
474.872	299.66298
475.359	364.84142
475.845	297.58345
476.331	275.55834
476.817	277.64429
477.303	296.65455
477.789	268.61068
478.275	282.66845
478.761	224.51331
479.247	269.57333
479.732	279.66555
480.218	265.66657
480.703	263.62089
481.188	257.53299
481.673	276.60599
482.158	231.48122
482.643	285.6957
483.128	273.60886
483.612	259.5922
484.097	236.54796
484.581	190.42735
485.066	266.62444
485.55	216.46208
486.034	213.44668
486.518	296.67501
487.002	172.40773
487.486	184.43449
487.969	193.45547
488.453	129.31551
488.936	239.51758
489.42	218.46595
489.903	187.45242
490.386	134.2725
490.869	219.46373
491.352	169.39667
491.835	195.38687
492.318	150.33033
492.8	200.40152
493.283	188.46688
493.765	144.34623
494.247	196.44284
494.73	206.44164
495.212	150.34816
495.694	199.45539
496.175	155.36481
496.657	214.4902
497.139	152.25511
497.62	160.3765
498.102	145.35411
498.583	114.27597
499.064	135.29598
499.545	129.28938
500.026	187.41172
500.507	107.24348
500.988	174.42438
501.469	100.24635
501.949	143.34637
502.43	145.343
502.91	170.35233
503.39	107.2619
503.87	176.40591
504.35	124.28565
504.83	104.22508
505.31	151.3565
505.79	137.31805
506.269	112.25378
506.749	116.26156
507.228	151.34847
507.707	123.2707
508.187	197.45733
508.666	160.38805
509.145	123.28351
509.623	172.39305
510.102	171.40387
510.581	163.38468
511.059	129.31972
511.538	129.3273
512.016	187.43635
512.494	159.37393
512.972	162.37957
513.45	159.36312
513.928	179.42457
514.406	231.54726
514.884	193.48462
515.361	168.39302
515.839	221.49228
516.316	209.49285
516.793	191.46939
517.27	190.44465
517.747	193.48235
518.224	217.48357
518.701	204.43697
519.178	220.53335
519.654	197.45335
520.131	171.41402
520.607	134.32206
521.083	161.35685
521.56	163.37586
522.036	178.37765
522.512	194.46626
522.987	247.57316
523.463	157.36462
523.939	224.53835
524.414	165.36922
524.89	196.45492
525.365	137.30442
525.84	175.41091
526.315	129.30798
526.79	205.4485
527.265	209.46845
527.74	85.20496
528.215	120.27621
528.689	147.31617
529.164	129.27244
529.638	89.22381
530.112	111.2581
530.587	176.36738
531.061	113.27041
531.534	150.35476
532.008	132.31629
532.482	173.3884
532.956	115.28981
533.429	195.46465
533.903	136.29321
534.376	131.28528
534.849	95.2167
535.322	153.35406
535.795	102.24394
536.268	138.32878
536.741	84.19821
537.213	134.30325
537.686	142.34168
538.158	166.36955
538.631	104.24949
539.103	66.14894
539.575	141.28523
540.047	139.29807
540.519	114.26931
540.991	153.36612
541.463	132.31279
541.934	132.29386
542.406	156.3678
542.877	126.28062
543.348	141.33509
543.82	149.35587
544.291	192.43663
544.762	146.34182
545.233	177.43884
545.703	192.41607
546.174	153.34844
546.645	190.44848
547.115	170.4019
547.585	180.40436
548.056	210.50241
548.526	209.48249
548.996	160.37533
549.466	218.51417
549.935	241.55658
550.405	219.46636
550.875	189.43824
551.344	235.54186
551.814	290.63512
552.283	325.6719
552.752	301.6738
553.221	287.60611
553.69	356.75891
554.159	359.84583
554.628	337.72386
555.096	351.84718
555.565	320.6715
556.033	394.88139
556.502	355.8097
556.97	374.781
557.438	375.82766
557.906	419.92126
558.374	433.93244
558.842	437.97293
559.31	485.99412
559.777	476.07238
560.245	488.02347
560.712	526.09215
561.18	570.12994
561.647	614.20654
562.114	665.34041
562.581	669.45833
563.048	688.37826
563.514	782.70306
563.981	759.49582
564.448	851.6162
564.914	854.6719
565.381	976.82215
565.847	963.84347
566.313	1005.89534
566.779	1131.99244
567.245	1065.97446
567.711	1207.25139
568.176	1209.07838
568.642	1235.43957
569.108	1297.44827
569.573	1399.37883
570.038	1404.08574
570.504	1532.43709
570.969	1525.74945
571.434	1562.40681
571.899	1708.76434
572.363	1698.63243
572.828	1804.72338
573.293	1756.67492
573.757	1928.84869
574.222	1980.73402
574.686	1996.85267
575.15	1940.01379
575.614	2043.99749
576.078	1971.92291
576.542	2048.84084
577.006	2026.79371
577.469	2072.20016
577.933	2028.83192
578.396	1941.94633
578.86	1942.91607
579.323	1956.03034
579.786	2000.61459
580.249	1960.93661
580.712	1902.02672
581.175	1843.03965
581.637	1774.67116
582.1	1807.5229
582.563	1809.43232
583.025	1734.89253
583.487	1767.30238
583.95	1678.37898
584.412	1663.30391
584.874	1620.79307
585.336	1590.66052
585.797	1597.36942
586.259	1506.52852
586.721	1458.48835
587.182	1458.43024
587.643	1436.36346
588.105	1406.45402
588.566	1397.07461
589.027	1430.60287
589.488	1408.36677
589.949	1410.54961
590.41	1415.9541
590.87	1383.33265
591.331	1406.21859
591.791	1369.3524
592.252	1413.41945
592.712	1374.46296
593.172	1380.31067
593.632	1376.23916
594.092	1433.30091
594.552	1465.24607
595.011	1432.38403
595.471	1518.43784
595.931	1549.45255
596.39	1457.56535
596.849	1566.57201
597.308	1552.26528
597.768	1626.02359
598.227	1651.76561
598.685	1741.64325
599.144	1806.82612
599.603	1864.83349
600.062	1923.46566
600.52	2092.82697
600.978	2078.01554
601.437	2192.89776
601.895	2268.66351
602.353	2380.79925
602.811	2453.94604
603.269	2550.23916
603.727	2748.33074
604.184	2840.043
604.642	2994.49584
605.099	3087.17532
605.557	3148.41991
606.014	3262.66819
606.471	3413.60814
606.928	3636.73565
607.385	3754.5149
607.842	3831.85446
608.299	3904.95105
608.755	4038.14934
609.212	4259.46658
609.668	4361.48802
610.125	4464.89962
610.581	4562.64016
611.037	4612.29529
611.493	4613.5768
611.949	4757.82621
612.405	4844.57756
612.861	4817.35405
613.316	4896.61237
613.772	4978.23672
614.227	4914.6291
614.683	4923.75786
615.138	5081.34452
615.593	5126.24337
616.048	5135.13727
616.503	4947.67957
616.958	4982.91343
617.412	5024.4682
617.867	4958.08509
618.321	4855.6322
618.776	4779.07658
619.23	4803.48738
619.684	4670.22003
620.138	4659.39735
620.592	4644.83785
621.046	4610.66054
621.5	4399.90722
621.954	4244.3911
622.407	4120.45568
622.861	4063.13544
623.314	4057.63892
623.768	3886.01213
624.221	3881.89651
624.674	3741.91516
625.127	3621.99924
625.58	3603.77686
626.033	3549.63248
626.485	3422.24576
626.938	3340.23446
627.39	3273.12897
627.843	3239.0442
628.295	3105.06527
628.747	3021.28012
629.199	2970.00376
629.651	2814.04718
630.103	2837.04988
630.555	2791.60032
631.006	2640.10656
631.458	2620.16919
631.909	2491.8855
632.361	2487.0347
632.812	2405.03187
633.263	2366.71261
633.714	2318.5891
634.165	2185.11615
634.616	2145.02778
635.067	2062.673
635.518	2071.00062
635.968	2017.21595
636.419	2005.61524
636.869	1987.94531
637.319	1880.78988
637.769	1834.63307
638.219	1759.76505
638.669	1691.73732
639.119	1652.72636
639.569	1645.73027
640.019	1705.64112
640.468	1607.4532
640.918	1511.55679
641.367	1512.36561
641.816	1528.35663
642.265	1521.51333
642.714	1460.39401
643.163	1428.38896
643.612	1407.55892
644.061	1365.0951
644.51	1341.27114
644.958	1349.16994
645.406	1272.3131
645.855	1317.41629
646.303	1208.1378
646.751	1302.25505
647.199	1241.12461
647.647	1237.18764
648.095	1180.06758
648.543	1240.83986
648.99	1175.20337
649.438	1078.97338
649.885	1125.23637
650.333	1156.66265
650.78	1110.12954
651.227	1126.18615
651.674	1090.95842
652.121	1099.1543
652.568	1004.00786
653.015	990.00804
653.461	989.91425
653.908	1009.86209
654.354	1029.97569
654.801	905.75728
655.247	967.67885
655.693	921.01384
656.139	906.79471
656.585	907.79795
657.031	935.80787
657.477	929.64845
657.922	880.65475
658.368	887.82693
658.813	828.57664
659.259	875.77962
659.704	898.76974
660.149	767.50665
660.594	842.68176
661.039	839.59878
661.484	796.60226
661.929	761.52014
662.373	721.57709
662.818	732.57051
663.262	764.58712
663.707	786.72334
664.151	733.54666
664.595	751.56459
665.039	675.47142
665.483	750.65608
665.927	742.49481
666.371	787.57577
666.814	712.46453
667.258	729.52005
667.701	743.33957
668.145	753.61942
668.588	716.54473
669.031	671.3773
669.474	667.4011
669.917	699.31418
670.36	704.53502
670.803	728.52166
671.245	633.11815
671.688	684.4542
672.13	696.35895
672.573	623.39863
673.015	720.50359
673.457	665.25076
673.899	662.40432
674.341	668.40844
674.783	652.37166
675.225	701.50427
675.666	699.4916
676.108	648.21364
676.549	656.33406
676.991	667.26499
677.432	771.26723
677.873	636.26982
678.314	711.46345
678.755	689.48484
679.196	667.32411
679.637	652.36745
680.078	702.41671
680.518	688.36491
680.959	731.49725
681.399	743.58763
681.839	732.53273
682.28	718.55037
682.72	710.39486
683.16	772.65498
683.6	745.44275
684.039	770.32296
684.479	706.51663
684.919	759.52454
685.358	726.56565
685.798	726.64902
686.237	714.46931
686.676	780.48654
687.115	822.62812
687.554	794.61215
687.993	743.39226
688.432	825.5713
688.871	865.64204
689.309	860.7241
689.748	850.44057
690.186	843.6445
690.625	875.70459
691.063	823.65174
691.501	862.7901
691.939	885.86927
692.377	891.79412
692.815	953.91382
693.253	950.84435
693.69	867.5533
694.128	964.9124
694.565	906.76716
695.003	919.95972
695.44	972.86743
695.877	946.81392
696.314	909.53463
696.751	1017.8274
697.188	1018.88294
697.625	960.72166
698.061	995.92405
698.498	967.85114
698.934	958.86343
699.371	974.85335
699.807	989.88058
700.243	958.88549
700.679	1007.77524
701.115	1047.93333
701.551	1021.88709
701.987	959.66755
702.422	1068.01934
702.858	1044.98486
703.294	1096.95819
703.729	1062.05577
704.164	1034.96962
704.599	1048.83285
705.035	1059.85651
705.47	1003.96539
705.904	983.82575
706.339	1116.98278
706.774	1048.9424
707.209	1065.95197
707.643	1044.9887
708.078	1048.03342
708.512	1069.14547
708.946	1077.00626
709.38	1040.96577
709.814	1078.89732
710.248	1068.0782
710.682	1105.08391
711.116	1039.02594
711.549	953.0034
711.983	1048.9068
712.416	1084.02282
712.85	1037.06016
713.283	1021.92087
713.716	1009.01835
714.149	908.71252
714.582	1034.82344
715.015	956.91149
715.448	961.98565
715.881	965.63389
716.313	966.81588
716.746	924.78444
717.178	941.84462
717.61	955.99874
718.043	929.88355
718.475	937.85835
718.907	888.84086
719.339	931.70245
719.77	873.73047
720.202	895.85909
720.634	908.83885
721.065	897.73015
721.497	883.7902
721.928	820.68164
722.359	908.82044
722.79	839.67305
723.221	847.75775
723.652	858.82682
724.083	886.61796
724.514	868.63455
724.945	788.54615
725.375	834.61807
725.806	783.63277
726.236	814.76081
726.666	774.53507
727.096	846.72409
727.526	811.77557
727.956	829.56671
728.386	826.69472
728.816	827.79008
729.246	828.71562
729.675	710.48531
730.105	746.55244
730.534	776.51541
730.964	738.57388
731.393	776.60635
731.822	741.627
732.251	791.70411
732.68	733.43233
733.109	775.62036
733.537	734.53489
733.966	741.58472
734.395	728.4249
734.823	707.31686
735.251	669.38616
735.68	709.49923
736.108	644.40289
736.536	713.4182
736.964	698.37705
737.392	668.44785
737.82	624.29425
738.247	672.37595
738.675	648.31178
739.102	588.29322
739.53	660.4851
739.957	641.45789
740.384	602.26578
740.811	570.25253
741.238	624.33858
741.665	653.32644
742.092	492.00506
742.519	584.28064
742.945	612.30321
743.372	601.31437
743.798	539.2321
744.225	526.10235
744.651	512.14609
745.077	546.20977
745.503	474.02686
745.929	634.33725
746.355	494.07437
746.781	489.07676
747.207	505.07108
747.632	537.19004
748.058	517.16894
748.483	496.0137
748.908	481.07991
749.334	478.06195
749.759	511.08619
750.184	432.94765
750.609	451.99993
751.033	470.98188
751.458	459.91404
751.883	452.00409
752.307	408.87427
752.732	453.0543
753.156	400.90108
753.58	431.91856
754.005	370.85529
754.429	406.879
754.853	372.85513
755.277	383.83399
755.7	402.91372
756.124	338.78009
756.548	321.70256
756.971	415.92281
757.394	317.75559
757.818	371.88562
758.241	338.79899
758.664	346.8103
759.087	363.7508
759.51	311.71365
759.933	298.67381
760.356	392.93305
760.778	343.78012
761.201	341.76018
761.623	357.77936
762.046	317.68414
762.468	331.73178
762.89	315.71297
763.312	316.72003
763.734	270.61076
764.156	277.64149
764.578	253.539
765	317.7175
765.421	248.59919
765.843	302.74007
766.264	219.48904
766.686	256.59651
767.107	227.51987
767.528	255.6197
767.949	249.59581
768.37	261.60947
768.791	207.4695
769.212	198.47623
769.632	220.48772
770.053	174.43526
770.473	208.47435
770.894	173.40543
771.314	204.45451
771.734	195.43059
772.154	190.46167
772.575	186.40599
772.994	203.43361
773.414	214.47956
773.834	146.34864
774.254	188.43583
774.673	208.48315
775.093	194.46023
775.512	143.33945
775.931	208.50123
776.351	195.46323
776.77	174.40833
777.189	158.35859
777.607	160.3914
778.026	164.39072
778.445	136.33281
778.864	135.32834
779.282	124.28348
779.701	122.29467
780.119	160.38863
780.537	111.26633
780.955	144.34859
781.373	136.32215
781.791	179.38632
782.209	174.37094
782.627	84.21505
783.045	106.23137
783.462	154.37658
783.88	119.29763
784.297	138.33331
784.715	128.31823
785.132	107.24771
785.549	86.20795
785.966	114.27639
786.383	135.32046
786.8	184.40367
787.217	176.40041
787.633	141.34114
788.05	76.17045
788.466	127.28208
788.883	116.28798
789.299	111.25289
789.715	124.29054
790.131	85.20449
790.547	134.31974
790.963	114.27139
791.379	92.22498
791.795	58.12655
792.21	106.23598
792.626	82.18588
793.041	129.30409
793.457	93.21991
793.872	57.12855
794.287	130.30209
794.702	77.18003
795.117	121.2901
795.532	124.30097
795.947	98.22296
796.362	101.22601
796.776	116.25385
797.191	103.24299
797.605	78.17925
798.02	82.19213
798.434	146.30773
798.848	131.31336
799.262	77.18468
799.676	126.29373
800.09	90.21302
800.504	73.17001
800.918	39.0867
801.331	1.00251
801.745	69.15166
802.158	54.12959
802.572	98.22809
802.985	80.18414
803.398	85.19413
803.811	43.10502
804.224	47.11183
804.637	18.04199
805.05	60.13291
805.462	68.1602
805.875	48.12146
806.288	55.1294
806.7	22.05328
807.112	59.13056
807.525	51.11971
807.937	46.11064
808.349	81.19391
808.761	71.16925
809.173	87.20365
809.584	116.27222
809.996	-11.02634
810.408	58.14698
810.819	59.13415
811.231	85.22016
811.642	155.36679
812.053	99.23219
812.464	119.2686
812.875	104.25677
813.286	83.2082
813.697	48.10531
814.108	53.1244
814.519	108.23144
814.929	62.15229
815.34	22.05127
815.75	49.12189
816.16	53.12591
816.571	21.05296
816.981	34.07666
817.391	78.17896
817.801	51.12316
818.211	53.12148
818.62	32.07516
819.03	71.16691
819.44	34.08469
819.849	30.07254
820.259	54.1321
820.668	72.17134
821.077	75.18125
821.486	12.0277
821.895	7.01657
822.304	41.10528
822.713	71.16039
823.122	75.17961
823.531	-8.0182
823.939	70.16492
824.348	22.05153
824.756	28.06763
825.164	46.11132
825.573	47.11419
825.981	41.0977
826.389	69.1665
826.797	74.18183
827.205	36.08048
827.612	62.14641
828.02	-10.02276
828.428	5.0124
828.835	38.0979
829.243	39.089
829.65	53.12838
830.057	-9.02118
830.464	49.11681
830.871	84.19343
831.278	29.06791
831.685	12.02578
832.092	36.08429
832.499	94.19656
832.905	24.05854
833.312	35.07531
833.718	50.12122
834.124	94.20518
834.531	50.12036
834.937	87.21524
835.343	73.16726
835.749	35.07755
836.155	66.16683
836.561	79.18666
836.966	60.14048
837.372	18.04426
837.777	45.10875
838.183	66.1393
838.588	34.08231
838.993	57.13364
839.399	33.07846
839.804	14.03321
840.209	60.14928
840.613	21.04497
841.018	32.07802
841.423	25.06233
841.828	1.00248
842.232	25.05884
842.637	92.20956
843.041	22.0551
843.445	-14.03401
843.849	21.05066
844.253	52.11835
844.657	26.06396
845.061	55.12201
845.465	52.12098
845.869	84.18615
846.272	38.08991
846.676	49.11186
847.079	55.13617
847.483	68.16244
847.886	45.10439
848.289	48.12589
848.692	2.00489
849.095	72.1648
849.498	11.02665
849.901	10.02198
850.304	47.1079
850.707	15.037
851.109	48.11646
851.512	44.10463
851.914	9.02224
852.316	53.13088
852.718	29.07467
853.121	24.05698
853.523	11.0247
853.925	32.08193
854.326	98.23599
854.728	30.0751
855.13	21.05321
855.531	68.15621
855.933	67.1524
856.334	43.10447
856.736	69.14918
857.137	41.09266
857.538	41.10043
857.939	62.14964
858.34	-13.0305
858.741	53.13333
859.142	28.06455
859.542	50.12864
859.943	39.09351
860.343	35.08443
860.744	52.12198
861.144	72.17002
861.544	48.11278
861.945	18.04446
862.345	13.03065
862.745	38.09196
863.145	45.10128
863.544	52.12716
863.944	104.23325
864.344	37.08746
864.743	48.11449
865.143	85.21152
865.542	7.01549
865.941	67.1599
866.34	24.05474
866.74	50.13011
867.139	52.12151
867.537	28.06827
867.936	79.18268
868.335	28.0688
868.734	38.09413
869.132	12.02658
869.531	38.08736
869.929	38.08372
870.327	46.10605
870.726	17.0406
871.124	57.12645
871.522	18.04431
871.92	100.23513
872.318	11.02585
872.715	53.12411
873.113	34.07942
873.511	25.06003
873.908	38.09441
874.306	72.17338
874.703	32.07653
875.1	17.04153
875.497	38.08733
875.894	99.236
876.291	29.06892
876.688	37.09248
877.085	46.10525
877.482	53.1276
877.878	93.21659
878.275	23.0568
878.671	22.04551
879.068	47.10898
879.464	68.15727
879.86	27.06156
880.256	8.01881
880.652	24.0591
881.048	15.03558
881.444	26.05872
881.84	41.10043
882.236	37.08969
882.631	46.10934
883.027	72.16593
883.422	62.15145
883.817	4.00985
884.213	58.14341
884.608	106.25341
885.003	47.1079
885.398	5.01217
885.793	14.0339
886.188	-6.01448
886.582	82.19948
886.977	77.17302
887.371	22.05346
887.766	-8.0195
888.16	11.02612
888.554	41.09688
888.949	69.16606
889.343	46.1074
889.737	24.0628
890.131	50.12081
890.525	71.17572
890.918	23.05596
891.312	37.0842
891.706	33.08364
892.099	82.1991
892.492	89.18012
892.886	41.09631
893.279	37.0908
893.672	43.10646
894.065	63.15168
894.458	27.06493
894.851	44.1029
895.244	34.08388
895.637	73.16873
896.029	79.18594
896.422	-22.05167
896.814	13.03119
897.206	90.20724
897.599	91.21435
897.991	48.11234
898.383	69.15619
898.775	95.20591
899.167	66.14955
899.559	57.13739
899.951	51.11403
900.342	23.05602
900.734	21.05174
901.125	19.04802
901.517	48.11357
901.908	33.07491
902.299	55.1296
902.69	91.20632
903.082	76.17584
903.473	55.12854
903.863	18.04423
904.254	132.29252
904.645	27.06394
905.036	91.21468
905.426	35.0756
905.817	-1.00236
906.207	-54.12449
906.597	56.12684
906.987	53.13117
907.378	15.037
907.768	53.13581
908.158	16.03762
908.547	67.16903
908.937	7.01721
909.327	68.15758
909.717	26.0627
910.106	40.09189
910.495	49.11618
910.885	41.10047
911.274	38.0914
911.663	12.02924
912.052	54.12628
912.441	54.13333
912.83	46.10028
913.219	33.08322
913.608	80.18803
913.997	-15.03703
914.385	73.16652
914.774	41.09579
915.162	90.20675
915.55	9.02089
915.939	34.08361
916.327	45.10715
916.715	82.20357
917.103	56.12972
917.491	55.13011
917.878	63.14799
918.266	8.02006
918.654	78.19272
919.041	66.1682
919.429	47.10634
919.816	40.09763
920.203	51.12004
920.591	73.17369
920.978	75.17549
921.365	20.05115
921.752	15.03394
922.139	53.10967
922.525	36.08359
922.912	39.09111
923.299	32.07688
923.685	0
924.072	11.0238
924.458	68.16226
924.844	20.04789
925.231	-2.00446
925.617	34.08456
926.003	26.06405
926.389	37.08999
926.774	27.06587
927.16	38.09071
927.546	74.18445
927.931	42.10018
928.317	52.11355
928.702	47.106
929.088	66.15289
929.473	77.18945
929.858	41.09729
930.243	37.08644
930.628	24.05703
931.013	87.2062
931.398	1.00218
931.783	34.08561
932.167	95.22377
932.552	57.13666
932.937	75.1768
933.321	49.11945
933.705	-11.02665
934.09	-12.02885
934.474	22.04979
934.858	40.1005
935.242	50.11048
935.626	30.0747
936.009	73.18895
936.393	86.21257
936.777	40.09956
937.16	43.10902
937.544	71.15659
937.927	53.13026
938.311	54.12539
938.694	60.15345
939.077	39.08972
939.46	22.05088
939.843	17.03305
940.226	72.17613
940.609	47.1047
940.991	10.02452
941.374	54.12757
941.757	85.19912
942.139	86.18398
942.522	62.13894
942.904	50.11532
943.286	20.04898
943.668	62.15633
944.05	89.20923
944.432	33.07812
944.814	13.03062
945.196	8.01905
945.578	77.17791
945.959	29.06457
946.341	41.09473
946.722	33.07391
947.104	56.12823
947.485	54.12022
947.866	78.18989
948.247	81.19767
948.628	-10.02317
949.009	10.02485
949.39	22.05252
949.771	8.01748
950.152	7.01666
950.532	67.16277
950.913	36.08333
951.293	46.12146
951.674	19.04435
952.054	52.1264
952.434	60.14317
952.814	46.10355
953.194	23.05749
953.574	58.13617
953.954	17.03847
954.334	26.06323
954.714	59.13859
955.093	103.24044
955.473	33.08059
955.853	28.0702
956.232	17.04526
956.611	46.10423
956.99	32.07799
957.37	19.04652
957.749	19.04292
958.128	70.17022
958.506	27.06797
958.885	18.04377
959.264	43.10282
959.643	44.09653
960.021	35.08427
960.4	47.10161
960.778	11.02577
961.156	42.10091
961.535	44.09706
961.913	68.1527
962.291	60.15015
962.669	44.10804
963.047	70.17245
963.424	58.14446
963.802	29.06895
964.18	56.13362
964.557	31.06808
964.935	74.16679
965.312	71.1788
965.69	23.05504
966.067	8.0186
966.444	-13.03048
966.821	52.12928
967.198	37.08512
967.575	59.13784
967.952	83.1852
968.329	80.18701
968.705	89.18144
969.082	84.20945
969.458	54.12608
969.835	9.02117
970.211	58.14488
970.587	62.14834
970.963	11.02709
971.339	14.03568
971.715	59.14167
972.091	31.07345
972.467	17.04032
972.843	26.06311
973.219	58.13163
973.594	18.04569
973.97	36.07984
974.345	73.16753
974.721	43.09824
975.096	66.1541
975.471	55.12414
975.846	35.08013
976.221	37.0908
976.596	62.14482
976.971	66.15724
977.346	58.12762
977.72	-2.00492
978.095	14.03505
978.469	48.10916
978.844	73.17435
979.218	37.08671
979.593	59.13437
979.967	-11.02547
980.341	74.16289
980.715	66.15989
981.089	55.13202
981.463	40.08794
981.837	12.02873
982.21	49.10571
982.584	55.12789
982.957	24.0583
983.331	-2.00449
983.704	52.12432
984.078	35.08286
984.451	-4.00948
984.824	27.06385
985.197	48.10987
985.57	27.06419
985.943	32.07454
986.316	21.04885
986.688	51.11751
987.061	60.13479
987.434	86.21778
987.806	33.0757
988.179	27.06094
988.551	65.15726
988.923	25.05896
989.295	79.18731
989.667	25.0585
990.039	54.13043
990.411	39.08443
990.783	58.12531
991.155	16.0373
991.527	34.07879
991.898	53.12751
992.27	49.1177
992.641	53.12668
993.012	20.04397
993.384	24.05476
993.755	42.10385
994.126	79.18282
994.497	22.05211
994.868	25.05437
995.239	75.17267
995.61	25.06083
995.98	-5.01175
996.351	46.11035
996.722	48.10788
997.092	8.0184
997.462	52.11778
997.833	27.06087
998.203	8.01842
998.573	36.08672
998.943	69.15511
999.313	32.07422
999.683	9.02094
1000.053	1.00216
1000.423	54.12454
1000.792	-27.06748
1001.162	19.04477
1001.531	71.16763
1001.901	9.02158
1002.27	5.0105
1002.639	8.01964
1003.009	56.12689
1003.378	28.06931
1003.747	21.04736
1004.116	8.01844
1004.485	60.13684
1004.853	-17.04127
1005.222	-50.12095
1005.591	71.15986
1005.959	54.11657
1006.328	75.16083
1006.696	21.04854
1007.064	16.03849
1007.433	52.12356
1007.801	5.01164
1008.169	51.12223
1008.537	103.21419
1008.905	39.08774
1009.273	3.00711
1009.64	56.12962
1010.008	40.09115
1010.375	20.04583
1010.743	10.02145
1011.11	87.19973
1011.478	43.10306
1011.845	48.10717
1012.212	111.23967
1012.579	77.18067
1012.946	28.06316
1013.313	67.15036
1013.68	44.09368
1014.047	45.10265
1014.414	44.09925
1014.78	38.09126
1015.147	55.12541
1015.513	28.06486
1015.88	45.10978
1016.246	62.14425
1016.612	34.07371
1016.978	75.17659
1017.344	36.08577
1017.71	59.13643
1018.076	26.05815
1018.442	99.24367
1018.808	96.23082
1019.174	-7.01692
1019.539	6.01267
1019.905	43.09769
1020.27	11.02616
1020.636	1.00228
1021.001	69.15803
1021.366	48.11097
1021.731	99.24645
1022.096	27.06643
1022.461	74.16713
1022.826	87.19805
1023.191	27.06858
1023.556	74.16371
1023.92	24.05621
1024.285	-33.07743
1024.649	37.08644
1025.014	23.05418
1025.378	71.17198
1025.742	32.07571
1026.107	58.12419
1026.471	92.20158
1026.835	49.1165
1027.199	8.01863
1027.562	-11.02441
1027.926	41.09548
1028.29	39.0951
1028.654	5.01101
1029.017	78.18333
1029.381	35.08055
1029.744	39.09588
1030.107	84.18847
1030.471	58.13345
1030.834	19.04069
1031.197	54.1241
1031.56	7.01581
1031.923	4.01006
1032.286	42.09428
1032.648	50.11246
1033.011	67.14857
1033.374	44.09759
1033.736	-9.02308
1034.099	69.16063
1034.461	36.08839
1034.823	19.0459
1035.185	16.0385
1035.548	60.14031
1035.91	41.09383
1036.272	87.18841
1036.634	65.15168
1036.995	33.07363
1037.357	14.03305
1037.719	40.0935
1038.08	122.27542
1038.442	21.04781
1038.803	-13.02968
1039.165	1.00243
1039.526	13.03031
1039.887	6.01383
1040.248	56.13465
1040.609	53.12387
1040.97	55.12809
1041.331	59.14436
1041.692	92.20753
1042.053	40.08628
1042.413	30.06645
1042.774	57.13285
1043.134	17.03834
1043.495	59.14199
1043.855	94.21904
1044.215	24.057
1044.576	34.07864
1044.936	53.11488
1045.296	43.10298
1045.656	12.02806
1046.016	17.03923
1046.375	52.12065
1046.735	57.1255
1047.095	58.12944
1047.454	25.04976
1047.814	89.20326
1048.173	21.04742
1048.533	51.1113
1048.892	6.01397
1049.251	25.05996
1049.61	20.04752
1049.969	38.0854
1050.328	42.08654
1050.687	-17.03981
1051.046	55.12743
1051.405	-9.02147
1051.763	25.05581
1052.122	11.02645
1052.48	20.04741
1052.839	82.18648
1053.197	2.00453
1053.555	31.06587
1053.914	10.0235
1054.272	41.09266
1054.63	50.11743
1054.988	44.10112
1055.345	9.01824
1055.703	73.16759
1056.061	67.16734
1056.419	87.21909
1056.776	30.06853
1057.134	-15.03289
1057.491	12.02905
1057.848	18.04292
1058.206	-23.05147
1058.563	41.08572
1058.92	53.11566
1059.277	45.10641
1059.634	13.02893
1059.991	83.18933
1060.348	27.05867
1060.704	53.12377
1061.061	74.15947
1061.418	17.03978
1061.774	26.0618
1062.131	43.11157
1062.487	56.12389
1062.843	34.08144
1063.199	39.09326
1063.555	61.13594
1063.911	53.12746
1064.267	84.16124
1064.623	28.06622
1064.979	16.03497
1065.335	36.08157
1065.691	14.03175
1066.046	40.08338
1066.402	-9.01956
1066.757	79.19049
1067.112	18.04232
1067.468	50.11454
1067.823	-14.03184
1068.178	45.10335
1068.533	58.1342
1068.888	61.13802
1069.243	10.02383
1069.598	43.09931
1069.952	69.15103
1070.307	42.10041
1070.662	57.13102
1071.016	66.1426
1071.371	61.13267
1071.725	66.1487
1072.079	74.16979
1072.434	22.05167
1072.788	34.07638
1073.142	74.17373
1073.496	30.06803
1073.85	26.05759
1074.203	22.05141
1074.557	97.25003
1074.911	89.19949
1075.265	76.1673
1075.618	44.10306
1075.971	64.14472
1076.325	62.15235
1076.678	7.01541
1077.031	-12.02557
1077.385	41.08545
1077.738	50.10701
1078.091	48.10513
1078.444	43.09392
1078.796	43.10192
1079.149	68.16195
1079.502	48.10925
1079.855	22.0493
1080.207	50.11743
1080.56	55.13761
1080.912	42.09772
1081.264	102.23356
1081.617	65.15185
1081.969	-8.01972
1082.321	27.0631
1082.673	58.12821
1083.025	47.10574
1083.377	293.6234
1083.728	25.05553
1084.08	19.0454
1084.432	39.08968
1084.783	40.08753
1085.135	45.10888
1085.486	79.1724
1085.838	37.08786
1086.189	58.13585
1086.54	46.10444
1086.891	74.18271
1087.242	69.16335
1087.593	27.06206
1087.944	63.13679
1088.295	30.06493
1088.646	99.23228
1088.996	16.03739
1089.347	47.10967
1089.698	57.13018
1090.048	11.02748
1090.398	25.05509
1090.749	18.04097
1091.099	67.16351
1091.449	47.11286
1091.799	28.06748
1092.149	55.13046
1092.499	43.10058
1092.849	28.06878
1093.199	38.0906
1093.548	46.10711
1093.898	45.10756
1094.248	40.09785
1094.597	54.13435
1094.947	53.13666
1095.296	32.07647
1095.645	22.05506
1095.994	23.05308
1096.343	48.11646
1096.692	63.16205
1097.041	35.0934
1097.39	55.13131
1097.739	61.15213
1098.088	10.02582
1098.437	33.08518
1098.785	7.01819
1099.134	-10.0254
1099.482	51.13622
1099.83	56.14171
1100.179	94.2393
1100.527	12.03056
1100.875	55.14133
1101.223	32.08287
1101.571	-16.04308
1101.919	44.11367
1102.267	29.08021
1102.615	3.00964
1102.962	7.02244
1103.31	1.00321
1103.658	-1.00321
