Data from N3 R3 sample 10_Subt2__4__11-07-25-813.txt Node

Date: Thu Sep 18 11:07:25 PDT 2025
User: uwsun
Spectrometer: HDX01956
Trigger mode: 0
Integration Time (sec): 5.000000E-1
Scans to average: 1
Nonlinearity correction enabled: true
Boxcar width: 0
Storing dark spectrum: false
XAxis mode: Wavelengths
Number of Pixels in Spectrum: 2068
>>>>>Begin Spectral Data<<<<<
194.03	45.12978
194.578	44.14233
195.127	47.14984
195.676	44.14083
196.225	70.18477
196.773	78.21535
197.321	62.17193
197.87	149.38045
198.418	165.42322
198.966	165.43281
199.513	182.45954
200.061	165.41759
200.609	175.45872
201.156	131.28782
201.704	129.32544
202.251	199.52357
202.798	127.32985
203.345	167.41208
203.892	166.41795
204.438	153.36234
204.985	177.4182
205.532	144.3783
206.078	162.39423
206.624	236.58307
207.17	224.51805
207.716	121.29847
208.262	221.43148
208.808	209.51969
209.354	196.48088
209.899	155.38921
210.445	184.45745
210.99	195.47213
211.535	218.50737
212.08	151.35041
212.625	176.43692
213.17	217.54605
213.715	169.38518
214.259	168.39101
214.804	163.39792
215.348	237.53885
215.892	162.39246
216.436	152.34623
216.98	168.36686
217.524	169.40255
218.068	173.43425
218.612	202.5084
219.155	187.4384
219.698	220.51526
220.242	130.32073
220.785	176.4106
221.328	153.37629
221.871	189.47679
222.414	158.38823
222.956	101.24261
223.499	108.24163
224.041	144.32748
224.583	178.37056
225.126	179.38798
225.668	175.42068
226.21	185.46303
226.751	172.37973
227.293	127.28665
227.835	151.36794
228.376	164.36918
228.918	156.38515
229.459	153.3792
230	183.43439
230.541	165.37576
231.082	134.32536
231.622	117.26441
232.163	103.24883
232.704	159.39508
233.244	138.34084
233.784	147.35364
234.324	247.54221
234.864	168.37539
235.404	136.31853
235.944	143.3346
236.484	175.43182
237.023	163.38035
237.563	170.39129
238.102	169.39543
238.641	137.3424
239.18	166.38605
239.719	174.43054
240.258	200.44154
240.797	159.3767
241.335	183.43874
241.874	253.47848
242.412	197.47176
242.95	185.44167
243.488	159.3536
244.026	163.37616
244.564	211.42586
245.102	186.4163
245.64	160.37826
246.177	160.35205
246.715	183.43405
247.252	157.35306
247.789	195.35507
248.326	194.46094
248.863	185.40201
249.4	192.42866
249.936	220.45188
250.473	190.44343
251.009	136.31016
251.546	211.46319
252.082	164.35053
252.618	188.41487
253.154	161.38438
253.69	204.44943
254.226	207.48737
254.761	175.38837
255.297	131.2854
255.832	168.39594
256.367	166.38636
256.903	207.45269
257.438	203.46771
257.972	173.38105
258.507	141.32189
259.042	174.37449
259.576	250.53967
260.111	163.37076
260.645	201.42692
261.179	222.50995
261.713	213.46837
262.247	178.40135
262.781	217.44863
263.315	121.29297
263.849	195.48135
264.382	181.41053
264.915	213.49545
265.449	168.40623
265.982	208.46419
266.515	225.54106
267.048	173.36312
267.58	161.3442
268.113	167.35795
268.646	186.4489
269.178	160.35471
269.71	257.55347
270.243	254.57387
270.775	238.59813
271.307	133.31498
271.838	209.48461
272.37	167.40525
272.902	198.44133
273.433	216.47047
273.965	189.45295
274.496	191.46662
275.027	205.50249
275.558	249.59354
276.089	219.5376
276.62	190.47219
277.15	205.49559
277.681	155.33123
278.211	216.51676
278.741	221.48167
279.272	193.43597
279.802	198.48507
280.332	200.46548
280.861	206.48417
281.391	191.42846
281.921	209.49074
282.45	177.43386
282.98	182.46886
283.509	282.62229
284.038	203.45781
284.567	213.48781
285.096	227.54027
285.625	148.33139
286.153	267.62152
286.682	215.48586
287.21	187.43943
287.739	183.42752
288.267	211.50586
288.795	194.49977
289.323	221.50999
289.851	231.53307
290.378	181.39901
290.906	243.58212
291.433	222.54345
291.961	235.52629
292.488	249.60308
293.015	239.55284
293.542	275.68899
294.069	239.5806
294.596	261.62118
295.122	258.60424
295.649	221.47451
296.175	238.56046
296.702	264.62989
297.228	223.52688
297.754	218.48228
298.28	281.62851
298.806	213.5054
299.332	252.55144
299.857	267.59129
300.383	254.62385
300.908	251.60403
301.433	254.60905
301.958	230.51732
302.483	186.45601
303.008	293.70776
303.533	226.57246
304.058	193.4445
304.582	263.60642
305.107	184.47402
305.631	248.54979
306.155	240.54821
306.679	273.62571
307.203	253.57452
307.727	234.54439
308.251	284.68149
308.775	309.72862
309.298	282.66174
309.822	254.62385
310.345	305.70661
310.868	277.65115
311.391	280.67138
311.914	295.71796
312.437	313.6917
312.96	298.68122
313.482	206.47794
314.005	247.60363
314.527	243.61912
315.049	277.68372
315.571	350.75648
316.093	335.80002
316.615	241.5672
317.137	308.64975
317.659	320.74913
318.18	270.62739
318.702	330.74646
319.223	309.60846
319.744	308.67198
320.265	314.74141
320.786	323.78138
321.307	295.70828
321.828	276.60752
322.348	306.69866
322.869	361.82603
323.389	625.09594
323.909	323.7129
324.43	355.81459
324.95	327.72324
325.47	377.89615
325.989	369.83958
326.509	395.84331
327.029	383.83647
327.548	365.79311
328.067	394.91364
328.587	411.98257
329.106	324.70568
329.625	372.9294
330.144	397.88096
330.662	378.85083
331.181	496.09289
331.7	348.77883
332.218	403.83203
332.736	422.93818
333.255	427.95461
333.773	354.80465
334.291	449.06137
334.808	432.92249
335.326	420.89532
335.844	435.97088
336.361	499.20564
336.879	486.07216
337.396	490.11926
337.913	467.01447
338.43	452.96227
338.947	428.97201
339.464	501.00611
339.981	478.06371
340.497	483.11453
341.014	443.02167
341.53	457.97228
342.046	540.25539
342.562	532.23385
343.078	525.1494
343.594	477.06521
344.11	564.24815
344.626	539.2666
345.141	537.13907
345.657	608.2554
346.172	557.24416
346.687	563.19068
347.202	634.31619
347.717	550.2151
348.232	539.24888
348.747	562.19867
349.261	559.13212
349.776	637.37912
350.29	632.44754
350.805	654.46859
351.319	617.30847
351.833	592.25128
352.347	610.31863
352.861	656.39521
353.374	556.16738
353.888	705.55115
354.401	608.26382
354.915	660.3483
355.428	665.50521
355.941	662.39394
356.454	648.3028
356.967	589.26096
357.48	656.34314
357.993	659.47105
358.505	655.44526
359.018	706.55562
359.53	730.59511
360.042	757.49746
360.554	728.5961
361.066	716.56121
361.578	788.52579
362.09	671.44292
362.602	747.4749
363.113	779.61939
363.625	764.53213
364.136	796.52662
364.647	770.61664
365.158	802.63729
365.669	739.57227
366.18	793.64121
366.691	751.45161
367.201	806.69674
367.712	810.62226
368.222	859.71219
368.733	790.50198
369.243	859.65754
369.753	854.70418
370.263	885.84808
370.773	868.83215
371.282	907.86147
371.792	861.7273
372.301	945.94474
372.811	981.19902
373.32	928.69908
373.829	968.92837
374.338	1068.94328
374.847	1041.99207
375.356	1025.01366
375.865	1135.94974
376.373	1130.07887
376.882	1202.46521
377.39	1206.33297
377.898	1200.37527
378.407	1292.27767
378.915	1348.23966
379.423	1383.44955
379.93	1463.53875
380.438	1452.62984
380.946	1562.64297
381.453	1632.82128
381.96	1689.85871
382.468	1772.87374
382.975	1960.19366
383.482	1962.81861
383.989	2053.48733
384.495	2111.07835
385.002	2167.66034
385.509	2334.29082
386.015	2428.61825
386.521	2676.14034
387.028	2708.13083
387.534	2670.82529
388.04	2881.46748
388.546	2924.98064
389.051	3131.93899
389.557	3231.20236
390.063	3570.9628
390.568	3693.32039
391.073	3759.78343
391.578	3991.31399
392.084	4120.76791
392.589	4224.3934
393.093	4534.88893
393.598	4956.36828
394.103	5377.37286
394.607	5989.15967
395.112	6373.16875
395.616	6799.00767
396.12	7299.73231
396.624	7969.22362
397.128	8614.95924
397.632	9702.97084
398.136	10462.26759
398.639	11197.0734
399.143	12388.80723
399.646	14031.84859
400.15	15447.12062
400.653	17192.8604
401.156	19425.06405
401.659	22611.50659
402.162	27830.5813
402.664	36745.05332
403.167	51947.9224
403.67	62017.58334
404.172	63919.58413
404.674	63858.43483
405.176	63738.15102
405.678	63977.72923
406.18	64011.81569
406.682	63863.44694
407.184	63926.60148
407.686	63841.39382
408.187	64025.8516
408.688	63892.51763
409.19	63833.37461
409.691	52336.37311
410.192	44240.48056
410.693	38216.8548
411.194	34917.82218
411.694	32594.15445
412.195	30324.73405
412.696	27298.61509
413.196	25438.74394
413.696	24827.92112
414.196	25068.43614
414.696	25037.96905
415.196	23685.37271
415.696	21472.28558
416.196	17441.33801
416.695	13244.88199
417.195	11515.42502
417.694	10774.79663
418.194	10074.16879
418.693	9561.62777
419.192	9250.9554
419.691	8968.41131
420.19	8939.42201
420.688	8561.94353
421.187	8248.10444
421.685	7826.05762
422.184	7082.84334
422.682	6034.50569
423.18	5227.2078
423.678	4553.54038
424.176	4248.68959
424.674	4004.64229
425.172	3785.08552
425.669	3609.42844
426.167	3334.13726
426.664	3068.04765
427.161	2852.13115
427.659	2662.41082
428.156	2443.7192
428.652	2286.4848
429.149	2191.24181
429.646	2154.83859
430.143	2081.11969
430.639	1835.90072
431.135	1832.12249
431.632	1741.68979
432.128	1571.71446
432.624	1529.93074
433.12	1514.48322
433.616	1464.31221
434.111	1339.41768
434.607	1354.45908
435.103	1271.99646
435.598	1327.03391
436.093	1163.13818
436.588	1164.05325
437.083	1124.99292
437.578	1105.04641
438.073	1050.16082
438.568	1048.11433
439.062	867.5533
439.557	888.74919
440.051	820.56894
440.546	864.65566
441.04	840.72424
441.534	806.75758
442.028	841.73134
442.522	800.6546
443.015	702.3085
443.509	769.6241
444.002	759.61695
444.496	740.38356
444.989	730.5494
445.482	723.57149
445.975	708.43211
446.468	708.33146
446.961	674.28233
447.454	668.31715
447.947	701.47002
448.439	696.50539
448.931	695.39775
449.424	713.6002
449.916	663.43486
450.408	631.2811
450.9	561.2335
451.392	600.37308
451.884	615.2588
452.375	555.24631
452.867	540.09682
453.358	574.18138
453.849	596.13257
454.341	601.21011
454.832	573.10651
455.323	594.33209
455.814	537.1113
456.304	548.1455
456.795	533.10203
457.285	542.07484
457.776	531.09543
458.266	467.01963
458.756	509.09555
459.247	530.15133
459.737	480.06685
460.226	554.13759
460.716	465.02296
461.206	465.02339
461.695	415.95642
462.185	447.98158
462.674	444.93743
463.163	434.90065
463.653	472.91873
464.142	455.01683
464.63	431.9691
465.119	438.94219
465.608	462.9968
466.096	421.845
466.585	357.76649
467.073	403.88572
467.561	437.97051
468.05	414.88483
468.538	401.91422
469.026	368.81883
469.513	304.60834
470.001	403.86151
470.489	355.79433
470.976	387.8452
471.463	353.82847
471.951	338.79373
472.438	377.82859
472.925	317.70756
473.412	360.82093
473.899	360.77476
474.385	328.76003
474.872	319.70437
475.359	302.70672
475.845	335.6522
476.331	276.56024
476.817	327.75306
477.303	322.70817
477.789	275.62574
478.275	310.73083
478.761	248.56556
479.247	253.54111
479.732	312.73954
480.218	326.81098
480.703	221.526
481.188	273.56415
481.673	287.62868
482.158	254.52642
482.643	237.58371
483.128	260.58143
483.612	282.64179
484.097	243.56343
484.581	215.4811
485.066	270.63333
485.55	250.53087
486.034	220.46065
486.518	284.64922
487.002	233.54581
487.486	217.50913
487.969	180.42587
488.453	186.45009
488.936	209.45551
489.42	226.48221
489.903	164.3985
490.386	117.23885
490.869	252.52975
491.352	164.38531
491.835	206.40764
492.318	183.4002
492.8	151.30658
493.283	204.50513
493.765	153.36724
494.247	210.47311
494.73	182.39221
495.212	113.2642
495.694	195.44659
496.175	149.3511
496.657	207.47483
497.139	160.26795
497.62	189.44223
498.102	149.36361
498.583	84.2045
499.064	125.27464
499.545	163.36309
500.026	161.35641
500.507	135.30545
500.988	182.44322
501.469	96.23667
501.949	152.36754
502.43	167.39335
502.91	202.41565
503.39	98.24027
503.87	201.46126
504.35	146.33485
504.83	115.24831
505.31	122.28965
505.79	108.25216
506.269	112.25378
506.749	117.26376
507.228	95.22168
507.707	167.36413
508.187	208.48181
508.666	145.35266
509.145	120.27676
509.623	120.27709
510.102	149.35341
510.581	164.38697
511.059	143.35351
511.538	130.32978
512.016	202.46995
512.494	140.33047
512.972	179.41801
513.45	203.45949
513.928	189.44742
514.406	204.48582
514.884	194.48704
515.361	201.46717
515.839	207.46244
516.316	240.56253
516.793	196.48123
517.27	151.35609
517.747	211.52561
518.224	181.40636
518.701	178.38342
519.178	197.47966
519.654	178.41118
520.131	157.38113
520.607	149.35709
521.083	142.31599
521.56	169.38923
522.036	156.33257
522.512	178.42911
522.987	213.49759
523.463	195.44946
523.939	215.51761
524.414	194.43152
524.89	183.42584
525.365	166.36663
525.84	164.38591
526.315	152.3613
526.79	198.43383
527.265	181.40803
527.74	133.31778
528.215	154.35206
528.689	116.25116
529.164	158.33156
529.638	66.16666
530.112	145.33489
530.587	137.28845
531.061	133.31705
531.534	138.32714
532.008	205.48436
532.482	180.40353
532.956	62.15773
533.429	182.43476
533.903	137.2953
534.376	140.30429
534.849	124.2812
535.322	113.26358
535.795	92.22045
536.268	142.33805
536.741	116.27201
537.213	123.27898
537.686	147.35337
538.158	175.38885
538.631	112.26827
539.103	126.28085
539.575	125.25379
540.047	141.30222
540.519	147.34504
540.991	169.40317
541.463	123.29197
541.934	43.09749
542.406	163.38378
542.877	154.34098
543.348	191.44953
543.82	174.41358
544.291	197.44754
544.762	149.34864
545.233	205.50565
545.703	154.33643
546.174	190.42946
546.645	152.36143
547.115	171.40419
547.585	198.44316
548.056	264.62506
548.526	232.53314
548.996	205.47665
549.466	213.50286
549.935	264.6069
550.405	245.51878
550.875	239.54867
551.344	239.55065
551.814	271.59589
552.283	314.65076
552.752	308.68847
553.221	305.64158
553.69	346.73919
554.159	327.77524
554.628	336.72187
555.096	421.00044
555.565	357.74302
556.033	451.99702
556.502	399.90195
556.97	462.94591
557.438	392.86209
557.906	426.93528
558.374	420.90697
558.842	465.02724
559.31	499.01777
559.777	552.2246
560.245	502.04965
560.712	531.10132
561.18	586.15738
561.647	571.13324
562.114	614.25192
562.581	681.48075
563.048	777.52489
563.514	777.69395
563.981	766.50716
564.448	801.53955
564.914	876.70614
565.381	923.74553
565.847	905.75645
566.313	961.83167
566.779	1043.87902
567.245	1031.9274
567.711	1056.04218
568.176	1035.86173
568.642	1148.31325
569.108	1230.35921
569.573	1281.24593
570.038	1384.06811
570.504	1417.32621
570.969	1384.58325
571.434	1506.35748
571.899	1497.56279
572.363	1597.54648
572.828	1596.55419
573.293	1672.60811
573.757	1742.7139
574.222	1771.60296
574.686	1796.72071
575.15	1826.92793
575.614	1889.89638
576.078	1808.80833
576.542	1787.67752
577.006	1767.63145
577.469	1832.0205
577.933	1840.71656
578.396	1801.84312
578.86	1794.80871
579.323	1782.89652
579.786	1793.49985
580.249	1720.75618
580.712	1709.8651
581.175	1689.9014
581.637	1635.56075
582.1	1617.3894
582.563	1599.29294
583.025	1572.73543
583.487	1615.20796
583.95	1414.16654
584.412	1541.21552
584.874	1477.64103
585.336	1419.48263
585.797	1418.21473
586.259	1396.41237
586.721	1366.38759
587.182	1387.35579
587.643	1330.2518
588.105	1323.3585
588.566	1231.91881
589.027	1332.48346
589.488	1293.23998
589.949	1318.438
590.41	1311.86944
590.87	1272.20864
591.331	1348.16163
591.791	1195.14692
592.252	1303.29537
592.712	1218.26918
593.172	1326.25222
593.632	1358.22072
594.092	1255.11446
594.552	1365.15278
595.011	1240.17091
595.471	1446.36827
595.931	1460.36896
596.39	1429.53401
596.849	1461.46768
597.308	1422.15597
597.768	1527.9088
598.227	1601.71738
598.685	1642.56374
599.144	1673.71542
599.603	1793.78074
600.062	1766.3803
600.52	1858.69434
600.978	2007.97372
601.437	2052.83221
601.895	2187.63934
602.353	2221.7537
602.811	2312.90736
603.269	2436.20648
603.727	2600.30346
604.184	2711.0372
604.642	2768.47448
605.099	2942.18326
605.557	2897.42092
606.014	3143.69674
606.471	3177.63286
606.928	3391.81757
607.385	3462.58866
607.842	3643.92719
608.299	3784.99982
608.755	3829.23411
609.212	4050.57323
609.668	4111.61794
610.125	4211.0289
610.581	4203.82962
611.037	4413.40609
611.493	4442.67071
611.949	4468.98391
612.405	4613.70771
612.861	4591.48165
613.316	4692.72745
613.772	4745.36889
614.227	4846.66767
614.683	4803.82519
615.138	4828.48788
615.593	4755.45315
616.048	4833.30739
616.503	4901.70568
616.958	4778.02878
617.412	4716.64268
617.867	4759.19783
618.321	4593.78008
618.776	4617.16852
619.23	4445.68652
619.684	4361.3923
620.138	4383.55003
620.592	4265.0377
621.046	4187.88352
621.5	4193.01135
621.954	4085.47341
622.407	3915.55589
622.861	3821.23426
623.314	3749.7767
623.768	3777.05532
624.221	3615.02635
624.674	3540.98569
625.127	3422.05935
625.58	3410.84016
626.033	3331.70367
626.485	3200.28544
626.938	3170.26125
627.39	3086.15574
627.843	3034.07284
628.295	2955.07818
628.747	2902.28053
629.199	2831.00845
629.651	2697.04043
630.103	2614.03287
630.555	2602.60449
631.006	2509.08188
631.458	2471.13546
631.909	2381.86157
632.361	2400.01206
632.812	2305.99964
633.263	2299.69672
633.714	2193.55787
634.165	2092.06566
634.616	2050.97644
635.067	2030.65839
635.518	1914.90217
635.968	1976.20311
636.419	1868.5435
636.869	1723.75101
637.319	1769.70995
637.769	1751.57623
638.219	1695.71192
638.669	1673.72144
639.119	1579.65695
639.569	1583.67088
640.019	1597.54935
640.468	1506.3656
640.918	1442.48444
641.367	1375.23442
641.816	1437.27373
642.265	1493.48561
642.714	1338.26664
643.163	1344.29883
643.612	1367.51085
644.061	1290.02259
644.51	1259.17851
644.958	1249.06461
645.406	1212.23689
645.855	1220.29191
646.303	1214.14514
646.751	1213.14946
647.199	1190.06455
647.647	1183.12095
648.095	1081.9437
648.543	1153.75495
648.99	1161.1845
649.438	1084.98141
649.885	1116.22305
650.333	1069.57833
650.78	1057.05335
651.227	984.97568
651.674	1033.88276
652.121	1053.08621
652.568	984.9784
653.015	956.95551
653.461	954.86179
653.908	986.82997
654.354	928.82466
654.801	906.75881
655.247	928.62753
655.693	899.97653
656.139	895.77743
656.585	860.72331
657.031	847.67184
657.477	862.55581
657.922	861.6265
658.368	868.79537
658.813	804.53977
659.259	880.78777
659.704	833.66645
660.149	813.5799
660.594	838.67531
661.039	813.5589
661.484	791.59401
661.929	765.52673
662.373	706.54913
662.818	771.64041
663.262	772.60091
663.707	745.64743
664.151	807.67542
664.595	734.53489
665.039	700.51792
665.483	697.55595
665.927	754.51484
666.371	706.43979
666.814	686.41922
667.258	708.48308
667.701	667.22562
668.145	696.515
668.588	742.59199
669.031	634.31209
669.474	716.48796
669.917	660.2526
670.36	718.56095
670.803	739.54093
671.245	639.12701
671.688	663.41592
672.13	675.32443
672.573	693.53364
673.015	693.45578
673.457	706.31467
673.899	713.49586
674.341	716.49391
674.783	644.35718
675.225	717.53335
675.666	776.62853
676.108	746.36387
676.549	708.42295
676.991	670.26976
677.432	736.2213
677.873	651.29531
678.314	719.47729
678.755	780.64843
679.196	720.41187
679.637	706.46325
680.078	773.53487
680.518	707.39646
680.959	716.47144
681.399	715.53697
681.839	761.58334
682.28	752.61207
682.72	781.50897
683.16	731.58082
683.6	786.50741
684.039	746.28983
684.479	814.70834
684.919	860.68762
685.358	713.54186
685.798	790.77128
686.237	750.53102
686.676	827.55835
687.115	850.67268
687.554	866.72975
687.993	837.53253
688.432	832.58197
688.871	865.64204
689.309	899.78622
689.748	886.48719
690.186	828.62093
690.625	870.69685
691.063	849.6938
691.501	892.84012
691.939	967.00444
692.377	874.7667
692.815	929.87585
693.253	943.83378
693.69	897.59483
694.128	984.94306
694.565	906.76716
695.003	980.06069
695.44	975.87186
695.877	1013.91138
696.314	978.62073
696.751	960.74986
697.188	1004.86345
697.625	1007.78446
698.061	980.90177
698.498	1017.92362
698.934	1017.95075
699.371	1056.96986
699.807	1094.02648
700.243	1055.02813
700.679	1056.83819
701.115	1069.96324
701.551	1064.94574
701.987	1010.73294
702.422	1121.09258
702.858	1061.00753
703.294	1090.95043
703.729	1078.07889
704.164	1080.03317
704.599	1120.92235
705.035	1090.89557
705.47	1036.01294
705.904	1071.94629
706.339	1099.96105
706.774	1035.92443
707.209	1147.05827
707.643	1091.05344
708.078	1082.08264
708.512	1052.11951
708.946	1034.94775
709.38	1110.0613
709.814	1096.92007
710.248	1096.11872
710.682	1121.10595
711.116	1066.06549
711.549	1022.11627
711.983	1086.95719
712.416	1149.11026
712.85	1067.10517
713.283	1070.98915
713.716	1029.04897
714.149	995.83711
714.582	1039.82991
715.015	999.97778
715.448	988.0276
715.881	1071.7623
716.313	996.85864
716.746	973.85727
717.178	1017.95823
717.61	992.0577
718.043	952.92014
718.475	979.92281
718.907	950.94235
719.339	1011.81196
719.77	938.83139
720.202	931.91848
720.634	958.91814
721.065	929.77828
721.497	911.83527
721.928	894.80305
722.359	895.79971
722.79	878.73513
723.221	914.86869
723.652	924.93935
724.083	916.66023
724.514	902.68457
724.945	815.58905
725.375	908.73091
725.806	807.67393
726.236	827.784
726.666	864.67796
727.096	840.71417
727.526	851.84753
727.956	785.49934
728.386	833.7064
728.816	830.79543
729.246	871.78753
729.675	719.50117
730.105	768.59048
730.534	751.47518
730.964	813.70587
731.393	771.59776
731.822	794.7241
732.251	770.66628
732.68	753.46452
733.109	762.59772
733.537	762.58366
733.966	773.64182
734.395	734.43462
734.823	675.26711
735.251	652.35601
735.68	707.49565
736.108	680.47012
736.536	667.34075
736.964	703.3853
737.392	671.45343
737.82	721.46343
738.247	679.3881
738.675	684.37339
739.102	623.36025
739.53	670.50455
739.957	664.50325
740.384	594.25113
740.811	596.3026
741.238	667.41771
741.665	649.3195
742.092	545.10019
742.519	526.16732
742.945	642.35829
743.372	602.31629
743.798	600.35493
744.225	569.18132
744.651	506.13404
745.077	570.25672
745.503	547.16688
745.929	579.23578
746.355	605.28522
746.781	488.07478
747.207	569.19025
747.632	566.24685
748.058	544.22333
748.483	568.14224
748.908	551.21959
749.334	477.05995
749.759	499.0634
750.184	486.05201
750.609	480.0558
751.033	493.02282
751.458	498.98271
751.883	435.97168
752.307	428.91316
752.732	484.11972
753.156	409.91965
753.58	457.96847
754.005	394.90641
754.429	440.94568
754.853	374.85938
755.277	394.85593
755.7	381.86968
756.124	392.89497
756.548	369.79942
756.971	368.8263
757.394	294.70387
757.818	339.81421
758.241	381.89311
758.664	366.85377
759.087	343.71261
759.51	346.78838
759.933	351.78506
760.356	386.91983
760.778	355.80545
761.201	297.66813
761.623	324.71227
762.046	270.58858
762.468	299.66546
762.89	323.72988
763.312	314.71577
763.734	291.65544
764.156	315.72398
764.578	258.54905
765	304.6899
765.421	252.60839
765.843	261.64447
766.264	249.55258
766.686	245.57212
767.107	270.613
767.528	261.63356
767.949	265.63216
768.37	239.56052
768.791	212.48035
769.212	213.51085
769.632	268.58818
770.053	183.45703
770.473	188.43047
770.894	188.43928
771.314	234.51811
771.734	206.45383
772.154	223.53849
772.575	183.3997
772.994	213.45398
773.414	202.45378
773.834	149.35559
774.254	214.49355
774.673	242.55834
775.093	206.48757
775.512	174.41056
775.931	176.42669
776.351	218.51557
776.77	180.42191
777.189	170.38488
777.607	167.40799
778.026	176.41834
778.445	155.37797
778.864	164.3967
779.282	129.29461
779.701	141.33934
780.119	142.34608
780.537	131.31312
780.955	158.38147
781.373	176.41367
781.791	190.4091
782.209	143.30691
782.627	127.32268
783.045	137.29707
783.462	128.31452
783.88	131.32693
784.297	119.28845
784.715	111.27682
785.132	145.33315
785.549	112.26949
785.966	131.31658
786.383	110.26237
786.8	126.2798
787.217	195.44192
787.633	129.31281
788.05	94.21004
788.466	106.23647
788.883	127.31465
789.299	44.1016
789.715	157.36548
790.131	92.22104
790.547	123.29411
790.963	112.26673
791.379	132.32038
791.795	76.16519
792.21	84.18785
792.626	106.23911
793.041	94.22309
793.457	87.20596
793.872	63.14191
794.287	116.27031
794.702	61.14307
795.117	90.21705
795.532	97.23663
795.947	59.13529
796.362	92.20625
796.776	115.25171
797.191	100.23605
797.605	77.17699
798.02	59.13887
798.434	109.23162
798.848	84.20274
799.262	46.11098
799.676	123.2869
800.09	95.22464
800.504	83.19292
800.918	57.12624
801.331	18.045
801.745	58.12778
802.158	63.15093
802.572	59.13838
802.985	72.16599
803.398	56.12864
803.811	48.11712
804.224	68.16114
804.637	83.19116
805.05	44.09779
805.462	63.14857
805.875	56.14151
806.288	35.08267
806.7	23.05569
807.112	82.18058
807.525	57.13364
807.937	83.19824
808.349	40.0965
808.761	100.23706
809.173	54.12722
809.584	109.25615
809.996	-10.02394
810.408	61.1545
810.819	11.02525
811.231	92.23801
811.642	120.28589
812.053	123.28713
812.464	48.10991
812.875	61.1518
813.286	109.27213
813.697	53.11615
814.108	25.059
814.519	87.18729
814.929	86.2103
815.34	38.08827
815.75	63.15632
816.16	44.10471
816.571	47.11798
816.981	1.00227
817.391	40.09248
817.801	57.13749
818.211	111.25146
818.62	76.17696
819.03	45.10633
819.44	43.10693
819.849	5.01215
820.259	43.10541
820.668	41.09815
821.077	76.18364
821.486	50.11454
821.895	13.03074
822.304	28.07206
822.713	75.16928
823.122	23.05563
823.531	45.10128
823.939	80.18811
824.348	93.21479
824.756	34.08203
825.164	45.10892
825.573	33.08038
825.981	47.11187
826.389	47.11389
826.797	91.2229
827.205	86.19026
827.612	25.05946
828.02	-2.00454
828.428	66.16182
828.835	63.1616
829.243	63.14307
829.65	40.09712
830.057	16.03748
830.464	73.17322
830.871	96.22053
831.278	86.19914
831.685	14.03007
832.092	41.0959
832.499	67.14094
832.905	23.05611
833.312	33.07104
833.718	103.24723
834.124	53.11669
834.531	45.10842
834.937	61.15163
835.343	72.165
835.749	22.04888
836.155	31.07885
836.561	56.13291
836.966	75.17508
837.372	34.08336
837.777	31.07512
838.183	105.21971
838.588	68.16356
838.993	66.15446
839.399	56.13255
839.804	-14.03339
840.209	25.0626
840.613	10.02147
841.018	19.04644
841.423	61.15108
841.828	82.20022
842.232	19.04477
842.637	93.2118
843.041	23.05759
843.445	25.06028
843.849	36.08659
844.253	77.17437
844.657	45.11031
845.061	113.24765
845.465	54.12559
845.869	31.06946
846.272	62.14601
846.676	13.02989
847.079	50.1239
847.483	49.11748
847.886	117.26753
848.289	37.09722
848.692	19.04635
849.095	50.11495
849.498	94.22421
849.901	37.08085
850.304	58.13286
850.707	54.13225
851.109	42.10202
851.512	35.08337
851.914	48.11777
852.316	105.25681
852.718	65.16632
853.121	43.10172
853.523	55.12237
853.925	34.08702
854.326	35.08529
854.728	51.12719
855.13	66.16588
855.531	52.11984
855.933	51.11638
856.334	65.15726
856.736	99.21266
857.137	110.24509
857.538	31.07608
857.939	44.10656
858.34	51.11816
858.741	35.08833
859.142	33.076
859.542	39.10053
859.943	42.10064
860.343	28.06763
860.744	70.16363
861.144	67.15837
861.544	70.16376
861.945	49.12034
862.345	63.14707
862.745	23.05582
863.145	58.13019
863.544	25.06144
863.944	29.06604
864.344	6.01427
864.743	103.24308
865.143	63.1574
865.542	12.02653
865.941	64.15283
866.34	31.0706
866.74	63.16358
867.139	61.14229
867.537	10.02446
867.936	76.17584
868.335	26.06391
868.734	69.16995
869.132	27.05962
869.531	11.02543
869.929	43.09464
870.327	27.06248
870.726	37.08803
871.124	67.14832
871.522	27.06636
871.92	17.04062
872.318	32.07489
872.715	37.08692
873.113	46.10719
873.511	0
873.908	28.06969
874.306	67.16149
874.703	-5.01204
875.1	6.01469
875.497	15.03463
875.894	33.07966
876.291	40.09486
876.688	0
877.085	27.06201
877.482	93.22221
877.878	40.09413
878.275	24.05926
878.671	7.01453
879.068	78.17975
879.464	9.02106
879.86	-36.08313
880.256	-17.04017
880.652	65.15886
881.048	33.078
881.444	4.00907
881.84	4.00987
882.236	51.1233
882.631	103.24214
883.027	50.11573
883.422	-27.06704
883.817	3.00739
884.213	51.12627
884.608	74.17799
885.003	9.02082
885.398	44.10632
885.793	41.09879
886.188	10.02406
886.582	29.07125
886.977	41.09281
887.371	13.03164
887.766	-12.02927
888.16	5.01189
888.554	13.03088
888.949	20.04858
889.343	35.0819
889.737	22.05758
890.131	36.08722
890.525	82.20253
890.918	0
891.312	64.14484
891.706	51.12885
892.099	57.13905
892.492	91.18409
892.886	72.16811
893.279	48.11755
893.672	20.04972
894.065	63.15168
894.458	28.06732
894.851	50.11679
895.244	10.02478
895.637	25.05834
896.029	71.16737
896.422	24.05586
896.814	40.09548
897.206	39.09072
897.599	77.18187
897.991	84.1952
898.383	36.08204
898.775	34.07465
899.167	59.13388
899.559	24.05821
899.951	24.05396
900.342	48.11637
900.734	56.1371
901.125	12.03037
901.517	38.09008
901.908	28.06363
902.299	35.08279
902.69	67.15265
903.082	58.13468
903.473	59.13778
903.863	8.01969
904.254	86.19241
904.645	62.14584
905.036	46.10947
905.426	63.13527
905.817	12.02829
906.207	5.01139
906.597	24.05471
906.987	12.02992
907.378	115.27844
907.768	28.07206
908.158	13.03059
908.547	43.10895
908.937	18.04416
909.327	17.03979
909.717	51.12242
910.106	29.06677
910.495	60.14196
910.885	92.2233
911.274	22.05308
911.663	50.12095
912.052	15.03535
912.441	104.25441
912.83	57.12397
913.219	24.06062
913.608	47.11118
913.997	23.05638
914.385	96.21797
914.774	78.1809
915.162	92.21126
915.55	14.03246
915.939	19.04685
916.327	30.07164
916.715	68.16925
917.103	17.03968
917.491	98.22989
917.878	53.12474
918.266	25.06251
918.654	57.14138
919.041	75.19083
919.429	9.02052
919.816	39.09521
920.203	21.04972
920.591	44.10527
920.978	60.14081
921.365	25.06388
921.752	10.02265
922.139	66.13618
922.525	72.16599
922.912	77.17855
923.299	62.14811
923.685	-30.07583
924.072	23.04964
924.458	65.15519
924.844	53.1261
925.231	-7.01562
925.617	24.0598
926.003	16.03949
926.389	29.07064
926.774	57.13827
927.16	50.11908
927.546	39.09783
927.931	18.04313
928.317	64.1394
928.702	60.13496
929.088	71.16431
929.473	77.18945
929.858	34.08079
930.243	40.09339
930.628	75.17645
931.013	24.05757
931.398	17.03693
931.783	6.01518
932.167	81.19131
932.552	21.05069
932.937	17.04053
933.321	26.06365
933.705	33.0793
934.09	32.0763
934.474	21.04754
934.858	78.19463
935.242	38.08418
935.626	28.06974
936.009	67.1736
936.393	101.24896
936.777	52.12914
937.16	62.15667
937.544	25.05567
937.927	16.03959
938.311	62.14374
938.694	60.15345
939.077	15.03467
939.46	14.03243
939.843	6.01169
940.226	10.02474
940.609	58.12891
940.991	-15.03695
941.374	51.12055
941.757	72.1691
942.139	72.15449
942.522	2.00454
942.904	49.11304
943.286	68.16505
943.668	60.15134
944.05	64.15119
944.432	3.00714
944.814	20.04705
945.196	-3.00716
945.578	32.0746
945.959	32.07121
946.341	16.03715
946.722	76.1687
947.104	52.11917
947.485	36.08044
947.866	41.1005
948.247	65.1591
948.628	-22.0511
949.009	6.01492
949.39	16.03824
949.771	32.06958
950.152	28.06638
950.532	17.04169
950.913	54.12454
951.293	32.0847
951.674	33.07682
952.054	52.1264
952.434	54.129
952.814	23.05202
953.194	12.03005
953.574	90.20997
953.954	62.139
954.334	72.17358
954.714	44.10366
955.093	55.1296
955.473	30.07331
955.853	18.04521
956.232	29.07705
956.611	40.09075
956.99	55.13347
957.37	1.00246
957.749	5.01133
958.128	23.05642
958.506	28.07048
958.885	31.0752
959.264	63.15007
959.643	43.09436
960.021	32.07709
960.4	38.08231
960.778	42.09779
961.156	4.00968
961.535	26.05757
961.913	76.17038
962.291	89.22156
962.669	42.10316
963.047	65.16028
963.424	109.26897
963.802	53.12542
964.18	22.05284
964.557	56.12234
964.935	64.14454
965.312	53.1339
965.69	47.11196
966.067	49.11299
966.444	31.07205
966.821	57.14159
967.198	8.01851
967.575	30.07049
967.952	27.06094
968.329	91.21226
968.705	125.25275
969.082	74.18485
969.458	55.12839
969.835	47.10976
970.211	58.14488
970.587	59.14124
970.963	27.06631
971.339	41.10399
971.715	61.14642
972.091	45.10633
972.467	25.05921
972.843	44.10644
973.219	68.15402
973.594	63.15865
973.97	9.02007
974.345	20.04639
974.721	52.11859
975.096	63.14718
975.471	47.10626
975.846	1.00231
976.221	49.11998
976.596	104.24091
976.971	74.17603
977.346	55.1211
977.72	25.06121
978.095	49.12189
978.469	42.09563
978.844	17.04104
979.218	46.10761
979.593	54.1231
979.967	4.00923
980.341	62.13682
980.715	30.07317
981.089	34.08194
981.463	-10.02222
981.837	60.14235
982.21	15.0326
982.584	44.10253
982.957	28.06796
983.331	-6.0135
983.704	64.15265
984.078	-22.05266
984.451	62.14499
984.824	51.12004
985.197	38.08715
985.57	-20.04798
985.943	5.01171
986.316	31.07197
986.688	49.11295
987.061	55.12369
987.434	84.21279
987.806	15.03453
988.179	27.06094
988.551	73.17635
988.923	39.09172
989.295	45.1074
989.667	56.13024
990.039	93.22297
990.411	21.04563
990.783	-17.03732
991.155	22.05123
991.527	59.13605
991.898	44.10603
992.27	42.10102
992.641	115.27161
993.012	7.01543
993.384	0
993.755	33.08173
994.126	67.15542
994.497	45.10612
994.868	70.15079
995.239	68.15677
995.61	12.02927
995.98	27.06303
996.351	32.07697
996.722	76.16982
997.092	26.05958
997.462	57.12897
997.833	3.0068
998.203	29.0665
998.573	54.12964
998.943	87.19484
999.313	10.02329
999.683	59.13594
1000.053	-25.05435
1000.423	30.06952
1000.792	-13.03241
1001.162	-12.02845
1001.531	62.14664
1001.901	28.06689
1002.27	35.07304
1002.639	22.05388
1003.009	-3.00688
1003.378	56.13791
1003.747	15.03387
1004.116	17.03911
1004.485	51.11652
1004.853	3.00726
1005.222	31.07384
1005.591	50.11306
1005.959	58.1251
1006.328	63.13545
1006.696	8.01854
1007.064	34.0815
1007.433	-14.03369
1007.801	41.09477
1008.169	-9.02182
1008.537	77.16105
1008.905	35.07881
1009.273	31.07305
1009.64	53.12275
1010.008	46.1047
1010.375	49.11164
1010.743	-2.0043
1011.11	70.16125
1011.478	85.20208
1011.845	29.065
1012.212	73.1589
1012.579	42.09922
1012.946	26.05867
1013.313	80.17906
1013.68	35.07466
1014.047	13.02985
1014.414	57.12824
1014.78	17.04099
1015.147	11.0253
1015.513	58.13356
1015.88	68.16517
1016.246	67.15573
1016.612	41.08875
1016.978	82.19281
1017.344	37.08814
1017.71	80.18422
1018.076	22.04924
1018.442	69.17077
1018.808	92.22137
1019.174	-3.00725
1019.539	4.00845
1019.905	46.10444
1020.27	35.08286
1020.636	31.07026
1021.001	41.09443
1021.366	58.13382
1021.731	85.21214
1022.096	24.05908
1022.461	43.09773
1022.826	49.1124
1023.191	45.11393
1023.556	79.17459
1023.92	71.16476
1024.285	17.0395
1024.649	12.02817
1025.014	10.02361
1025.378	63.15283
1025.742	33.07806
1026.107	70.14949
1026.471	106.23157
1026.835	21.0502
1027.199	51.11779
1027.562	18.03971
1027.926	29.0677
1028.29	11.02696
1028.654	57.12418
1029.017	93.21795
1029.381	68.15546
1029.744	20.04934
1030.107	82.18406
1030.471	76.17424
1030.834	4.00859
1031.197	49.11272
1031.56	22.04955
1031.923	51.12714
1032.286	126.27794
1032.648	15.03398
1033.011	62.13762
1033.374	22.04902
1033.736	13.03321
1034.099	3.00707
1034.461	59.14425
1034.823	69.16512
1035.185	29.06961
1035.548	48.11251
1035.91	50.11422
1036.272	82.17777
1036.634	46.10774
1036.995	8.01794
1037.357	35.08228
1037.719	29.06794
1038.08	86.19558
1038.442	-13.0298
1038.803	65.14605
1039.165	35.08455
1039.526	11.02566
1039.887	25.0574
1040.248	78.18676
1040.609	30.07043
1040.97	0
1041.331	66.16128
1041.692	63.14295
1042.053	58.12462
1042.413	43.09499
1042.774	82.19018
1043.134	40.08979
1043.495	37.08942
1043.855	21.04964
1044.215	13.03094
1044.576	40.0924
1044.936	47.102
1045.296	29.06964
1045.656	6.01405
1046.016	41.09417
1046.375	14.03273
1046.735	98.21391
1047.095	41.09182
1047.454	45.08915
1047.814	63.14464
1048.173	50.11223
1048.533	38.08316
1048.892	-16.03742
1049.251	10.02405
1049.61	16.03805
1049.969	46.10321
1050.328	73.14937
1050.687	7.01632
1051.046	19.04434
1051.405	17.04035
1051.763	42.09342
1052.122	2.00482
1052.48	55.1295
1052.839	91.20657
1053.197	39.0877
1053.555	18.03836
1053.914	64.14884
1054.272	10.02274
1054.63	47.11045
1054.988	50.11477
1055.345	23.04646
1055.703	60.13811
1056.061	76.1895
1056.419	83.20917
1056.776	34.0776
1057.134	24.05219
1057.491	64.15341
1057.848	1.00239
1058.206	10.02223
1058.563	51.10639
1058.92	72.15649
1059.277	51.12046
1059.634	39.08634
1059.991	92.20948
1060.348	59.12734
1060.704	76.17668
1061.061	62.13396
1061.418	41.09548
1061.774	53.12533
1062.131	87.22402
1062.487	-18.04044
1062.843	60.143
1063.199	25.05994
1063.555	82.18194
1063.911	37.08925
1064.267	90.1725
1064.623	71.16652
1064.979	-5.01098
1065.335	35.07932
1065.691	17.03853
1066.046	47.09782
1066.402	51.10941
1066.757	53.12842
1067.112	53.12377
1067.468	40.09181
1067.823	22.04967
1068.178	-3.00696
1068.533	41.09518
1068.888	33.07509
1069.243	31.07359
1069.598	64.1472
1069.952	56.12291
1070.307	22.0528
1070.662	22.05092
1071.016	85.1829
1071.371	100.21569
1071.725	32.0726
1072.079	23.05331
1072.434	29.06802
1072.788	28.06298
1073.142	89.20833
1073.496	-15.03433
1073.85	76.16659
1074.203	27.06303
1074.557	94.24242
1074.911	74.16638
1075.265	86.18891
1075.618	62.1447
1075.971	14.03198
1076.325	21.05199
1076.678	45.09825
1077.031	-11.02344
1077.385	61.12657
1077.738	66.14076
1078.091	32.07032
1078.444	29.06353
1078.796	17.04049
1079.149	70.16665
1079.502	36.08214
1079.855	48.10699
1080.207	38.08946
1080.56	9.02271
1080.912	38.08848
1081.264	52.12027
1081.617	41.09624
1081.969	69.1677
1082.321	27.0631
1082.673	75.1652
1083.025	34.0767
1083.377	293.6234
1083.728	67.14752
1084.08	0
1084.432	1.00232
1084.783	9.01982
1085.135	35.08484
1085.486	56.12281
1085.838	30.07134
1086.189	69.16126
1086.54	28.06381
1086.891	61.15097
1087.242	86.20293
1087.593	29.06663
1087.944	84.18157
1088.295	91.19438
1088.646	67.15819
1088.996	19.04437
1089.347	16.03756
1089.698	46.10529
1090.048	27.06726
1090.398	44.09657
1090.749	24.05456
1091.099	23.05659
1091.449	47.11286
1091.799	52.12474
1092.149	66.15622
1092.499	42.09826
1092.849	6.0148
1093.199	66.15652
1093.548	23.0538
1093.898	6.01445
1094.248	35.0857
1094.597	30.07497
1094.947	18.0467
1095.296	64.15201
1095.645	39.0973
1095.994	42.09656
1096.343	67.16198
1096.692	52.13401
1097.041	50.13309
1097.39	43.1029
1097.739	38.09516
1098.088	26.06694
1098.437	60.15415
1098.785	26.06733
1099.134	19.04802
1099.482	26.06974
1099.83	31.07879
1100.179	85.21673
1100.527	29.07363
1100.875	20.05171
1101.223	73.18771
1101.571	-7.01882
1101.919	60.15458
1102.267	20.05539
1102.615	6.01926
1102.962	3.00962
1103.31	8.02568
1103.658	0
