Data from N3 R3 sample 7_Subt2__3__11-05-08-816.txt Node

Date: Thu Sep 18 11:05:08 PDT 2025
User: uwsun
Spectrometer: HDX01956
Trigger mode: 0
Integration Time (sec): 5.000000E-1
Scans to average: 1
Nonlinearity correction enabled: true
Boxcar width: 0
Storing dark spectrum: false
XAxis mode: Wavelengths
Number of Pixels in Spectrum: 2068
>>>>>Begin Spectral Data<<<<<
194.03	22.06366
194.578	23.07458
195.127	38.12128
195.676	37.11853
196.225	35.09293
196.773	31.08622
197.321	77.21302
197.87	102.2626
198.418	152.39077
198.966	165.43281
199.513	140.35615
200.061	122.31113
200.609	120.31749
201.156	101.22331
201.704	124.3131
202.251	118.31471
202.798	120.31205
203.345	167.41208
203.892	124.31456
204.438	136.32314
204.985	155.36779
205.532	125.32945
206.078	128.31347
206.624	206.51176
207.17	175.40867
207.716	157.3847
208.262	103.20674
208.808	164.41114
209.354	180.44293
209.899	169.42329
210.445	129.32392
210.99	130.3186
211.535	187.43789
212.08	144.33463
212.625	137.34253
213.17	161.40921
213.715	170.38738
214.259	172.40001
214.804	137.33607
215.348	183.42063
215.892	179.43225
216.436	142.3241
216.98	134.29472
217.524	126.30261
218.068	187.4682
218.612	181.45726
219.155	158.37252
219.698	145.34459
220.242	128.31591
220.785	172.40158
221.328	153.37629
221.871	184.46459
222.414	157.38584
222.956	98.23554
223.499	107.23944
224.041	102.23394
224.583	114.24071
225.126	56.12456
225.668	123.2986
226.21	152.3827
226.751	162.3584
227.293	155.34785
227.835	142.34659
228.376	119.27035
228.918	129.32007
229.459	109.27233
230	150.35832
230.541	146.33377
231.082	189.45416
231.622	98.22233
232.163	95.22985
232.704	174.43117
233.244	130.32155
233.784	140.33725
234.324	202.44763
234.864	89.20211
235.404	146.34128
235.944	136.31866
236.484	144.35736
237.023	119.28008
237.563	168.38684
238.102	156.36595
238.641	143.35701
239.18	105.24713
239.719	154.38245
240.258	121.27155
240.797	144.34215
241.335	161.38761
241.874	161.31135
242.412	166.39988
242.95	136.32774
243.488	161.3579
244.026	169.38954
244.564	174.35417
245.102	213.47407
245.64	103.24619
246.177	111.24675
246.715	188.44548
247.252	104.23642
247.789	135.24956
248.326	163.3896
248.863	197.42699
249.4	125.28294
249.936	180.37306
250.473	211.49041
251.009	123.28125
251.546	168.37214
252.082	123.26524
252.618	158.35086
253.154	156.3728
253.69	148.32989
254.226	112.26857
254.761	144.32163
255.297	137.29809
255.832	160.37767
256.367	157.36606
256.903	174.38318
257.438	172.39874
257.972	158.34911
258.507	164.37265
259.042	177.3807
259.576	218.47382
260.111	154.35093
260.645	134.28877
261.179	169.39233
261.713	199.43887
262.247	153.34674
262.781	143.30055
263.315	119.28824
263.849	155.38542
264.382	165.37546
264.915	188.43945
265.449	93.22805
265.982	173.38888
266.515	208.5018
267.048	192.40131
267.58	115.24831
268.113	172.36827
268.646	121.29561
269.178	133.29651
269.71	195.42554
270.243	242.5481
270.775	172.43739
271.307	171.40199
271.838	147.34504
272.37	128.31289
272.902	140.3158
273.433	191.41823
273.965	163.39258
274.496	157.38598
275.027	206.50485
275.558	197.47428
276.089	159.39465
276.62	149.37307
277.15	167.40662
277.681	191.40497
278.211	205.49148
278.741	183.40206
279.272	173.39239
279.802	168.41386
280.332	205.47665
280.861	120.28677
281.391	181.40686
281.921	221.5177
282.45	192.46932
282.98	215.55069
283.509	208.46611
284.038	237.53076
284.567	172.39716
285.096	254.60139
285.625	115.25925
286.153	232.54378
286.682	212.47937
287.21	122.29032
287.739	175.40947
288.267	223.5334
288.795	164.4247
289.323	165.38501
289.851	188.43756
290.378	182.40113
290.906	184.44575
291.433	199.48923
291.961	187.42293
292.488	145.35806
293.015	194.45277
293.542	225.56881
294.069	206.50354
294.596	158.38349
295.122	248.58196
295.649	154.33543
296.175	172.41025
296.702	245.58669
297.228	154.36872
297.754	153.34308
298.28	235.53062
298.806	197.46888
299.332	196.43398
299.857	205.45986
300.383	181.45056
300.908	209.50697
301.433	253.60677
301.958	167.38047
302.483	168.41325
303.008	288.69634
303.533	204.51876
304.058	178.41118
304.582	203.47368
305.107	191.49145
305.631	205.45854
306.155	188.43393
306.679	187.436
307.203	229.52256
307.727	177.41642
308.251	238.57612
308.775	258.6144
309.298	239.56555
309.822	175.4361
310.345	284.6607
310.868	228.54109
311.391	224.54284
311.914	194.48107
312.437	253.56613
312.96	211.49079
313.482	189.43997
314.005	202.4978
314.527	227.57999
315.049	226.56308
315.571	251.55401
316.093	258.62523
316.615	233.54922
317.137	238.5098
317.659	264.62482
318.18	202.4757
318.702	298.67848
319.223	258.51413
319.744	309.67402
320.265	245.58624
320.786	284.6921
321.307	296.71055
321.828	264.58258
322.348	303.69223
322.869	288.66868
323.389	296.56461
323.909	261.58354
324.43	248.58128
324.95	288.64218
325.47	341.81621
325.989	318.73102
326.509	304.66185
327.029	330.72881
327.548	288.63606
328.067	292.69081
328.587	363.8758
329.106	291.63825
329.625	335.84259
330.144	360.80502
330.662	332.75434
331.181	356.80886
331.7	313.70556
332.218	318.66907
332.736	381.85425
333.255	344.78224
333.773	315.72167
334.291	379.9099
334.808	341.74255
335.326	385.82695
335.844	413.92598
336.361	387.95654
336.879	392.88342
337.396	389.9083
337.913	402.88705
338.43	411.88279
338.947	387.88622
339.464	412.84584
339.981	407.92078
340.497	430.00245
341.014	443.02167
341.53	362.78609
342.046	478.1246
342.562	428.01262
343.078	432.96598
343.594	406.92169
344.11	503.12707
344.626	478.13636
345.141	489.04792
345.657	443.94987
346.172	458.04352
346.687	456.98849
347.202	540.1442
347.717	455.02477
348.232	503.17363
348.747	472.026
349.261	459.95231
349.776	536.18511
350.29	531.24051
350.805	549.25901
351.319	534.15265
351.833	504.08547
352.347	563.22909
352.861	551.19829
353.374	495.05304
353.888	577.3032
354.401	550.15781
354.915	551.15305
355.428	621.41806
355.941	554.19384
356.454	600.21945
356.967	541.17003
357.48	528.11191
357.993	559.27326
358.505	545.22983
359.018	670.48732
359.53	664.47094
360.042	685.37761
360.554	698.5399
361.066	598.33613
361.578	656.30982
362.09	638.38158
362.602	669.34477
363.113	690.46251
363.625	659.35325
364.136	676.33358
364.647	682.45937
365.158	662.39394
365.669	674.45404
366.18	618.32854
366.691	697.36445
367.201	733.5676
367.712	726.48197
368.222	759.54766
368.733	684.33359
369.243	767.51232
369.753	724.48791
370.263	778.66284
370.773	692.51647
371.282	779.64452
371.792	778.5904
372.301	785.67311
372.811	848.95409
373.32	868.61297
373.829	862.75911
374.338	889.69013
374.847	899.77876
375.356	867.76733
375.865	1030.81825
376.373	1053.97538
376.882	1027.1884
377.39	1041.09205
377.898	975.03001
378.407	1147.09712
378.915	1236.11545
379.423	1212.24022
379.93	1281.32777
380.438	1286.42568
380.946	1336.39578
381.453	1432.60391
381.96	1470.6318
382.468	1553.66911
382.975	1680.94583
383.482	1748.67192
383.989	1724.18005
384.495	1848.90421
385.002	1859.51882
385.509	2053.13854
386.015	2161.55734
386.521	2269.03272
387.028	2358.05364
387.534	2351.77835
388.04	2526.3966
388.546	2508.9534
389.051	2669.95851
389.557	2895.22586
390.063	3018.079
390.568	3208.42486
391.073	3229.94825
391.578	3358.49924
392.084	3525.00917
392.589	3625.67153
393.093	3888.19736
393.598	4291.73612
394.103	4587.81537
394.607	5133.59524
395.112	5528.53526
395.616	5809.30973
396.12	6359.72159
396.624	6889.84794
397.128	7354.03412
397.632	8277.50797
398.136	8822.16097
398.639	9583.68091
399.143	10633.67884
399.646	12099.50877
400.15	13177.51891
400.653	14712.31962
401.156	16678.00407
401.659	19452.43789
402.162	23569.76667
402.664	31149.8082
403.167	44128.82814
403.67	61157.2364
404.172	63919.58413
404.674	63858.43483
405.176	63738.15102
405.678	63977.72923
406.18	64011.81569
406.682	63863.44694
407.184	63926.60148
407.686	63841.39382
408.187	64025.8516
408.688	63892.51763
409.19	55076.30602
409.691	44286.73287
410.192	37617.67285
410.693	32563.26785
411.194	29673.55009
411.694	28481.86469
412.195	26348.51656
412.696	23872.79247
413.196	22327.46697
413.696	21782.00531
414.196	22289.63547
414.696	22015.45458
415.196	20831.03218
415.696	18753.12163
416.196	15021.83991
416.695	11798.94508
417.195	9990.72065
417.694	9575.71494
418.194	9028.43533
418.693	8406.55929
419.192	8204.43325
419.691	7971.17911
420.19	7797.19886
420.688	7545.17858
421.187	7167.22345
421.685	6968.75949
422.184	6292.92766
422.682	5193.8817
423.18	4420.65938
423.678	3837.89594
424.176	3662.94997
424.674	3481.85218
425.172	3302.22358
425.669	3130.5071
426.167	2933.18338
426.664	2753.05595
427.161	2495.08491
427.659	2268.27217
428.156	2223.66756
428.652	1954.25887
429.149	1891.0419
429.646	1906.70984
430.143	1794.91301
430.639	1710.79679
431.135	1605.89873
431.632	1461.43726
432.128	1387.51102
432.624	1368.72215
433.12	1300.25631
433.616	1286.13254
434.111	1172.20472
434.607	1147.1907
435.103	1151.86944
435.598	1112.81136
436.093	1018.94003
436.588	998.8367
437.083	939.74387
437.578	980.872
438.073	905.92403
438.568	930.92798
439.062	846.52376
439.557	837.66829
440.051	700.37777
440.546	802.5596
441.04	779.62082
441.534	702.56422
442.028	732.54353
442.522	701.48165
443.015	599.14464
443.509	671.44725
444.002	612.34494
444.496	644.23229
444.989	622.35091
445.482	669.47064
445.975	653.33729
446.468	618.18758
446.961	630.21127
447.454	570.14943
447.947	604.2934
448.439	631.38355
448.931	604.23987
449.424	572.32046
449.916	590.29653
450.408	586.20178
450.9	517.14708
451.392	557.28554
451.884	495.04024
452.375	503.14139
452.867	508.03922
453.358	509.06266
453.849	530.02307
454.341	517.06077
454.832	493.9717
455.323	509.16109
455.814	504.05058
456.304	460.98185
456.795	480.004
457.285	432.88009
457.776	483.00694
458.266	444.97601
458.756	392.86643
459.247	434.96365
459.737	416.93864
460.226	471.9868
460.716	431.95679
461.206	373.83838
461.695	366.85175
462.185	446.97959
462.674	424.89914
463.163	381.80002
463.653	427.84003
464.142	422.9514
464.63	359.81915
465.119	396.85955
465.608	375.82419
466.096	321.65917
466.585	337.72667
467.073	336.74888
467.561	399.89313
468.05	323.70395
468.538	372.85308
469.026	317.71282
469.513	323.64351
470.001	329.71459
470.489	331.7443
470.976	326.72118
471.463	323.76251
471.951	311.73419
472.438	292.65325
472.925	304.68037
473.412	276.64007
473.899	318.69056
474.385	252.59273
474.872	247.55361
475.359	271.63804
475.845	260.51522
476.331	248.50663
476.817	276.64209
477.303	276.61288
477.789	241.55215
478.275	216.51854
478.761	239.54603
479.247	226.48619
479.732	240.5768
480.218	271.68092
480.703	197.47104
481.188	261.54081
481.673	244.53935
482.158	246.51075
482.643	259.6353
483.128	257.57508
483.612	271.61813
484.097	212.49458
484.581	199.44677
485.066	258.60661
485.55	221.47226
486.034	186.39239
486.518	201.46717
487.002	154.36633
487.486	173.40939
487.969	176.41673
488.453	138.33696
488.936	163.35873
489.42	225.48018
489.903	153.37254
490.386	100.20494
490.869	236.49786
491.352	157.36937
491.835	135.27159
492.318	171.37491
492.8	175.35336
493.283	140.35072
493.765	142.34155
494.247	159.36195
494.73	193.41493
495.212	131.3052
495.694	156.36007
496.175	148.34881
496.657	138.32094
497.139	116.19661
497.62	183.42869
498.102	122.29922
498.583	82.1997
499.064	118.25964
499.545	122.27407
500.026	149.33067
500.507	111.25238
500.988	166.40547
501.469	113.27771
501.949	116.2824
502.43	130.30841
502.91	188.38807
503.39	109.26669
503.87	141.32746
504.35	120.27665
504.83	128.2756
505.31	79.18912
505.79	71.16698
506.269	84.19142
506.749	85.19287
507.228	113.26275
507.707	149.32613
508.187	141.33095
508.666	111.27169
509.145	100.23156
509.623	81.18849
510.102	145.34419
510.581	103.24591
511.059	105.26138
511.538	92.23496
512.016	64.15295
512.494	70.16748
512.972	109.25804
513.45	109.25144
513.928	115.27614
514.406	111.26906
514.884	98.25028
515.361	101.23938
515.839	144.32588
516.316	107.25732
516.793	94.23515
517.27	94.22412
517.747	104.2641
518.224	58.1335
518.701	80.17595
519.178	123.30363
519.654	118.27583
520.131	63.15563
520.607	62.15105
521.083	53.12012
521.56	87.20365
522.036	90.19462
522.512	142.34465
522.987	90.21533
523.463	66.15604
523.939	151.36794
524.414	85.19334
524.89	73.17355
525.365	84.18871
525.84	66.15827
526.315	106.25419
526.79	75.16859
527.265	53.1226
527.74	64.15493
528.215	40.09354
528.689	52.11413
529.164	73.15607
529.638	59.14917
530.112	65.15251
530.587	75.16006
531.061	82.19738
531.534	94.22473
532.008	99.23871
532.482	86.19653
532.956	19.0487
533.429	106.25689
533.903	70.15305
534.376	90.1977
534.849	40.09226
535.322	60.14141
535.795	52.12555
536.268	96.23056
536.741	41.09755
537.213	39.08997
537.686	86.20913
538.158	91.20573
538.631	100.24007
539.103	73.1645
539.575	47.09713
540.047	68.14805
540.519	68.16207
540.991	86.20842
541.463	73.17495
541.934	63.14226
542.406	88.21022
542.877	49.11087
543.348	105.25126
543.82	51.12409
544.291	104.24072
544.762	44.10507
545.233	88.22173
545.703	77.17096
546.174	55.12774
546.645	104.24958
547.115	66.15917
547.585	46.10618
548.056	101.24666
548.526	93.21965
548.996	61.14586
549.466	64.15546
549.935	67.16009
550.405	69.15173
550.875	82.19416
551.344	44.10531
551.814	99.22555
552.283	114.24683
552.752	141.32604
553.221	109.23918
553.69	163.36204
554.159	107.26442
554.628	129.2895
555.096	88.22292
555.565	58.12875
556.033	133.31352
556.502	86.20678
556.97	106.23451
557.438	84.19667
557.906	88.20692
558.374	99.22847
558.842	92.21944
559.31	87.19436
559.777	93.22628
560.245	13.03017
560.712	40.09218
561.18	62.13768
561.647	34.07604
562.114	72.16507
562.581	51.1258
563.048	80.18296
563.514	116.2884
563.981	34.07848
564.448	99.22263
564.914	30.07021
565.381	126.28492
565.847	20.04703
566.313	99.22828
566.779	97.21724
567.245	54.12539
567.711	60.14377
568.176	44.09933
568.642	21.05324
569.108	25.06187
569.573	65.15048
570.038	90.1877
570.504	103.23134
570.969	60.14863
571.434	109.24039
571.899	81.19146
572.363	77.17642
572.828	139.31527
573.293	112.2546
573.757	90.20815
574.222	126.27945
574.686	163.36821
575.15	118.28135
575.614	211.48478
576.078	110.25612
576.542	111.25105
577.006	124.27742
577.469	79.19365
577.933	171.38218
578.396	128.29991
578.86	181.41669
579.323	156.36966
579.786	176.37406
580.249	199.4574
580.712	137.32846
581.175	126.30685
581.637	147.3303
582.1	159.34051
582.563	154.32188
583.025	198.46972
583.487	196.39349
583.95	124.2632
584.412	242.49055
584.874	218.51636
585.336	211.48672
585.797	233.49035
586.259	236.53407
586.721	269.60639
587.182	239.53238
587.643	313.67666
588.105	321.72093
588.566	341.67021
589.027	393.90357
589.488	366.79072
589.949	437.98662
590.41	388.71498
590.87	453.9579
591.331	547.07592
591.791	488.03474
592.252	531.1229
592.712	564.2201
593.172	582.18604
593.632	698.35062
594.092	708.36935
594.552	709.32844
595.011	715.42351
595.471	864.64292
595.931	859.62746
596.39	836.70909
596.849	922.78312
597.308	978.67697
597.768	1089.29167
598.227	1153.18949
598.685	1249.16795
599.144	1298.32382
599.603	1358.36736
600.062	1467.16527
600.52	1574.47626
600.978	1688.73469
601.437	1782.66439
601.895	1824.4744
602.353	2035.67831
602.811	2111.82864
603.269	2210.11516
603.727	2416.24956
604.184	2470.99968
604.642	2645.44958
605.099	2857.18256
605.557	2847.41682
606.014	3078.70968
606.471	3195.63199
606.928	3416.81025
607.385	3551.57007
607.842	3677.9149
608.299	3866.96697
608.755	3922.19806
609.212	4070.56339
609.668	4294.52384
610.125	4399.93381
610.581	4518.66434
611.037	4701.24495
611.493	4752.49867
611.949	4897.74727
612.405	5026.47798
612.861	5035.23058
613.316	5190.4461
613.772	5219.10255
614.227	5305.40916
614.683	5354.52951
615.138	5447.14494
615.593	5395.09718
616.048	5469.95875
616.503	5441.40397
616.958	5500.62348
617.412	5469.22362
617.867	5496.79741
618.321	5386.35501
618.776	5333.77198
619.23	5287.21572
619.684	5222.91073
620.138	5136.12811
620.592	5046.61128
621.046	5016.43128
621.5	5020.56291
621.954	4862.04633
622.407	4824.06786
622.861	4686.81759
623.314	4627.33518
623.768	4615.64894
624.221	4411.6063
624.674	4406.60061
625.127	4229.73638
625.58	4176.52101
626.033	4186.34194
626.485	4089.00833
626.938	3957.03572
627.39	3944.91143
627.843	3787.87795
628.295	3656.92791
628.747	3703.1428
629.199	3596.86647
629.651	3495.94431
630.103	3474.95324
630.555	3366.47966
631.006	3247.09064
631.458	3181.17688
631.909	3174.87502
632.361	3118.06115
632.812	3040.09166
633.263	2977.73281
633.714	2858.61442
634.165	2836.30067
634.616	2841.2169
635.067	2703.82005
635.518	2789.2296
635.968	2660.27926
636.419	2601.77568
636.869	2590.19403
637.319	2605.08798
637.769	2513.90819
638.219	2498.15111
638.669	2387.15696
639.119	2449.21064
639.569	2390.20516
640.019	2417.02097
640.468	2365.85943
640.918	2347.12838
641.367	2336.84357
641.816	2302.80045
642.265	2364.05565
642.714	2267.93488
643.163	2371.01146
643.612	2302.28643
644.061	2330.63621
644.51	2275.93975
644.958	2317.77735
645.406	2212.11228
645.855	2248.20732
646.303	2270.97298
646.751	2308.99676
647.199	2309.89459
647.647	2303.01041
648.095	2310.92246
648.543	2314.40454
648.99	2324.18981
649.438	2254.96877
649.885	2285.36813
650.333	2269.22624
650.78	2315.21612
651.227	2250.25144
651.674	2255.90915
652.121	2162.21791
652.568	2148.2023
653.015	2114.22695
653.461	2136.04739
653.908	2053.84346
654.354	2086.02557
654.801	2002.90889
655.247	2037.58792
655.693	1962.36552
656.139	2004.98599
656.585	1974.97016
657.031	1925.87054
657.477	2023.62189
657.922	1901.71179
658.368	1870.02024
658.813	1872.69355
659.259	1905.99072
659.704	1862.8635
660.149	1788.69254
660.594	1835.84509
661.039	1770.6352
661.484	1770.78492
661.929	1759.72265
662.373	1724.98296
662.818	1689.88767
663.262	1794.89051
663.707	1746.06289
664.151	1692.83256
664.595	1670.78189
665.039	1665.87795
665.483	1697.01242
665.927	1677.6693
666.371	1697.69994
666.814	1712.7463
667.258	1726.81855
667.701	1735.3658
668.145	1717.93899
668.588	1699.90489
669.031	1658.66181
669.474	1712.78471
669.917	1642.39402
670.36	1708.94275
670.803	1743.8411
671.245	1612.14938
671.688	1710.83831
672.13	1645.50894
672.573	1699.98012
673.015	1700.79404
673.457	1711.41972
673.899	1774.86907
674.341	1702.7897
674.783	1717.7829
675.225	1749.92013
675.666	1838.9737
676.108	1708.39209
676.549	1778.71679
676.991	1747.47148
677.432	1764.13922
677.873	1661.54845
678.314	1821.83608
678.755	1849.01156
679.196	1810.66518
679.637	1733.78578
680.078	1772.7217
680.518	1787.66325
680.959	1826.83827
681.399	1780.96515
681.839	1816.91172
682.28	1862.05381
682.72	1822.67184
683.16	1848.05875
683.6	1882.68997
684.039	1910.3344
684.479	1907.05944
684.919	1969.88864
685.358	1892.07987
685.798	1845.24864
686.237	1948.92867
686.676	1940.69793
687.115	2123.97797
687.554	2017.99059
687.993	2078.67466
688.432	2055.79621
688.871	2078.83101
689.309	2088.04135
689.748	2168.45005
690.186	2164.95697
690.625	2157.97805
691.063	2179.0599
691.501	2262.285
691.939	2342.4246
692.377	2324.20588
692.815	2388.28255
693.253	2362.1217
693.69	2363.71394
694.128	2379.23594
694.565	2448.12479
695.003	2539.59031
695.44	2561.1554
695.877	2573.12119
696.314	2549.55249
696.751	2619.92098
697.188	2691.05541
697.625	2642.85391
698.061	2673.2313
698.498	2731.16028
698.934	2790.23199
699.371	2791.14474
699.807	2855.1615
700.243	2929.29788
700.679	2799.83602
701.115	2960.08745
701.551	2885.06377
701.987	2991.70524
702.422	3052.22719
702.858	3172.21071
703.294	3238.9514
703.729	3153.33359
704.164	3188.2061
704.599	3250.78707
705.035	3345.78749
705.47	3251.30919
705.904	3372.97364
706.339	3430.90119
706.774	3507.00933
707.209	3517.96908
707.643	3628.11604
708.078	3680.21387
708.512	3700.43833
708.946	3768.98949
709.38	3807.00227
709.814	3761.68588
710.248	3868.19101
710.682	3951.02415
711.116	4061.08149
711.549	3936.48977
711.983	3990.72074
712.416	4207.81328
712.85	4222.12041
713.283	4179.78147
713.716	4312.07939
714.149	4396.52305
714.582	4416.31181
715.015	4418.9387
715.448	4517.11231
715.881	4562.9239
716.313	4699.41805
716.746	4730.50233
717.178	4736.61663
717.61	4864.00232
718.043	4972.6835
718.475	4954.5615
718.907	5134.67968
719.339	5129.96681
719.77	5222.31283
720.202	5147.69675
720.634	5476.36446
721.065	5376.09569
721.497	5342.40678
721.928	5491.30911
722.359	5578.24648
722.79	5666.06958
723.221	5637.35242
723.652	5753.48614
724.083	5751.59214
724.514	5824.70376
724.945	5929.7863
725.375	6023.74837
725.806	6053.10231
726.236	6179.34154
726.666	6179.74177
727.096	6292.96304
727.526	6556.29802
727.956	6538.47869
728.386	6674.89301
728.816	6631.22778
729.246	6856.93518
729.675	6650.86034
730.105	6765.86324
730.534	6912.56844
730.964	6907.98581
731.393	6874.86525
731.822	7128.16321
732.251	7169.11723
732.68	7290.60305
733.109	7419.99114
733.537	7342.92585
733.966	7419.06678
734.395	7467.67585
734.823	7659.60037
735.251	7585.90904
735.68	7538.01815
736.108	7565.10524
736.536	7745.87936
736.964	7656.78091
737.392	7600.11937
737.82	7714.94205
738.247	7829.00715
738.675	7805.93025
739.102	7752.18159
739.53	7846.41196
739.957	7832.43923
740.384	7844.05954
740.811	7907.25411
741.238	7921.21078
741.665	7928.0379
742.092	7809.84375
742.519	7724.14935
742.945	7796.08755
743.372	7822.20781
743.798	7860.37779
744.225	7667.87023
744.651	7672.15127
745.077	7664.13148
745.503	7599.92724
745.929	7725.02528
746.355	7590.95941
746.781	7447.95587
747.207	7368.76466
747.632	7319.00351
748.058	7415.11445
748.483	7464.63633
748.908	7275.00323
749.334	7288.94545
749.759	7254.7468
750.184	7291.81999
750.609	7162.86997
751.033	7164.5908
751.458	7102.35312
751.883	7021.87789
752.307	6771.60804
752.732	6864.17078
753.156	6734.89121
753.58	6714.60758
754.005	6736.01708
754.429	6657.66949
754.853	6563.01114
755.277	6351.72609
755.7	6320.03725
756.124	6320.05382
756.548	6168.72662
756.971	6293.91653
757.394	6140.32165
757.818	6072.44093
758.241	6060.3218
758.664	5907.32938
759.087	5809.56593
759.51	5773.189
759.933	5811.04788
760.356	5562.69797
760.778	5458.32947
761.201	5559.13089
761.623	5357.11438
762.046	5292.01464
762.468	5305.19142
762.89	5160.41529
763.312	5161.46533
763.734	5055.40332
764.156	4910.67043
764.578	4834.09309
765	4889.57159
765.421	4652.10421
765.843	4759.24758
766.264	4493.55327
766.686	4471.9286
767.107	4438.77489
767.528	4366.31083
767.949	4337.19229
768.37	4168.10492
768.791	4115.84123
769.212	3960.3265
769.632	3904.80118
770.053	3800.65539
770.473	3809.01532
770.894	3711.19245
771.314	3691.89894
771.734	3525.88771
772.154	3547.52415
772.575	3484.81754
772.994	3378.74276
773.414	3452.02779
773.834	3343.3829
774.254	3244.25642
774.673	3206.29994
775.093	3097.42793
775.512	2999.37093
775.931	2998.54768
776.351	2923.43692
776.77	2829.33053
777.189	2771.11377
777.607	2703.5471
778.026	2671.38572
778.445	2650.50928
778.864	2564.44751
779.282	2490.07318
779.701	2470.363
780.119	2424.41738
780.537	2423.29783
780.955	2343.3476
781.373	2247.18141
781.791	2343.8099
782.209	2151.68954
782.627	2146.47992
783.045	2132.72068
783.462	2034.23071
783.88	2004.28771
784.297	1987.12409
784.715	1937.21374
785.132	1862.82215
785.549	1761.9071
785.966	1789.965
786.383	1780.88526
786.8	1720.57042
787.217	1688.67262
787.633	1661.85897
788.05	1608.47989
788.466	1591.46834
788.883	1549.8239
789.299	1514.47366
789.715	1519.58417
790.131	1478.60721
790.547	1363.47859
790.963	1401.50327
791.379	1352.51963
791.795	1297.09042
792.21	1282.15845
792.626	1257.16702
793.041	1274.3284
793.457	1199.22105
793.872	1182.05061
794.287	1155.13507
794.702	1079.02088
795.117	1090.12311
795.532	1071.12883
795.947	1057.93534
796.362	1030.86169
796.776	1016.79999
797.191	936.84645
797.605	926.76357
798.02	874.72641
798.434	954.65403
798.848	904.83824
799.262	857.74534
799.676	839.6777
800.09	804.63619
800.504	777.55501
800.918	784.47104
801.331	715.55672
801.745	725.37185
802.158	707.48196
802.572	731.48578
802.985	726.45248
803.398	682.36748
803.811	622.35148
804.224	622.31306
804.637	612.25802
805.05	617.20589
805.462	562.194
805.875	567.29826
806.288	567.1981
806.7	514.12646
807.112	477.96315
807.525	468.0065
807.937	493.08241
808.349	454.00687
808.761	487.06562
809.173	497.06739
809.584	427.94082
809.996	431.94446
810.408	442.04057
810.819	422.88865
811.231	445.07781
811.642	419.94059
812.053	410.90281
812.464	377.80594
812.875	442.02077
813.286	424.99756
813.697	353.72455
814.108	373.82049
814.519	372.75165
814.929	324.75701
815.34	291.64202
815.75	345.81159
816.16	280.63595
816.571	279.67089
816.981	246.53058
817.391	242.53694
817.801	283.65331
818.211	270.59182
818.62	242.54497
819.03	279.62919
819.44	226.54316
819.849	244.56609
820.259	223.52831
820.668	248.57013
821.077	232.544
821.486	199.44218
821.895	193.44041
822.304	199.4968
822.713	203.44619
823.122	186.43597
823.531	152.33459
823.939	213.48781
824.348	177.40195
824.756	216.50312
825.164	184.43365
825.573	172.40804
825.981	187.43308
826.389	216.50668
826.797	213.50988
827.205	181.39248
827.612	154.35716
828.02	111.24644
828.428	210.50106
828.835	161.40587
829.243	159.35404
829.65	180.42554
830.057	109.25064
830.464	178.41379
830.871	150.34084
831.278	151.34513
831.685	132.27627
832.092	127.29203
832.499	148.30577
832.905	138.32941
833.312	86.18302
833.718	168.39825
834.124	170.36509
834.531	81.19383
834.937	119.29267
835.343	103.23457
835.749	111.24203
836.155	49.12424
836.561	94.22146
836.966	138.31815
837.372	101.24455
837.777	117.27891
838.183	130.27052
838.588	85.20379
838.993	126.29141
839.399	89.20931
839.804	112.26068
840.209	107.26394
840.613	74.15666
841.018	60.14552
841.423	73.1804
841.828	107.26005
842.232	85.19772
842.637	175.39192
843.041	100.2469
843.445	92.21902
843.849	58.13893
844.253	87.19661
844.657	66.16116
845.061	140.30507
845.465	57.13248
845.869	97.21437
846.272	89.20849
846.676	12.0276
847.079	83.20444
847.483	74.17657
847.886	88.20239
848.289	84.21896
848.692	28.06819
849.095	74.16931
849.498	114.27087
849.901	52.11326
850.304	73.16672
850.707	94.2285
851.109	60.14525
851.512	60.14224
851.914	30.07385
852.316	128.31172
852.718	60.15366
853.121	54.12747
853.523	32.07153
853.925	52.13266
854.326	55.13352
854.728	34.08506
855.13	44.11102
855.531	59.13578
855.933	48.1096
856.334	72.17397
856.736	70.15131
857.137	100.22327
857.538	54.13195
857.939	97.23256
858.34	29.06748
858.741	37.09334
859.142	58.13292
859.542	70.17946
859.943	45.10777
860.343	46.11073
860.744	101.23466
861.144	61.14435
861.544	51.11976
861.945	44.10816
862.345	97.22492
862.745	23.05582
863.145	39.08788
863.544	40.09803
863.944	77.17366
864.344	67.15745
864.743	41.09793
865.143	60.14999
865.542	30.06607
865.941	66.15755
866.34	31.0706
866.74	45.1172
867.139	67.1561
867.537	46.11178
867.936	53.12319
868.335	65.15863
868.734	41.10151
869.132	17.03762
869.531	56.12828
869.929	80.1747
870.327	34.07857
870.726	32.07621
871.124	48.10668
871.522	35.08589
871.92	38.09043
872.318	15.03522
872.715	47.11019
873.113	16.0375
873.511	52.12422
873.908	47.11658
874.306	71.171
874.703	22.05272
875.1	51.12381
875.497	-3.00695
875.894	72.17253
876.291	83.1952
876.688	59.14687
877.085	49.11204
877.482	30.07254
877.878	44.10346
878.275	32.07889
878.671	18.03727
879.068	70.16158
879.464	23.05367
879.86	30.06836
880.256	18.04224
880.652	-16.03969
881.048	35.0827
881.444	54.12126
881.84	50.12227
882.236	65.15673
882.631	71.16795
883.027	36.08356
883.422	14.0345
883.817	39.09546
884.213	56.13852
884.608	107.25575
885.003	-11.02555
885.398	34.08231
885.793	44.10595
886.188	4.00964
886.582	47.11508
886.977	82.18406
887.371	29.07038
887.766	18.04366
888.16	29.06863
888.554	58.13659
888.949	39.09439
889.343	82.1901
889.737	35.09141
890.131	46.11123
890.525	35.08719
890.918	26.06323
891.312	71.16045
891.706	6.01528
892.099	59.14388
892.492	47.09604
892.886	24.05656
893.279	19.04678
893.672	53.13098
894.065	32.0775
894.458	-3.00726
894.851	53.12372
895.244	14.03467
895.637	65.15048
896.029	121.28246
896.422	63.1455
896.814	17.04076
897.206	76.17549
897.599	72.17022
897.991	30.07046
898.383	42.09559
898.775	108.23344
899.167	93.20957
899.559	32.0775
899.951	9.0203
900.342	4.00978
900.734	27.06646
901.125	27.06814
901.517	30.07123
901.908	61.13768
902.299	-16.03822
902.69	65.14815
903.082	44.10245
903.473	68.15852
903.863	3.00739
904.254	64.14384
904.645	29.06865
905.036	42.10003
905.426	71.15218
905.817	33.07749
906.207	-58.13382
906.597	47.10665
906.987	28.06961
907.378	41.10065
907.768	-7.01813
908.158	25.05868
908.547	89.22365
908.937	6.01475
909.327	69.15987
909.717	41.0986
910.106	8.0185
910.495	42.09972
910.885	18.0443
911.274	52.12474
911.663	40.09694
912.052	36.08448
912.441	80.19658
912.83	1.0022
913.219	44.11075
913.608	80.18803
913.997	16.03927
914.385	65.14851
914.774	29.06791
915.162	59.13637
915.55	52.11964
915.939	52.12744
916.327	36.08587
916.715	52.1298
917.103	21.04898
917.491	62.14647
917.878	22.05209
918.266	37.09231
918.654	78.19272
919.041	64.16316
919.429	33.07488
919.816	51.12423
920.203	54.12702
920.591	57.13604
920.978	72.16857
921.365	11.02818
921.752	-1.00227
922.139	98.20075
922.525	51.11807
922.912	50.11656
923.299	13.03135
923.685	-1.00251
924.072	39.08388
924.458	36.08643
924.844	6.0144
925.231	45.09933
925.617	30.07467
926.003	14.03457
926.389	26.06337
926.774	10.02447
927.16	78.18476
927.546	36.09035
927.931	32.07647
928.317	43.09408
928.702	51.11493
929.088	67.15517
929.473	82.20156
929.858	14.03339
930.243	37.08644
930.628	69.16253
931.013	59.14059
931.398	96.20501
931.783	72.18005
932.167	66.15634
932.552	40.09621
932.937	60.14185
933.321	24.05878
933.705	-20.04854
934.09	41.09759
934.474	14.03174
934.858	25.06298
935.242	53.11704
935.626	59.14613
936.009	35.09119
936.393	59.14655
936.777	40.09956
937.16	57.14416
937.544	22.04902
937.927	48.11808
938.311	70.16203
938.694	62.15851
939.077	46.10567
939.46	-18.04196
939.843	4.0078
940.226	25.06169
940.609	72.15956
940.991	33.08056
941.374	78.18341
941.757	36.08514
942.139	51.10993
942.522	77.17202
942.904	69.15854
943.286	57.13864
943.668	34.08616
944.05	63.14886
944.432	18.04274
944.814	48.11229
945.196	-6.01433
945.578	57.13222
945.959	0
946.341	24.05564
946.722	41.09167
947.104	71.16209
947.485	48.10699
947.866	49.11994
948.247	71.17359
948.628	-5.01158
949.009	52.12825
949.39	41.09751
949.771	16.03491
950.152	67.15763
950.532	45.10978
950.913	56.12911
951.293	31.08206
951.674	23.05365
952.054	75.18153
952.434	69.16436
952.814	19.04301
953.194	30.07489
953.574	81.18931
953.954	15.03395
954.334	58.1402
954.714	18.04262
955.093	77.18067
955.473	51.12414
955.853	53.13227
956.232	17.04526
956.611	18.04102
956.99	70.16939
957.37	27.06601
957.749	13.0294
958.128	32.07837
958.506	53.1328
958.885	52.12565
959.264	95.2249
959.643	71.15488
960.021	79.18861
960.4	18.03916
960.778	54.12544
961.156	13.03141
961.535	36.07955
961.913	91.20338
962.291	78.19456
962.669	31.0763
963.047	84.2064
963.424	104.25687
963.802	43.10196
964.18	18.04326
964.557	38.08333
964.935	65.14677
965.312	44.11134
965.69	63.14961
966.067	34.07864
966.444	6.01401
966.821	36.08977
967.198	35.08055
967.575	54.12628
967.952	71.15881
968.329	32.07551
968.705	119.24095
969.082	48.12047
969.458	53.12377
969.835	56.13055
970.211	63.15723
970.587	58.13887
970.963	75.18255
971.339	30.07624
971.715	55.13217
972.091	65.15299
972.467	27.06392
972.843	46.11123
973.219	55.1249
973.594	26.06591
973.97	21.04672
974.345	41.09469
974.721	30.06872
975.096	66.1541
975.471	32.07257
975.846	22.0505
976.221	23.05659
976.596	85.19764
976.971	83.1971
977.346	24.05319
977.72	49.11945
978.095	23.05749
978.469	26.05939
978.844	53.12707
979.218	84.19505
979.593	53.12085
979.967	-9.02083
980.341	85.18668
980.715	51.1239
981.089	51.12251
981.463	49.10752
981.837	58.13765
982.21	-2.00436
982.584	26.0608
982.957	31.0752
983.331	18.04029
983.704	55.13141
984.078	60.14136
984.451	4.00946
984.824	12.02846
985.197	11.02537
985.57	8.01909
985.943	29.06759
986.316	10.02331
986.688	60.138
987.061	112.24892
987.434	62.15767
987.806	27.06201
988.179	12.02717
988.551	26.06337
988.923	0
989.295	50.11922
989.667	60.13943
990.039	80.19228
990.411	37.08013
990.783	-9.01972
991.155	41.09511
991.527	23.05342
991.898	40.09647
992.27	45.10818
992.641	26.06247
993.012	10.02203
993.384	46.10448
993.755	46.11366
994.126	60.13938
994.497	28.06625
994.868	20.04354
995.239	18.04191
995.61	19.04628
995.98	32.07463
996.351	27.06501
996.722	40.09005
997.092	5.01151
997.462	23.0524
997.833	58.12992
998.203	16.03678
998.573	38.09151
998.943	40.09045
999.313	64.14749
999.683	35.08103
1000.053	-37.08064
1000.423	45.10397
1000.792	32.07912
1001.162	24.0565
1001.531	38.09029
1001.901	10.02397
1002.27	40.08338
1002.639	-27.06672
1003.009	-9.02066
1003.378	46.11349
1003.747	25.05634
1004.116	-10.02313
1004.485	33.07567
1004.853	-2.00484
1005.222	-28.06745
1005.591	31.07037
1005.959	49.10589
1006.328	32.06926
1006.696	-18.04193
1007.064	23.05525
1007.433	-9.02164
1007.801	6.01397
1008.169	22.05302
1008.537	93.19382
1008.905	43.09666
1009.273	32.07539
1009.64	68.15702
1010.008	64.14513
1010.375	40.0913
1010.743	50.10632
1011.11	83.1907
1011.478	60.14333
1011.845	77.17089
1012.212	73.1589
1012.579	-11.02625
1012.946	46.10338
1013.313	28.06334
1013.68	56.11892
1014.047	3.0069
1014.414	26.05887
1014.78	43.10317
1015.147	25.05735
1015.513	58.13356
1015.88	40.09767
1016.246	18.04224
1016.612	43.09304
1016.978	68.16033
1017.344	22.05256
1017.71	42.09745
1018.076	1.00225
1018.442	79.19516
1018.808	90.21664
1019.174	1.00241
1019.539	34.07135
1019.905	16.03655
1020.27	26.06166
1020.636	3.00684
1021.001	77.17607
1021.366	67.15431
1021.731	42.10564
1022.096	24.05908
1022.461	60.1359
1022.826	36.0828
1023.191	36.09129
1023.556	18.04029
1023.92	-6.01414
1024.285	39.09022
1024.649	43.10034
1025.014	20.04714
1025.378	61.14803
1025.742	42.09918
1026.107	16.03457
1026.471	55.12145
1026.835	33.0787
1027.199	8.01863
1027.562	25.05507
1027.926	-22.05187
1028.29	28.06842
1028.654	61.13278
1029.017	60.14152
1029.381	68.15546
1029.744	27.06653
1030.107	55.12414
1030.471	42.09695
1030.834	27.05772
1031.197	80.18289
1031.56	25.05627
1031.923	19.04764
1032.286	33.07421
1032.648	29.06551
1033.011	45.10024
1033.374	26.05788
1033.736	11.02811
1034.099	31.07271
1034.461	30.07374
1034.823	-1.00242
1035.185	20.04809
1035.548	49.11483
1035.91	33.07564
1036.272	86.18629
1036.634	81.18842
1036.995	4.00898
1037.357	66.15422
1037.719	83.19238
1038.08	85.19334
1038.442	-3.00686
1038.803	-8.01825
1039.165	-9.02192
1039.526	41.09507
1039.887	35.08019
1040.248	78.18676
1040.609	36.08442
1040.97	49.11425
1041.331	36.08846
1041.692	57.1295
1042.053	73.15634
1042.413	35.07745
1042.774	55.12824
1043.134	50.112
1043.495	51.12293
1043.855	85.19842
1044.215	-24.05753
1044.576	59.13578
1044.936	48.10415
1045.296	42.1006
1045.656	18.04204
1046.016	30.06905
1046.375	32.07454
1046.735	86.1882
1047.095	47.10513
1047.454	62.12234
1047.814	16.03708
1048.173	36.08104
1048.533	20.04393
1048.892	9.02094
1049.251	22.0528
1049.61	17.04042
1049.969	62.13866
1050.328	32.06608
1050.687	36.08343
1051.046	30.06985
1051.405	9.0214
1051.763	24.05358
1052.122	0
1052.48	32.07568
1052.839	43.09856
1053.197	40.08993
1053.555	16.03411
1053.914	71.16489
1054.272	-20.04576
1054.63	27.0637
1054.988	45.10339
1055.345	-30.06134
1055.703	64.1472
1056.061	36.09042
1056.419	45.11418
1056.776	-6.01381
1057.134	-38.08372
1057.491	48.11541
1057.848	11.02626
1058.206	15.0333
1058.563	40.08364
1058.92	46.10054
1059.277	3.00715
1059.634	-5.01117
1059.991	76.17361
1060.348	9.01963
1060.704	68.15833
1061.061	32.06958
1061.418	30.07002
1061.774	68.16033
1062.131	65.16801
1062.487	16.03569
1062.843	52.12413
1063.199	54.12875
1063.555	41.09175
1063.911	-39.09542
1064.267	92.17625
1064.623	69.1619
1064.979	26.0567
1065.335	44.09954
1065.691	46.10364
1066.046	35.07304
1066.402	41.08815
1066.757	45.1092
1067.112	20.04701
1067.468	19.0438
1067.823	-26.05927
1068.178	27.06224
1068.533	2.00468
1068.888	51.11563
1069.243	22.05231
1069.598	42.09702
1069.952	33.07278
1070.307	50.11935
1070.662	27.06243
1071.016	49.10625
1071.371	54.11762
1071.725	93.20837
1072.079	49.11299
1072.434	46.10753
1072.788	-8.01813
1073.142	53.12494
1073.496	38.08603
1073.85	62.13631
1074.203	60.13915
1074.557	91.23481
1074.911	21.04773
1075.265	54.11942
1075.618	25.05877
1075.971	48.1089
1076.325	35.08643
1076.678	13.02857
1077.031	-10.0213
1077.385	25.05229
1077.738	37.07941
1078.091	35.07687
1078.444	49.10689
1078.796	38.09015
1079.149	48.11475
1079.502	58.13174
1079.855	43.09595
1080.207	45.10579
1080.56	27.0679
1080.912	65.15054
1081.264	59.13627
1081.617	16.03774
1081.969	62.15088
1082.321	45.1048
1082.673	73.16086
1083.025	45.10128
1083.377	277.59141
1083.728	27.05995
1084.08	32.07627
1084.432	54.1238
1084.783	8.01763
1085.135	78.18754
1085.486	48.10544
1085.838	47.1114
1086.189	68.15896
1086.54	80.18039
1086.891	67.16564
1087.242	126.295
1087.593	11.02537
1087.944	65.14107
1088.295	56.12053
1088.646	118.27583
1088.996	33.07685
1089.347	19.04458
1089.698	37.08484
1090.048	23.05734
1090.398	37.08133
1090.749	-13.02977
1091.099	65.15868
1091.449	37.08901
1091.799	40.09618
1092.149	2.00479
1092.499	42.09826
1092.849	17.04184
1093.199	28.06689
1093.548	48.11172
1093.898	39.09333
1094.248	43.10513
1094.597	28.06999
1094.947	15.03893
1095.296	40.09545
1095.645	60.14912
1095.994	18.04158
1096.343	41.09961
1096.692	54.13912
1097.041	34.09074
1097.39	-17.04115
1097.739	10.02517
1098.088	52.13327
1098.437	33.08518
1098.785	2.0052
1099.134	9.02279
1099.482	38.10172
1099.83	35.0889
1100.179	73.18653
1100.527	-36.09246
1100.875	19.04913
1101.223	48.12396
1101.571	-42.11357
1101.919	24.06222
1102.267	42.11592
1102.615	1.00321
1102.962	0
1103.31	5.01606
1103.658	-5.01604
