Data from N3 R3 sample 5_Subt2__3__11-04-01-818.txt Node

Date: Thu Sep 18 11:04:01 PDT 2025
User: uwsun
Spectrometer: HDX01956
Trigger mode: 0
Integration Time (sec): 5.000000E-1
Scans to average: 1
Nonlinearity correction enabled: true
Boxcar width: 0
Storing dark spectrum: false
XAxis mode: Wavelengths
Number of Pixels in Spectrum: 2068
>>>>>Begin Spectral Data<<<<<
194.03	40.11545
194.578	54.17447
195.127	46.14667
195.676	55.17581
196.225	76.20041
196.773	57.15789
197.321	67.18565
197.87	143.36552
198.418	148.38075
198.966	201.524
199.513	182.45954
200.061	164.41513
200.609	168.4409
201.156	148.32401
201.704	149.37455
202.251	160.42374
202.798	172.44326
203.345	173.42642
203.892	155.39103
204.438	183.43087
204.985	162.38388
205.532	176.45986
206.078	155.37769
206.624	219.54276
207.17	180.41993
207.716	188.45801
208.262	148.29397
208.808	209.51969
209.354	248.60258
209.899	176.44027
210.445	153.38253
210.99	150.36625
211.535	205.47834
212.08	168.38854
212.625	157.39111
213.17	225.56536
213.715	178.40496
214.259	209.48249
214.804	132.32411
215.348	190.4361
215.892	224.53631
216.436	140.31967
216.98	207.44828
217.524	176.41866
218.068	183.45852
218.612	199.50112
219.155	212.49458
219.698	175.41348
220.242	183.44707
220.785	185.43083
221.328	183.44757
221.871	176.44503
222.414	177.43338
222.956	134.31986
223.499	125.27868
224.041	121.27645
224.583	121.2551
225.126	216.46448
225.668	168.40439
226.21	166.4169
226.751	204.44735
227.293	178.39757
227.835	140.34184
228.376	171.38438
228.918	163.40192
229.459	148.36715
230	201.47546
230.541	144.32933
231.082	189.45416
231.622	127.28642
232.163	167.39855
232.704	222.54526
233.244	199.48598
233.784	169.40487
234.324	205.454
234.864	161.36027
235.404	153.35715
235.944	161.37539
236.484	173.42704
237.023	185.42981
237.563	202.46197
238.102	156.36595
238.641	174.43196
239.18	164.38155
239.719	168.41615
240.258	206.45421
240.797	169.39961
241.335	148.35719
241.874	185.35571
242.412	247.58584
242.95	169.40471
243.488	155.34499
244.026	181.4162
244.564	221.44501
245.102	165.3709
245.64	152.3599
246.177	142.31363
246.715	175.41572
247.252	161.36176
247.789	210.38093
248.326	156.37337
248.863	171.3727
249.4	224.4968
249.936	219.44992
250.473	222.51485
251.009	130.29684
251.546	187.41258
252.082	154.32987
252.618	203.44657
253.154	187.44423
253.69	138.30823
254.226	194.45792
254.761	189.41822
255.297	133.28963
255.832	223.51993
256.367	206.47566
256.903	203.44432
257.438	210.48316
257.972	177.38954
258.507	150.34181
259.042	209.44642
259.576	227.49243
260.111	191.43198
260.645	196.41675
261.179	178.41249
261.713	207.45575
262.247	157.35552
262.781	215.4447
263.315	129.31187
263.849	198.48848
264.382	182.41272
264.915	209.48653
265.449	135.32846
265.982	182.40835
266.515	257.61425
267.048	183.38326
267.58	214.45225
268.113	198.42155
268.646	136.33133
269.178	173.38249
269.71	243.52489
270.243	227.51569
270.775	221.55711
271.307	157.37009
271.838	180.41977
272.37	180.43573
272.902	171.38328
273.433	202.44129
273.965	215.5127
274.496	162.39791
275.027	170.41941
275.558	229.54796
276.089	210.51637
276.62	195.48417
277.15	192.4653
277.681	187.39684
278.211	176.42428
278.741	183.40206
279.272	199.44897
279.802	206.50391
280.332	202.46995
280.861	166.3932
281.391	186.41767
281.921	162.38388
282.45	162.3982
282.98	210.53835
283.509	232.51732
284.038	202.45565
284.567	199.45703
285.096	245.58109
285.625	174.38752
286.153	198.46718
286.682	193.4381
287.21	149.35273
287.739	222.51464
288.267	237.56537
288.795	190.48981
289.323	207.47902
289.851	251.57691
290.378	192.42228
290.906	231.55465
291.433	218.53406
291.961	202.45546
292.488	209.51002
293.015	234.54182
293.542	304.75764
294.069	245.59451
294.596	192.46303
295.122	243.57079
295.649	203.43756
296.175	227.53571
296.702	258.61628
297.228	208.49287
297.754	237.52223
298.28	270.60528
298.806	218.51676
299.332	206.45516
299.857	220.49199
300.383	259.63554
300.908	253.60862
301.433	286.68159
301.958	201.45478
302.483	231.56159
303.008	243.59253
303.533	183.46709
304.058	209.47981
304.582	241.55813
305.107	233.59511
305.631	233.51815
306.155	250.56989
306.679	259.59529
307.203	272.61528
307.727	233.54217
308.251	273.65647
308.775	307.72418
309.298	237.56104
309.822	237.58393
310.345	303.70225
310.868	265.6244
311.391	302.72109
311.914	242.59482
312.437	314.69377
312.96	253.5836
313.482	260.59675
314.005	233.5709
314.527	231.58979
315.049	274.67669
315.571	303.66149
316.093	296.71217
316.615	277.64734
317.137	378.78515
317.659	348.81019
318.18	261.60756
318.702	315.71471
319.223	307.6048
319.744	284.62277
320.265	304.7192
320.786	322.77911
321.307	274.6605
321.828	324.70598
322.348	274.62964
322.869	338.77699
323.389	424.78368
323.909	333.73344
324.43	305.70689
324.95	358.78667
325.47	341.81621
325.989	363.82694
326.509	382.81786
327.029	338.74523
327.548	346.75487
328.067	353.82523
328.587	410.98037
329.106	311.67924
329.625	337.84731
330.144	364.81329
330.662	417.9311
331.181	430.9623
331.7	338.75801
332.218	431.88424
332.736	378.84805
333.255	394.88684
333.773	368.83409
334.291	471.10874
334.808	448.95334
335.326	425.90499
335.844	447.99518
336.361	503.21441
336.879	445.99196
337.396	519.1787
337.913	456.99481
338.43	482.01754
338.947	466.0481
339.464	458.93051
339.981	434.97645
340.497	500.14992
341.014	471.08032
341.53	478.01041
342.046	497.16506
342.562	504.17528
343.078	523.14549
343.594	506.12334
344.11	541.2029
344.626	561.31273
345.141	561.18385
345.657	591.22488
346.172	532.19435
346.687	467.00801
347.202	600.25492
347.717	562.23855
348.232	563.29837
348.747	598.26564
349.261	540.09831
349.776	606.32058
350.29	612.40729
350.805	633.42749
351.319	662.39028
351.833	614.29161
352.347	662.41531
352.861	620.32884
353.374	604.25494
353.888	662.46955
354.401	593.2367
354.915	645.32208
355.428	646.4678
355.941	693.44938
356.454	637.28389
356.967	634.34427
357.48	670.36752
357.993	609.37332
358.505	637.41078
359.018	698.54055
359.53	704.54668
360.042	757.49746
360.554	752.64045
361.066	700.53144
361.578	752.46847
362.09	735.55901
362.602	777.52346
363.113	704.48768
363.625	788.5716
364.136	751.45577
364.647	760.59913
365.158	776.59346
365.669	761.6114
366.18	769.6
366.691	778.4942
367.201	804.69327
367.712	808.61899
368.222	839.68002
368.733	812.53565
369.243	890.70474
369.753	845.68971
370.263	887.85145
370.773	883.85773
371.282	909.86474
371.792	913.80986
372.301	896.86405
372.811	973.18463
373.32	1005.80487
373.829	912.84023
374.338	1046.91371
374.847	1023.96604
375.356	1005.98504
375.865	1132.94612
376.373	1133.08285
376.882	1191.44863
377.39	1193.31488
377.898	1221.40515
378.407	1263.24304
378.915	1374.26695
379.423	1298.3487
379.93	1553.63256
380.438	1478.65964
380.946	1582.66275
381.453	1617.80616
381.96	1655.82614
382.468	1775.87627
382.975	1915.15799
383.482	1954.81377
383.989	1994.4388
384.495	2104.07439
385.002	2120.64313
385.509	2300.2755
386.015	2476.6244
386.521	2599.12827
387.028	2665.12555
387.534	2731.82728
388.04	2828.46194
388.546	2889.98217
389.051	3039.95186
389.557	3218.20435
390.063	3492.98718
390.568	3613.34462
391.073	3737.79229
391.578	3908.3468
392.084	4084.78531
392.589	4098.45863
393.093	4594.85633
393.598	4903.39836
394.103	5334.39625
394.607	5875.20903
395.112	6283.1974
395.616	6786.00891
396.12	7173.70006
396.624	8047.28498
397.128	8825.25104
397.632	9701.96833
398.136	10541.54812
398.639	11083.58533
399.143	12353.60317
399.646	14171.00576
400.15	15569.36309
400.653	17408.47827
401.156	19603.5273
401.659	22823.59076
402.162	27858.93181
402.664	36508.12988
403.167	52064.86621
403.67	62009.44784
404.172	63919.58413
404.674	63858.43483
405.176	63738.15102
405.678	63977.72923
406.18	64011.81569
406.682	63863.44694
407.184	63926.60148
407.686	63841.39382
408.187	64025.8516
408.688	63892.51763
409.19	63154.78382
409.691	50648.33279
410.192	42938.46152
410.693	37476.85362
411.194	33938.68744
411.694	32132.85697
412.195	29825.28261
412.696	26846.79208
413.196	25104.14148
413.696	24408.99412
414.196	24821.99849
414.696	24240.67511
415.196	22757.94364
415.696	20753.93383
416.196	16798.68235
416.695	12946.80357
417.195	11134.71783
417.694	10748.68815
418.194	10155.43646
418.693	9398.24746
419.192	9089.64791
419.691	8874.25332
420.19	8670.02356
420.688	8510.88371
421.187	7971.78251
421.685	7529.89487
422.184	6908.83339
422.682	5907.54944
423.18	5075.2923
423.678	4501.56908
424.176	4136.74594
424.674	3974.65645
425.172	3779.08778
425.669	3543.44556
426.167	3307.14283
426.664	3018.05253
427.161	2855.13122
427.659	2557.38425
428.156	2482.72512
428.652	2303.49409
429.149	2194.24346
429.646	2083.80636
430.143	2037.09206
430.639	1952.98664
431.135	1825.1162
431.632	1797.73263
432.128	1607.75089
432.624	1495.8886
433.12	1463.43268
433.616	1426.27609
434.111	1342.42128
434.607	1321.41883
435.103	1317.04094
435.598	1266.97543
436.093	1166.14211
436.588	1147.03205
437.083	1005.83623
437.578	1077.00823
438.073	973.03657
438.568	983.01235
439.062	891.58659
439.557	893.75699
440.051	827.57969
440.546	849.63274
441.04	809.67211
441.534	758.66958
442.028	895.82033
442.522	820.68844
443.015	725.34377
443.509	784.65039
444.002	744.59011
444.496	693.31055
444.989	762.60615
445.482	680.49141
445.975	719.45074
446.468	699.3174
446.961	770.43124
447.454	628.24976
447.947	651.38006
448.439	690.49431
448.931	653.32583
449.424	644.46561
449.916	659.42741
450.408	595.2178
450.9	626.35787
451.392	605.38315
451.884	605.24109
452.375	572.28007
452.867	586.17796
453.358	600.22777
453.849	555.06502
454.341	579.17162
454.832	576.11152
455.323	584.31232
455.814	540.11678
456.304	530.11221
456.795	569.16713
457.285	548.08524
457.776	522.079
458.266	470.02554
458.756	438.95878
459.247	478.04964
459.737	522.15027
460.226	560.14838
460.716	497.08617
461.206	411.91657
461.695	438.00269
462.185	488.0604
462.674	501.04269
463.163	470.96752
463.653	504.97355
464.142	386.87665
464.63	410.92586
465.119	436.93829
465.608	478.02585
466.096	390.78839
466.585	359.77045
467.073	347.77163
467.561	401.89723
468.05	344.74638
468.538	366.84033
469.026	381.84547
469.513	345.68383
470.001	409.8732
470.489	376.83767
470.976	416.90295
471.463	353.82847
471.951	352.82435
472.438	349.77157
472.925	341.75735
473.412	355.81035
473.899	328.71075
474.385	330.76436
474.872	314.69406
475.359	293.68687
475.845	314.61437
476.331	280.56784
476.817	291.67498
477.303	279.61915
477.789	268.61068
478.275	219.52544
478.761	239.54603
479.247	247.52896
479.732	254.60882
480.218	291.72854
480.703	204.48712
481.188	290.59699
481.673	276.60599
482.158	285.58657
482.643	274.67022
483.128	284.63195
483.612	233.53554
484.097	258.59643
484.581	218.48751
485.066	262.61553
485.55	235.50065
486.034	233.48646
486.518	289.65998
487.002	198.467
487.486	205.4821
487.969	174.41215
488.453	147.35833
488.936	168.36934
489.42	194.41681
489.903	190.45942
490.386	106.21694
490.869	205.43541
491.352	123.2913
491.835	168.33541
492.318	151.33246
492.8	152.30854
493.283	172.42839
493.765	160.38353
494.247	191.43198
494.73	197.42316
495.212	130.30293
495.694	218.49695
496.175	221.51344
496.657	207.47483
497.139	117.19825
497.62	141.33302
498.102	174.42263
498.583	126.30433
499.064	127.27891
499.545	141.31552
500.026	144.31991
500.507	113.25682
500.988	194.47139
501.469	100.24635
501.949	165.39799
502.43	145.343
502.91	186.38411
503.39	99.24268
503.87	175.40369
504.35	105.2428
504.83	105.2272
505.31	81.19383
505.79	89.20858
506.269	79.1802
506.749	125.28133
507.228	113.26275
507.707	184.39975
508.187	174.40577
508.666	141.34319
509.145	112.25872
509.623	106.24545
510.102	109.26053
510.581	179.42113
511.059	142.35111
511.538	154.38899
512.016	137.32282
512.494	78.18633
512.972	124.2927
513.45	91.21067
513.928	92.22188
514.406	137.33046
514.884	139.35242
515.361	103.24403
515.839	113.25734
516.316	148.35314
516.793	138.34247
517.27	128.3032
517.747	118.29891
518.224	110.25056
518.701	75.16513
519.178	110.27219
519.654	106.24837
520.131	107.26219
520.607	65.15827
521.083	84.18917
521.56	51.12022
522.036	147.314
522.512	183.44074
522.987	160.37767
523.463	115.2693
523.939	149.3632
524.414	123.27762
524.89	95.2249
525.365	111.24798
525.84	97.23123
526.315	74.17853
526.79	77.17302
527.265	141.32046
527.74	62.15015
528.215	59.13746
528.689	75.16381
529.164	66.14131
529.638	58.14666
530.112	83.19406
530.587	112.23711
531.061	91.21868
531.534	111.2645
532.008	102.24581
532.482	116.26348
532.956	70.17783
533.429	139.33478
533.903	90.19595
534.376	68.15006
534.849	59.13556
535.322	90.21088
535.795	77.18503
536.268	136.32414
536.741	65.15394
537.213	115.26126
537.686	104.25205
538.158	89.20129
538.631	89.21411
539.103	91.20431
539.575	74.152
540.047	71.15448
540.519	81.19257
540.991	103.24883
541.463	80.19148
541.934	58.1311
542.406	106.25235
542.877	79.17766
543.348	126.3003
543.82	88.21263
544.291	113.26109
544.762	74.17569
545.233	131.32753
545.703	88.19493
546.174	77.17805
546.645	92.22129
547.115	124.29576
547.585	92.21041
548.056	159.3841
548.526	131.30712
548.996	93.22102
549.466	110.26488
549.935	130.30686
550.405	84.18413
550.875	121.28434
551.344	120.28304
551.814	133.30093
552.283	172.36779
552.752	148.34175
553.221	123.26911
553.69	189.41752
554.159	152.37252
554.628	148.33084
555.096	155.38795
555.565	134.29274
556.033	177.41366
556.502	120.28666
556.97	143.31392
557.438	112.26078
557.906	156.36194
558.374	193.43704
558.842	137.32395
559.31	149.32861
559.777	137.33058
560.245	73.16739
560.712	116.26327
561.18	108.23754
561.647	151.32953
562.114	138.31218
562.581	207.49589
563.048	149.33603
563.514	183.4494
563.981	163.36655
564.448	132.29483
564.914	162.3693
565.381	196.43687
565.847	164.37477
566.313	193.43668
566.779	171.37712
567.245	87.20069
567.711	184.43044
568.176	145.32059
568.642	169.41717
569.108	162.39083
569.573	177.40064
570.038	183.37376
570.504	216.47387
570.969	156.37963
571.434	223.48004
571.899	235.53884
572.363	265.58417
572.828	269.59398
573.293	240.53139
573.757	277.61676
574.222	227.49285
574.686	269.59448
575.15	267.61834
575.614	340.76093
576.078	217.49458
576.542	263.57636
577.006	239.522
577.469	250.59329
577.933	268.58694
578.396	206.47529
578.86	242.55032
579.323	312.71695
579.786	355.72504
580.249	334.74689
580.712	263.61535
581.175	292.68894
581.637	253.55608
582.1	251.52683
582.563	281.57078
583.025	297.69107
583.487	346.67057
583.95	321.65203
584.412	360.71005
584.874	386.88446
585.336	347.77867
585.797	399.80898
586.259	335.74279
586.721	376.82899
587.182	438.9353
587.643	444.93291
588.105	398.87969
588.566	430.82741
589.027	527.17706
589.488	514.07336
589.949	529.16986
590.41	561.9891
590.87	617.25606
591.331	685.30424
591.791	665.35638
592.252	705.43482
592.712	705.47971
593.172	711.407
593.632	898.65561
594.092	825.55153
594.552	912.62449
595.011	897.71115
595.471	1018.86424
595.931	1116.98381
596.39	1057.05238
596.849	1163.12008
597.308	1195.9326
597.768	1253.54294
598.227	1376.47409
598.685	1475.41146
599.144	1546.59614
599.603	1581.59899
600.062	1598.26816
600.52	1839.68174
600.978	1923.91858
601.437	2067.83991
601.895	2099.60801
602.353	2264.7677
602.811	2299.90312
603.269	2342.17287
603.727	2558.29315
604.184	2642.03007
604.642	2800.47939
605.099	3015.18067
605.557	3014.42483
606.014	3190.6862
606.471	3314.62195
606.928	3588.75341
607.385	3576.56421
607.842	3781.87491
608.299	3795.99554
608.755	3948.18749
609.212	4171.51246
609.668	4304.51854
610.125	4462.90068
610.581	4421.71685
611.037	4559.32509
611.493	4527.62441
611.949	4642.89006
612.405	4736.63808
612.861	4787.37109
613.316	4899.61066
613.772	4849.30984
614.227	4946.61092
614.683	4953.7412
615.138	4911.44074
615.593	4911.3646
616.048	4957.23705
616.503	4923.6932
616.958	4869.9773
617.412	4910.5329
617.867	4894.12123
618.321	4795.66578
618.776	4730.10441
619.23	4635.58206
619.684	4615.25115
620.138	4507.48231
620.592	4465.93476
621.046	4357.79727
621.5	4263.97659
621.954	4107.46229
622.407	4114.45873
622.861	4009.15901
623.314	3924.70149
623.768	3865.02074
624.221	3809.93302
624.674	3717.92432
625.127	3634.9948
625.58	3537.80005
626.033	3506.64791
626.485	3362.25874
626.938	3355.23144
627.39	3241.13475
627.843	3169.05629
628.295	3117.06374
628.747	3055.27857
629.199	3040.9974
629.651	2894.04728
630.103	2855.05
630.555	2754.60267
631.006	2702.1145
631.458	2642.17296
631.909	2640.90574
632.361	2574.05242
632.812	2511.05908
633.263	2518.73804
633.714	2416.60653
634.165	2391.20552
634.616	2398.13407
635.067	2349.77192
635.518	2361.13553
635.968	2292.27355
636.419	2307.72594
636.869	2248.08434
637.319	2191.96358
637.769	2224.83065
638.219	2210.04796
638.669	2113.03506
639.119	2075.04297
639.569	2111.0765
640.019	2175.93379
640.468	2146.78521
640.918	2084.00617
641.367	2068.74351
641.816	2088.72209
642.265	2173.97997
642.714	2140.88248
643.163	2142.92238
643.612	2128.19434
644.061	2179.59608
644.51	2129.87925
644.958	2145.72033
645.406	2123.06647
645.855	2172.16835
646.303	2146.92054
646.751	2171.9414
647.199	2105.81491
647.647	2133.93849
648.095	2115.84514
648.543	2157.37304
648.99	2089.0731
649.438	2083.89146
649.885	2138.28502
650.333	2092.19489
650.78	2059.08245
651.227	2127.18439
651.674	2103.84496
652.121	2062.1571
652.568	1975.09091
653.015	2000.15105
653.461	1939.92951
653.908	1997.813
654.354	1966.95271
654.801	1884.83261
655.247	1958.55149
655.693	1830.24597
656.139	1877.8994
656.585	1772.82137
657.031	1815.79267
657.477	1828.51831
657.922	1726.59178
658.368	1680.85473
658.813	1640.52392
659.259	1697.81884
659.704	1659.69846
660.149	1623.56067
660.594	1579.62558
661.039	1559.46433
661.484	1528.56709
661.929	1519.51137
662.373	1480.72255
662.818	1486.67545
663.262	1491.6025
663.707	1454.74219
664.151	1433.56462
664.595	1405.50661
665.039	1416.6057
665.483	1396.66821
665.927	1408.40892
666.371	1344.34896
666.814	1350.38285
667.258	1392.48015
667.701	1342.05769
668.145	1328.50512
668.588	1308.4661
669.031	1257.24267
669.474	1368.43471
669.917	1282.0713
670.36	1326.51226
670.803	1349.4358
671.245	1188.80269
671.688	1317.41749
672.13	1253.12816
672.573	1279.48564
673.015	1257.31504
673.457	1250.01927
673.899	1261.3282
674.341	1174.20203
674.783	1245.28034
675.225	1228.33736
675.666	1248.34809
676.108	1221.97044
676.549	1217.16213
676.991	1205.99149
677.432	1250.78893
677.873	1141.01408
678.314	1242.25381
678.755	1294.42897
679.196	1245.14283
679.637	1102.08279
680.078	1265.22699
680.518	1227.13183
680.959	1123.09735
681.399	1266.4006
681.839	1269.34417
682.28	1249.39174
682.72	1202.09094
683.16	1232.37999
683.6	1272.15771
684.039	1198.82874
684.479	1246.36714
684.919	1283.26934
685.358	1295.45396
685.798	1218.49025
686.237	1241.25369
686.676	1221.08132
687.115	1304.29536
687.554	1368.4185
687.993	1311.11906
688.432	1287.18036
688.871	1341.25532
689.309	1349.40259
689.748	1339.9778
690.186	1307.27268
690.625	1355.343
691.063	1343.37594
691.501	1442.61166
691.939	1428.66043
692.377	1397.48973
692.815	1414.54141
693.253	1454.4894
693.69	1445.21383
694.128	1455.56049
694.565	1455.47463
695.003	1530.83438
695.44	1500.52245
695.877	1525.52412
696.314	1528.16072
696.751	1562.42499
697.188	1581.52357
697.625	1564.38195
698.061	1600.65572
698.498	1580.58665
698.934	1660.70234
699.371	1546.5417
699.807	1631.62905
700.243	1755.82308
700.679	1690.46649
701.115	1731.66643
701.551	1679.60789
701.987	1697.39661
702.422	1723.75255
702.858	1756.77676
703.294	1818.66589
703.729	1756.85226
704.164	1816.82253
704.599	1812.55787
705.035	1839.59102
705.47	1844.91594
705.904	1898.75337
706.339	1906.72157
706.774	1902.8029
707.209	1955.81266
707.643	1959.93249
708.078	2011.03947
708.512	1921.11991
708.946	1966.88849
709.38	2112.99074
709.814	2096.75814
710.248	2131.1418
710.682	2091.03206
711.116	2202.16117
711.549	2117.34487
711.983	2180.88706
712.416	2238.04505
712.85	2182.22533
713.283	2233.01199
713.716	2271.27364
714.149	2270.9282
714.582	2307.8019
715.015	2288.22415
715.448	2320.38959
715.881	2384.60151
716.313	2427.02168
716.746	2466.10478
717.178	2433.17847
717.61	2442.4985
718.043	2507.34327
718.475	2458.23445
718.907	2560.42224
719.339	2441.87559
719.77	2598.20003
720.202	2497.41932
720.634	2595.33964
721.065	2624.10413
721.497	2652.33026
721.928	2598.30519
722.359	2691.31059
722.79	2649.20067
723.221	2726.42121
723.652	2665.55381
724.083	2784.85645
724.514	2784.97592
724.945	2765.07931
725.375	2804.07894
725.806	2778.38086
726.236	2830.62318
726.666	2775.1163
727.096	2896.3445
727.526	2979.70715
727.956	2893.94719
728.386	2923.3576
728.816	2906.65306
729.246	2980.41474
729.675	2908.32357
730.105	2949.33906
730.534	2896.0449
730.964	2963.46545
731.393	3022.34616
731.822	2987.63849
732.251	2968.58798
732.68	3047.98699
733.109	3014.40025
733.537	3133.34539
733.966	3023.48651
734.395	3065.98728
734.823	3021.72409
735.251	3064.21901
735.68	3021.38299
736.108	2944.47189
736.536	2999.05884
736.964	3039.9951
737.392	3070.47383
737.82	3057.17054
738.247	3044.15935
738.675	3029.07086
739.102	3002.46161
739.53	2983.6852
739.957	2949.72395
740.384	2927.22386
740.811	2928.43237
741.238	3028.36075
741.665	3070.09125
742.092	2780.94646
742.519	2785.42359
742.945	2890.30383
743.372	2856.43662
743.798	2826.6154
744.225	2773.1139
744.651	2766.45328
745.077	2770.43535
745.503	2707.22286
745.929	2789.27111
746.355	2623.25116
746.781	2595.30448
747.207	2587.12822
747.632	2555.37931
748.058	2601.47819
748.483	2559.93466
748.908	2481.36467
749.334	2503.3142
749.759	2499.12599
750.184	2490.18705
750.609	2429.24163
751.033	2339.94962
751.458	2397.74297
751.883	2302.21248
752.307	2241.96748
752.732	2301.44461
753.156	2159.14802
753.58	2241.96556
754.005	2116.21513
754.429	2115.95357
754.853	2092.17614
755.277	2067.9319
755.7	2057.13023
756.124	1946.06476
756.548	1942.82521
756.971	2010.01574
757.394	1931.17777
757.818	1881.18902
758.241	1846.08852
758.664	1785.00235
759.087	1847.58467
759.51	1775.88423
759.933	1759.8028
760.356	1746.0692
760.778	1705.81383
761.201	1697.73037
761.623	1653.62923
762.046	1593.50859
762.468	1646.64827
762.89	1592.66964
763.312	1599.70096
763.734	1517.56152
764.156	1460.5846
764.578	1439.2834
765	1418.48926
765.421	1369.59833
765.843	1395.7141
766.264	1315.2711
766.686	1287.3846
767.107	1280.30782
767.528	1329.56963
767.949	1302.48096
768.37	1260.3592
768.791	1211.18352
769.212	1180.30097
769.632	1135.03458
770.053	1112.29879
770.473	1088.03629
770.894	1047.02811
771.314	1077.96414
771.734	1034.88127
772.154	1021.08651
772.575	1039.85751
772.994	998.76436
773.414	971.83468
773.834	980.96133
774.254	915.81214
774.673	990.94034
775.093	910.85632
775.512	907.83139
775.931	837.77245
776.351	886.82038
776.77	853.73247
777.189	808.58917
777.607	813.74256
778.026	781.63651
778.445	751.62341
778.864	734.58089
779.282	747.49076
779.701	694.49147
780.119	707.53734
780.537	649.39437
780.955	681.47825
781.373	684.44537
781.791	631.22805
782.209	601.16068
782.627	620.43365
783.045	604.17737
783.462	633.40657
783.88	602.37049
784.297	576.27315
784.715	557.2733
785.132	586.22506
785.549	534.17921
785.966	537.19548
786.383	565.22722
786.8	528.0724
787.217	556.16533
787.633	468.05991
788.05	452.93507
788.466	497.0169
788.883	494.13882
789.299	450.95468
789.715	483.04973
790.131	442.99078
790.547	454.01438
790.963	426.95296
791.379	401.9238
791.795	378.76868
792.21	396.8284
792.626	349.74802
793.041	400.89297
793.457	355.79662
793.872	296.63485
794.287	386.85139
794.702	328.72893
795.117	376.85741
795.532	380.8777
795.947	344.74351
796.362	327.69754
796.776	367.76043
797.191	321.72507
797.605	337.73415
798.02	273.61566
798.434	352.70831
798.848	337.77423
799.262	257.59518
799.676	281.63499
800.09	292.66401
800.504	296.65892
800.918	238.50715
801.331	221.53205
801.745	216.46008
802.158	206.48001
802.572	228.51702
802.985	266.58944
803.398	263.57903
803.811	188.44669
804.224	213.49055
804.637	205.46062
805.05	214.45879
805.462	208.47665
805.875	191.47095
806.288	177.40651
806.7	153.36136
807.112	188.40479
807.525	117.27108
807.937	141.33302
808.349	178.4182
808.761	203.47163
809.173	179.41143
809.584	189.43719
809.996	100.2344
810.408	132.33009
810.819	145.32394
811.231	213.53944
811.642	245.56964
812.053	226.51685
812.464	183.40764
812.875	168.4099
813.286	128.31846
813.697	170.36336
814.108	135.31179
814.519	179.3777
814.929	141.34126
815.34	118.26976
815.75	153.37337
816.16	102.24002
816.571	103.25594
816.981	109.242
817.391	103.23514
817.801	87.20867
818.211	128.28897
818.62	103.23855
819.03	120.27941
819.44	66.16343
819.849	63.15139
820.259	97.23539
820.668	122.28753
821.077	78.1884
821.486	79.17991
821.895	106.24613
822.304	48.1231
822.713	82.18482
823.122	71.17016
823.531	59.13241
823.939	124.28906
824.348	70.16241
824.756	112.26622
825.164	97.23247
825.573	75.18125
825.981	80.18921
826.389	100.23989
826.797	114.27805
827.205	105.23138
827.612	63.14874
828.02	15.03397
828.428	78.19081
828.835	64.16414
829.243	95.21434
829.65	109.26123
830.057	51.11863
830.464	117.27527
830.871	132.30104
831.278	71.16489
831.685	84.17768
832.092	45.10517
832.499	91.19042
832.905	63.15254
833.312	48.103
833.718	105.25193
834.124	101.22013
834.531	30.07249
834.937	83.20549
835.343	50.11509
835.749	26.05771
836.155	59.14933
836.561	47.11174
836.966	60.14048
837.372	57.13915
837.777	58.13983
838.183	41.08701
838.588	53.12784
838.993	53.12435
839.399	71.16756
839.804	35.0827
840.209	62.1542
840.613	55.11692
841.018	36.08771
841.423	68.1682
841.828	71.17372
842.232	50.11711
842.637	65.14887
843.041	64.15906
843.445	38.0914
843.849	27.06505
844.253	66.14979
844.657	47.11517
845.061	76.16786
845.465	30.0701
845.869	90.1992
846.272	4.00953
846.676	11.0253
847.079	64.15819
847.483	88.20942
847.886	57.13191
848.289	51.13369
848.692	26.06334
849.095	12.0278
849.498	111.26389
849.901	42.09168
850.304	63.14417
850.707	-8.01982
851.109	48.11646
851.512	71.16795
851.914	60.14689
852.316	75.18446
852.718	44.113
853.121	33.07821
853.523	22.04928
853.925	75.19056
854.326	57.13832
854.728	49.12225
855.13	11.02792
855.531	40.0924
855.933	28.06419
856.334	15.03663
856.736	63.13638
857.137	39.08817
857.538	35.08583
857.939	92.22078
858.34	54.12504
858.741	41.10336
859.142	49.11249
859.542	46.11843
859.943	29.06966
860.343	40.0964
860.744	64.14978
861.144	67.15837
861.544	36.08478
861.945	15.03707
862.345	35.08215
862.745	82.19679
863.145	32.07221
863.544	50.12232
863.944	46.1044
864.344	11.02613
864.743	87.20596
865.143	84.20907
865.542	-4.00887
865.941	88.20917
866.34	69.15593
866.74	50.13011
867.139	84.19505
867.537	27.06584
867.936	32.07469
868.335	35.08589
868.734	29.07196
869.132	21.04643
869.531	42.09648
869.929	58.12725
870.327	36.08316
870.726	57.1351
871.124	63.13958
871.522	28.0688
871.92	104.24435
872.318	24.05626
872.715	11.02597
873.113	18.04218
873.511	23.05525
873.908	27.06721
874.306	57.13765
874.703	20.04794
875.1	2.0049
875.497	12.02772
875.894	94.2243
876.291	30.07128
876.688	17.04264
877.085	85.19295
877.482	41.09894
877.878	76.17759
878.275	28.06908
878.671	-19.03967
879.068	67.15474
879.464	27.06295
879.86	76.17158
880.256	8.01881
880.652	19.04683
881.048	30.07095
881.444	30.0677
881.84	66.16092
882.236	62.14958
882.631	83.19588
883.027	56.12947
883.422	-19.04711
883.817	33.08086
884.213	32.0795
884.608	94.22524
885.003	-2.00464
885.398	6.0146
885.793	0
886.188	30.07191
886.582	36.08833
886.977	48.1085
887.371	26.06313
887.766	-4.00974
888.16	16.03796
888.554	57.13426
888.949	44.1064
889.343	49.11434
889.737	9.02361
890.131	54.13038
890.525	93.22924
890.918	50.12104
891.312	57.12918
891.706	16.04068
892.099	59.14388
892.492	47.09604
892.886	54.12653
893.279	19.04678
893.672	39.09663
894.065	30.07268
894.458	27.06493
894.851	36.08432
895.244	2.00496
895.637	112.25687
896.029	80.18825
896.422	16.0373
896.814	43.10258
897.206	57.13212
897.599	80.18884
897.991	69.16082
898.383	72.16288
898.775	69.15039
899.167	23.05257
899.559	24.05821
899.951	-15.034
900.342	17.04146
900.734	61.1492
901.125	29.07316
901.517	9.02145
901.908	27.06137
902.299	27.06397
902.69	54.12335
903.082	66.15301
903.473	83.19292
903.863	-3.0074
904.254	72.16155
904.645	56.13188
905.036	61.14475
905.426	76.16273
905.817	33.07749
906.207	-51.11751
906.597	68.15364
906.987	54.13362
907.378	75.18296
907.768	75.19144
908.158	39.09129
908.547	39.09888
908.937	-26.06431
909.327	78.1804
909.717	11.0266
910.106	-11.02553
910.495	68.16064
910.885	93.22569
911.274	-11.0267
911.663	20.04865
912.052	1.00236
912.441	59.14554
912.83	19.04166
913.219	30.0757
913.608	71.16717
913.997	21.0515
914.385	46.1055
914.774	18.04224
915.162	58.13409
915.55	63.14464
915.939	55.13472
916.327	31.07401
916.715	51.12733
917.103	16.03736
917.491	50.11839
917.878	16.03793
918.266	-27.06814
918.654	29.0723
919.041	40.10241
919.429	71.15986
919.816	32.07822
920.203	91.21251
920.591	51.12186
920.978	67.15702
921.365	67.16993
921.752	-3.00681
922.139	87.17866
922.525	63.1455
922.912	36.08415
923.299	32.07688
923.685	-10.02519
924.072	23.04964
924.458	18.04336
924.844	26.06218
925.231	-1.00223
925.617	43.10677
926.003	4.00989
926.389	47.1141
926.774	31.07557
927.16	35.0836
927.546	49.12269
927.931	35.0836
928.317	89.19283
928.702	42.09482
929.088	56.12998
929.473	55.13587
929.858	33.07843
930.243	2.0047
930.628	67.15788
931.013	42.10041
931.398	32.06929
931.783	7.01771
932.167	71.16802
932.552	31.07469
932.937	67.15819
933.321	42.10252
933.705	15.03617
934.09	9.02155
934.474	46.10359
934.858	38.09551
935.242	5.01115
935.626	33.08212
936.009	48.12478
936.393	55.13672
936.777	43.10697
937.16	77.19405
937.544	43.09539
937.927	39.0961
938.311	72.16659
938.694	76.19382
939.077	29.06685
939.46	7.01624
939.843	-10.01957
940.226	12.02968
940.609	71.15737
940.991	17.04163
941.374	41.0971
941.757	48.11326
942.139	31.06711
942.522	30.06767
942.904	93.21265
943.286	41.10002
943.668	71.17874
944.05	58.13718
944.432	45.10629
944.814	35.08209
945.196	46.10875
945.578	44.10233
945.959	1.00224
946.341	-19.04442
946.722	31.06946
947.104	62.1418
947.485	48.10699
947.866	50.12236
948.247	72.176
948.628	-9.02085
949.009	-11.02744
949.39	17.04062
949.771	10.02185
950.152	17.04039
950.532	66.16038
950.913	15.03486
951.293	39.1031
951.674	28.06525
952.054	54.13122
952.434	41.09819
952.814	48.10801
953.194	-4.01005
953.574	59.13849
953.954	33.07442
954.334	55.13302
954.714	12.02845
955.093	30.07104
955.473	55.13377
955.853	48.1199
956.232	54.14288
956.611	57.12887
956.99	44.107
957.37	16.0392
957.749	-10.02272
958.128	49.11962
958.506	-2.00506
958.885	46.11127
959.264	35.08382
959.643	46.10088
960.021	75.1792
960.4	44.09519
960.778	38.08855
961.156	-12.02913
961.535	62.13625
961.913	78.1748
962.291	50.12535
962.669	35.08608
963.047	74.18217
963.424	38.09499
963.802	29.06895
964.18	38.09099
964.557	74.16105
964.935	75.16901
965.312	51.12889
965.69	34.08119
966.067	3.00698
966.444	-5.0117
966.821	42.10461
967.198	32.07369
967.575	62.14476
967.952	73.16322
968.329	51.1199
968.705	96.1954
969.082	90.22417
969.458	56.1307
969.835	38.0889
970.211	67.16709
970.587	44.10563
970.963	6.01479
971.339	47.11908
971.715	48.1155
972.091	42.0993
972.467	56.13183
972.843	35.08481
973.219	86.19407
973.594	-5.01274
973.97	-4.00895
974.345	43.09927
974.721	5.01151
975.096	54.12638
975.471	41.09281
975.846	10.02301
976.221	17.04187
976.596	95.22046
976.971	65.15489
977.346	14.03109
977.72	25.06121
978.095	4.01003
978.469	26.05939
978.844	58.13893
979.218	59.13768
979.593	10.023
979.967	-15.03475
980.341	36.07988
980.715	37.09013
981.089	29.06995
981.463	46.101
981.837	52.12356
982.21	-16.035
982.584	23.05382
982.957	20.04862
983.331	29.06476
983.704	107.25311
984.078	11.02616
984.451	24.05654
984.824	18.04264
985.197	9.02076
985.57	-5.01196
985.943	-15.03526
986.316	40.0927
986.688	69.15841
987.061	93.20751
987.434	82.20779
987.806	0
988.179	33.07439
988.551	27.06579
988.923	53.12431
989.295	90.21294
989.667	62.14402
990.039	72.17331
990.411	-6.01311
990.783	34.07384
991.155	30.06974
991.527	32.07419
991.898	14.03393
992.27	52.12484
992.641	51.12195
993.012	19.04178
993.384	15.03429
993.755	55.13567
994.126	83.19192
994.497	35.0827
994.868	31.06734
995.239	34.07892
995.61	35.085
995.98	14.03277
996.351	58.13882
996.722	73.16322
997.092	36.08233
997.462	16.0365
997.833	51.11441
998.203	-10.02311
998.573	24.05795
998.943	39.08821
999.313	58.13382
999.683	13.03023
1000.053	-9.0195
1000.423	14.03255
1000.792	-13.03241
1001.162	-6.01421
1001.531	45.10678
1001.901	36.08587
1002.27	-5.01053
1002.639	9.02209
1003.009	6.01373
1003.378	-17.04243
1003.747	52.11653
1004.116	22.05056
1004.485	14.03223
1004.853	-9.02182
1005.222	-18.04328
1005.591	52.11754
1005.959	35.07586
1006.328	43.09285
1006.696	5.01159
1007.064	30.07197
1007.433	28.06684
1007.801	32.0741
1008.169	5.01209
1008.537	99.20605
1008.905	33.07433
1009.273	38.08942
1009.64	16.03733
1010.008	22.05032
1010.375	59.13415
1010.743	23.04919
1011.11	122.27812
1011.478	73.17395
1011.845	39.08724
1012.212	53.11586
1012.579	34.08044
1012.946	5.01133
1013.313	-1.00228
1013.68	30.06407
1014.047	32.07319
1014.414	-2.00455
1014.78	48.11506
1015.147	7.01612
1015.513	27.06256
1015.88	28.06852
1016.246	42.0981
1016.612	54.11657
1016.978	41.09718
1017.344	19.04541
1017.71	40.09284
1018.076	31.06926
1018.442	72.17809
1018.808	92.22137
1019.174	-31.07529
1019.539	6.01267
1019.905	69.15593
1020.27	-27.06468
1020.636	46.10393
1021.001	83.18956
1021.366	10.02329
1021.731	52.13055
1022.096	65.1588
1022.461	55.1247
1022.826	44.10104
1023.191	15.03818
1023.556	42.09354
1023.92	11.02583
1024.285	-10.02336
1024.649	-5.01178
1025.014	21.04948
1025.378	61.14803
1025.742	32.07571
1026.107	-11.0239
1026.471	49.10834
1026.835	31.07396
1027.199	-22.05155
1027.562	16.03531
1027.926	29.0677
1028.29	26.06356
1028.654	36.07878
1029.017	33.07824
1029.381	14.03235
1029.744	23.05671
1030.107	102.22801
1030.471	80.18326
1030.834	-11.02371
1031.197	47.10816
1031.56	28.06298
1031.923	-12.03026
1032.286	39.0876
1032.648	19.04301
1033.011	62.13762
1033.374	42.09319
1033.736	-5.01281
1034.099	20.04701
1034.461	25.06151
1034.823	11.02661
1035.185	11.02649
1035.548	76.17717
1035.91	39.08929
1036.272	65.14143
1036.634	32.07516
1036.995	33.07363
1037.357	25.05889
1037.719	45.10509
1038.08	38.08726
1038.442	16.03646
1038.803	-12.02739
1039.165	1.00243
1039.526	15.03496
1039.887	0
1040.248	49.11797
1040.609	15.03532
1040.97	20.0469
1041.331	44.10796
1041.692	39.08893
1042.053	72.15423
1042.413	34.07525
1042.774	54.12593
1043.134	15.03384
1043.495	35.08462
1043.855	73.17081
1044.215	10.02382
1044.576	26.06023
1044.936	53.11488
1045.296	34.08156
1045.656	57.13212
1046.016	19.04383
1046.375	0
1046.735	60.13202
1047.095	30.06734
1047.454	59.11651
1047.814	68.15596
1048.173	7.01585
1048.533	-2.00441
1048.892	4.00932
1049.251	24.05757
1049.61	16.03805
1049.969	26.05858
1050.328	33.06813
1050.687	20.0465
1051.046	41.09526
1051.405	7.01665
1051.763	41.09122
1052.122	15.03605
1052.48	55.1295
1052.839	84.19095
1053.197	4.00906
1053.555	9.01922
1053.914	26.06092
1054.272	-21.04806
1054.63	51.11976
1054.988	60.13744
1055.345	43.08647
1055.703	56.129
1056.061	42.10537
1056.419	55.1393
1056.776	1.0023
1057.134	-5.01094
1057.491	19.04594
1057.848	36.08554
1058.206	-15.03351
1058.563	65.13517
1058.92	75.16291
1059.277	24.05698
1059.634	50.11043
1059.991	78.1781
1060.348	40.08668
1060.704	40.09365
1061.061	40.08683
1061.418	31.07234
1061.774	38.09012
1062.131	53.13728
1062.487	-3.00672
1062.843	38.09095
1063.199	19.04561
1063.555	55.12272
1063.911	11.02666
1064.267	50.09676
1064.623	10.02373
1064.979	4.00876
1065.335	45.10178
1065.691	-5.01138
1066.046	19.03979
1066.402	20.04319
1066.757	31.07543
1067.112	19.04467
1067.468	34.07814
1067.823	-14.03184
1068.178	26.05994
1068.533	66.15246
1068.888	46.1044
1069.243	47.11122
1069.598	13.0302
1069.952	63.13807
1070.307	21.05041
1070.662	53.12192
1071.016	61.13194
1071.371	74.1605
1071.725	26.05906
1072.079	52.11984
1072.434	18.04231
1072.788	-31.07057
1073.142	5.0119
1073.496	20.04545
1073.85	45.09929
1074.203	63.14603
1074.557	86.2221
1074.911	49.11073
1075.265	53.11723
1075.618	103.23845
1075.971	40.09089
1076.325	29.07169
1076.678	-20.04427
1077.031	11.02332
1077.385	31.06475
1077.738	58.12392
1078.091	18.03967
1078.444	61.13273
1078.796	50.11835
1079.149	51.12186
1079.502	28.06399
1079.855	22.0493
1080.207	24.05665
1080.56	18.04534
1080.912	43.10002
1081.264	49.1134
1081.617	54.12643
1081.969	52.12678
1082.321	37.0863
1082.673	59.13039
1083.025	18.04074
1083.377	294.62539
1083.728	61.13448
1084.08	2.00479
1084.432	43.0988
1084.783	16.03519
1085.135	58.13998
1085.486	41.0902
1085.838	-10.02396
1086.189	52.12194
1086.54	3.00687
1086.891	78.19244
1087.242	95.22377
1087.593	-15.03477
1087.944	122.26156
1088.295	53.11414
1088.646	102.23918
1088.996	36.08379
1089.347	27.06325
1089.698	15.03455
1090.048	18.04492
1090.398	61.1334
1090.749	40.09064
1091.099	30.07372
1091.449	35.08423
1091.799	18.04346
1092.149	35.08334
1092.499	27.06335
1092.849	15.03693
1093.199	26.06213
1093.548	77.17819
1093.898	5.01204
1094.248	11.02705
1094.597	-2.00503
1094.947	27.06994
1095.296	85.20107
1095.645	22.05506
1095.994	27.06226
1096.343	55.13327
1096.692	92.23545
1097.041	28.0748
1097.39	16.03849
1097.739	44.11007
1098.088	39.10018
1098.437	64.16431
1098.785	13.03374
1099.134	-36.09188
1099.482	26.06974
1099.83	60.15172
1100.179	44.113
1100.527	-9.02301
1100.875	37.09537
1101.223	49.12652
1101.571	-32.08639
1101.919	68.17494
1102.267	27.0747
1102.615	2.00642
1102.962	-4.01284
1103.31	4.01285
1103.658	-7.02246
