Data from N3 R3 sample 7_Subt2__1__11-05-06-816.txt Node

Date: Thu Sep 18 11:05:06 PDT 2025
User: uwsun
Spectrometer: HDX01956
Trigger mode: 0
Integration Time (sec): 5.000000E-1
Scans to average: 1
Nonlinearity correction enabled: true
Boxcar width: 0
Storing dark spectrum: false
XAxis mode: Wavelengths
Number of Pixels in Spectrum: 2068
>>>>>Begin Spectral Data<<<<<
194.03	25.07231
194.578	35.11333
195.127	31.09902
195.676	41.13128
196.225	25.06649
196.773	32.08899
197.321	106.29192
197.87	101.26007
198.418	107.27724
198.966	153.40215
199.513	190.47906
200.061	112.28613
200.609	157.4128
201.156	143.31339
201.704	120.30322
202.251	136.36163
202.798	123.31968
203.345	174.4288
203.892	136.34426
204.438	139.33008
204.985	139.33084
205.532	125.32945
206.078	123.30151
206.624	181.45171
207.17	240.55328
207.716	166.40607
208.262	171.33783
208.808	167.41843
209.354	189.46431
209.899	130.3279
210.445	131.32883
210.99	167.40647
211.535	176.41302
212.08	159.36839
212.625	155.38627
213.17	146.37207
213.715	174.39618
214.259	165.38426
214.804	125.30732
215.348	206.47131
215.892	214.51334
216.436	145.33075
216.98	110.24316
217.524	170.40485
218.068	205.5116
218.612	175.44258
219.155	152.35879
219.698	140.33303
220.242	143.35196
220.785	159.37218
221.328	151.37151
221.871	225.56394
222.414	162.39776
222.956	101.24261
223.499	137.30467
224.041	96.22044
224.583	113.23865
225.126	134.29323
225.668	117.28435
226.21	169.42421
226.751	181.39884
227.293	136.3064
227.835	134.32756
228.376	153.34519
228.918	116.2885
229.459	140.34781
230	162.3861
230.541	173.39334
231.082	149.36076
231.622	106.24008
232.163	91.22033
232.704	166.41195
233.244	163.40073
233.784	150.36065
234.324	170.37923
234.864	116.26198
235.404	112.26355
235.944	135.31638
236.484	193.47466
237.023	156.36452
237.563	174.40018
238.102	172.40221
238.641	134.33509
239.18	107.25174
239.719	132.32913
240.258	166.36909
240.797	155.3675
241.335	112.27215
241.874	171.3299
242.412	186.44635
242.95	161.38614
243.488	107.24052
244.026	189.43389
244.564	156.31883
245.102	182.40768
245.64	116.27658
246.177	111.24675
246.715	177.42031
247.252	152.34217
247.789	125.23165
248.326	140.3361
248.863	165.36008
249.4	189.42223
249.936	228.46746
250.473	209.48595
251.009	90.20716
251.546	198.43584
252.082	109.23575
252.618	101.22694
253.154	157.37512
253.69	188.41557
254.226	145.34552
254.761	168.37338
255.297	110.24072
255.832	159.37539
256.367	116.27265
256.903	140.3105
257.438	194.44778
257.972	133.29541
258.507	125.28628
259.042	161.34748
259.576	200.43636
260.111	158.35975
260.645	211.44718
261.179	134.31323
261.713	149.33205
262.247	153.34674
262.781	150.31477
263.315	139.33541
263.849	159.39508
264.382	176.3996
264.915	215.4999
265.449	155.37571
265.982	195.43635
266.515	186.45059
267.048	153.32256
267.58	158.338
268.113	153.32894
268.646	93.22839
269.178	150.33324
269.71	209.45474
270.243	226.51353
270.775	191.48407
271.307	125.29649
271.838	192.44669
272.37	121.29616
272.902	202.44987
273.433	201.43919
273.965	176.42284
274.496	172.42169
275.027	179.44088
275.558	211.50663
276.089	207.50927
276.62	121.30449
277.15	174.42311
277.681	136.29182
278.211	192.46145
278.741	121.26931
279.272	161.36606
279.802	169.41625
280.332	176.41157
280.861	177.41837
281.391	196.43922
281.921	126.30065
282.45	150.36953
282.98	180.46387
283.509	228.50882
284.038	189.42746
284.567	166.38377
285.096	205.48998
285.625	142.31835
286.153	206.4853
286.682	224.50527
287.21	147.34813
287.739	187.43652
288.267	218.52194
288.795	188.48482
289.323	181.42102
289.851	201.46661
290.378	179.39477
290.906	220.52934
291.433	185.45599
291.961	212.47703
292.488	138.34122
293.015	234.54182
293.542	242.60993
294.069	191.46818
294.596	220.52774
295.122	207.48965
295.649	182.39406
296.175	182.43326
296.702	259.61855
297.228	218.51557
297.754	211.46748
298.28	242.54564
298.806	175.41828
299.332	216.47626
299.857	237.52814
300.383	211.52237
300.908	254.6109
301.433	224.54019
301.958	199.45044
302.483	181.44416
303.008	262.63659
303.533	257.64738
304.058	192.44228
304.582	232.53825
305.107	187.48149
305.631	222.49482
306.155	204.46936
306.679	195.45394
307.203	204.46786
307.727	204.47741
308.251	206.50166
308.775	270.64149
309.298	233.552
309.822	213.52712
310.345	261.60995
310.868	219.52064
311.391	256.61665
311.914	220.54295
312.437	243.54487
312.96	267.61417
313.482	226.52226
314.005	230.56387
314.527	230.58734
315.049	278.68606
315.571	255.56236
316.093	278.67115
316.615	252.59181
317.137	241.51589
317.659	278.65617
318.18	245.57212
318.702	294.66991
319.223	286.56622
319.744	307.66994
320.265	271.64523
320.786	315.76318
321.307	314.75117
321.828	294.6447
322.348	286.65563
322.869	323.74474
323.389	381.71177
323.909	302.66949
324.43	317.73295
324.95	312.69223
325.47	296.7146
325.989	346.79092
326.509	293.63939
327.029	332.73292
327.548	297.6547
328.067	303.71531
328.587	353.85329
329.106	310.6772
329.625	320.80704
330.144	365.81535
330.662	382.85913
331.181	378.85501
331.7	308.695
332.218	385.79808
332.736	327.74133
333.255	374.84528
333.773	350.7962
334.291	408.9741
334.808	393.84631
335.326	335.72731
335.844	374.84528
336.361	426.04309
336.879	422.94518
337.396	407.94695
337.913	426.93528
338.43	429.91787
338.947	410.93454
339.464	352.73245
339.981	393.89164
340.497	482.11244
341.014	414.96228
341.53	420.90076
342.046	506.18411
342.562	432.02131
343.078	480.06066
343.594	484.07931
344.11	486.09271
344.626	509.20298
345.141	487.04407
345.657	498.05322
346.172	495.11957
346.687	514.09851
347.202	529.12354
347.717	484.08376
348.232	490.14616
348.747	485.05141
349.261	540.09831
349.776	571.25341
350.29	589.36055
350.805	569.29972
351.319	535.15456
351.833	558.18807
352.347	551.2059
352.861	597.28582
353.374	559.17292
353.888	612.37251
354.401	591.23307
354.915	605.25115
355.428	582.33931
355.941	585.25239
356.454	585.19297
356.967	557.20058
357.48	548.14904
357.993	635.42443
358.505	579.29762
359.018	622.39438
359.53	680.50141
360.042	681.37082
360.554	681.50769
361.066	598.33613
361.578	682.35362
362.09	663.42814
362.602	661.33111
363.113	666.41896
363.625	673.37769
364.136	713.3945
364.647	712.51379
365.158	670.40834
365.669	705.51091
366.18	692.46421
366.691	748.44684
367.201	734.5694
367.712	741.5075
368.222	749.5307
368.733	764.46163
369.243	813.5859
369.753	718.47755
370.263	766.6414
370.773	689.51085
371.282	841.75149
371.792	841.69489
372.301	820.73454
372.811	874.00172
373.32	867.61151
373.829	852.74261
374.338	928.74774
374.847	920.81146
375.356	922.85618
375.865	1000.7789
376.373	1047.96699
376.882	1087.28646
377.39	1034.08128
377.898	1114.24873
378.407	1123.06544
378.915	1209.08388
379.423	1207.23371
379.93	1364.42756
380.438	1289.42958
380.946	1444.51938
381.453	1418.5874
381.96	1517.68394
382.468	1592.70848
382.975	1786.04663
383.482	1670.60943
383.989	1798.25705
384.495	1906.94738
385.002	1957.57133
385.509	2109.17362
386.015	2238.57969
386.521	2344.06091
387.028	2483.09036
387.534	2457.80099
388.04	2618.42279
388.546	2608.96936
389.051	2728.9626
389.557	2928.22624
390.063	3125.06761
390.568	3300.41336
391.073	3350.92043
391.578	3557.45854
392.084	3640.9712
392.589	3802.59885
393.093	4070.12075
393.598	4368.6958
394.103	4724.73942
394.607	5302.50069
395.112	5724.43428
395.616	6008.22101
396.12	6597.67843
396.624	7086.85765
397.128	7583.10825
397.632	8555.82623
398.136	9243.92372
398.639	9775.15362
399.143	10976.94679
399.646	12252.37675
400.15	13662.13005
400.653	15243.39747
401.156	17088.83427
401.659	19980.73569
402.162	24301.25297
402.664	32260.66707
403.167	45287.33338
403.67	61309.47213
404.172	63919.58413
404.674	63858.43483
405.176	63738.15102
405.678	63977.72923
406.18	64011.81569
406.682	63863.44694
407.184	63926.60148
407.686	63841.39382
408.187	64025.8516
408.688	63892.51763
409.19	57032.72826
409.691	46068.80752
410.192	38900.14015
410.693	34222.67857
411.194	30911.67585
411.694	29027.28708
412.195	27157.17245
412.696	24417.57584
413.196	22969.79545
413.696	22416.22183
414.196	22893.41122
414.696	22866.83407
415.196	21653.89709
415.696	19564.15514
416.196	15625.8325
416.695	12037.21952
417.195	10243.46217
417.694	9808.36674
418.194	9276.96954
418.693	8612.82733
419.192	8291.51948
419.691	8176.35692
420.19	7946.29313
420.688	7805.29414
421.187	7650.4952
421.685	7020.76342
422.184	6409.89603
422.682	5368.7898
423.18	4611.55458
423.678	4056.79864
424.176	3770.9093
424.674	3592.81504
425.172	3416.19969
425.669	3193.50321
426.167	3034.17952
426.664	2759.05631
427.161	2547.09659
427.659	2359.31382
428.156	2287.68586
428.652	2089.36113
429.149	2049.15588
429.646	1945.73313
430.143	1798.91635
430.639	1756.83651
431.135	1607.9009
431.632	1535.51032
432.128	1420.54966
432.624	1391.75336
433.12	1248.19522
433.616	1308.15621
434.111	1216.26322
434.607	1142.18374
435.103	1135.85158
435.598	1197.90442
436.093	1098.05103
436.588	1059.91957
437.083	1011.84443
437.578	996.89528
438.073	901.91718
438.568	956.97047
439.062	827.49669
439.557	802.61139
440.051	736.4365
440.546	796.55012
441.04	772.60874
441.534	738.63228
442.028	714.51146
442.522	742.55437
443.015	652.23017
443.509	631.37251
444.002	663.44158
444.496	647.23714
444.989	641.38661
445.482	651.43643
445.975	699.41678
446.468	641.22506
446.961	696.3172
447.454	617.23097
447.947	675.42353
448.439	641.40255
448.931	627.2805
449.424	602.38152
449.916	613.34065
450.408	569.17133
450.9	525.16293
451.392	534.23801
451.884	563.16572
452.375	461.05481
452.867	515.0519
453.358	540.11977
453.849	561.075
454.341	509.0462
454.832	495.97519
455.323	517.17747
455.814	469.98695
456.304	535.12149
456.795	478.00025
457.285	474.95643
457.776	480.00134
458.266	445.97801
458.756	417.91687
459.247	425.94543
459.737	523.15224
460.226	498.03529
460.716	427.9487
461.206	397.88792
461.695	366.85175
462.185	436.95964
462.674	379.81161
463.163	450.93052
463.653	371.73949
464.142	409.92455
464.63	397.89889
465.119	435.93634
465.608	432.93807
466.096	332.68007
466.585	355.76252
467.073	362.80248
467.561	360.81232
468.05	329.71611
468.538	300.69792
469.026	324.72752
469.513	332.66006
470.001	376.80849
470.489	350.78395
470.976	345.76018
471.463	326.76914
471.951	282.66948
472.438	322.7159
472.925	324.72214
473.412	329.75494
473.899	307.66823
474.385	250.58826
474.872	264.58964
475.359	310.7243
475.845	223.44573
476.331	194.40117
476.817	278.64649
477.303	295.65247
477.789	239.54779
478.275	236.56439
478.761	220.50455
479.247	265.5653
479.732	232.55842
480.218	285.71429
480.703	228.54192
481.188	256.53104
481.673	236.52254
482.158	187.39337
482.643	236.58136
483.128	245.54958
483.612	232.53335
484.097	230.53467
484.581	228.50882
485.066	247.58199
485.55	234.49863
486.034	208.43668
486.518	270.61896
487.002	180.42603
487.486	166.39336
487.969	173.40986
488.453	147.35833
488.936	165.36298
489.42	188.40444
489.903	176.42669
490.386	68.14037
490.869	208.4415
491.352	174.40801
491.835	152.30459
492.318	141.31109
492.8	180.36304
493.283	187.46448
493.765	102.2472
494.247	145.33102
494.73	219.46819
495.212	114.26648
495.694	142.32868
496.175	138.32587
496.657	208.47703
497.139	141.23736
497.62	138.32613
498.102	154.37546
498.583	85.20689
499.064	107.23598
499.545	175.38885
500.026	165.36496
500.507	74.16951
500.988	150.36748
501.469	125.30652
501.949	94.22978
502.43	159.3751
502.91	202.41565
503.39	104.2547
503.87	151.34999
504.35	129.29687
504.83	148.3173
505.31	102.2431
505.79	91.21318
506.269	100.22714
506.749	77.175
507.228	91.21251
507.707	176.38302
508.187	148.34691
508.666	107.26209
509.145	107.24742
509.623	120.27709
510.102	153.36262
510.581	97.23185
511.059	124.30761
511.538	139.35204
512.016	105.24896
512.494	69.16512
512.972	88.20917
513.45	118.27172
513.928	113.27144
514.406	121.29275
514.884	125.31771
515.361	132.31098
515.839	118.26846
516.316	165.39242
516.793	76.19074
517.27	88.21006
517.747	90.22912
518.224	78.17882
518.701	95.20829
519.178	121.2988
519.654	81.19072
520.131	74.18244
520.607	86.20858
521.083	39.08864
521.56	37.08746
522.036	109.23475
522.512	131.31861
522.987	119.28313
523.463	72.17002
523.939	150.36557
524.414	79.17991
524.89	107.25272
525.365	58.13099
525.84	91.21718
526.315	74.17853
526.79	129.28676
527.265	136.30941
527.74	73.17642
528.215	74.1719
528.689	60.13147
529.164	70.14975
529.638	52.13163
530.112	61.14324
530.587	96.20395
531.061	90.21631
531.534	79.18941
532.008	116.2788
532.482	57.13102
532.956	39.09962
533.429	105.25452
533.903	76.16596
534.376	64.14135
534.849	77.17628
535.322	92.21548
535.795	32.07755
536.268	78.18797
536.741	39.09283
537.213	84.19204
537.686	63.15386
538.158	105.23671
538.631	85.20464
539.103	66.14894
539.575	70.14391
540.047	67.14591
540.519	127.29926
540.991	85.20604
541.463	38.09168
541.934	69.15561
542.406	47.11316
542.877	92.20634
543.348	126.3003
543.82	82.19836
544.291	111.25657
544.762	77.18271
545.233	75.18941
545.703	89.19711
546.174	69.15981
546.645	106.25428
547.115	87.20898
547.585	115.26179
548.056	134.32524
548.526	111.26125
548.996	88.20934
549.466	83.20089
549.935	107.2537
550.405	82.17982
550.875	125.29351
551.344	69.16436
551.814	107.24338
552.283	83.1809
552.752	131.30352
553.221	99.2177
553.69	178.39412
554.159	124.30548
554.628	143.32
555.096	125.31456
555.565	65.14407
556.033	153.35926
556.502	65.15691
556.97	95.21066
557.438	80.18745
557.906	115.26898
558.374	106.24428
558.842	89.21241
559.31	67.1503
559.777	106.25728
560.245	49.1129
560.712	68.15583
561.18	68.15082
561.647	19.04262
562.114	60.13789
562.581	86.21077
563.048	83.18971
563.514	123.30541
563.981	73.16719
564.448	78.17616
564.914	73.16941
565.381	124.28051
565.847	106.24506
566.313	51.11873
566.779	75.16873
567.245	43.10006
567.711	73.17449
568.176	20.04537
568.642	111.27692
569.108	81.19841
569.573	72.16646
570.038	72.15076
570.504	96.21593
570.969	36.08957
571.434	96.2123
571.899	104.24473
572.363	108.24591
572.828	150.33946
573.293	71.16274
573.757	134.3072
574.222	68.15264
574.686	140.31774
575.15	167.39443
575.614	224.51331
576.078	97.22643
576.542	117.2643
577.006	141.31435
577.469	146.35343
577.933	134.30177
578.396	82.19386
578.86	148.34297
579.323	196.46085
579.786	155.33094
580.249	206.47282
580.712	154.36802
581.175	196.47106
581.637	143.32158
582.1	196.41639
582.563	198.40981
583.025	227.5355
583.487	244.48442
583.95	168.35317
584.412	220.4482
584.874	267.62642
585.336	233.53511
585.797	292.60652
586.259	278.62373
586.721	248.56145
587.182	298.65567
587.643	316.68271
588.105	301.67879
588.566	342.67201
589.027	410.93944
589.488	412.88132
589.949	420.95153
590.41	475.85625
590.87	522.08527
591.331	564.10499
591.791	549.14886
592.252	588.22816
592.712	597.28251
593.172	672.34181
593.632	771.46615
594.092	739.41884
594.552	804.47162
595.011	800.56161
595.471	884.67287
595.931	941.74759
596.39	971.92497
596.849	1032.94398
597.308	1083.80578
597.768	1209.47792
598.227	1293.37329
598.685	1310.23799
599.144	1459.50661
599.603	1573.5914
600.062	1587.26005
600.52	1747.61676
600.978	1810.83568
601.437	1914.75341
601.895	2065.59445
602.353	2167.73432
602.811	2381.92794
603.269	2425.20286
603.727	2522.28338
604.184	2787.04178
604.642	2886.48945
605.099	3062.17748
605.557	3210.4144
606.014	3308.65555
606.471	3507.59067
606.928	3724.70112
607.385	3911.46124
607.842	3888.83023
608.299	4285.77088
608.755	4275.03865
609.212	4425.37696
609.668	4582.36619
610.125	4849.68697
610.581	4928.43403
611.037	5049.04825
611.493	5201.24539
611.949	5339.49836
612.405	5472.25702
612.861	5587.93691
613.316	5656.19868
613.772	5820.80601
614.227	5834.14065
614.683	5997.26892
615.138	5884.93681
615.593	6025.80975
616.048	6002.72374
616.503	6009.13135
616.958	5954.39712
617.412	5844.04175
617.867	5935.60736
618.321	5914.14599
618.776	5966.49483
619.23	5767.97374
619.684	5736.65984
620.138	5667.85434
620.592	5576.32119
621.046	5594.11915
621.5	5433.33387
621.954	5332.789
622.407	5245.8345
622.861	5210.52177
623.314	5097.06978
623.768	5002.43035
624.221	4828.3715
624.674	4823.36804
625.127	4706.47794
625.58	4692.2387
626.033	4482.18052
626.485	4411.8479
626.938	4471.78362
627.39	4336.72133
627.843	4187.69508
628.295	4128.72447
628.747	4122.96947
629.199	3966.71527
629.651	3798.8353
630.103	3767.85058
630.555	3733.33534
631.006	3609.99524
631.458	3443.12463
631.909	3436.80934
632.361	3375.01173
632.812	3368.03665
633.263	3296.66634
633.714	3159.56138
634.165	3086.3014
634.616	3033.21612
635.067	3049.79771
635.518	3083.22988
635.968	3036.2126
636.419	2898.77389
636.869	2825.22531
637.319	2791.10811
637.769	2814.93308
638.219	2701.19057
638.669	2657.22643
639.119	2612.25332
639.569	2631.27265
640.019	2653.06876
640.468	2600.90379
640.918	2530.18475
641.367	2578.89258
641.816	2555.85357
642.265	2576.11098
642.714	2465.99435
643.163	2609.06688
643.612	2576.3874
644.061	2551.66862
644.51	2545.01297
644.958	2615.83021
645.406	2556.23631
645.855	2501.30717
646.303	2517.04559
646.751	2517.05617
647.199	2509.9452
647.647	2554.08088
648.095	2451.96209
648.543	2508.42238
648.99	2500.25143
649.438	2410.02105
649.885	2429.4341
650.333	2475.23873
650.78	2453.26854
651.227	2421.32628
651.674	2358.94346
652.121	2386.32709
652.568	2337.29821
653.015	2366.35983
653.461	2324.13368
653.908	2307.95298
654.354	2308.13329
654.801	2214.0191
655.247	2220.65536
655.693	2208.55066
656.139	2140.06445
656.585	2158.07765
657.031	2174.01205
657.477	2173.68278
657.922	2120.82911
658.368	2095.17986
658.813	2010.77464
659.259	2075.10503
659.704	2072.99995
660.149	2013.83779
660.594	2002.96
661.039	2016.79015
661.484	1966.92665
661.929	1959.86334
662.373	1924.15837
662.818	1842.02395
663.262	1849.93468
663.707	1922.22215
664.151	1885.99588
664.595	1854.93857
665.039	1842.03881
665.483	1823.13408
665.927	1911.84763
666.371	1850.82012
666.814	1810.826
667.258	1882.94492
667.701	1893.45568
668.145	1862.06715
668.588	1879.06266
669.031	1790.77044
669.474	1841.89061
669.917	1816.5126
670.36	1895.10769
670.803	1902.96817
671.245	1818.26736
671.688	1852.95852
672.13	1855.6613
672.573	1893.15692
673.015	1872.93574
673.457	1858.51176
673.899	1985.02759
674.341	1867.9253
674.783	1902.92927
675.225	1981.10572
675.666	1933.04658
676.108	1892.50275
676.549	1934.82529
676.991	1940.58631
677.432	1918.20568
677.873	1942.745
678.314	1992.95549
678.755	1998.12478
679.196	1922.7381
679.637	1987.97513
680.078	1993.87191
680.518	1983.78939
680.959	1992.95373
681.399	2009.14493
681.839	2035.0692
682.28	1969.13742
682.72	2036.80073
683.16	2027.19693
683.6	2015.76677
684.039	2095.40374
684.479	2060.16856
684.919	2162.99547
685.358	2080.2164
685.798	2129.48318
686.237	2150.0472
686.676	2192.81859
687.115	2167.99975
687.554	2226.10348
687.993	2277.74661
688.432	2302.89822
688.871	2363.94293
689.309	2312.15087
689.748	2343.48752
690.186	2409.04941
690.625	2367.06271
691.063	2398.15048
691.501	2496.38255
691.939	2534.50338
692.377	2499.26817
692.815	2580.34464
693.253	2593.18592
693.69	2551.74376
694.128	2625.30905
694.565	2687.17526
695.003	2747.65181
695.44	2727.18245
695.877	2703.14147
696.314	2765.54959
696.751	2824.93072
697.188	2860.0639
697.625	2915.85314
698.061	2906.25214
698.498	2949.16882
698.934	2946.23816
699.371	3087.13845
699.807	3054.15613
700.243	3133.29022
700.679	3076.81012
701.115	3183.06402
701.551	3206.03269
701.987	3174.67057
702.422	3292.1971
702.858	3442.15912
703.294	3444.8997
703.729	3468.28005
704.164	3382.17084
704.599	3461.72715
705.035	3503.73893
705.47	3582.23609
705.904	3614.90001
706.339	3682.81643
706.774	3789.90996
707.209	3789.87169
707.643	3874.02545
708.078	3800.17183
708.512	3886.37523
708.946	3976.90289
709.38	4125.86205
709.814	4045.55642
710.248	4210.04107
710.682	4286.86588
711.116	4277.9784
711.549	4165.39593
711.983	4282.57537
712.416	4359.73525
712.85	4544.95542
713.283	4607.5539
713.716	4535.96326
714.149	4689.36028
714.582	4686.16025
715.015	4760.7522
715.448	4840.93508
715.881	4892.7373
716.313	4947.27737
716.746	4972.36506
717.178	5076.42398
717.61	5150.83974
718.043	5233.53602
718.475	5286.375
718.907	5335.56711
719.339	5410.81814
719.77	5530.14847
720.202	5504.49955
720.634	5736.2328
721.065	5723.92345
721.497	5687.22728
721.928	5785.1631
722.359	5903.09296
722.79	5962.93832
723.221	6085.14962
723.652	6136.31447
724.083	6200.44042
724.514	6304.54807
724.945	6370.64972
725.375	6484.62521
725.806	6589.94507
726.236	6591.21439
726.666	6735.63997
727.096	6768.87052
727.526	6928.23662
727.956	6952.48032
728.386	7079.88485
728.816	7145.18656
729.246	7286.96956
729.675	7239.87723
730.105	7382.92652
730.534	7331.65637
730.964	7513.07954
731.393	7579.00504
731.822	7611.2652
732.251	7766.29162
732.68	7858.91627
733.109	7937.24986
733.537	8022.27945
733.966	8105.43705
734.395	8233.26999
734.823	8137.03541
735.251	8356.52374
735.68	8229.48084
736.108	8299.60404
736.536	8359.44686
736.964	8299.34758
737.392	8479.79699
737.82	8504.68059
738.247	8580.77703
738.675	8623.8036
739.102	8599.93646
739.53	8563.00991
739.957	8652.1389
740.384	8603.83358
740.811	8737.10865
741.238	8775.13406
741.665	8670.88147
742.092	8564.66957
742.519	8601.92832
742.945	8602.86765
743.372	8611.94356
743.798	8577.99856
744.225	8487.63216
744.651	8608.95394
745.077	8502.81347
745.503	8556.77644
745.929	8486.70582
746.355	8443.65589
746.781	8231.46219
747.207	8392.53204
747.632	8219.50916
748.058	8331.67622
748.483	8323.35102
748.908	8286.57932
749.334	8217.47238
749.759	8086.22078
750.184	8158.33113
750.609	8018.26319
751.033	8048.09524
751.458	7958.86563
751.883	7933.21583
752.307	7754.90363
752.732	7658.28578
753.156	7767.11401
753.58	7579.79848
754.005	7529.10011
754.429	7324.73797
754.853	7412.03413
755.277	7273.72685
755.7	7196.95754
756.124	7069.9573
756.548	6942.62695
756.971	6943.8244
757.394	6894.13699
757.818	6795.22923
758.241	6648.13974
758.664	6704.07669
759.087	6576.37679
759.51	6436.94555
759.933	6455.82738
760.356	6345.34577
760.778	6370.94629
761.201	6185.86581
761.623	6125.77227
762.046	6005.68797
762.468	6031.85112
762.89	5920.03171
763.312	5886.09461
763.734	5761.03355
764.156	5571.30601
764.578	5511.72977
765	5451.25944
765.421	5292.74416
765.843	5260.96503
766.264	5061.23333
766.686	5104.57541
767.107	4972.47693
767.528	4925.01141
767.949	4790.95083
768.37	4849.74419
768.791	4603.58529
769.212	4586.02696
769.632	4434.53669
770.053	4348.43539
770.473	4339.76891
770.894	4198.98808
771.314	4130.70657
771.734	4080.6583
772.154	3975.38731
772.575	3994.61129
772.994	3889.54636
773.414	3819.90058
773.834	3685.29794
774.254	3638.16176
774.673	3591.21714
775.093	3529.36186
775.512	3418.32345
775.931	3389.52081
776.351	3291.41989
776.77	3226.32032
777.189	3229.08632
777.607	3086.58909
778.026	3083.41852
778.445	2954.55768
778.864	2836.50544
779.282	2801.11778
779.701	2767.43721
780.119	2695.50188
780.537	2605.3531
780.955	2625.44684
781.373	2555.29454
781.791	2536.84889
782.209	2475.77536
782.627	2401.6315
783.045	2407.80532
783.462	2358.41986
783.88	2240.44674
784.297	2241.2802
784.715	2138.3606
785.132	2101.97021
785.549	2054.1283
785.966	2076.18074
786.383	2016.06052
786.8	1939.71603
787.217	1874.81568
787.633	1838.01896
788.05	1767.60325
788.466	1847.66101
788.883	1736.01858
789.299	1677.61974
789.715	1689.74619
790.131	1608.74316
790.547	1603.74254
790.963	1579.6955
791.379	1477.66926
791.795	1483.26863
792.21	1396.27951
792.626	1404.32822
793.041	1327.3935
793.457	1406.4732
793.872	1256.13728
794.287	1243.24825
794.702	1265.26277
795.117	1263.36079
795.532	1230.35583
795.947	1202.12056
796.362	1141.00365
796.776	1189.01244
797.191	1100.08607
797.605	1069.96619
798.02	1035.96819
798.434	1070.79914
798.848	1026.02742
799.262	954.90045
799.676	969.87995
800.09	920.82333
800.504	909.76422
800.918	879.61121
801.331	756.63179
801.745	828.52783
802.158	770.59178
802.572	840.66537
802.985	801.57502
803.398	721.43281
803.811	719.53034
804.224	719.48591
804.637	689.39203
805.05	692.32877
805.462	642.34052
805.875	601.36684
806.288	632.3167
806.7	585.26317
807.112	590.15875
807.525	513.09282
807.937	561.21438
808.349	542.18043
808.761	547.18201
809.173	568.20153
809.584	487.05755
809.996	466.01165
810.408	451.05994
810.819	475.98859
811.231	536.2764
811.642	546.19167
812.053	522.12045
812.464	455.95623
812.875	474.08786
813.286	474.10218
813.697	424.85633
814.108	445.96403
814.519	436.86804
814.929	385.88872
815.34	327.71599
815.75	375.87699
816.16	320.7209
816.571	353.83686
816.981	327.693
817.391	265.58515
817.801	309.70963
818.211	315.6839
818.62	316.70081
819.03	278.62706
819.44	225.54086
819.849	246.5705
820.259	240.56671
820.668	241.55481
821.077	292.67663
821.486	280.61167
821.895	255.5746
822.304	195.48717
822.713	240.52341
823.122	237.54996
823.531	193.42118
823.939	269.60912
824.348	244.54655
824.756	187.43806
825.164	217.50813
825.573	224.52606
825.981	203.46864
826.389	240.56033
826.797	214.51217
827.205	228.48943
827.612	161.37287
828.02	111.24644
828.428	193.462
828.835	198.49583
829.243	176.39051
829.65	177.41869
830.057	141.32215
830.464	211.48731
830.871	179.40435
831.278	135.30956
831.685	198.40834
832.092	136.31216
832.499	171.35147
832.905	118.28275
833.312	103.21839
833.718	157.37296
834.124	163.35059
834.531	106.25244
834.937	149.36442
835.343	98.22341
835.749	147.31808
836.155	123.30775
836.561	138.32233
836.966	91.21176
837.372	81.19686
837.777	115.27425
838.183	129.26849
838.588	142.33675
838.993	120.27787
839.399	81.19079
839.804	82.19198
840.209	129.31692
840.613	84.17744
841.018	103.24779
841.423	133.32505
841.828	75.18337
842.232	102.23647
842.637	158.35509
843.041	35.08745
843.445	69.16499
843.849	88.20958
844.253	121.27155
844.657	101.24501
845.061	107.23479
845.465	86.19874
845.869	81.17961
846.272	107.24978
846.676	48.1096
847.079	110.26959
847.483	100.23742
847.886	74.17067
848.289	127.3286
848.692	48.11646
849.095	78.17832
849.498	73.17482
849.901	74.16043
850.304	62.14191
850.707	59.14436
851.109	112.26847
851.512	62.14692
851.914	43.1056
852.316	81.199
852.718	124.314
853.121	70.16472
853.523	17.03812
853.925	45.11495
854.326	70.16946
854.728	65.16169
855.13	67.16836
855.531	63.14487
855.933	55.12541
856.334	110.26388
856.736	61.13211
857.137	82.18376
857.538	79.19214
857.939	104.24901
858.34	35.08135
858.741	56.1408
859.142	43.09884
859.542	52.13374
859.943	106.25089
860.343	53.12741
860.744	76.17745
861.144	83.19558
861.544	52.12208
861.945	54.13249
862.345	108.24988
862.745	76.1826
863.145	87.19412
863.544	71.17301
863.944	59.13355
864.344	41.09684
864.743	100.23614
865.143	76.18943
865.542	26.05731
865.941	97.23017
866.34	22.05019
866.74	40.10427
867.139	109.25184
867.537	46.11178
867.936	82.1895
868.335	29.07125
868.734	50.12359
869.132	0
869.531	50.11468
869.929	38.08372
870.327	65.14929
870.726	53.12571
871.124	55.12206
871.522	15.03695
871.92	108.25355
872.318	40.09347
872.715	20.04714
873.113	44.10257
873.511	35.08388
873.908	64.15825
874.306	70.16863
874.703	42.10026
875.1	-2.0049
875.497	36.08277
875.894	58.13935
876.291	63.14874
876.688	36.08999
877.085	39.08936
877.482	47.11329
877.878	85.19827
878.275	54.13259
878.671	36.07424
879.068	102.23394
879.464	61.14128
879.86	16.03656
880.256	40.09347
880.652	32.07869
881.048	30.07095
881.444	14.0317
881.84	63.15369
882.236	37.08969
882.631	85.20053
883.027	18.04193
883.422	-1.00247
883.817	60.14629
884.213	22.05476
884.608	46.11123
885.003	44.10108
885.398	44.10632
885.793	54.12979
886.188	2.00482
886.582	49.11994
886.977	38.08607
887.371	27.06555
887.766	29.07019
888.16	3.00714
888.554	59.13892
888.949	82.19686
889.343	77.17869
889.737	39.10178
890.131	18.04376
890.525	63.15615
890.918	25.06081
891.312	65.14707
891.706	22.05587
892.099	45.11002
892.492	68.13828
892.886	44.1033
893.279	21.05169
893.672	29.07198
894.065	60.14454
894.458	37.08881
894.851	49.11448
895.244	26.06424
895.637	60.13904
896.029	93.21829
896.422	-14.03283
896.814	12.0288
897.206	112.25677
897.599	78.18419
897.991	6.01416
898.383	70.15842
898.775	74.16112
899.167	46.10465
899.559	7.01703
899.951	61.13611
900.342	21.05117
900.734	73.17815
901.125	10.02531
901.517	13.03097
901.908	3.00685
902.299	52.1226
902.69	61.13915
903.082	74.17128
903.473	77.17918
903.863	13.03197
904.254	63.14162
904.645	34.08041
905.036	65.15412
905.426	35.0756
905.817	44.1031
906.207	-72.16659
906.597	81.18253
906.987	24.05971
907.378	40.09822
907.768	79.20151
908.158	29.06802
908.547	51.12903
908.937	7.01721
909.327	25.05843
909.717	35.08427
910.106	36.08277
910.495	10.02389
910.885	51.12474
911.274	13.03142
911.663	48.11616
912.052	34.07982
912.441	31.07686
912.83	17.03729
913.219	50.12571
913.608	68.1602
913.997	42.10259
914.385	75.17101
914.774	49.1143
915.162	75.17281
915.55	38.08768
915.939	49.12016
916.327	2.0048
916.715	78.19378
917.103	18.04201
917.491	32.07603
917.878	43.1014
918.266	30.07494
918.654	73.18054
919.041	54.13791
919.429	39.08839
919.816	22.05388
920.203	51.12004
920.591	39.0934
920.978	64.15008
921.365	37.09434
921.752	-3.00681
922.139	81.16656
922.525	27.06281
922.912	29.06788
923.299	37.08881
923.685	-37.09365
924.072	2.00434
924.458	45.10785
924.844	63.14961
925.231	50.11025
925.617	45.1117
926.003	56.1372
926.389	-1.00245
926.774	22.05372
927.16	30.07172
927.546	70.17461
927.931	68.16139
928.317	55.12003
928.702	26.05889
929.088	76.1757
929.473	39.09663
929.858	38.09022
930.243	57.13264
930.628	49.11587
931.013	10.02405
931.398	43.09289
931.783	18.04545
932.167	35.0834
932.552	34.08187
932.937	47.1114
933.321	37.0904
933.705	-12.02908
934.09	21.05018
934.474	54.12141
934.858	39.098
935.242	33.07318
935.626	12.02998
936.009	13.034
936.393	94.232
936.777	24.05991
937.16	48.12159
937.544	5.01118
937.927	40.09854
938.311	37.0862
938.694	58.14839
939.077	33.076
939.46	42.09675
939.843	11.02142
940.226	36.08866
940.609	54.12012
940.991	-4.00983
941.374	55.1299
941.757	28.06633
942.139	56.12058
942.522	76.16982
942.904	55.12672
943.286	28.06847
943.668	79.19859
944.05	10.02387
944.432	0
944.814	48.11229
945.196	53.12513
945.578	59.13681
945.959	22.04906
946.341	18.04178
946.722	19.04268
947.104	40.09189
947.485	55.12242
947.866	78.18989
948.247	64.15668
948.628	-6.01389
949.009	-4.00997
949.39	6.01437
949.771	6.01312
950.152	46.10867
950.532	74.17954
950.913	21.04875
951.293	25.06625
951.674	6.01404
952.054	81.19583
952.434	59.14081
952.814	12.0272
953.194	2.00502
953.574	35.08254
953.954	61.13678
954.334	64.15452
954.714	-4.00951
955.093	46.10858
955.473	40.09756
955.853	38.0951
956.232	41.10872
956.611	18.04102
956.99	46.11182
957.37	24.05871
957.749	-25.05698
958.128	60.14618
958.506	18.04539
958.885	19.04619
959.264	59.14065
959.643	139.29884
960.021	36.08666
960.4	81.17384
960.778	41.09548
961.156	-9.02183
961.535	48.10579
961.913	96.21434
962.291	28.07048
962.669	44.10804
963.047	35.08678
963.424	75.18623
963.802	46.10901
964.18	32.07671
964.557	32.07026
964.935	58.13115
965.312	13.03308
965.69	-1.0024
966.067	-5.01165
966.444	-20.04695
966.821	16.04004
967.198	35.08055
967.575	19.04474
967.952	64.14336
968.329	97.22599
968.705	134.27039
969.082	73.18239
969.458	37.08668
969.835	52.12132
970.211	56.13994
970.587	64.15306
970.963	23.05653
971.339	34.08634
971.715	49.11788
972.091	36.08521
972.467	2.00476
972.843	44.10644
973.219	59.13388
973.594	16.04063
973.97	-8.01791
974.345	37.08552
974.721	60.13662
975.096	83.19314
975.471	48.1085
975.846	70.15913
976.221	39.09567
976.596	76.17703
976.971	125.29443
977.346	4.0089
977.72	13.0319
978.095	21.05251
978.469	59.13388
978.844	44.10567
979.218	28.06574
979.593	68.15458
979.967	14.03225
980.341	100.21892
980.715	43.10462
981.089	13.03145
981.463	-13.0289
981.837	73.17275
982.21	3.00654
982.584	51.11868
982.957	6.01462
983.331	41.09133
983.704	79.18789
984.078	27.06402
984.451	3.0071
984.824	64.15025
985.197	-8.01852
985.57	45.10661
985.943	18.04204
986.316	84.19296
986.688	73.16746
987.061	70.15693
987.434	75.19029
987.806	15.03453
988.179	12.02717
988.551	44.10688
988.923	25.05896
989.295	48.11449
989.667	28.06548
990.039	78.18754
990.411	3.00654
990.783	15.03271
991.155	-9.02108
991.527	12.02793
991.898	48.11559
992.27	46.11056
992.641	60.14322
993.012	6.01323
993.384	18.04112
993.755	74.1819
994.126	69.16
994.497	1.00238
994.868	9.01964
995.239	56.12941
995.61	26.06325
995.98	-7.01645
996.351	38.0913
996.722	57.12787
997.092	-7.01615
997.462	50.11329
997.833	24.05414
998.203	13.02991
998.573	38.09151
998.943	57.12845
999.313	15.03491
999.683	66.15186
1000.053	-36.07845
1000.423	1.00233
1000.792	37.0914
1001.162	-5.01184
1001.531	68.16064
1001.901	49.11658
1002.27	23.04813
1002.639	12.02944
1003.009	21.04792
1003.378	39.09634
1003.747	0
1004.116	11.02533
1004.485	12.02763
1004.853	-17.04127
1005.222	-40.09658
1005.591	38.08614
1005.959	36.07801
1006.328	72.15449
1006.696	57.13081
1007.064	25.06003
1007.433	-4.00961
1007.801	63.14498
1008.169	-17.04127
1008.537	47.09896
1008.905	28.06314
1009.273	29.06836
1009.64	68.15702
1010.008	35.07984
1010.375	19.04355
1010.743	2.0043
1011.11	97.22225
1011.478	42.10068
1011.845	70.15558
1012.212	31.06808
1012.579	35.08279
1012.946	33.07436
1013.313	59.13263
1013.68	49.10421
1014.047	6.01379
1014.414	34.07685
1014.78	19.0458
1015.147	31.07103
1015.513	27.06256
1015.88	47.11461
1016.246	1.00235
1016.612	44.09519
1016.978	70.16498
1017.344	59.13995
1017.71	83.19101
1018.076	33.07369
1018.442	61.15119
1018.808	88.21191
1019.174	33.07918
1019.539	-3.00635
1019.905	10.02287
1020.27	5.01191
1020.636	39.08824
1021.001	87.19853
1021.366	-14.03277
1021.731	97.24156
1022.096	1.00247
1022.461	42.09548
1022.826	52.11921
1023.191	65.16398
1023.556	57.12655
1023.92	7.01645
1024.285	8.01862
1024.649	1.00235
1025.014	-19.04512
1025.378	53.12881
1025.742	-8.01907
1026.107	14.03026
1026.471	68.14975
1026.835	28.06684
1027.199	40.09259
1027.562	-2.00443
1027.926	42.09779
1028.29	36.08784
1028.654	42.09179
1029.017	69.16246
1029.381	38.0874
1029.744	20.04934
1030.107	65.14641
1030.471	83.19002
1030.834	8.01717
1031.197	10.02318
1031.56	37.08307
1031.923	4.01006
1032.286	74.16501
1032.648	22.04977
1033.011	82.18126
1033.374	23.05123
1033.736	-2.00512
1034.099	8.01885
1034.461	32.07863
1034.823	3.00727
1035.185	8.01928
1035.548	52.12179
1035.91	33.07564
1036.272	33.07229
1036.634	40.0938
1036.995	36.08028
1037.357	17.04011
1037.719	52.12127
1038.08	115.25999
1038.442	33.07494
1038.803	25.05664
1039.165	27.06533
1039.526	7.01634
1039.887	47.10743
1040.248	32.07729
1040.609	0
1040.97	9.02115
1041.331	57.13952
1041.692	18.04122
1042.053	26.05625
1042.413	19.04218
1042.774	61.14206
1043.134	64.14295
1043.495	58.13961
1043.855	75.17542
1044.215	27.06409
1044.576	24.05562
1044.936	46.09985
1045.296	56.13378
1045.656	17.03972
1046.016	68.15533
1046.375	-4.00938
1046.735	83.18175
1047.095	53.11841
1047.454	16.03191
1047.814	58.13329
1048.173	24.05416
1048.533	52.11346
1048.892	39.09022
1049.251	-17.0411
1049.61	15.03568
1049.969	31.06977
1050.328	39.08041
1050.687	13.03026
1051.046	30.06985
1051.405	19.04508
1051.763	55.12201
1052.122	-9.02173
1052.48	16.03796
1052.839	73.16632
1053.197	22.04965
1053.555	64.13502
1053.914	45.10505
1054.272	-10.02283
1054.63	16.03783
1054.988	25.05767
1055.345	18.0364
1055.703	76.17438
1056.061	42.10537
1056.419	60.15183
1056.776	46.10474
1057.134	25.05435
1057.491	44.10587
1057.848	24.05716
1058.206	-12.02679
1058.563	16.03364
1058.92	48.10486
1059.277	38.08998
1059.634	-1.00223
1059.991	98.22287
1060.348	47.1017
1060.704	92.2132
1061.061	41.08898
1061.418	76.17577
1061.774	51.12064
1062.131	28.07284
1062.487	44.09759
1062.843	72.17121
1063.199	74.17576
1063.555	12.02701
1063.911	14.03392
1064.267	111.21167
1064.623	29.06857
1064.979	11.02407
1065.335	36.08157
1065.691	23.05206
1066.046	55.11427
1066.402	16.03458
1066.757	43.10439
1067.112	24.05637
1067.468	46.10546
1067.823	22.04967
1068.178	20.04616
1068.533	85.19561
1068.888	49.11114
1069.243	40.09479
1069.598	31.07177
1069.952	79.17255
1070.307	28.06712
1070.662	48.11053
1071.016	80.17233
1071.371	8.0176
1071.725	46.10406
1072.079	70.16074
1072.434	35.08199
1072.788	10.02258
1073.142	83.19452
1073.496	29.06578
1073.85	92.20099
1074.203	78.18026
1074.557	38.09895
1074.911	61.13752
1075.265	15.03344
1075.618	74.1723
1075.971	22.05017
1076.325	43.10603
1076.678	11.02419
1077.031	0
1077.385	27.05645
1077.738	37.07941
1078.091	66.144
1078.444	-10.02209
1078.796	47.11131
1079.149	60.14311
1079.502	56.12725
1079.855	61.1356
1080.207	53.1244
1080.56	20.05036
1080.912	67.15511
1081.264	30.06969
1081.617	47.11019
1081.969	15.03682
1082.321	6.01408
1082.673	39.08655
1083.025	-5.01137
1083.377	41.09201
1083.728	31.06877
1084.08	-5.012
1084.432	7.0162
1084.783	9.01982
1085.135	9.02192
1085.486	62.13579
1085.838	40.09493
1086.189	32.07533
1086.54	68.1537
1086.891	61.15097
1087.242	131.3064
1087.593	36.0826
1087.944	66.14321
1088.295	16.03473
1088.646	123.28724
1088.996	37.0861
1089.347	7.01646
1089.698	25.05746
1090.048	1.0025
1090.398	58.12692
1090.749	19.04324
1091.099	78.18996
1091.449	24.05788
1091.799	22.05308
1092.149	9.02154
1092.499	46.10753
1092.849	1.00247
1093.199	29.06926
1093.548	57.13243
1093.898	-12.029
1094.248	32.0784
1094.597	13.03259
1094.947	9.02338
1095.296	44.10491
1095.645	58.1442
1095.994	72.16454
1096.343	95.22846
1096.692	33.08533
1097.041	24.06416
1097.39	46.11001
1097.739	34.08521
1098.088	50.12819
1098.437	35.09031
1098.785	0
1099.134	-10.0254
1099.482	69.18375
1099.83	39.09899
1100.179	68.17391
1100.527	16.04072
1100.875	29.07486
1101.223	55.14187
1101.571	-33.08911
1101.919	15.03895
1102.267	15.04158
1102.615	-1.00321
1102.962	0
1103.31	4.01285
1103.658	-3.00962
