Data from N3 R3 sample 5_Subt2__2__11-04-00-823.txt Node

Date: Thu Sep 18 11:04:00 PDT 2025
User: uwsun
Spectrometer: HDX01956
Trigger mode: 0
Integration Time (sec): 5.000000E-1
Scans to average: 1
Nonlinearity correction enabled: true
Boxcar width: 0
Storing dark spectrum: false
XAxis mode: Wavelengths
Number of Pixels in Spectrum: 2068
>>>>>Begin Spectral Data<<<<<
194.03	54.15554
194.578	50.16163
195.127	48.15301
195.676	69.22019
196.225	59.15603
196.773	74.20444
197.321	94.25936
197.87	139.35554
198.418	173.44312
198.966	203.52903
199.513	159.40312
200.061	121.30863
200.609	153.40256
201.156	139.30488
201.704	164.41114
202.251	172.4546
202.798	134.34761
203.345	174.4288
203.892	162.40817
204.438	165.38985
204.985	130.30996
205.532	169.44209
206.078	203.4902
206.624	207.51415
207.17	241.55548
207.716	203.49316
208.262	245.47562
208.808	199.49572
209.354	214.52329
209.899	200.49812
210.445	175.43579
210.99	196.47446
211.535	202.47162
212.08	147.3414
212.625	161.40078
213.17	215.54121
213.715	205.46383
214.259	169.39326
214.804	134.32889
215.348	239.54317
215.892	197.4741
216.436	168.38143
216.98	188.40879
217.524	209.494
218.068	201.50198
218.612	221.55432
219.155	198.46319
219.698	173.40891
220.242	150.36871
220.785	193.44875
221.328	164.40252
221.871	208.52293
222.414	165.4049
222.956	135.32218
223.499	187.41154
224.041	122.27868
224.583	161.33644
225.126	137.29961
225.668	123.2986
226.21	186.46545
226.751	158.34984
227.293	181.40402
227.835	184.44558
228.376	159.35829
228.918	177.43531
229.459	190.46771
230	207.48908
230.541	156.35591
231.082	196.47035
231.622	159.35624
232.163	167.39855
232.704	164.40713
233.244	149.36726
233.784	151.36299
234.324	234.51508
234.864	151.33859
235.404	169.39326
235.944	166.38666
236.484	193.47466
237.023	142.33272
237.563	194.44439
238.102	180.42026
238.641	155.38613
239.18	167.3883
239.719	195.48064
240.258	194.42883
240.797	165.39046
241.335	166.39927
241.874	204.39044
242.412	245.58132
242.95	193.46007
243.488	106.23833
244.026	220.50192
244.564	206.41624
245.102	205.45702
245.64	182.42843
246.177	130.28784
246.715	179.4249
247.252	124.28074
247.789	191.34814
248.326	151.36175
248.863	146.3199
249.4	200.44579
249.936	244.49845
250.473	236.5458
251.009	153.34773
251.546	186.41046
252.082	133.28619
252.618	168.37229
253.154	147.3519
253.69	165.36648
254.226	183.43288
254.761	208.45843
255.297	148.32127
255.832	181.4255
256.367	190.44012
256.903	207.45269
257.438	183.42332
257.972	211.46104
258.507	140.31967
259.042	169.36412
259.576	248.53558
260.111	134.30659
260.645	176.37586
261.179	192.44369
261.713	209.45996
262.247	151.34235
262.781	213.44076
263.315	180.43097
263.849	180.44555
264.382	184.41708
264.915	220.51102
265.449	123.29994
265.982	192.4299
266.515	226.54336
267.048	186.38928
267.58	167.35656
268.113	248.52226
268.646	139.33845
269.178	166.36755
269.71	206.4485
270.243	245.55455
270.775	186.47182
271.307	153.36094
271.838	198.4601
272.37	189.45674
272.902	206.4584
273.433	221.48085
273.965	205.48979
274.496	190.46426
275.027	226.5518
275.558	219.52504
276.089	216.53053
276.62	189.46979
277.15	146.35689
277.681	203.42928
278.211	174.41962
278.741	211.46085
279.272	189.42728
279.802	207.50626
280.332	176.41157
280.861	170.40237
281.391	211.47137
281.921	182.4296
282.45	195.47639
282.98	207.53094
283.509	250.55538
284.038	164.37281
284.567	209.47904
285.096	231.54937
285.625	189.41961
286.153	219.51462
286.682	206.46638
287.21	178.41902
287.739	211.49021
288.267	228.54484
288.795	224.57404
289.323	167.38953
289.851	221.51101
290.378	207.45384
290.906	237.5684
291.433	216.52935
291.961	259.57716
292.488	225.54742
293.015	240.55505
293.542	262.65796
294.069	234.56899
294.596	218.52314
295.122	257.60202
295.649	219.47042
296.175	246.5784
296.702	260.62082
297.228	229.54042
297.754	268.5867
298.28	259.58194
298.806	220.5213
299.332	257.56179
299.857	236.52602
300.383	267.6542
300.908	186.45313
301.433	281.67032
301.958	267.59597
302.483	202.49376
303.008	272.65964
303.533	226.57246
304.058	232.53015
304.582	237.54931
305.107	201.51627
305.631	230.5118
306.155	251.57206
306.679	234.54053
307.203	260.58958
307.727	254.58859
308.251	241.58305
308.775	320.75294
309.298	224.5316
309.822	264.64721
310.345	292.67824
310.868	263.61993
311.391	245.59138
311.914	261.63926
312.437	215.48487
312.96	333.75585
313.482	221.51121
314.005	260.63386
314.527	268.67979
315.049	280.69074
315.571	329.71429
316.093	283.68258
316.615	296.68916
317.137	318.66937
317.659	283.66732
318.18	262.60977
318.702	349.78637
319.223	255.50851
319.744	337.73072
320.265	279.66325
320.786	332.80179
321.307	304.72864
321.828	304.66522
322.348	322.73281
322.869	331.76197
323.389	379.70838
323.909	299.66325
324.43	359.82311
324.95	383.83717
325.47	378.89836
325.989	342.78241
326.509	414.88023
327.029	349.7677
327.548	334.73055
328.067	367.8556
328.587	434.0308
329.106	346.75007
329.625	388.96655
330.144	361.80709
330.662	398.89217
331.181	431.96434
331.7	335.75175
332.218	394.81509
332.736	401.89538
333.255	427.95461
333.773	379.8571
334.291	470.1066
334.808	433.92443
335.326	414.88368
335.844	448.9972
336.361	507.22316
336.879	455.01014
337.396	475.0882
337.913	448.97901
338.43	485.02322
338.947	488.09273
339.464	465.94323
339.981	505.11763
340.497	497.1437
341.014	465.06781
341.53	456.97036
342.046	536.24706
342.562	534.23801
343.078	518.13572
343.594	508.12732
344.11	539.19894
344.626	587.36666
345.141	576.21157
345.657	544.13913
346.172	555.2402
346.687	522.11371
347.202	566.19259
347.717	608.32718
348.232	587.34733
348.747	620.30597
349.261	600.20393
349.776	573.25728
350.29	634.45154
350.805	633.42749
351.319	610.29557
351.833	616.29526
352.347	650.39322
352.861	619.32698
353.374	637.31389
353.888	665.47529
354.401	667.36847
354.915	677.37776
355.428	655.48556
355.941	630.33578
356.454	653.31136
356.967	639.35341
357.48	660.35013
357.993	660.47299
358.505	617.37211
359.018	756.64849
359.53	735.60436
360.042	752.48929
360.554	783.69696
361.066	711.55193
361.578	745.45719
362.09	714.52134
362.602	830.60724
363.113	717.51088
363.625	745.50051
364.136	823.56825
364.647	753.58681
365.158	765.57473
365.669	754.599
366.18	775.61035
366.691	721.40352
367.201	789.66711
367.712	827.64986
368.222	829.6638
368.733	790.50198
369.243	866.66828
369.753	815.64093
370.263	870.82275
370.773	822.7524
371.282	852.7701
371.792	921.82234
372.301	869.81865
372.811	967.17381
373.32	951.73124
373.829	938.88151
374.338	1015.87132
374.847	1042.9935
375.356	1054.05671
375.865	1123.9352
376.373	1186.15184
376.882	1163.40594
377.39	1189.30928
377.898	1197.37097
378.407	1216.18534
378.915	1376.26903
379.423	1345.40524
379.93	1492.56973
380.438	1436.61121
380.946	1561.64197
381.453	1583.77118
381.96	1722.8894
382.468	1776.87711
382.975	1871.12154
383.482	2024.85452
383.989	2007.44974
384.495	2125.08618
385.002	2135.64879
385.509	2315.28236
386.015	2428.61825
386.521	2629.13342
387.028	2685.12814
387.534	2715.82697
388.04	2888.46809
388.546	2861.98291
389.051	3105.94305
389.557	3275.19503
390.063	3573.96181
390.568	3665.32915
391.073	3761.78262
391.578	3917.34335
392.084	4076.78914
392.589	4154.42998
393.093	4552.87919
393.598	4992.34788
394.103	5364.37991
394.607	5961.17145
395.112	6328.18269
395.616	6742.01374
396.12	7320.73875
396.624	8031.27197
397.128	8719.09829
397.632	9866.39559
398.136	10631.87754
398.639	11314.59689
399.143	12500.46575
399.646	14104.44908
400.15	15703.7496
400.653	17379.11926
401.156	19496.04168
401.659	22922.02139
402.162	27893.35669
402.664	36795.4644
403.167	52473.64748
403.67	62032.83798
404.172	63919.58413
404.674	63858.43483
405.176	63738.15102
405.678	63977.72923
406.18	64011.81569
406.682	63863.44694
407.184	63926.60148
407.686	63841.39382
408.187	64025.8516
408.688	63892.51763
409.19	63469.68206
409.691	50791.70563
410.192	43096.20118
410.693	37538.3478
411.194	34062.73643
411.694	32223.71329
412.195	29979.99029
412.696	26942.03012
413.196	25207.56982
413.696	24697.07666
414.196	24951.81252
414.696	24335.02253
415.196	22777.22386
415.696	20816.83527
416.196	16623.66936
416.695	13025.3393
417.195	11132.70933
417.694	10756.72143
418.194	10104.26696
418.693	9468.40704
419.192	9109.68458
419.691	8984.43913
420.19	8794.19816
420.688	8443.80884
421.187	8062.88075
421.685	7570.91338
422.184	7026.83816
422.682	5992.51951
423.18	5066.29736
423.678	4389.62986
424.176	4171.7286
424.674	3979.65411
425.172	3764.09338
425.669	3566.4398
426.167	3321.13998
426.664	3071.04732
427.161	2843.13093
427.659	2593.39418
428.156	2454.72097
428.652	2302.49355
429.149	2194.24346
429.646	2116.82179
430.143	2010.07437
430.639	1845.90849
431.135	1821.11258
431.632	1713.66743
432.128	1623.76672
432.624	1566.97545
433.12	1486.45574
433.616	1475.32244
434.111	1346.42607
434.607	1327.42622
435.103	1295.01941
435.598	1269.97842
436.093	1201.18739
436.588	1145.02954
437.083	1117.98405
437.578	1054.97774
438.073	1060.17656
438.568	1007.05045
439.062	937.64894
439.557	873.72564
440.051	851.6162
440.546	902.71281
441.04	849.73921
441.534	803.75214
442.028	828.70951
442.522	797.64949
443.015	697.30077
443.509	793.66606
444.002	701.51202
444.496	709.33563
444.989	689.47532
445.482	691.51206
445.975	738.48265
446.468	700.31897
446.961	694.31405
447.454	657.29877
447.947	623.32868
448.439	689.49246
448.931	696.39945
449.424	660.49721
449.916	645.40121
450.408	619.26013
450.9	599.30669
451.392	585.34274
451.884	585.20541
452.375	573.28205
452.867	537.09146
453.358	544.12707
453.849	593.12768
454.341	563.14336
454.832	583.12317
455.323	592.32815
455.814	557.14762
456.304	586.21478
456.795	499.03944
457.285	530.05393
457.776	490.01998
458.266	522.12671
458.756	423.92889
459.247	471.03575
459.737	500.10678
460.226	508.05377
460.716	505.10182
461.206	424.94301
461.695	434.99641
462.185	446.97959
462.674	466.97913
463.163	452.93423
463.653	450.88049
464.142	430.96785
464.63	434.97525
465.119	408.88333
465.608	454.98122
466.096	370.75139
466.585	412.87407
467.073	375.82904
467.561	398.89107
468.05	376.81023
468.538	407.92677
469.026	339.75885
469.513	372.73269
470.001	416.88679
470.489	346.77563
470.976	377.82511
471.463	382.89143
471.951	325.76515
472.438	300.67004
472.925	348.77177
473.412	282.6532
473.899	311.67636
474.385	328.76003
474.872	300.66506
475.359	301.70452
475.845	329.64144
476.331	298.60186
476.817	304.70331
477.303	278.61706
477.789	253.57825
478.275	280.66396
478.761	257.58502
479.247	281.59735
479.732	253.60654
480.218	249.62813
480.703	238.5646
481.188	268.55444
481.673	225.49932
482.158	294.60387
482.643	281.68645
483.128	307.67986
483.612	305.6909
484.097	218.50797
484.581	257.5701
485.066	267.62667
485.55	250.53087
486.034	246.51212
486.518	242.55789
487.002	176.41689
487.486	197.46401
487.969	167.39611
488.453	163.39614
488.936	213.46384
489.42	246.5226
489.903	187.45242
490.386	130.26461
490.869	210.44555
491.352	145.34194
491.835	171.34116
492.318	175.38336
492.8	233.46421
493.283	167.41632
493.765	142.34155
494.247	171.38832
494.73	148.32127
495.212	168.38854
495.694	182.41791
496.175	185.43287
496.657	155.35926
497.139	141.23736
497.62	121.28689
498.102	168.40852
498.583	65.1588
499.064	147.32148
499.545	182.40382
500.026	152.33712
500.507	133.30105
500.988	193.46904
501.469	87.21484
501.949	155.37458
502.43	169.39791
502.91	164.34035
503.39	112.27388
503.87	194.44582
504.35	154.35263
504.83	115.24831
505.31	100.23843
505.79	57.13442
506.269	75.17122
506.749	93.21068
507.228	122.28317
507.707	113.24921
508.187	128.3012
508.666	100.24526
509.145	82.19055
509.623	114.26355
510.102	124.29554
510.581	147.348
511.059	119.29548
511.538	131.33225
512.016	162.37987
512.494	96.22854
512.972	126.29731
513.45	95.21976
513.928	119.28552
514.406	125.3022
514.884	91.23269
515.361	93.22076
515.839	137.31048
516.316	121.29021
516.793	88.22038
517.27	89.21241
517.747	96.24413
518.224	104.23718
518.701	85.18675
519.178	141.34691
519.654	97.22768
520.131	108.26459
520.607	68.16548
521.083	54.12236
521.56	58.13654
522.036	97.20944
522.512	148.35881
522.987	107.25517
523.463	94.22103
523.939	144.35134
524.414	118.26661
524.89	146.34222
525.365	73.16437
525.84	65.1559
526.315	115.2753
526.79	104.23239
527.265	160.36224
527.74	43.10451
528.215	42.09818
528.689	38.08365
529.164	46.09892
529.638	29.07371
530.112	55.1293
530.587	88.18728
531.061	94.22576
531.534	108.2575
532.008	93.2245
532.482	121.27456
532.956	49.12494
533.429	120.29006
533.903	133.28692
534.376	62.13699
534.849	63.14464
535.322	108.25216
535.795	63.15179
536.268	80.19272
536.741	76.17961
537.213	54.1242
537.686	68.16592
538.158	127.28501
538.631	110.26358
539.103	107.23944
539.575	86.17616
540.047	108.23314
540.519	105.24848
540.991	89.21557
541.463	86.2056
541.934	39.0885
542.406	78.18669
542.877	74.16658
543.348	81.19472
543.82	121.29054
544.291	125.28812
544.762	119.28008
545.233	130.32509
545.703	80.17751
546.174	88.20304
546.645	83.19998
547.115	140.3329
547.585	107.24398
548.056	117.28488
548.526	145.33901
548.996	93.22102
549.466	127.30483
549.935	135.31836
550.405	81.17767
550.875	144.33687
551.344	130.30603
551.814	134.30313
552.283	164.35129
552.752	164.37748
553.221	167.36197
553.69	158.3513
554.159	157.38442
554.628	122.27419
555.096	141.3538
555.565	145.31603
556.033	191.44515
556.502	135.32157
556.97	162.35421
557.438	154.3556
557.906	184.42453
558.374	183.41524
558.842	135.31934
559.31	166.36479
559.777	131.31647
560.245	122.277
560.712	122.27655
561.18	171.37112
561.647	144.31472
562.114	128.29015
562.581	210.50279
563.048	133.30093
563.514	210.51312
563.981	170.38174
564.448	182.40231
564.914	143.32724
565.381	216.47945
565.847	209.47326
566.313	151.34458
566.779	231.50303
567.245	113.25932
567.711	157.36923
568.176	170.3739
568.642	211.51681
569.108	201.48134
569.573	191.4311
570.038	210.42627
570.504	251.54658
570.969	176.42669
571.434	221.47594
571.899	204.47067
572.363	250.55284
572.828	283.62306
573.293	206.45935
573.757	275.61256
574.222	274.58893
574.686	265.58613
575.15	287.66201
575.614	292.65998
576.078	253.57242
576.542	221.48861
577.006	227.49705
577.469	272.64276
577.933	282.61578
578.396	263.59989
578.86	264.59767
579.323	303.69752
579.786	290.60103
580.249	289.65227
580.712	289.67273
581.175	255.60597
581.637	265.58099
582.1	287.5976
582.563	327.65724
583.025	299.69545
583.487	329.64022
583.95	286.58558
584.412	374.73524
584.874	352.81207
585.336	360.80568
585.797	379.77195
586.259	361.7961
586.721	391.85935
587.182	399.85923
587.643	431.90819
588.105	431.94605
588.566	397.76997
589.027	539.20093
589.488	534.11027
589.949	591.2903
590.41	582.01903
590.87	579.18874
591.331	711.34531
591.791	615.26845
592.252	694.41593
592.712	708.48504
593.172	701.39042
593.632	861.60192
594.092	904.66752
594.552	879.57889
595.011	903.72012
595.471	1052.91023
595.931	1030.87114
596.39	1117.13838
596.849	1165.12267
597.308	1157.89079
597.768	1299.60904
598.227	1381.47997
598.685	1453.38967
599.144	1528.57815
599.603	1558.57704
600.062	1719.35113
600.52	1813.66405
600.978	1885.89183
601.437	1966.78479
601.895	2124.61746
602.353	2236.75873
602.811	2365.92346
603.269	2524.23247
603.727	2579.29845
604.184	2674.03374
604.642	2819.482
605.099	2941.18327
605.557	3119.42179
606.014	3165.69193
606.471	3359.61627
606.928	3540.77036
607.385	3615.55452
607.842	3761.88287
608.299	4066.87867
608.755	4043.14715
609.212	4190.50267
609.668	4260.54176
610.125	4401.93277
610.581	4376.74078
611.037	4590.30768
611.493	4670.5449
611.949	4812.79531
612.405	4864.56645
612.861	4824.35007
613.316	4904.60782
613.772	4945.25538
614.227	4982.59047
614.683	4975.72903
615.138	4956.41519
615.593	5001.3136
616.048	5006.20939
616.503	4960.67219
616.958	4960.9259
617.412	4880.54994
617.867	4881.12859
618.321	4812.65624
618.776	4842.04085
619.23	4744.52078
619.684	4649.23193
620.138	4644.4058
620.592	4521.90488
621.046	4498.72206
621.5	4248.98402
621.954	4279.37244
622.407	4141.44493
622.861	4098.11974
623.314	3975.678
623.768	4012.9573
624.221	3850.91235
624.674	3652.94815
625.127	3664.98433
625.58	3587.78262
626.033	3495.65175
626.485	3374.25628
626.938	3402.22132
627.39	3305.12271
627.843	3278.03648
628.295	3106.06515
628.747	3073.2775
629.199	3058.99537
629.651	2992.04261
630.103	2875.04991
630.555	2868.59315
631.006	2774.1208
631.458	2649.1741
631.909	2652.90678
632.361	2605.05757
632.812	2554.06803
633.263	2549.74147
633.714	2449.61105
634.165	2471.23219
634.616	2390.1314
635.067	2363.77532
635.518	2325.12206
635.968	2378.28184
636.419	2283.71943
636.869	2255.0874
637.319	2263.99366
637.769	2232.83356
638.219	2218.05161
638.669	2167.06339
639.119	2199.10978
639.569	2135.08981
640.019	2151.92287
640.468	2207.80921
640.918	2175.05414
641.367	2168.78672
641.816	2194.76488
642.265	2241.00957
642.714	2200.90866
643.163	2231.96151
643.612	2194.23192
644.061	2155.5883
644.51	2191.90679
644.958	2189.73686
645.406	2124.06702
645.855	2140.15066
646.303	2178.93513
646.751	2141.92748
647.199	2160.83929
647.647	2179.96009
648.095	2128.85113
648.543	2217.38695
648.99	2117.08915
649.438	2111.90557
649.885	2114.26989
650.333	2200.21637
650.78	2204.16411
651.227	2156.20122
651.674	2078.83282
652.121	2067.16032
652.568	2051.14269
653.015	1935.10322
653.461	1995.96618
653.908	1883.74368
654.354	1996.9721
654.801	1919.85636
655.247	1900.52183
655.693	1860.27441
656.139	1816.8533
656.585	1816.85654
657.031	1827.80162
657.477	1769.48133
657.922	1736.59928
658.368	1719.89129
658.813	1650.53212
659.259	1714.83421
659.704	1624.6666
660.149	1640.57527
660.594	1587.63326
661.039	1601.50122
661.484	1544.58299
661.929	1467.45929
662.373	1501.74698
662.818	1540.73533
663.262	1469.57858
663.707	1491.78702
664.151	1446.57943
664.595	1424.52834
665.039	1420.61049
665.483	1382.65022
665.927	1390.38931
666.371	1403.41497
666.814	1389.42736
667.258	1361.4439
667.701	1371.08471
668.145	1362.54828
668.588	1373.54823
669.031	1297.29067
669.474	1306.36085
669.917	1303.09309
670.36	1303.48228
670.803	1305.38227
671.245	1227.84078
671.688	1321.42245
672.13	1248.12246
672.573	1237.42766
673.015	1306.37635
673.457	1286.05688
673.899	1285.35855
674.341	1263.31804
674.783	1213.23929
675.225	1220.32657
675.666	1274.382
676.108	1205.95322
676.549	1182.11861
676.991	1186.97018
677.432	1267.80388
677.873	1186.06948
678.314	1169.15996
678.755	1271.39905
679.196	1202.09204
679.637	1183.19241
680.078	1199.14646
680.518	1146.03289
680.959	1222.22745
681.399	1228.34974
681.839	1198.25157
682.28	1243.38364
682.72	1210.10051
683.16	1208.34682
683.6	1209.08499
684.039	1218.84852
684.479	1195.29795
684.919	1262.24413
685.358	1163.27362
685.798	1277.5765
686.237	1224.23223
686.676	1282.1503
687.115	1252.23314
687.554	1282.31613
687.993	1262.06735
688.432	1292.18595
688.871	1352.26718
689.309	1338.38962
689.748	1357.99371
690.186	1292.2553
690.625	1354.34188
691.063	1353.38755
691.501	1386.54524
691.939	1408.6359
692.377	1373.46179
692.815	1420.54836
693.253	1395.42521
693.69	1415.18649
694.128	1368.46089
694.565	1410.42644
695.003	1490.78718
695.44	1434.45366
695.877	1427.42414
696.314	1451.10006
696.751	1490.36033
697.188	1568.5118
697.625	1539.36068
698.061	1509.56568
698.498	1564.57152
698.934	1582.62989
699.371	1592.58495
699.807	1576.57863
700.243	1648.72861
700.679	1608.40383
701.115	1729.66486
701.551	1659.59132
701.987	1628.34736
702.422	1629.66975
702.858	1755.77595
703.294	1822.66862
703.729	1742.84024
704.164	1735.75794
704.599	1759.52285
705.035	1799.56532
705.47	1775.86037
705.904	1848.72039
706.339	1905.72095
706.774	1907.80619
707.209	1907.78263
707.643	1873.87316
708.078	1931.98574
708.512	1972.15895
708.946	1977.89536
709.38	1950.89553
709.814	1903.65792
710.248	2004.06326
710.682	2037.00046
711.116	2102.10647
711.549	2016.27348
711.983	2033.81688
712.416	2182.01964
712.85	2090.17121
713.283	2139.96929
713.716	2232.25403
714.149	2146.87779
714.582	2239.78067
715.015	2209.18593
715.448	2229.34229
715.881	2269.57808
716.313	2313.98666
716.746	2427.09378
717.178	2294.12755
717.61	2363.46331
718.043	2308.26715
718.475	2441.22897
718.907	2393.36303
719.339	2370.85874
719.77	2447.16199
720.202	2458.40531
720.634	2526.32109
721.065	2492.07787
721.497	2518.29726
721.928	2516.28382
722.359	2572.28582
722.79	2550.18095
723.221	2622.39933
723.652	2677.55686
724.083	2677.85399
724.514	2705.97233
724.945	2620.06421
725.375	2680.06978
725.806	2687.36631
726.236	2750.60824
726.666	2778.11649
727.096	2826.33963
727.526	2846.69023
727.956	2896.94705
728.386	2887.35592
728.816	2825.64136
729.246	2937.41349
729.675	2802.31637
730.105	2779.32778
730.534	2878.04522
730.964	2897.46163
731.393	2912.34521
731.822	2949.63557
732.251	2893.58144
732.68	2917.99737
733.109	2983.40016
733.537	2994.35144
733.966	3000.48616
734.395	2915.99981
734.823	2973.73102
735.251	2991.22286
735.68	2972.38298
736.108	2926.47087
736.536	2974.06052
736.964	2999.999
737.392	2949.47214
737.82	2952.17591
738.247	2960.16375
738.675	2939.0765
739.102	2973.46093
739.53	2912.67808
739.957	2898.71757
740.384	2886.22329
740.811	2902.43083
741.238	2884.35812
741.665	2894.1011
742.092	2711.94388
742.519	2817.42771
742.945	2880.30337
743.372	2834.43435
743.798	2725.5958
744.225	2806.11572
744.651	2636.42725
745.077	2685.42021
745.503	2728.22556
745.929	2677.25656
746.355	2626.25176
746.781	2545.29188
747.207	2510.11175
747.632	2562.38131
748.058	2509.44927
748.483	2490.92276
748.908	2412.3395
749.334	2498.31265
749.759	2437.10913
750.184	2424.16729
750.609	2351.21282
751.033	2392.96536
751.458	2317.72464
751.883	2255.19108
752.307	2236.96547
752.732	2259.42196
753.156	2177.15771
753.58	2196.9468
754.005	2092.20015
754.429	2139.96557
754.853	2092.17614
755.277	2095.9469
755.7	2050.12572
756.124	1965.07852
756.548	1897.79625
756.971	1961.98412
757.394	1868.1257
757.818	1924.22554
758.241	1838.08161
758.664	1817.03056
759.087	1741.51508
759.51	1702.82032
759.933	1733.78112
760.356	1778.10017
760.778	1680.79112
761.201	1652.69068
761.623	1587.57034
762.046	1572.49001
762.468	1606.61222
762.89	1501.57784
763.312	1588.69014
763.734	1544.58857
764.156	1498.62635
764.578	1432.27672
765	1404.4735
765.421	1401.63875
765.843	1403.72457
766.264	1332.29031
766.686	1237.31998
767.107	1248.26816
767.528	1274.49516
767.949	1255.4182
768.37	1263.3631
768.791	1223.19853
769.212	1147.25386
769.632	1220.1402
770.053	1092.26742
770.473	1107.06231
770.894	1039.01639
771.314	1073.95879
771.734	1055.9094
772.154	971.00649
772.575	1012.82165
772.994	978.73787
773.414	943.79383
773.834	939.89693
774.254	925.82771
774.673	941.86543
775.093	915.86442
775.512	905.82818
775.931	875.83766
776.351	842.74698
776.77	814.66782
777.189	840.6398
777.607	760.64743
778.026	780.63477
778.445	718.56293
778.864	695.5093
779.282	744.48579
779.701	697.49696
780.119	646.42271
780.537	643.38324
780.955	688.49124
781.373	668.41645
781.791	693.3291
782.209	612.17886
782.627	594.38053
783.045	594.16059
783.462	618.37746
783.88	602.37049
784.297	542.20637
784.715	575.30975
785.132	538.13648
785.549	527.16543
785.966	499.11947
786.383	512.12443
786.8	482.99088
787.217	518.09464
787.633	532.18946
788.05	474.97575
788.466	495.01326
788.883	500.1513
789.299	410.87742
789.715	419.92475
790.131	427.96011
790.547	444.99608
790.963	411.92225
791.379	372.86196
791.795	410.82768
792.21	396.8284
792.626	344.7381
793.041	348.78524
793.457	340.76532
793.872	336.71441
794.287	355.78811
794.702	356.78655
795.117	319.73581
795.532	334.77853
795.947	298.65044
796.362	271.58512
796.776	302.63485
797.191	291.66134
797.605	298.65457
798.02	284.63902
798.434	337.68047
798.848	323.74415
799.262	261.60397
799.676	322.72154
800.09	248.56899
800.504	259.58098
800.918	222.47471
801.331	179.43437
801.745	259.5465
802.158	196.45761
802.572	270.60703
802.985	227.50711
803.398	208.46323
803.811	207.49003
804.224	188.43514
804.637	184.41522
805.05	210.4506
805.462	201.46126
805.875	159.39436
806.288	226.51394
806.7	147.3476
807.112	168.36328
807.525	136.31391
807.937	193.45123
808.349	153.36122
808.761	190.44256
809.173	175.40256
809.584	176.40818
809.996	121.28246
810.408	103.25892
810.819	159.35418
811.231	158.40407
811.642	185.43524
812.053	202.4642
812.464	164.36676
812.875	151.36959
813.286	179.4412
813.697	106.22971
814.108	120.27798
814.519	156.33083
814.929	158.38118
815.34	95.21819
815.75	150.36625
816.16	116.27222
816.571	130.32144
816.981	99.22026
817.391	115.2619
817.801	104.24863
818.211	88.20029
818.62	168.38406
819.03	154.35617
819.44	57.14138
819.849	96.22924
820.259	102.24729
820.668	135.31737
821.077	96.23108
821.486	60.13717
821.895	100.23247
822.304	70.17883
822.713	74.16706
823.122	90.21492
823.531	31.06997
823.939	120.27996
824.348	104.23967
824.756	53.12741
825.164	105.25126
825.573	100.24053
825.981	105.24713
826.389	98.23518
826.797	124.30187
827.205	113.24859
827.612	67.15806
828.02	1.00227
828.428	84.20526
828.835	73.18692
829.243	89.20105
829.65	62.14992
830.057	51.11863
830.464	123.28904
830.871	122.27879
831.278	80.18547
831.685	76.16104
832.092	30.07032
832.499	113.2353
832.905	63.15254
833.312	71.15159
833.718	113.27071
834.124	98.21373
834.531	12.02909
834.937	73.18106
835.343	42.09683
835.749	97.21213
836.155	62.15683
836.561	57.13525
836.966	65.15203
837.372	54.1319
837.777	84.20151
838.183	110.22992
838.588	38.09192
838.993	79.18442
839.399	45.10674
839.804	-4.00952
840.209	50.12463
840.613	23.04924
841.018	24.0586
841.423	52.129
841.828	33.08131
842.232	68.15871
842.637	72.16467
843.041	36.08993
843.445	39.09379
843.849	24.05786
844.253	46.10482
844.657	44.10788
845.061	144.31352
845.465	45.10484
845.869	51.1138
846.272	57.13437
846.676	-22.05094
847.079	47.11653
847.483	65.15537
847.886	92.21142
848.289	48.12589
848.692	18.04392
849.095	43.099
849.498	31.07483
849.901	49.1068
850.304	38.0874
850.707	19.04683
851.109	76.18343
851.512	74.17495
851.914	21.05178
852.316	88.21591
852.718	52.13336
853.121	73.17168
853.523	26.05819
853.925	35.08956
854.326	52.12631
854.728	61.15185
855.13	45.11353
855.531	76.17431
855.933	7.01612
856.334	25.06094
856.736	102.21896
857.137	61.13729
857.538	72.17535
857.939	47.11376
858.34	16.03733
858.741	49.12335
859.142	28.06455
859.542	32.08259
859.943	75.17858
860.343	34.08203
860.744	61.14285
861.144	94.22103
861.544	42.0988
861.945	46.11303
862.345	4.00945
862.745	39.09436
863.145	11.02493
863.544	66.16098
863.944	34.07735
864.344	65.15281
864.743	84.19898
865.143	82.20417
865.542	-17.03781
865.941	67.1599
866.34	45.10219
866.74	19.04971
867.139	62.14459
867.537	-4.00981
867.936	34.07932
868.335	36.08833
868.734	24.0596
869.132	9.01995
869.531	53.12148
869.929	76.1661
870.327	54.1243
870.726	47.11161
871.124	71.15704
871.522	36.08833
871.92	47.11165
872.318	10.0235
872.715	-20.0475
873.113	29.0678
873.511	9.02168
873.908	78.19237
874.306	49.11851
874.703	48.11445
875.1	15.03666
875.497	26.05989
875.894	69.16543
876.291	42.09957
876.688	1.00252
877.085	67.15265
877.482	41.09894
877.878	64.1499
878.275	14.03463
878.671	19.03933
879.068	103.23618
879.464	9.02106
879.86	36.08194
880.256	-1.00236
880.652	20.04929
881.048	16.03794
881.444	-24.05476
881.84	14.03446
882.236	69.16625
882.631	75.17728
883.027	98.22467
883.422	-20.0496
883.817	43.10517
884.213	31.07703
884.608	60.1447
885.003	46.10563
885.398	7.01703
885.793	30.07243
886.188	39.09333
886.582	37.09077
886.977	50.11297
887.371	18.04377
887.766	18.04366
888.16	24.05685
888.554	39.09219
888.949	30.07273
889.343	71.16496
889.737	21.05498
890.131	23.05586
890.525	99.24376
890.918	61.14736
891.312	67.15154
891.706	30.07608
892.099	64.15592
892.492	66.13428
892.886	55.12885
893.279	-19.04711
893.672	55.13587
894.065	40.09672
894.458	8.01931
894.851	47.10985
895.244	33.08143
895.637	78.18011
896.029	59.13941
896.422	-9.02108
896.814	33.07888
897.206	41.09533
897.599	66.15622
897.991	61.1424
898.383	70.15842
898.775	60.13102
899.167	32.07301
899.559	29.07027
899.951	39.08742
900.342	7.0171
900.734	67.16369
901.125	37.09321
901.517	28.0665
901.908	42.09517
902.299	27.06397
902.69	80.18179
903.082	66.15301
903.473	54.12623
903.863	47.11487
904.254	37.08362
904.645	24.05687
905.036	80.18913
905.426	101.21508
905.817	1.00236
906.207	-36.0827
906.597	15.03426
906.987	-9.02253
907.378	73.17815
907.768	73.1864
908.158	28.06568
908.547	58.14656
908.937	-29.07177
909.327	38.08859
909.717	37.08905
910.106	39.08961
910.495	28.06666
910.885	53.12958
911.274	29.06987
911.663	-7.01711
912.052	9.02123
912.441	30.0744
912.83	4.0088
913.219	59.1481
913.608	68.1602
913.997	31.07588
914.385	91.20682
914.774	41.09579
915.162	61.14094
915.55	74.16951
915.939	0
916.327	-2.00481
916.715	75.18643
917.103	11.02571
917.491	57.13478
917.878	57.13405
918.266	8.02006
918.654	50.12418
919.041	61.15559
919.429	14.03189
919.816	54.13146
920.203	81.18953
920.591	41.09815
920.978	44.10358
921.365	47.11963
921.752	-11.02502
922.139	82.16858
922.525	46.1066
922.912	28.06556
923.299	-10.02422
923.685	-11.02771
924.072	10.02164
924.458	64.15283
924.844	14.03356
925.231	-4.00892
925.617	56.13872
926.003	43.1056
926.389	14.0342
926.774	38.09251
927.16	36.08597
927.546	72.17953
927.931	34.08122
928.317	43.09408
928.702	45.10153
929.088	112.25708
929.473	91.22332
929.858	37.08786
930.243	43.10034
930.628	57.13458
931.013	30.07189
931.398	44.09502
931.783	13.03286
932.167	52.12351
932.552	67.16033
932.937	49.11609
933.321	63.15317
933.705	8.01932
934.09	34.08104
934.474	46.10359
934.858	29.07301
935.242	-1.00223
935.626	44.10927
936.009	26.06784
936.393	63.15638
936.777	39.09709
937.16	100.25097
937.544	30.06673
937.927	23.05684
938.311	72.16659
938.694	56.14332
939.077	31.07143
939.46	-1.00232
939.843	41.07925
940.226	-33.0823
940.609	46.10249
940.991	-4.00983
941.374	23.05466
941.757	26.06161
942.139	85.18188
942.522	82.183
942.904	29.06717
943.286	50.12177
943.668	74.18619
944.05	22.05239
944.432	27.06399
944.814	29.0681
945.196	12.02856
945.578	63.14597
945.959	18.04017
946.341	27.06256
946.722	52.116
947.104	49.11236
947.485	99.21834
947.866	4.00987
948.247	60.147
948.628	-3.00694
949.009	6.01492
949.39	44.10459
949.771	-44.09722
950.152	32.0758
950.532	30.07339
950.913	76.17452
951.293	40.10573
951.674	10.02339
952.054	67.16241
952.434	59.14081
952.814	27.06102
953.194	4.01003
953.574	46.10825
953.954	54.12126
954.334	50.12104
954.714	21.0497
955.093	45.10624
955.473	56.13618
955.853	21.05271
956.232	9.02399
956.611	21.04783
956.99	42.10217
957.37	38.09272
957.749	10.02263
958.128	49.11962
958.506	-7.01773
958.885	5.01219
959.264	66.15712
959.643	45.0987
960.021	76.18155
960.4	35.07586
960.778	22.05143
961.156	-11.02669
961.535	38.08393
961.913	88.1968
962.291	23.05794
962.669	29.0714
963.047	56.13832
963.424	105.25929
963.802	5.01194
964.18	24.05762
964.557	42.09203
964.935	-3.00687
965.312	20.05083
965.69	44.10487
966.067	23.05331
966.444	-18.04224
966.821	46.11449
967.198	19.04387
967.575	46.10774
967.952	63.14115
968.329	73.17088
968.705	63.1292
969.082	77.19224
969.458	19.04467
969.835	39.09122
970.211	69.17202
970.587	52.12465
970.963	19.04673
971.339	-3.00767
971.715	51.12265
972.091	60.14136
972.467	15.03559
972.843	42.10164
973.219	44.10014
973.594	5.01272
973.97	4.00893
974.345	37.08552
974.721	35.0801
975.096	80.18627
975.471	21.04773
975.846	-6.01385
976.221	15.03696
976.596	75.17473
976.971	42.10053
977.346	3.00668
977.72	-21.05186
978.095	0
978.469	49.11141
978.844	40.09614
979.218	34.07973
979.593	54.1231
979.967	12.02765
980.341	55.12155
980.715	42.10221
981.089	42.10106
981.463	50.10969
981.837	65.15406
982.21	-4.00873
982.584	23.05382
982.957	36.08725
983.331	20.04475
983.704	65.15501
984.078	-18.04305
984.451	30.0706
984.824	6.01425
985.197	-14.03244
985.57	26.06183
985.943	59.1367
986.316	16.03725
986.688	43.09923
987.061	113.25109
987.434	76.1928
987.806	2.00462
988.179	35.07887
988.551	46.11169
988.923	8.01893
989.295	33.07894
989.667	32.07477
990.039	101.24178
990.411	4.00872
990.783	9.01965
991.155	20.04659
991.527	38.08799
991.898	20.04842
992.27	53.12722
992.641	42.1006
993.012	27.05927
993.384	50.11348
993.755	52.12834
994.126	44.10253
994.497	-1.00238
994.868	9.01964
995.239	5.01167
995.61	23.05598
995.98	7.01641
996.351	20.04822
996.722	55.12343
997.092	37.0846
997.462	30.06825
997.833	-2.00454
998.203	13.02991
998.573	42.10106
998.943	27.06122
999.313	28.06499
999.683	46.10626
1000.053	-17.0369
1000.423	-9.02102
1000.792	-24.05995
1001.162	-20.04749
1001.531	34.08085
1001.901	-7.01683
1002.27	14.02935
1002.639	-14.03452
1003.009	46.10444
1003.378	25.06192
1003.747	26.05858
1004.116	15.03452
1004.485	42.09613
1004.853	-1.00242
1005.222	-17.04087
1005.591	57.12871
1005.959	15.03265
1006.328	52.11206
1006.696	6.01391
1007.064	-5.01207
1007.433	48.11414
1007.801	63.14498
1008.169	-14.03397
1008.537	86.17951
1008.905	59.13219
1009.273	25.05898
1009.64	80.18429
1010.008	32.07304
1010.375	52.1184
1010.743	24.05132
1011.11	90.2065
1011.478	61.14569
1011.845	44.09832
1012.212	78.16961
1012.579	52.1226
1012.946	30.06764
1013.313	56.12596
1013.68	49.10421
1014.047	-10.02306
1014.414	38.08582
1014.78	58.13877
1015.147	28.06419
1015.513	17.03947
1015.88	46.1122
1016.246	55.12814
1016.612	41.08875
1016.978	63.14868
1017.344	40.09523
1017.71	72.16606
1018.076	42.09362
1018.442	52.1291
1018.808	70.16914
1019.174	32.0768
1019.539	-6.0127
1019.905	46.10444
1020.27	-3.00715
1020.636	42.09497
1021.001	75.17156
1021.366	32.07422
1021.731	98.244
1022.096	38.09331
1022.461	75.16935
1022.826	125.28237
1023.191	31.07868
1023.556	40.08912
1023.92	7.01645
1024.285	28.06491
1024.649	37.08644
1025.014	-4.00947
1025.378	59.14323
1025.742	37.08746
1026.107	36.07745
1026.471	86.18867
1026.835	48.11414
1027.199	22.0511
1027.562	23.05068
1027.926	-7.01646
1028.29	-16.03942
1028.654	71.15422
1029.017	66.15549
1029.381	58.13286
1029.744	16.0395
1030.107	58.13083
1030.471	53.12207
1030.834	4.00859
1031.197	55.12637
1031.56	12.02708
1031.923	43.10736
1032.286	36.08091
1032.648	50.11246
1033.011	91.20078
1033.374	71.15659
1033.736	25.06372
1034.099	2.00472
1034.461	14.03452
1034.823	46.11056
1035.185	25.06005
1035.548	42.09856
1035.91	12.02762
1036.272	66.14358
1036.634	75.17467
1036.995	48.10677
1037.357	43.10093
1037.719	24.05628
1038.08	101.22899
1038.442	27.06139
1038.803	-38.08719
1039.165	13.03154
1039.526	39.09047
1039.887	5.01153
1040.248	99.23609
1040.609	-7.01655
1040.97	46.10732
1041.331	45.11039
1041.692	37.0844
1042.053	60.12886
1042.413	48.10593
1042.774	52.12132
1043.134	66.14736
1043.495	31.075
1043.855	48.11287
1044.215	30.07117
1044.576	70.16074
1044.936	47.102
1045.296	39.09347
1045.656	1.00234
1046.016	26.05989
1046.375	55.12753
1046.735	101.22032
1047.095	39.08738
1047.454	41.0813
1047.814	49.11281
1048.173	13.0294
1048.533	49.10698
1048.892	21.04875
1049.251	31.07427
1049.61	42.09937
1049.969	29.0653
1050.328	108.21923
1050.687	22.05112
1051.046	16.03736
1051.405	15.03562
1051.763	38.0846
1052.122	28.06712
1052.48	71.16665
1052.839	73.16632
1053.197	3.0068
1053.555	24.05108
1053.914	51.11891
1054.272	2.00456
1054.63	19.04489
1054.988	17.03928
1055.345	34.06851
1055.703	62.14265
1056.061	74.18458
1056.419	50.12675
1056.776	15.03437
1057.134	-14.03069
1057.491	59.14156
1057.848	12.02864
1058.206	9.02001
1058.563	35.07327
1058.92	109.23505
1059.277	81.1902
1059.634	-23.05157
1059.991	48.11026
1060.348	7.01528
1060.704	48.11221
1061.061	12.0262
1061.418	19.04444
1061.774	32.07598
1062.131	62.16034
1062.487	3.00671
1062.843	52.12413
1063.199	9.02164
1063.555	69.15351
1063.911	-6.01459
1064.267	20.03898
1064.623	55.1294
1064.979	6.01314
1065.335	20.04547
1065.691	38.08575
1066.046	56.11632
1066.402	-36.07868
1066.757	64.15476
1067.112	32.07504
1067.468	16.0369
1067.823	-12.02728
1068.178	21.04846
1068.533	61.14105
1068.888	74.16699
1069.243	66.15561
1069.598	23.05333
1069.952	48.10553
1070.307	24.05757
1070.662	98.22341
1071.016	50.1084
1071.371	55.11977
1071.725	80.17972
1072.079	28.06484
1072.434	24.05634
1072.788	15.03383
1073.142	67.15751
1073.496	2.00456
1073.85	17.03773
1074.203	63.14603
1074.557	55.1428
1074.911	25.05677
1075.265	58.12816
1075.618	59.13778
1075.971	7.01601
1076.325	71.17417
1076.678	54.11767
1077.031	-61.13137
1077.385	-17.03589
1077.738	22.04737
1078.091	46.10079
1078.444	47.10257
1078.796	48.11366
1079.149	75.17838
1079.502	40.09119
1079.855	-1.00225
1080.207	38.08946
1080.56	39.09786
1080.912	54.12534
1081.264	56.12941
1081.617	35.08225
1081.969	34.08317
1082.321	-15.03535
1082.673	70.15435
1083.025	8.01814
1083.377	315.66699
1083.728	67.14752
1084.08	18.04302
1084.432	17.03926
1084.783	9.01982
1085.135	51.12325
1085.486	11.02435
1085.838	7.01672
1086.189	46.10799
1086.54	41.09318
1086.891	74.18271
1087.242	58.1376
1087.593	22.05062
1087.944	67.14535
1088.295	66.14174
1088.646	69.16284
1088.996	39.09072
1089.347	8.01881
1089.698	66.15046
1090.048	18.04492
1090.398	-11.02442
1090.749	16.03643
1091.099	18.04433
1091.449	57.13661
1091.799	42.10095
1092.149	35.08334
1092.499	53.12372
1092.849	8.01972
1093.199	17.0407
1093.548	74.17135
1093.898	15.03606
1094.248	16.03932
1094.597	45.11215
1094.947	57.14688
1095.296	80.18943
1095.645	27.06751
1095.994	82.18701
1096.343	38.09237
1096.692	12.03114
1097.041	45.11988
1097.39	15.03609
1097.739	44.11007
1098.088	60.15356
1098.437	33.08518
1098.785	28.07249
1099.134	14.03541
1099.482	45.12032
1099.83	33.08385
1100.179	92.23429
1100.527	-21.05379
1100.875	50.12859
1101.223	39.10088
1101.571	6.0161
1101.919	50.12904
1102.267	25.06919
1102.615	5.01606
1102.962	1.00321
1103.31	2.00642
1103.658	6.01922
