Data from N3 R3 sample 12_Subt2__2__11-08-13-812.txt Node

Date: Thu Sep 18 11:08:13 PDT 2025
User: uwsun
Spectrometer: HDX01956
Trigger mode: 0
Integration Time (sec): 5.000000E-1
Scans to average: 1
Nonlinearity correction enabled: true
Boxcar width: 0
Storing dark spectrum: false
XAxis mode: Wavelengths
Number of Pixels in Spectrum: 2068
>>>>>Begin Spectral Data<<<<<
194.03	21.06078
194.578	40.12945
195.127	31.09902
195.676	30.09618
196.225	35.09293
196.773	71.19624
197.321	75.20756
197.87	110.2828
198.418	165.42322
198.966	162.42515
199.513	159.40312
200.061	97.24846
200.609	193.50435
201.156	140.30701
201.704	105.26603
202.251	151.40051
202.798	108.28142
203.345	129.32054
203.892	175.4399
204.438	162.38299
204.985	130.30996
205.532	141.37061
206.078	138.33733
206.624	211.5237
207.17	247.56862
207.716	190.4627
208.262	187.36805
208.808	172.43057
209.354	194.47615
209.899	146.3672
210.445	115.2895
210.99	177.43
211.535	197.4604
212.08	182.41975
212.625	166.41285
213.17	141.35964
213.715	144.32986
214.259	181.42019
214.804	113.27843
215.348	201.46033
215.892	206.49491
216.436	160.36386
216.98	128.28188
217.524	194.45988
218.068	163.40988
218.612	227.56875
219.155	170.39988
219.698	173.40891
220.242	136.33516
220.785	199.46215
221.328	113.27997
221.871	201.50597
222.414	146.35954
222.956	118.28253
223.499	118.26345
224.041	145.32968
224.583	136.28577
225.126	104.22903
225.668	152.36699
226.21	191.47752
226.751	195.42843
227.293	156.35002
227.835	171.41511
228.376	133.3013
228.918	137.33943
229.459	122.30409
230	184.43668
230.541	198.4479
231.082	180.43327
231.622	140.3149
232.163	143.34284
232.704	166.41195
233.244	140.34565
233.784	148.35598
234.324	225.49621
234.864	137.30809
235.404	127.29798
235.944	114.26826
236.484	149.36943
237.023	184.42757
237.563	165.38016
238.102	157.36822
238.641	104.26148
239.18	134.3136
239.719	150.37279
240.258	179.39691
240.797	173.40875
241.335	132.31954
241.874	175.33729
242.412	201.48097
242.95	125.30186
243.488	158.35145
244.026	161.37169
244.564	214.43161
245.102	186.4163
245.64	130.30912
246.177	153.33714
246.715	223.52484
247.252	112.25419
247.789	178.32551
248.326	169.40348
248.863	148.32414
249.4	185.41363
249.936	223.45773
250.473	202.47032
251.009	164.3719
251.546	209.45899
252.082	138.29662
252.618	180.39789
253.154	153.36584
253.69	169.37505
254.226	182.4306
254.761	168.37338
255.297	112.24499
255.832	145.34326
256.367	173.40209
256.903	185.40646
257.438	205.47213
257.972	163.35978
258.507	129.29521
259.042	202.43213
259.576	240.51919
260.111	152.34651
260.645	198.42082
261.179	181.41919
261.713	184.40707
262.247	161.36428
262.781	165.3451
263.315	124.30006
263.849	194.47896
264.382	183.4149
264.915	208.48429
265.449	128.31184
265.982	163.36715
266.515	201.48555
267.048	179.37521
267.58	181.38528
268.113	183.39089
268.646	122.298
269.178	160.35471
269.71	226.48995
270.243	247.55885
270.775	205.51826
271.307	186.43597
271.838	186.43324
272.37	160.38878
272.902	200.4456
273.433	207.45173
273.965	164.39491
274.496	147.36207
275.027	186.45753
275.558	238.56852
276.089	167.4139
276.62	138.34621
277.15	174.42311
277.681	157.33536
278.211	163.39391
278.741	211.46085
279.272	171.38801
279.802	138.34184
280.332	185.43185
280.861	161.38173
281.391	210.46924
281.921	149.35396
282.45	186.45516
282.98	201.51609
283.509	214.47896
284.038	178.40348
284.567	181.41719
285.096	175.42068
285.625	123.27683
286.153	268.62373
286.682	216.48802
287.21	136.32277
287.739	196.45672
288.267	229.54713
288.795	175.45232
289.323	194.4501
289.851	196.45546
290.378	179.39477
290.906	170.41292
291.433	198.48686
291.961	226.50707
292.488	195.4771
293.015	226.52412
293.542	266.66752
294.069	278.67039
294.596	170.41168
295.122	244.57303
295.649	192.41482
296.175	209.49495
296.702	222.53395
297.228	205.48604
297.754	221.48861
298.28	245.55207
298.806	182.43443
299.332	202.4467
299.857	229.51116
300.383	208.51522
300.908	252.60632
301.433	211.51009
301.958	252.56424
302.483	173.42516
303.008	245.59718
303.533	180.45968
304.058	210.482
304.582	220.51162
305.107	181.46653
305.631	230.5118
306.155	246.56123
306.679	253.5822
307.203	249.5659
307.727	251.58198
308.251	250.60379
308.775	288.68188
309.298	224.5316
309.822	180.44815
310.345	279.64971
310.868	249.58853
311.391	254.61206
311.914	225.55478
312.437	250.55976
312.96	227.52634
313.482	201.4668
314.005	216.53092
314.527	235.59958
315.049	288.70943
315.571	279.61219
316.093	238.57893
316.615	213.50403
317.137	295.6241
317.659	266.62931
318.18	236.55208
318.702	296.6742
319.223	285.56437
319.744	274.60211
320.265	264.62941
320.786	306.74264
321.307	309.73992
321.828	319.69583
322.348	319.72643
322.869	318.73394
323.389	545.97695
323.909	314.69435
324.43	309.71559
324.95	263.58947
325.47	312.75094
325.989	337.77175
326.509	330.71448
327.029	330.72881
327.548	327.7163
328.067	305.71975
328.587	385.925
329.106	319.69553
329.625	326.82128
330.144	370.82567
330.662	349.79023
331.181	376.85083
331.7	352.78713
332.218	402.83015
332.736	381.85425
333.255	387.87233
333.773	291.6699
334.291	423.00481
334.808	363.78675
335.326	374.80523
335.844	447.99518
336.361	454.10602
336.879	443.98791
337.396	479.09651
337.913	452.98692
338.43	377.8157
338.947	440.99683
339.464	409.84025
339.981	392.88956
340.497	436.01526
341.014	448.03219
341.53	418.89686
342.046	542.25955
342.562	487.13936
343.078	506.11216
343.594	479.06924
344.11	546.21278
344.626	521.22853
345.141	473.01706
345.657	532.11691
346.172	558.24614
346.687	487.04677
347.202	536.1367
347.717	563.24049
348.232	516.20094
348.747	549.17419
349.261	560.13389
349.776	519.15153
350.29	551.28226
350.805	548.25696
351.319	546.17557
351.833	560.19182
352.347	604.30731
352.861	572.23849
353.374	560.17476
353.888	669.48295
354.401	599.24757
354.915	634.30272
355.428	613.40202
355.941	583.24864
356.454	598.21594
356.967	570.22522
357.48	544.14164
357.993	648.44975
358.505	580.2996
359.018	683.51212
359.53	663.46903
360.042	703.40802
360.554	705.55309
361.066	627.39264
361.578	691.36864
362.09	663.42814
362.602	657.32426
363.113	678.4408
363.625	722.4618
364.136	711.39124
364.647	677.45022
365.158	754.55589
365.669	706.51273
366.18	733.53719
366.691	708.38242
367.201	759.61416
367.712	781.57456
368.222	809.63107
368.733	792.50506
369.243	803.57007
369.753	802.61953
370.263	839.76974
370.773	772.66351
371.282	850.76672
371.792	848.70627
372.301	841.77086
372.811	901.0525
373.32	940.71592
373.829	927.86412
374.338	961.79542
374.847	958.86961
375.356	954.90661
375.865	1015.79868
376.373	1083.01548
376.882	1126.34843
377.39	1123.21485
377.898	1163.32165
378.407	1194.15767
378.915	1282.16777
379.423	1322.37782
379.93	1425.49707
380.438	1393.56004
380.946	1490.56897
381.453	1587.77535
381.96	1614.78558
382.468	1701.81176
382.975	1851.10445
383.482	1833.73447
383.989	1856.31417
384.495	1986.00191
385.002	2011.59723
385.509	2152.19893
386.015	2379.61051
386.521	2422.08611
387.028	2557.10722
387.534	2629.82274
388.04	2764.45296
388.546	2732.98067
389.051	2922.96203
389.557	3120.21664
390.063	3361.0229
390.568	3472.38097
391.073	3476.88489
391.578	3724.41122
392.084	3817.90415
392.589	3994.5102
393.093	4231.04554
393.598	4611.56332
394.103	5173.48549
394.607	5585.34921
395.112	6031.2929
395.616	6347.09836
396.12	6884.66493
396.624	7591.99699
397.128	8241.54508
397.632	9271.99841
398.136	9951.64965
398.639	10416.05519
399.143	11718.21265
399.646	13154.1534
400.15	14620.20025
400.653	16291.41619
401.156	18303.02336
401.659	21430.36241
402.162	25933.96774
402.664	34273.29313
403.167	48633.73219
403.67	61690.28604
404.172	63919.58413
404.674	63858.43483
405.176	63738.15102
405.678	63977.72923
406.18	64011.81569
406.682	63863.44694
407.184	63926.60148
407.686	63841.39382
408.187	64025.8516
408.688	63892.51763
409.19	60854.1653
409.691	49089.95432
410.192	41523.77862
410.693	35633.16435
411.194	32554.51446
411.694	30630.93778
412.195	28373.4218
412.696	25859.64723
413.196	23929.61338
413.696	23360.94242
414.196	23629.04581
414.696	23317.37476
415.196	22071.96736
415.696	19959.66676
416.196	16278.79801
416.695	12517.0227
417.195	10740.15068
417.694	10210.65022
418.194	9598.76602
418.693	8947.35227
419.192	8643.9402
419.691	8494.70769
420.19	8274.56607
420.688	8161.5384
421.187	7783.6033
421.685	7266.80504
422.184	6661.84869
422.682	5575.68857
423.18	4897.39299
423.678	4200.72825
424.176	4046.78931
424.674	3767.74782
425.172	3631.13951
425.669	3393.47739
426.167	3180.16447
426.664	2918.05837
427.161	2730.12408
427.659	2472.35733
428.156	2365.70449
428.652	2188.427
429.149	2076.17341
429.646	2012.77045
430.143	1906.0009
430.639	1796.86965
431.135	1740.03658
431.632	1613.58237
432.128	1508.64808
432.624	1451.83255
433.12	1416.38415
433.616	1395.24574
434.111	1297.36643
434.607	1287.37636
435.103	1248.97306
435.598	1152.85593
436.093	1168.14473
436.588	1096.96823
437.083	1063.91417
437.578	1068.9972
438.073	959.01339
438.568	955.96885
439.062	966.68728
439.557	878.73351
440.051	863.63426
440.546	782.52786
441.04	840.72424
441.534	756.66587
442.028	805.67052
442.522	709.49596
443.015	658.23969
443.509	707.51325
444.002	742.58652
444.496	580.12675
444.989	678.45518
445.482	677.48575
445.975	699.41678
446.468	699.3174
446.961	685.29982
447.454	617.23097
447.947	665.40548
448.439	663.44402
448.931	634.29277
449.424	619.41575
449.916	631.37483
450.408	635.28806
450.9	572.25482
451.392	565.30196
451.884	529.10352
452.375	557.2503
452.867	543.10217
453.358	592.21356
453.849	532.02645
454.341	554.12735
454.832	533.03897
455.323	542.22828
455.814	544.12406
456.304	536.12334
456.795	523.08373
457.285	497.99754
457.776	525.08449
458.266	491.0667
458.756	440.96276
459.247	483.05952
459.737	528.16205
460.226	551.13218
460.716	461.015
461.206	454.00144
461.695	415.95642
462.185	451.98952
462.674	481.00543
463.163	471.96936
463.653	452.88398
464.142	449.00463
464.63	432.97115
465.119	423.91286
465.608	440.95381
466.096	348.71026
466.585	351.75458
467.073	383.84531
467.561	367.82692
468.05	386.82999
468.538	368.84458
469.026	346.7734
469.513	390.76489
470.001	406.86736
470.489	371.82739
470.976	408.8871
471.463	378.88279
471.951	388.90223
472.438	350.77362
472.925	336.74702
473.412	303.69891
473.899	313.68042
474.385	327.75786
474.872	291.64631
475.359	327.76146
475.845	320.62522
476.331	294.59432
476.817	310.71634
477.303	329.7225
477.789	273.62144
478.275	285.67517
478.761	252.57422
479.247	286.60731
479.732	249.5974
480.218	315.78519
480.703	245.58042
481.188	297.61044
481.673	269.5915
482.158	294.60387
482.643	273.6679
483.128	273.60886
483.612	323.72899
484.097	233.54132
484.581	262.58058
485.066	284.66435
485.55	252.53488
486.034	202.42464
486.518	271.62113
487.002	220.51667
487.486	213.50013
487.969	219.51422
488.453	163.39614
488.936	224.48665
489.42	257.54466
489.903	225.54045
490.386	177.35641
490.869	282.58889
491.352	232.53782
491.835	243.47669
492.318	225.48768
492.8	230.45855
493.283	218.53841
493.765	220.5213
494.247	216.48603
494.73	244.51881
495.212	172.39748
495.694	230.52304
496.175	262.60375
496.657	290.65412
497.139	275.44608
497.62	256.5911
498.102	265.63264
498.583	204.48545
499.064	269.57308
499.545	342.7335
500.026	318.68085
500.507	332.72096
500.988	385.90178
501.469	359.84189
501.949	405.93227
502.43	419.93827
502.91	489.94118
503.39	456.04105
503.87	519.1128
504.35	531.12142
504.83	578.12233
505.31	591.27342
505.79	634.32438
506.269	679.35863
506.749	797.54435
507.228	838.66603
507.707	1036.84216
508.187	1030.99325
508.666	1139.24542
509.145	1225.19878
509.623	1341.34064
510.102	1441.55932
510.581	1620.73888
511.059	1703.99026
511.538	1803.19044
512.016	2071.06247
512.494	2173.13087
512.972	2410.21845
513.45	2487.10398
513.928	2738.38886
514.406	2975.46587
514.884	3165.81423
515.361	3425.25564
515.839	3581.95917
516.316	3859.23412
516.793	4037.45331
517.27	4153.02463
517.747	4284.48688
518.224	4379.59791
518.701	4543.22426
519.178	4560.1383
519.654	4597.67952
520.131	4634.0131
520.607	4651.88812
521.083	4596.36118
521.56	4450.7246
522.036	4505.14824
522.512	4310.15774
522.987	4172.03595
523.463	4074.95749
523.939	3996.34393
524.414	3759.84835
524.89	3695.16205
525.365	3509.85627
525.84	3374.3009
526.315	3188.38088
526.79	3088.94795
527.265	2925.1053
527.74	2716.37607
528.215	2641.13531
528.689	2476.7899
529.164	2339.66155
529.638	2234.44323
530.112	2111.99943
530.587	2075.57544
531.061	1995.06429
531.534	1853.9411
532.008	1790.93052
532.482	1721.64777
532.956	1609.94983
533.429	1583.76114
533.903	1490.28945
534.376	1496.32289
534.849	1435.38841
535.322	1337.36285
535.795	1321.41521
536.268	1240.32165
536.741	1195.20486
537.213	1173.09009
537.686	1145.22259
538.158	1126.00551
538.631	1035.03525
539.103	1015.84429
539.575	991.61664
540.047	989.73164
540.519	883.77067
540.991	862.77897
541.463	826.69091
541.934	786.51031
542.406	762.58155
542.877	751.45369
543.348	771.6063
543.82	709.50838
544.291	735.4851
544.762	729.50862
545.233	727.61695
545.703	629.23403
546.174	618.27265
546.645	636.36846
547.115	634.36123
547.585	612.25067
548.056	650.42136
548.526	589.25444
548.996	600.28371
549.466	600.30749
549.935	588.2618
550.405	602.17346
550.875	584.24566
551.344	556.19765
551.814	549.13466
552.283	602.16568
552.752	513.09613
553.221	610.19528
553.69	579.17269
554.159	583.31141
554.628	585.18757
555.096	576.32865
555.565	527.05356
556.033	586.25696
556.502	511.1267
556.97	592.17472
557.438	519.10897
557.906	561.19472
558.374	591.22761
558.842	568.22825
559.31	613.21845
559.777	551.22263
560.245	534.10879
560.712	562.15768
561.18	650.2648
561.647	640.25003
562.114	611.24665
562.581	695.50674
563.048	694.38837
563.514	746.63696
563.981	765.50554
564.448	769.4893
564.914	728.46724
565.381	852.63891
565.847	889.73191
566.313	909.75417
566.779	861.62253
567.245	944.80226
567.711	948.8815
568.176	946.73994
568.642	1056.17222
569.108	1090.16016
569.573	1126.05292
570.038	1122.80736
570.504	1294.19523
570.969	1197.33583
571.434	1340.19595
571.899	1360.41173
572.363	1440.39613
572.828	1525.48834
573.293	1403.35514
573.757	1600.5923
574.222	1570.44457
574.686	1647.60187
575.15	1673.79522
575.614	1707.75275
576.078	1655.68148
576.542	1636.55867
577.006	1700.58097
577.469	1648.8521
577.933	1724.6317
578.396	1658.72142
578.86	1750.77343
579.323	1672.79881
579.786	1695.43414
580.249	1703.74165
580.712	1638.79765
581.175	1608.8203
581.637	1597.52784
582.1	1598.37447
582.563	1502.21684
583.025	1484.64079
583.487	1550.16213
583.95	1451.19972
584.412	1444.13675
584.874	1420.57553
585.336	1403.46471
585.797	1403.20057
586.259	1299.30132
586.721	1245.24392
587.182	1233.17941
587.643	1220.12573
588.105	1181.18112
588.566	1137.81979
589.027	1118.19317
589.488	1093.99339
589.949	1112.16095
590.41	1014.57844
590.87	1033.90647
591.331	1036.80706
591.791	974.84887
592.252	976.86525
592.712	899.80693
593.172	898.70024
593.632	940.71506
594.092	807.52432
594.552	808.47747
595.011	746.47464
595.471	806.55401
595.931	794.52791
596.39	741.54715
596.849	750.50956
597.308	692.27643
597.768	733.66325
598.227	668.41768
598.685	698.38736
599.144	668.38871
599.603	613.27734
600.062	588.09997
600.52	655.30267
600.978	571.21447
601.437	587.19326
601.895	601.14181
602.353	577.13184
602.811	643.27996
603.269	572.22478
603.727	568.22982
604.184	600.21945
604.642	613.34911
605.099	580.21624
605.557	532.17626
606.014	571.09789
606.471	544.2418
606.928	624.22738
607.385	583.31837
607.842	529.09912
608.299	575.20707
608.755	536.17919
609.212	539.08457
609.668	613.22808
610.125	589.27399
610.581	584.2268
611.037	519.05289
611.493	521.10364
611.949	568.24917
612.405	573.03514
612.861	479.00744
613.316	578.24457
613.772	556.1453
614.227	524.14552
614.683	613.14372
615.138	502.07282
615.593	506.0683
616.048	500.04084
616.503	508.12498
616.958	479.10353
617.412	493.06969
617.867	505.02537
618.321	470.88263
618.776	520.03353
619.23	442.95651
619.684	504.0189
620.138	508.05424
620.592	481.06929
621.046	504.08454
621.5	426.95139
621.954	448.90937
622.407	412.84317
622.861	441.99077
623.314	459.95274
623.768	465.00754
624.221	422.76049
624.674	412.88322
625.127	383.83151
625.58	399.83154
626.033	387.78609
626.485	375.84011
626.938	413.91379
627.39	414.89823
627.843	373.80394
628.295	375.8079
628.747	390.86813
629.199	342.73223
629.651	287.6263
630.103	356.76582
630.555	374.73212
631.006	315.69292
631.458	299.66822
631.909	317.67005
632.361	249.55074
632.812	288.6342
633.263	313.641
633.714	322.64077
634.165	306.69584
634.616	264.5967
635.067	288.60169
635.518	311.69819
635.968	266.4958
636.419	296.61236
636.869	287.6467
637.319	296.65209
637.769	285.60901
638.219	244.5524
638.669	219.50216
639.119	209.48326
639.569	234.53988
640.019	241.53438
640.468	271.57885
640.918	248.56374
641.367	230.49479
641.816	237.50535
642.265	270.6013
642.714	257.56345
643.163	290.637
643.612	274.64171
644.061	286.58001
644.51	328.70863
644.958	290.60748
645.406	223.51379
645.855	240.55989
646.303	260.57423
646.751	302.66252
647.199	292.62789
647.647	306.67299
648.095	275.59706
648.543	286.54845
648.99	301.68655
649.438	268.59115
649.885	292.69348
650.333	280.51387
650.78	267.61687
651.227	316.73252
651.674	285.61824
652.121	282.65993
652.568	263.6168
653.015	244.57973
653.461	265.60201
653.908	294.64008
654.354	260.59197
654.801	237.53382
655.247	222.46195
655.693	229.57438
656.139	250.57151
656.585	238.54583
657.031	212.48113
657.477	237.49657
657.922	224.48955
658.368	234.55297
658.813	227.49579
659.259	258.5988
659.704	290.65359
660.149	166.37261
660.594	196.45041
661.039	208.45747
661.484	209.47788
661.929	211.47565
662.373	143.35118
662.818	201.48097
663.262	221.51507
663.707	219.5378
664.151	177.41934
664.595	184.43196
665.039	171.41293
665.483	206.50691
665.927	189.42955
666.371	184.42013
666.814	185.42607
667.258	225.52212
667.701	210.43075
668.145	213.51163
668.588	226.53924
669.031	146.33552
669.474	205.47496
669.917	189.40038
670.36	215.5178
670.803	199.46507
671.245	158.31412
671.688	180.42504
672.13	167.36738
672.573	168.4128
673.015	197.4595
673.457	197.41368
673.899	179.42014
674.341	132.31134
674.783	150.35077
675.225	168.40224
675.666	191.45285
676.108	174.36449
676.549	173.39095
676.991	164.34962
677.432	169.32479
677.873	148.32934
678.314	159.36824
678.755	214.50865
679.196	156.347
679.637	103.24242
680.078	139.31707
680.518	155.34613
680.959	101.23651
681.399	180.43179
681.839	189.44361
682.28	160.38703
682.72	135.30147
683.16	154.37434
683.6	173.38121
684.039	157.31439
684.479	161.38673
684.919	147.33721
685.358	113.27586
685.798	123.31362
686.237	127.29611
686.676	119.26343
687.115	141.32396
687.554	167.38784
687.993	167.3578
688.432	141.31344
688.871	148.3303
689.309	145.33888
689.748	122.24787
690.186	95.21836
690.625	121.27812
691.063	161.37272
691.501	169.40533
691.939	160.39169
692.377	116.2753
692.815	205.48285
693.253	113.26327
693.69	98.21056
694.128	116.27573
694.565	143.32961
695.003	148.36835
695.44	134.30954
695.877	163.37181
696.314	118.24237
696.751	131.28915
697.188	191.42652
697.625	105.22992
698.061	88.20716
698.498	53.12392
698.934	103.2412
699.371	117.26914
699.807	147.33694
700.243	94.22266
700.679	82.17967
701.115	120.27312
701.551	90.20517
701.987	45.09729
702.422	110.25693
702.858	95.22238
703.294	146.32502
703.729	113.26855
704.164	41.09695
704.599	128.27833
705.035	101.22181
705.47	105.24944
705.904	51.11676
706.339	117.26192
706.774	114.26062
707.209	131.29677
707.643	107.25027
708.078	137.32382
708.512	34.08453
708.946	64.14931
709.38	101.23485
709.814	53.11841
710.248	114.27233
710.682	134.31311
711.116	121.28756
711.549	45.11353
711.983	111.25013
712.416	123.28442
712.85	45.1101
713.283	72.16712
713.716	82.19933
714.149	27.06196
714.582	118.25811
715.015	57.1377
715.448	120.29464
715.881	100.20929
716.313	82.18777
716.746	136.31241
717.178	106.24885
717.61	124.30716
718.043	92.22221
718.475	89.21151
718.907	94.22944
719.339	97.21491
719.77	98.22953
720.202	55.13562
720.634	115.27519
721.065	79.18239
721.497	107.25546
721.928	47.11324
722.359	79.18876
722.79	72.16923
723.221	22.05406
723.652	119.29408
724.083	74.16303
724.514	81.18215
724.945	88.20134
725.375	77.17649
725.806	86.20717
726.236	83.2076
726.666	64.14808
727.096	81.19383
727.526	120.30106
727.956	45.10145
728.386	98.2342
728.816	70.176
729.246	103.24807
729.675	21.05066
730.105	81.19361
730.534	90.20451
730.964	65.15892
731.393	125.29661
731.822	108.2688
732.251	77.19133
732.68	90.20285
733.109	87.2097
733.537	131.31072
733.966	110.26749
734.395	115.25798
734.823	71.1533
735.251	59.13903
735.68	84.20205
736.108	46.11299
736.536	75.17149
736.964	76.172
737.392	52.12759
737.82	69.16101
738.247	77.17904
738.675	78.17868
739.102	66.16122
739.53	101.25344
739.957	80.20273
740.384	63.14834
740.811	33.08077
741.238	96.22959
741.665	143.32461
742.092	44.09917
742.519	72.17509
742.945	107.25311
743.372	74.18002
743.798	59.14805
744.225	83.19124
744.651	63.15426
745.077	86.20905
745.503	65.15334
745.929	139.32537
746.355	104.2453
746.781	39.09411
747.207	84.19482
747.632	125.30117
748.058	112.27449
748.483	141.31187
748.908	97.2353
749.334	107.25644
749.759	110.25461
750.184	123.28735
750.609	77.18398
751.033	87.19717
751.458	103.22211
751.883	80.19177
752.307	79.1813
752.732	111.27622
753.156	32.0775
753.58	87.19925
754.005	63.15449
754.429	104.23967
754.853	94.22807
755.277	100.23082
755.7	44.10724
756.124	106.25593
756.548	45.10422
756.971	125.29466
757.394	90.22384
757.818	73.18417
758.241	103.25454
758.664	63.15569
759.087	78.17163
759.51	99.23681
759.933	92.21675
760.356	91.22908
760.778	89.21281
761.201	81.19027
761.623	56.13003
762.046	70.15906
762.468	111.25667
762.89	82.19439
763.312	138.32575
763.734	61.14385
764.156	100.23971
764.578	78.17249
765	119.28019
765.421	60.1501
765.843	91.23171
766.264	38.08803
766.686	34.08268
767.107	63.14903
767.528	102.25498
767.949	62.15364
768.37	94.2267
768.791	105.24308
769.212	83.20399
769.632	120.27157
770.053	41.10502
770.473	74.17332
770.894	54.12949
771.314	121.27422
771.734	82.18535
772.154	66.16409
772.575	106.23529
772.994	65.14299
773.414	41.09515
773.834	16.03916
774.254	72.17075
774.673	132.31122
775.093	99.23916
775.512	41.09924
775.931	66.16331
776.351	74.17988
776.77	85.20294
777.189	77.17763
777.607	55.13717
778.026	72.17456
778.445	60.1489
778.864	72.17718
779.282	33.07682
779.701	34.08348
780.119	32.07959
780.537	35.08519
780.955	67.16454
781.373	31.07492
781.791	100.21948
782.209	63.13754
782.627	37.09551
783.045	27.05992
783.462	68.16894
783.88	38.09643
784.297	42.10328
784.715	42.10605
785.132	5.01181
785.549	52.12655
785.966	70.17111
786.383	69.16587
786.8	64.14395
787.217	89.20604
787.633	80.19578
788.05	29.06567
788.466	59.1329
788.883	61.15296
789.299	53.12217
789.715	77.18208
790.131	62.14981
790.547	70.16907
790.963	40.09658
791.379	51.12567
791.795	34.07456
792.21	43.09698
792.626	34.07782
793.041	55.13151
793.457	68.16157
793.872	66.14857
794.287	74.17386
794.702	19.04493
795.117	42.10221
795.532	58.14252
795.947	53.12168
796.362	53.11977
796.776	44.09775
797.191	65.15447
797.605	51.11784
798.02	46.10854
798.434	87.18575
798.848	87.20986
799.262	33.07981
799.676	56.13234
800.09	19.04559
800.504	57.13317
800.918	39.0867
801.331	-9.02261
801.745	24.05325
802.158	44.10579
802.572	70.16382
802.985	66.15234
803.398	74.16938
803.811	37.09046
804.224	35.08347
804.637	44.10213
805.05	50.11099
805.462	100.23413
805.875	19.04833
806.288	53.12474
806.7	36.08695
807.112	26.05793
807.525	28.06602
807.937	69.16524
808.349	29.07011
808.761	79.18803
809.173	91.21285
809.584	73.17275
809.996	27.06419
810.408	39.09916
810.819	43.09809
811.231	52.13546
811.642	76.1826
812.053	75.17673
812.464	32.07351
812.875	87.21547
813.286	72.18096
813.697	68.14855
814.108	74.17298
814.519	97.20836
814.929	16.03963
815.34	20.04662
815.75	73.1808
816.16	74.17508
816.571	9.02275
816.981	11.02492
817.391	3.00699
817.801	56.13511
818.211	75.17115
818.62	80.18613
819.03	40.0946
819.44	8.02002
819.849	-9.02192
820.259	62.15145
820.668	54.12895
821.077	63.1526
821.486	12.0277
821.895	47.11041
822.304	31.07974
822.713	88.1981
823.122	65.15596
823.531	24.05425
823.939	69.16259
824.348	54.12569
824.756	53.12741
825.164	38.0921
825.573	39.09489
825.981	58.13776
826.389	20.04871
826.797	91.2229
827.205	68.15101
827.612	49.116
828.02	-16.03646
828.428	56.13755
828.835	42.10813
829.243	10.02295
829.65	65.15709
830.057	-1.00235
830.464	64.15213
830.871	76.17528
831.278	41.09579
831.685	54.11497
832.092	52.12136
832.499	55.116
832.905	-10.02454
833.312	32.0689
833.718	65.15715
834.124	71.15573
834.531	23.05565
834.937	34.08493
835.343	67.1537
835.749	53.11699
836.155	50.12675
836.561	54.12821
836.966	56.13121
837.372	18.04426
837.777	64.15412
838.183	69.14553
838.588	59.14216
838.993	67.15677
839.399	45.10674
839.804	-7.01667
840.209	18.04513
840.613	43.09165
841.018	75.18139
841.423	55.13637
841.828	41.10088
842.232	-6.01421
842.637	82.18716
843.041	-11.02771
843.445	45.1081
843.849	31.07464
844.253	73.16544
844.657	75.18282
845.061	101.22191
845.465	19.04449
845.869	27.06054
846.272	45.10633
846.676	13.02989
847.079	35.08697
847.483	100.23742
847.886	61.14105
848.289	30.07892
848.692	35.08513
849.095	63.14446
849.498	60.14405
849.901	48.10464
850.304	90.20484
850.707	41.10065
851.109	45.10924
851.512	73.17262
851.914	43.1056
852.316	92.22556
852.718	78.19913
853.121	45.10641
853.523	-6.01352
853.925	13.03339
854.326	35.08529
854.728	38.09499
855.13	13.03298
855.531	22.051
855.933	38.08694
856.334	67.16204
856.736	74.15981
857.137	86.19257
857.538	42.10286
857.939	73.17582
858.34	35.08135
858.741	57.14329
859.142	25.05767
859.542	50.12864
859.943	48.11489
860.343	50.12027
860.744	58.1359
861.144	71.16769
861.544	27.0637
861.945	52.12763
862.345	9.02123
862.745	45.10875
863.145	68.15232
863.544	45.11019
863.944	61.13802
864.344	36.08511
864.743	86.20363
865.143	72.17959
865.542	-11.02443
865.941	57.1363
866.34	11.02515
866.74	81.20966
867.139	65.1515
867.537	-3.00736
867.936	40.09321
868.335	45.11023
868.734	39.09659
869.132	-21.04684
869.531	22.05074
869.929	52.11423
870.327	8.01858
870.726	74.17481
871.124	79.17445
871.522	34.08345
871.92	60.14218
872.318	30.07024
872.715	44.10322
873.113	4.0094
873.511	56.13368
873.908	31.07712
874.306	55.13287
874.703	58.13802
875.1	-13.03194
875.497	36.08277
875.894	33.07966
876.291	48.11366
876.688	74.18371
877.085	10.02305
877.482	14.03396
877.878	55.12905
878.275	13.03216
878.671	35.0722
879.068	73.1684
879.464	54.12524
879.86	54.12246
880.256	39.09115
880.652	42.10309
881.048	24.05683
881.444	30.0677
881.84	40.098
882.236	60.14481
882.631	102.23984
883.027	63.14545
883.422	19.04678
883.817	51.12455
884.213	43.10662
884.608	70.1685
885.003	2.00463
885.398	16.03886
885.793	48.1155
886.188	3.00723
886.582	35.08589
886.977	70.15751
887.371	15.0365
887.766	21.0509
888.16	8.01901
888.554	63.14822
888.949	13.03162
889.343	42.09814
889.737	27.07061
890.131	48.11602
890.525	65.16105
890.918	20.04869
891.312	36.08194
891.706	41.10377
892.099	69.16795
892.492	83.16821
892.886	29.06828
893.279	21.05169
893.672	42.104
894.065	12.02917
894.458	10.02413
894.851	67.15597
895.244	32.07898
895.637	84.19374
896.029	45.10661
896.422	13.03032
896.814	43.10258
897.206	75.17322
897.599	78.18419
897.991	68.15852
898.383	73.16511
898.775	113.24399
899.167	40.09111
899.559	52.12546
899.951	66.14711
900.342	66.15947
900.734	79.19258
901.125	57.14308
901.517	34.08066
901.908	27.06137
902.299	37.08749
902.69	80.18179
903.082	48.11168
903.473	40.09376
903.863	44.1076
904.254	61.13718
904.645	26.06159
905.036	60.1424
905.426	76.16273
905.817	12.02829
906.207	-24.055
906.597	78.17588
906.987	-1.0025
907.378	76.18537
907.768	67.17126
908.158	-1.00236
908.547	37.09385
908.937	37.09046
909.327	1.00235
909.717	25.0603
910.106	13.03002
910.495	4.00957
910.885	56.13684
911.274	23.05548
911.663	-2.00489
912.052	20.04708
912.441	59.14554
912.83	38.08298
913.219	13.0329
913.608	69.16253
913.997	59.14366
914.385	74.16877
914.774	66.15343
915.162	61.14094
915.55	45.10368
915.939	49.12016
916.327	63.14949
916.715	96.23772
917.103	28.06522
917.491	58.13712
917.878	20.04738
918.266	41.10221
918.654	82.20246
919.041	13.03344
919.429	51.1153
919.816	47.11457
920.203	65.15257
920.591	88.20877
920.978	50.11757
921.365	5.01282
921.752	30.06767
922.139	86.17664
922.525	52.12036
922.912	31.07254
923.299	55.13156
923.685	12.03011
924.072	3.0065
924.458	52.12446
924.844	44.10487
925.231	4.0089
925.617	68.16808
926.003	21.05178
926.389	27.06579
926.774	51.12386
927.16	74.17542
927.546	50.12517
927.931	12.02879
928.317	28.06145
928.702	32.07239
929.088	87.20069
929.473	77.18945
929.858	88.20692
930.243	63.14643
930.628	105.24559
931.013	48.11462
931.398	45.09716
931.783	-32.08152
932.167	72.17035
932.552	42.10099
932.937	34.08079
933.321	21.05146
933.705	4.00967
934.09	-17.04091
934.474	25.05654
934.858	30.07551
935.242	56.12358
935.626	31.07717
936.009	34.0886
936.393	62.15392
936.777	27.06736
937.16	42.10651
937.544	62.13699
937.927	12.02972
938.311	38.08852
938.694	63.16104
939.077	-22.05123
939.46	30.06927
939.843	55.10595
940.226	33.08131
940.609	62.13768
940.991	20.04894
941.374	41.0971
941.757	25.05925
942.139	62.13332
942.522	89.19834
942.904	35.08096
943.286	36.0879
943.668	55.13885
944.05	22.05239
944.432	16.038
944.814	17.04001
945.196	-5.01194
945.578	26.06068
945.959	-11.0247
946.341	48.11075
946.722	5.01126
947.104	83.18902
947.485	9.02022
947.866	28.0688
948.247	85.20728
948.628	-7.01621
949.009	18.04467
949.39	38.09043
949.771	24.05228
950.152	48.11335
950.532	87.21057
950.913	56.12911
951.293	15.03981
951.674	49.11371
952.054	72.17436
952.434	44.10531
952.814	20.04526
953.194	15.03754
953.574	85.1985
953.954	26.05872
954.334	52.12584
954.714	5.01187
955.093	93.21752
955.473	64.1554
955.853	72.17907
956.232	14.03729
956.611	15.0342
956.99	30.07314
957.37	0
957.749	18.04067
958.128	43.10509
958.506	31.07798
958.885	23.05588
959.264	69.16417
959.643	71.15488
960.021	13.03143
960.4	89.19068
960.778	47.10933
961.156	5.0121
961.535	9.02
961.913	61.13718
962.291	46.11541
962.669	34.08364
963.047	92.22573
963.424	75.18623
963.802	31.07367
964.18	6.01445
964.557	90.1952
964.935	45.10203
965.312	7.01783
965.69	24.05742
966.067	10.02324
966.444	-41.09665
966.821	73.1808
967.198	36.08283
967.575	7.01652
967.952	43.09674
968.329	101.23512
968.705	108.21923
969.082	86.21436
969.458	42.0983
969.835	18.04228
970.211	70.17448
970.587	87.20716
970.963	39.09557
971.339	29.07371
971.715	66.15827
972.091	48.11335
972.467	63.14811
972.843	67.16137
973.219	54.12266
973.594	8.02034
973.97	7.01562
974.345	37.08552
974.721	21.04819
975.096	66.1541
975.471	41.09281
975.846	31.07103
976.221	14.0345
976.596	112.25903
976.971	83.1971
977.346	36.07958
977.72	38.09282
978.095	35.08729
978.469	52.11816
978.844	48.11519
979.218	86.19961
979.593	26.05961
979.967	29.06661
980.341	54.11937
980.715	55.13352
981.089	49.11775
981.463	14.03095
981.837	34.08107
982.21	16.03476
982.584	49.11407
982.957	28.06796
983.331	10.02242
983.704	72.17147
984.078	22.05221
984.451	22.05185
984.824	33.07794
985.197	12.02767
985.57	25.05946
985.943	32.07454
986.316	35.08119
986.688	35.0809
987.061	66.14809
987.434	88.22276
987.806	30.06886
988.179	-5.01136
988.551	46.11169
988.923	44.10338
989.295	46.10976
989.667	46.10719
990.039	71.17094
990.411	16.03481
990.783	34.07384
991.155	40.09281
991.527	14.03257
991.898	36.08689
992.27	47.11294
992.641	47.11247
993.012	-3.00663
993.384	21.04794
993.755	66.16248
994.126	67.15542
994.497	24.05683
994.868	16.03487
995.239	23.0535
995.61	2.00489
995.98	-20.04712
996.351	51.12223
996.722	48.10788
997.092	54.12305
997.462	41.09307
997.833	46.1033
998.203	-11.02543
998.573	40.09629
998.943	90.20144
999.313	43.09951
999.683	29.06722
1000.053	-12.02602
1000.423	28.06491
1000.792	-35.0876
1001.162	31.07288
1001.531	48.11383
1001.901	7.01679
1002.27	36.07511
1002.639	29.07093
1003.009	13.02971
1003.378	19.04711
1003.747	29.0653
1004.116	12.02763
1004.485	27.06199
1004.853	-11.02667
1005.222	-13.03123
1005.591	106.23696
1005.959	43.09304
1006.328	65.13969
1006.696	-1.00232
1007.064	23.05525
1007.433	12.02873
1007.801	-9.02101
1008.169	-11.02667
1008.537	82.17132
1008.905	18.04067
1009.273	21.04958
1009.64	91.20917
1010.008	41.09341
1010.375	34.0777
1010.743	45.09579
1011.11	74.17033
1011.478	34.08163
1011.845	29.065
1012.212	60.13097
1012.579	56.13193
1012.946	49.11006
1013.313	66.14815
1013.68	57.12101
1014.047	27.06181
1014.414	18.04082
1014.78	44.10555
1015.147	41.09375
1015.513	49.11304
1015.88	31.07582
1016.246	30.07024
1016.612	53.11444
1016.978	33.07834
1017.344	23.05493
1017.71	63.14556
1018.076	37.08256
1018.442	48.11925
1018.808	86.20717
1019.174	4.00965
1019.539	-1.00211
1019.905	43.09769
1020.27	10.02379
1020.636	27.06124
1021.001	80.18282
1021.366	56.12926
1021.731	91.22686
1022.096	25.06153
1022.461	52.11797
1022.826	39.08964
1023.191	52.13149
1023.556	63.1397
1023.92	-21.04962
1024.285	3.00699
1024.649	44.10265
1025.014	48.11251
1025.378	39.09503
1025.742	-14.03342
1026.107	91.19345
1026.471	48.10615
1026.835	45.10707
1027.199	40.09259
1027.562	10.0221
1027.926	61.1415
1028.29	24.05869
1028.654	49.10693
1029.017	53.12518
1029.381	51.11699
1029.744	19.04689
1030.107	95.21267
1030.471	52.11979
1030.834	32.06834
1031.197	70.16035
1031.56	0
1031.923	49.1222
1032.286	40.08982
1032.648	47.10578
1033.011	71.15731
1033.374	33.07336
1033.736	-7.01794
1034.099	68.15833
1034.461	16.03943
1034.823	34.08191
1035.185	8.01928
1035.548	83.19322
1035.91	-28.06496
1036.272	52.11346
1036.634	59.13784
1036.995	43.09575
1037.357	-1.00237
1037.719	49.11434
1038.08	86.19558
1038.442	25.05687
1038.803	3.00683
1039.165	25.06051
1039.526	24.05584
1039.887	19.04367
1040.248	89.21265
1040.609	7.01651
1040.97	-5.01178
1041.331	47.11525
1041.692	87.19645
1042.053	34.07343
1042.413	52.11466
1042.774	83.19246
1043.134	41.09201
1043.495	12.02914
1043.855	58.13611
1044.215	42.09941
1044.576	72.16526
1044.936	57.12344
1045.296	77.1832
1045.656	24.05599
1046.016	72.16434
1046.375	53.12294
1046.735	66.14504
1047.095	91.2017
1047.454	55.10871
1047.814	59.13556
1048.173	35.07881
1048.533	40.0875
1048.892	31.07183
1049.251	60.14295
1049.61	35.08292
1049.969	11.02486
1050.328	98.19938
1050.687	13.03026
1051.046	27.0629
1051.405	33.07809
1051.763	58.12859
1052.122	16.03844
1052.48	2.00476
1052.839	97.21992
1053.197	38.08547
1053.555	29.06165
1053.914	45.10505
1054.272	11.02501
1054.63	66.15452
1054.988	55.12612
1055.345	46.09244
1055.703	46.10618
1056.061	74.18458
1056.419	92.23148
1056.776	5.01148
1057.134	-34.07484
1057.491	19.04594
1057.848	34.08082
1058.206	-10.02232
1058.563	21.0441
1058.92	94.20335
1059.277	35.08292
1059.634	60.13224
1059.991	89.20277
1060.348	58.12521
1060.704	75.17439
1061.061	37.08037
1061.418	-2.0047
1061.774	1.00239
1062.131	43.11157
1062.487	0
1062.843	1.00241
1063.199	57.13583
1063.555	43.09618
1063.911	2.00486
1064.267	67.12913
1064.623	57.13405
1064.979	-1.00219
1065.335	32.07257
1065.691	30.06781
1066.046	39.08132
1066.402	14.03027
1066.757	45.1092
1067.112	23.05403
1067.468	55.12586
1067.823	24.05416
1068.178	46.10563
1068.533	91.20917
1068.888	29.06604
1069.243	41.09714
1069.598	0
1069.952	76.1661
1070.307	38.09092
1070.662	70.16048
1071.016	105.22496
1071.371	53.11547
1071.725	33.07485
1072.079	89.20359
1072.434	22.05167
1072.788	-14.03176
1073.142	84.19682
1073.496	47.10621
1073.85	27.0598
1074.203	38.08852
1074.557	82.21192
1074.911	48.1085
1075.265	61.1347
1075.618	61.1424
1075.971	23.05244
1076.325	61.14992
1076.678	17.03734
1077.031	14.02966
1077.385	57.11837
1077.738	-2.00433
1078.091	39.08558
1078.444	42.09175
1078.796	30.07128
1079.149	77.18306
1079.502	18.04122
1079.855	25.05599
1080.207	80.18679
1080.56	53.13266
1080.912	51.11845
1081.264	40.09273
1081.617	-4.00947
1081.969	-6.01479
1082.321	54.12554
1082.673	61.13476
1083.025	5.01135
1083.377	285.60743
1083.728	48.1061
1084.08	7.01676
1084.432	18.04156
1084.783	-14.03099
1085.135	62.14953
1085.486	-1.00222
1085.838	11.02625
1086.189	41.09635
1086.54	70.15816
1086.891	57.14117
1087.242	80.18899
1087.593	-9.02084
1087.944	58.12606
1088.295	55.1184
1088.646	94.22077
1088.996	15.03506
1089.347	39.09115
1089.698	30.06889
1090.048	16.03994
1090.398	64.13988
1090.749	14.03189
1091.099	8.01974
1091.449	50.11999
1091.799	14.03383
1092.149	15.03585
1092.499	3.00707
1092.849	28.06878
1093.199	27.06451
1093.548	48.11172
1093.898	34.08144
1094.248	-9.02222
1094.597	1.00251
1094.947	58.14943
1095.296	27.06459
1095.645	-7.01761
1095.994	24.05538
1096.343	52.12607
1096.692	41.10587
1097.041	52.13837
1097.39	49.11712
1097.739	32.08023
1098.088	37.09508
1098.437	32.08261
1098.785	28.07249
1099.134	-11.02795
1099.482	53.14152
1099.83	14.03569
1100.179	58.14859
1100.527	4.0102
1100.875	26.06715
1101.223	21.05449
1101.571	-26.07012
1101.919	42.10854
1102.267	21.05815
1102.615	-2.00643
1102.962	-5.01605
1103.31	0
1103.658	-9.02889
