Data from N3 R3 sample 4_Subt2__1__11-01-29-312.txt Node

Date: Thu Sep 18 11:01:29 PDT 2025
User: uwsun
Spectrometer: HDX01956
Trigger mode: 0
Integration Time (sec): 5.000000E-1
Scans to average: 1
Nonlinearity correction enabled: true
Boxcar width: 0
Storing dark spectrum: false
XAxis mode: Wavelengths
Number of Pixels in Spectrum: 2068
>>>>>Begin Spectral Data<<<<<
194.03	168.4757
194.578	166.52925
195.127	160.50308
195.676	170.53584
196.225	163.42349
196.773	181.49156
197.321	316.84097
197.87	381.93273
198.418	416.01743
198.966	435.08579
199.513	445.06811
200.061	354.86553
200.609	452.12605
201.156	380.79106
201.704	405.97082
202.251	411.03981
202.798	395.97809
203.345	467.08609
203.892	457.08781
204.438	447.99807
204.985	449.00257
205.532	419.04653
206.078	440.01252
206.624	495.16217
207.17	515.11988
207.716	464.06955
208.262	428.79464
208.808	458.08457
209.354	514.18405
209.899	440.04548
210.445	439.03809
210.99	464.06402
211.535	470.03723
212.08	477.03315
212.625	430.0154
213.17	487.16333
213.715	484.03071
214.259	463.01259
214.804	437.0098
215.348	463.00235
215.892	456.04105
216.436	457.9765
216.98	406.8418
217.524	457.02593
218.068	486.14832
218.612	492.17104
219.155	459.0165
219.698	374.84941
220.242	397.93097
220.785	449.99094
221.328	400.93855
221.871	442.0619
222.414	407.95367
222.956	339.77726
223.499	395.83125
224.041	408.87805
224.583	405.8005
225.126	397.82038
225.668	420.96235
226.21	411.98632
226.751	384.81006
227.293	394.84063
227.835	383.89253
228.376	362.78174
228.918	407.95814
229.459	393.93094
230	376.85914
230.541	368.80354
231.082	420.96466
231.622	341.73529
232.163	433.98038
232.704	441.0368
233.244	357.84602
233.784	380.87351
234.324	467.97756
234.864	374.80004
235.404	376.83906
235.944	401.89058
236.484	413.97415
237.023	429.94839
237.563	418.91424
238.102	400.89334
238.641	429.01284
239.18	392.87077
239.719	373.88903
240.258	433.9092
240.797	388.87834
241.335	444.00912
241.874	407.74078
242.412	431.98576
242.95	431.98021
243.488	387.81979
244.026	502.07791
244.564	457.87027
245.102	468.98637
245.64	460.02189
246.177	409.85275
246.715	428.96689
247.252	408.87012
247.789	418.71822
248.326	437.98943
248.863	423.87254
249.4	433.91842
249.936	441.86063
250.473	499.09147
251.009	452.96478
251.546	478.99018
252.082	373.76111
252.618	434.90829
253.154	391.89214
253.69	410.86414
254.226	447.00097
254.761	411.8672
255.297	416.85135
255.832	419.93904
256.367	434.95644
256.903	452.93716
257.438	424.93363
257.972	434.90346
258.507	420.90464
259.042	496.99347
259.576	497.01414
260.111	431.92694
260.645	489.97333
261.179	418.92235
261.713	478.99239
262.247	401.8628
262.781	484.94074
263.315	431.98219
263.849	469.09675
264.382	457.97819
264.915	506.10657
265.449	439.00478
265.982	512.0687
266.515	473.08145
267.048	455.89554
267.58	457.9143
268.113	466.93424
268.646	436.0001
269.178	483.99852
269.71	545.09918
270.243	523.11464
270.775	494.18165
271.307	448.99596
271.838	466.02324
272.37	449.02936
272.902	475.99782
273.433	491.00505
273.965	430.98288
274.496	438.01833
275.027	494.14334
275.558	510.15238
276.089	500.16091
276.62	442.0454
277.15	498.13482
277.681	515.01286
278.211	477.08186
278.741	506.03418
279.272	501.05842
279.802	494.14108
280.332	498.08859
280.861	532.16842
281.391	495.03887
281.921	493.09103
282.45	493.13493
282.98	480.16946
283.509	545.13443
284.038	534.12062
284.567	512.09989
285.096	528.18148
285.625	515.06379
286.153	497.10218
286.682	487.03733
287.21	453.00694
287.739	538.16675
288.267	503.13631
288.795	514.24729
289.323	516.11849
289.851	530.14791
290.378	481.9935
290.906	542.22181
291.433	479.11405
291.961	546.14232
292.488	534.22139
293.015	532.15666
293.542	612.43694
294.069	549.25348
294.596	529.19174
295.122	591.29139
295.649	516.03558
296.175	550.21409
296.702	557.25183
297.228	541.19693
297.754	543.11772
298.28	542.14494
298.806	565.24699
299.332	551.1276
299.857	569.17869
300.383	590.35612
300.908	560.26604
301.433	621.38216
301.958	612.2665
302.483	545.24433
303.008	613.38853
303.533	556.32256
304.058	603.27262
304.582	567.22582
305.107	576.37909
305.631	571.17862
306.155	562.19815
306.679	675.41979
307.203	629.31712
307.727	632.35227
308.251	618.38598
308.775	674.47389
309.298	590.29871
309.822	658.49207
310.345	661.42079
310.868	661.43479
311.391	699.53922
311.914	644.46207
312.437	695.41123
312.96	649.37641
313.482	640.35465
314.005	668.50128
314.527	650.53333
315.049	726.64037
315.571	723.43612
316.093	713.57663
316.615	654.41265
317.137	751.42875
317.659	753.61041
318.18	698.48206
318.702	750.54901
319.223	705.25795
319.744	773.51846
320.265	742.6036
320.786	787.73385
321.307	739.62125
321.828	794.55574
322.348	787.62007
322.869	829.71578
323.389	800.33951
323.909	777.54999
324.43	862.77421
324.95	826.63453
325.47	878.88235
325.989	883.79753
326.509	894.70089
327.029	922.78227
327.548	873.69023
328.067	904.88154
328.587	935.00588
329.106	837.62275
329.625	907.03967
330.144	985.91647
330.662	970.91628
331.181	1013.99247
331.7	967.88586
332.218	1025.82114
332.736	1002.95743
333.255	1058.05384
333.773	992.96071
334.291	1062.21188
334.808	1078.97932
335.326	1039.91661
335.844	1138.16772
336.361	1149.43383
336.879	1087.09778
337.396	1168.30431
337.913	1149.13658
338.43	1170.1013
338.947	1158.23673
339.464	1215.04451
339.981	1136.18475
340.497	1227.41249
341.014	1178.31976
341.53	1196.13505
342.046	1292.55769
342.562	1298.55414
343.078	1273.35042
343.594	1265.36801
344.11	1337.48487
344.626	1357.67975
345.141	1331.34007
345.657	1296.26822
346.172	1374.55449
346.687	1311.32387
347.202	1429.4483
347.717	1387.53253
348.232	1436.73698
348.747	1442.49622
349.261	1443.34313
349.776	1474.62693
350.29	1500.83877
350.805	1536.82876
351.319	1461.53526
351.833	1538.58818
352.347	1529.66365
352.861	1620.73449
353.374	1562.56539
353.888	1609.87532
354.401	1574.581
354.915	1578.56629
355.428	1672.01396
355.941	1612.69761
356.454	1629.55272
356.967	1588.67723
357.48	1613.60267
357.993	1700.98726
358.505	1633.87402
359.018	1773.04423
359.53	1804.05974
360.042	1751.68046
360.554	1847.10928
361.066	1767.00679
361.578	1823.68543
362.09	1853.99243
362.602	1808.70864
363.113	1883.97587
363.625	1856.81127
364.136	1866.68805
364.647	1858.98648
365.158	1911.94758
365.669	2024.13377
366.18	1864.95628
366.691	1886.69082
367.201	1952.09867
367.712	1990.93492
368.222	2032.98551
368.733	2030.74635
369.243	2101.89877
369.753	2096.02202
370.263	2168.28039
370.773	2079.25441
371.282	2129.2043
371.792	2233.1203
372.301	2325.35758
372.811	2400.85214
373.32	2393.86658
373.829	2398.26575
374.338	2514.01118
374.847	2580.21584
375.356	2618.33185
375.865	2783.86768
376.373	2911.17165
376.882	2907.81153
377.39	2960.51164
377.898	3085.62948
378.407	3147.14641
378.915	3336.89859
379.423	3407.23861
379.93	3579.1936
380.438	3657.38427
380.946	3828.11087
381.453	4076.22266
381.96	4385.03953
382.468	4472.88053
382.975	4807.00337
383.482	4865.32099
383.989	4973.29655
384.495	5205.41391
385.002	5457.60172
385.509	5844.23766
386.015	6171.20224
386.521	6359.73196
387.028	6710.66294
387.534	6809.35005
388.04	7104.99829
388.546	7266.58138
389.051	7645.74398
389.557	8259.4192
390.063	8765.02116
390.568	9013.53924
391.073	9499.48546
391.578	9911.5006
392.084	10122.19251
392.589	10395.23804
393.093	11221.15947
393.598	12220.55597
394.103	13428.25641
394.607	14729.88383
395.112	15979.85025
395.616	16639.33694
396.12	18289.89529
396.624	20017.44986
397.128	21570.95913
397.632	24049.4568
398.136	26303.25758
398.639	27699.72472
399.143	30867.71765
399.646	35053.44429
400.15	38650.60451
400.653	42690.89057
401.156	48228.89006
401.659	56502.74243
402.162	62469.13102
402.664	62401.93514
403.167	63977.72923
403.67	63769.22307
404.172	63919.58413
404.674	63858.43483
405.176	63738.15102
405.678	63977.72923
406.18	64011.81569
406.682	63863.44694
407.184	63926.60148
407.686	63841.39382
408.187	64025.8516
408.688	63892.51763
409.19	63833.37461
409.691	63977.72923
410.192	63945.6488
410.693	63713.09355
411.194	63812.32447
411.694	63919.58413
412.195	64038.8851
412.696	63881.49072
413.196	62842.02634
413.696	61493.31878
414.196	62487.33553
414.696	61318.81174
415.196	58548.6672
415.696	53108.94897
416.196	42461.97117
416.695	33008.17639
417.195	28482.83826
417.694	26905.45495
418.194	25276.53095
418.693	23720.58934
419.192	22869.44243
419.691	22561.37763
420.19	22110.87809
420.688	21277.2371
421.187	20423.01944
421.685	19058.67164
422.184	17391.84189
422.682	15037.4728
423.18	12725.71827
423.678	11283.68679
424.176	10519.54035
424.674	9901.57107
425.172	9485.44864
425.669	8902.38381
426.167	8228.36291
426.664	7553.76334
427.161	7024.66206
427.659	6420.04189
428.156	6172.31943
428.652	5718.62251
429.149	5458.46381
429.646	5241.98482
430.143	5003.62363
430.639	4778.66723
431.135	4440.26475
431.632	4221.71763
432.128	4005.1636
432.624	3742.79641
433.12	3652.95353
433.616	3488.76714
434.111	3370.28857
434.607	3230.3608
435.103	3187.59276
435.598	3073.58553
436.093	2911.20715
436.588	2849.01766
437.083	2669.98487
437.578	2557.13731
438.073	2495.54331
438.568	2450.42978
439.062	2383.71817
439.557	2207.05807
440.051	2063.81275
440.546	2063.85764
441.04	2082.11479
441.534	2147.38353
442.028	1964.04989
442.522	1984.04625
443.015	1905.53773
443.509	1870.01689
444.002	1912.07524
444.496	1793.51245
444.989	1802.94875
445.482	1791.0222
445.975	1745.71317
446.468	1808.51559
446.961	1771.50289
447.454	1690.55506
447.947	1637.73607
448.439	1705.90446
448.931	1657.6119
449.424	1727.07539
449.916	1610.78883
450.408	1605.55071
450.9	1548.70606
451.392	1495.80815
451.884	1540.50537
452.375	1446.65715
452.867	1508.4013
453.358	1436.39203
453.849	1409.1607
454.341	1449.35948
454.832	1408.18759
455.323	1457.69138
455.814	1356.29977
456.304	1394.37597
456.795	1358.29701
457.285	1291.12041
457.776	1278.20049
458.266	1245.27464
458.756	1275.29703
459.247	1256.31032
459.737	1224.30281
460.226	1175.07863
460.716	1169.19423
461.206	1118.12543
461.695	1079.15269
462.185	1120.10868
462.674	1137.03506
463.163	1080.91864
463.653	1099.82256
464.142	1070.08898
464.63	1026.02176
465.119	1042.94944
465.608	1035.95773
466.096	971.70182
466.585	936.75767
467.073	946.84006
467.561	952.88594
468.05	976.83112
468.538	979.96879
469.026	917.80596
469.513	876.52084
470.001	943.77908
470.489	932.83511
470.976	962.84376
471.463	883.85448
471.951	856.80365
472.438	773.55555
472.925	845.67802
473.412	815.68528
473.899	820.5886
474.385	763.61283
474.872	736.48134
475.359	741.58199
475.845	738.29832
476.331	674.24254
476.817	685.46233
477.303	673.36899
477.789	643.35181
478.275	635.39992
478.761	668.3918
479.247	674.30846
479.732	628.39516
480.218	640.49806
480.703	593.30777
481.188	625.18807
481.673	617.25549
482.158	612.16529
482.643	584.34338
483.128	612.26706
483.612	645.35781
484.097	515.12747
484.581	524.09573
485.066	547.21123
485.55	545.08105
486.034	512.00103
486.518	567.22007
487.002	479.06572
487.486	475.05593
487.969	458.02292
488.453	480.09462
488.936	508.03499
489.42	455.92252
489.903	475.08429
490.386	379.72769
490.869	494.98306
491.352	437.97172
491.835	479.88736
492.318	369.77517
492.8	431.81916
493.283	426.00943
493.765	357.82344
494.247	380.82623
494.73	420.85876
495.212	368.81713
495.694	361.79909
496.175	374.84252
496.657	422.92611
497.139	352.55865
497.62	337.76555
498.102	356.83501
498.583	285.6676
499.064	322.67808
499.545	358.76516
500.026	357.7579
500.507	298.65181
500.988	377.88443
501.469	317.74951
501.949	301.70728
502.43	377.85153
502.91	393.77387
503.39	304.71669
503.87	338.75427
504.35	252.56563
504.83	281.58511
505.31	281.64663
505.79	268.60599
506.269	273.59827
506.749	280.61012
507.228	291.65276
507.707	356.74506
508.187	286.65221
508.666	305.71947
509.145	275.61459
509.623	256.57508
510.102	278.64292
510.581	292.6718
511.059	257.62198
511.538	279.68891
512.016	265.60884
512.494	239.55328
512.972	244.5625
513.45	218.49194
513.928	283.65772
514.406	269.63259
514.884	248.61653
515.361	250.57541
515.839	305.66755
516.316	292.67743
516.793	228.55648
517.27	249.57597
517.747	262.64658
518.224	237.52595
518.701	214.4574
519.178	268.64384
519.654	262.59508
520.131	219.52544
520.607	221.52236
521.083	192.42281
521.56	243.55137
522.036	200.42229
522.512	314.73739
522.987	293.6737
523.463	238.54386
523.939	300.71056
524.414	287.62603
524.89	262.60014
525.365	224.48872
525.84	204.47629
526.315	277.64251
526.79	248.53764
527.265	289.63707
527.74	200.47172
528.215	231.51988
528.689	195.41508
529.164	180.37589
529.638	192.47385
530.112	190.43488
530.587	193.40134
531.061	239.55811
531.534	243.56433
532.008	270.62987
532.482	244.5398
532.956	254.62408
533.429	310.72231
533.903	238.50186
534.376	270.57059
534.849	218.4849
535.322	262.59315
535.795	207.4851
536.268	225.52707
536.741	235.53819
537.213	220.48914
537.686	287.67149
538.158	243.53231
538.631	255.59406
539.103	291.62641
539.575	296.57751
540.047	267.5567
540.519	283.64654
540.991	265.62051
541.463	283.65097
541.934	226.4933
542.406	285.65504
542.877	284.61174
543.348	300.69103
543.82	291.67605
544.291	305.67769
544.762	288.65545
545.233	345.82893
545.703	293.62122
546.174	372.80952
546.645	322.74051
547.115	349.79633
547.585	351.76075
548.056	397.91568
548.526	417.92264
548.996	424.94301
549.466	356.81705
549.935	481.05557
550.405	392.80333
550.875	450.9892
551.344	447.98694
551.814	480.00711
552.283	458.91863
552.752	484.04053
553.221	502.00836
553.69	524.07443
554.159	529.2029
554.628	557.13784
555.096	502.17473
555.565	476.96443
556.033	585.25508
556.502	529.16207
556.97	522.05247
557.438	536.14115
557.906	548.17028
558.374	560.17114
558.842	580.25102
559.31	549.10726
559.777	556.23247
560.245	522.08672
560.712	565.16309
561.18	622.21826
561.647	580.14873
562.114	616.25544
562.581	630.38454
563.048	652.31688
563.514	741.62768
563.981	708.41184
564.448	721.41217
564.914	792.57301
565.381	804.56424
565.847	778.55522
566.313	817.61104
566.779	827.57131
567.245	820.61205
567.711	810.65887
568.176	926.71159
568.642	932.97159
569.108	875.82155
569.573	958.82109
570.038	1029.70041
570.504	1074.9296
570.969	1051.12088
571.434	1028.82978
571.899	1064.02935
572.363	1080.97309
572.828	1180.10746
573.293	1134.04056
573.757	1168.118
574.222	1174.03453
574.686	1172.09955
575.15	1200.25974
575.614	1219.23144
576.078	1163.14031
576.542	1205.11542
577.006	1151.0276
577.469	1210.33296
577.933	1231.14779
578.396	1193.20663
578.86	1122.09291
579.323	1208.27374
579.786	1173.95436
580.249	1178.17286
580.712	1092.13403
581.175	1059.1205
581.637	1144.04188
582.1	1094.87057
582.563	1066.77976
583.025	1102.15159
583.487	1099.75072
583.95	1082.8184
584.412	1132.83176
584.874	1104.16058
585.336	1102.08583
585.797	1141.92367
586.259	1118.0721
586.721	1149.12078
587.182	1175.10763
587.643	1176.07235
588.105	1215.22521
588.566	1183.86919
589.027	1263.39432
589.488	1266.20856
589.949	1359.48866
590.41	1280.8425
590.87	1358.30564
591.331	1487.29345
591.791	1376.36012
592.252	1451.45989
592.712	1527.63245
593.172	1626.54578
593.632	1686.51444
594.092	1674.5112
594.552	1730.45389
595.011	1751.66954
595.471	1866.71437
595.931	1972.76237
596.39	2031.06306
596.849	2030.92542
597.308	2228.62391
597.768	2291.59031
598.227	2338.22578
598.685	2504.00699
599.144	2671.21982
599.603	2721.17725
600.062	2875.62836
600.52	3125.97417
600.978	3246.22546
601.437	3301.9755
601.895	3449.58631
602.353	3649.65437
602.811	3895.72275
603.269	3967.04843
603.727	4166.02717
604.184	4322.57978
604.642	4552.01193
605.099	4864.45275
605.557	4967.6924
606.014	5123.75959
606.471	5375.71954
606.928	5573.73301
607.385	5942.41742
607.842	6106.71455
608.299	6282.78321
608.755	6495.96927
609.212	6550.45131
609.668	6808.50452
610.125	6923.88434
610.581	7164.74575
611.037	7200.52554
611.493	7411.79005
611.949	7478.04192
612.405	7666.4316
612.861	7727.88102
613.316	7820.11871
613.772	7954.03352
614.227	8033.28657
614.683	8049.89335
615.138	7959.12489
615.593	8032.14619
616.048	8058.11973
616.503	7925.245
616.958	7970.42593
617.412	7998.20525
617.867	7983.97888
618.321	7762.54165
618.776	7675.67672
619.23	7508.84104
619.684	7402.57152
620.138	7361.66725
620.592	7253.9448
621.046	7182.78423
621.5	6907.86244
621.954	6846.38094
622.407	6684.37484
622.861	6506.96418
623.314	6449.52467
623.768	6314.82481
624.221	6089.85957
624.674	5989.77967
625.127	5898.85614
625.58	5759.67964
626.033	5697.53812
626.485	5495.24813
626.938	5462.23314
627.39	5377.14415
627.843	5110.18569
628.295	4947.27737
628.747	4916.54435
629.199	4810.26581
629.651	4720.36575
630.103	4529.47586
630.555	4418.98094
631.006	4263.71042
631.458	4285.7853
631.909	4105.53215
632.361	4015.77584
632.812	3897.85397
633.263	3884.44161
633.714	3720.36436
634.165	3551.21794
634.616	3476.14236
635.067	3415.71127
635.518	3404.17886
635.968	3211.1605
636.419	3173.73129
636.869	3093.22164
637.319	3038.10395
637.769	2941.92803
638.219	2838.20277
638.669	2704.23371
639.119	2598.25034
639.569	2650.27635
640.019	2606.06207
640.468	2518.89228
640.918	2492.1749
641.367	2430.86708
641.816	2422.83078
642.265	2352.05161
642.714	2257.93117
643.163	2262.97382
643.612	2210.24054
644.061	2148.58595
644.51	2119.87454
644.958	1997.65466
645.406	2008.99914
645.855	1983.05259
646.303	1952.81598
646.751	1879.77758
647.199	1857.67731
647.647	1866.78199
648.095	1894.72411
648.543	1821.25004
648.99	1752.83313
649.438	1693.63291
649.885	1726.96308
650.333	1691.04639
650.78	1669.78246
651.227	1631.7952
651.674	1610.51759
652.121	1579.75269
652.568	1608.77661
653.015	1485.67837
653.461	1485.53943
653.908	1491.42705
654.354	1436.491
654.801	1347.3438
655.247	1405.16334
655.693	1343.67787
656.139	1336.3836
656.585	1355.40838
657.031	1346.35002
657.477	1307.09602
657.922	1315.21254
658.368	1267.388
658.813	1240.12797
659.259	1270.35242
659.704	1164.15122
660.149	1145.05048
660.594	1177.16939
661.039	1087.94854
661.484	1077.028
661.929	1085.00528
662.373	1024.09595
662.818	1023.05675
663.262	1034.01855
663.707	981.06145
664.151	984.963
664.595	926.85486
665.039	936.92836
665.483	969.04065
665.927	916.77234
666.371	859.6916
666.814	892.76119
667.258	911.82352
667.701	920.58481
668.145	845.78162
668.588	862.80201
669.031	777.55716
669.474	772.58453
669.917	790.45248
670.36	800.70916
670.803	790.6288
671.245	749.2837
671.688	746.56483
672.13	723.40275
672.573	761.66045
673.015	743.54379
673.457	754.38756
673.899	722.51177
674.341	676.42283
674.783	669.40222
675.225	683.47127
675.666	709.50969
676.108	716.31881
676.549	657.33579
676.991	662.25701
677.432	671.1331
677.873	636.26982
678.314	653.36141
678.755	683.47379
679.196	601.21122
679.637	590.25412
680.078	643.315
680.518	624.2562
680.959	654.36259
681.399	600.3213
681.839	608.30758
682.28	596.32015
682.72	588.18796
683.16	609.35094
683.6	599.19998
684.039	611.09381
684.479	600.31798
684.919	602.25244
685.358	601.33041
685.798	581.35799
686.237	542.15795
686.676	529.06881
687.115	598.24576
687.554	582.23817
687.993	620.19659
688.432	578.16612
688.871	596.2047
689.309	607.28723
689.748	607.09558
690.186	538.12456
690.625	609.26056
691.063	590.24705
691.501	575.26961
691.939	609.36325
692.377	558.20865
692.815	619.33782
693.253	608.27561
693.69	571.1
694.128	581.25452
694.565	561.18282
695.003	579.32471
695.44	611.27486
695.877	567.18554
696.314	580.06572
696.751	647.2718
697.188	633.28224
697.625	588.15427
698.061	576.22432
698.498	589.22944
698.934	635.32911
699.371	572.19363
699.807	628.29791
700.243	613.30336
700.679	596.1623
701.115	659.33377
701.551	583.19428
701.987	565.08373
702.422	634.32555
702.858	601.26451
703.294	664.31723
703.729	613.31354
704.164	621.30034
704.599	628.21843
705.035	671.29488
705.47	596.27899
705.904	622.25792
706.339	672.33002
706.774	645.31433
707.209	665.34041
707.643	695.43497
708.078	668.41337
708.512	627.3863
708.946	633.30855
709.38	671.38164
709.814	673.30869
710.248	707.4937
710.682	664.38713
711.116	688.4532
711.549	621.40098
711.983	646.294
712.416	771.5501
712.85	646.40011
713.283	723.45882
713.716	692.48589
714.149	669.33489
714.582	717.36793
715.015	693.4692
715.448	722.57098
715.881	762.36024
716.313	668.34677
716.746	726.46789
717.178	705.45825
717.61	802.73484
718.043	757.59455
718.475	700.46436
718.907	817.72029
719.339	739.41611
719.77	753.53402
720.202	672.46457
720.634	776.61851
721.065	755.50535
721.497	810.66933
721.928	730.52719
722.359	763.58047
722.79	740.50922
723.221	703.50533
723.652	779.68685
724.083	747.41148
724.514	768.48134
724.945	755.49281
725.375	768.51323
725.806	767.60503
726.236	824.77866
726.666	771.53018
727.096	751.5632
727.526	864.8706
727.956	820.55307
728.386	813.67289
728.816	798.73792
729.246	808.68159
729.675	732.52395
730.105	799.64332
730.534	794.54402
730.964	778.64492
731.393	815.6725
731.822	782.70234
732.251	828.76977
732.68	788.51998
733.109	803.66859
733.537	824.68909
733.966	786.66474
734.395	826.57968
734.823	767.40764
735.251	732.49558
735.68	757.58408
736.108	721.54523
736.536	758.4921
736.964	755.46981
737.392	743.58489
737.82	724.46852
738.247	752.5122
738.675	747.47834
739.102	746.58683
739.53	708.57759
739.957	723.61734
740.384	726.48532
740.811	674.44907
741.238	707.48978
741.665	720.44046
742.092	603.20132
742.519	680.46135
742.945	747.54453
743.372	703.50468
743.798	667.48586
744.225	676.37041
744.651	651.41606
745.077	693.489
745.503	639.33631
745.929	633.33543
746.355	589.25553
746.781	559.21314
747.207	592.23215
747.632	637.38264
748.058	646.42271
748.483	589.17883
748.908	587.28966
749.334	599.29786
749.759	577.20914
750.184	594.25661
750.609	600.28703
751.033	562.14833
751.458	575.1125
751.883	487.07414
752.307	515.07616
752.732	532.21924
753.156	532.16401
753.58	479.00832
754.005	457.036
754.429	490.03989
754.853	484.08554
755.277	507.07299
755.7	499.10984
756.124	424.96176
756.548	443.94455
756.971	487.06473
757.394	435.01114
757.818	429.01049
758.241	464.06785
758.664	430.99039
759.087	424.86497
759.51	412.9262
759.933	408.90179
760.356	449.05482
760.778	398.89511
761.201	408.8969
761.623	341.74696
762.046	363.77567
762.468	411.89343
762.89	327.73832
763.312	417.93072
763.734	338.75396
764.156	358.81571
764.578	357.74335
765	355.79727
765.421	343.81379
765.843	273.67261
766.264	282.62151
766.686	328.7534
767.107	300.67695
767.528	341.81528
767.949	297.70413
768.37	360.82424
768.791	310.68837
769.212	275.65173
769.632	276.60472
770.053	234.57898
770.473	250.56529
770.894	209.48633
771.314	256.56421
771.734	248.54154
772.154	231.55696
772.575	290.61903
772.994	205.43769
773.414	257.57081
773.834	210.4953
774.254	244.55936
774.673	291.66482
775.093	209.49438
775.512	230.53678
775.931	204.49196
776.351	227.53591
776.77	212.4938
777.189	228.51008
777.607	200.4856
778.026	188.44583
778.445	163.39688
778.864	163.39436
779.282	149.33891
779.701	171.40919
780.119	189.45657
780.537	132.31545
780.955	177.42581
781.373	171.40231
781.791	220.47063
782.209	153.32766
782.627	153.38695
783.045	153.33064
783.462	168.40974
783.88	169.41886
784.297	153.36849
784.715	160.39546
785.132	91.21134
785.549	157.37454
785.966	160.38455
786.383	123.29265
786.8	164.36131
787.217	142.32528
787.633	191.45774
788.05	168.36965
788.466	178.39116
788.883	138.34122
789.299	98.22386
789.715	137.32018
790.131	152.36102
790.547	109.26133
790.963	138.32701
791.379	107.26092
791.795	86.18653
792.21	144.31804
792.626	76.17249
793.041	108.25563
793.457	140.32803
793.872	68.15301
794.287	132.30662
794.702	86.20072
795.117	84.20281
795.532	129.31281
795.947	114.25852
796.362	105.23477
796.776	133.29
797.191	106.24992
797.605	70.16112
798.02	91.21285
798.434	164.3443
798.848	143.34128
799.262	84.2012
799.676	131.30508
800.09	106.25012
800.504	79.18376
800.918	49.1087
801.331	47.11687
801.745	66.14516
802.158	23.05552
802.572	99.23038
802.985	87.19997
803.398	48.11044
803.811	38.09289
804.224	39.09293
804.637	69.15936
805.05	79.1743
805.462	73.17182
805.875	58.14651
806.288	82.19191
806.7	30.07254
807.112	61.13493
807.525	75.17522
807.937	75.17941
808.349	77.18447
808.761	78.18569
809.173	106.2472
809.584	79.18673
809.996	-12.02874
810.408	79.19944
810.819	54.1229
811.231	154.39411
811.642	161.38055
812.053	160.37078
812.464	119.2686
812.875	127.31223
813.286	129.32089
813.697	75.1636
814.108	49.1151
814.519	109.23353
814.929	67.16442
815.34	17.03965
815.75	62.15387
816.16	69.16341
816.571	31.07804
816.981	50.11237
817.391	59.13589
817.801	77.18503
818.211	68.15539
818.62	62.14476
819.03	52.1227
819.44	43.10693
819.849	36.08695
820.259	42.10297
820.668	42.10053
821.077	49.119
821.486	25.05756
821.895	38.08942
822.304	59.15102
822.713	48.10894
823.122	15.03633
823.531	16.03622
823.939	61.14396
824.348	57.13259
824.756	35.08443
825.164	55.13287
825.573	80.19315
825.981	50.11894
826.389	59.14264
826.797	47.11607
827.205	55.12247
827.612	69.16272
828.02	16.03622
828.428	44.10832
828.835	15.0388
829.243	18.04125
829.65	30.07298
830.057	27.0631
830.464	85.20123
830.871	88.20248
831.278	55.12814
831.685	42.08966
832.092	59.13751
832.499	40.08464
832.905	36.08761
833.312	23.04962
833.718	106.25428
834.124	71.15573
834.531	48.11559
834.937	52.12947
835.343	21.04862
835.749	51.11262
836.155	62.15683
836.561	42.09995
836.966	49.11497
837.372	62.15122
837.777	27.06547
838.183	78.16419
838.588	52.12546
838.993	63.14753
839.399	21.05004
839.804	47.11079
840.209	79.19587
840.613	21.04497
841.018	45.10945
841.423	20.04991
841.828	45.11064
842.232	18.04242
842.637	65.14887
843.041	15.03761
843.445	-3.00727
843.849	78.18612
844.253	68.15427
844.657	69.16839
845.061	128.27963
845.465	27.06313
845.869	36.08058
846.272	16.03802
846.676	5.01152
847.079	13.03243
847.483	45.10797
847.886	81.18656
848.289	80.20868
848.692	3.00734
849.095	64.14673
849.498	59.14167
849.901	8.01759
850.304	57.1306
850.707	54.13225
851.109	49.11887
851.512	73.17262
851.914	51.12506
852.316	74.18203
852.718	62.15873
853.121	22.05225
853.523	17.03812
853.925	13.03339
854.326	65.1575
854.728	21.05266
855.13	11.02792
855.531	74.16979
855.933	34.07785
856.334	27.06579
856.736	71.15343
857.137	47.10609
857.538	59.14404
857.939	60.14487
858.34	38.08827
858.741	7.01775
859.142	15.03467
859.542	44.11332
859.943	48.11489
860.343	11.02665
860.744	66.1544
861.144	79.1863
861.544	38.08946
861.945	32.07883
862.345	-9.02131
862.745	51.12311
863.145	45.10128
863.544	71.17301
863.944	42.0954
864.344	5.01189
864.743	98.23151
865.143	76.18943
865.542	-15.03334
865.941	66.15755
866.34	22.05019
866.74	44.11462
867.139	64.1492
867.537	26.06342
867.936	53.12319
868.335	35.08589
868.734	25.06208
869.132	27.05962
869.531	54.12375
869.929	55.12074
870.327	55.12657
870.726	56.13275
871.124	89.19612
871.522	27.06636
871.92	51.12106
872.318	0
872.715	19.04479
873.113	-7.01648
873.511	23.05525
873.908	9.02248
874.306	35.08487
874.703	42.10026
875.1	8.01958
875.497	47.10782
875.894	65.15596
876.291	41.09721
876.688	28.0701
877.085	23.05287
877.482	33.07975
877.878	50.11743
878.275	61.14959
878.671	17.03521
879.068	30.0698
879.464	39.09072
879.86	42.09548
880.256	11.02585
880.652	11.02715
881.048	52.12246
881.444	9.0204
881.84	28.06875
882.236	-8.01956
882.631	85.20053
883.027	53.1226
883.422	10.02466
883.817	50.12213
884.213	11.02743
884.608	42.10164
885.003	15.03466
885.398	26.06304
885.793	4.00971
886.188	14.03366
886.582	64.15621
886.977	36.08157
887.371	-1.00244
887.766	17.04124
888.16	-9.02145
888.554	48.11326
888.949	48.11598
889.343	66.15349
889.737	50.13025
890.131	24.05827
890.525	92.22681
890.918	37.08979
891.312	48.10898
891.706	32.08112
892.099	20.04913
892.492	58.11822
892.886	-5.01185
893.279	19.04678
893.672	49.12118
894.065	42.10152
894.458	20.04816
894.851	98.22674
895.244	26.06424
895.637	37.08614
896.029	96.2252
896.422	-31.07293
896.814	32.0765
897.206	25.05831
897.599	117.27419
897.991	61.1424
898.383	51.11587
898.775	50.10942
899.167	99.22282
899.559	37.08952
899.951	30.06737
900.342	17.04146
900.734	52.1274
901.125	30.07567
901.517	48.11357
901.908	70.15771
902.299	47.11092
902.69	72.16387
903.082	19.04446
903.473	85.19749
903.863	29.07111
904.254	79.177
904.645	23.05451
905.036	71.16815
905.426	44.09486
905.817	3.00709
906.207	-15.03431
906.597	24.05471
906.987	16.03987
907.378	33.08113
907.768	85.21658
908.158	41.09594
908.547	40.1014
908.937	-27.0668
909.327	33.077
909.717	33.07948
910.106	45.10327
910.495	63.14897
910.885	48.11747
911.274	27.06508
911.663	32.07767
912.052	37.08681
912.441	68.16746
912.83	51.11106
913.219	54.13567
913.608	72.1695
913.997	52.12678
914.385	71.16202
914.774	43.10042
915.162	99.22701
915.55	25.05783
915.939	47.1153
916.327	41.0977
916.715	63.15695
917.103	32.07448
917.491	87.20453
917.878	11.0261
918.266	31.07742
918.654	56.13892
919.041	54.13791
919.429	24.05456
919.816	53.12905
920.203	55.12935
920.591	74.17603
920.978	46.10825
921.365	47.11963
921.752	-7.01591
922.139	46.09534
922.525	22.05123
922.912	34.07951
923.299	56.13393
923.685	2.00503
924.072	25.05393
924.458	67.1599
924.844	12.02878
925.231	-20.04475
925.617	41.10184
926.003	46.11291
926.389	34.08274
926.774	16.03911
927.16	55.13086
927.546	49.12269
927.931	23.05506
928.317	43.09408
928.702	72.16155
929.088	61.14145
929.473	88.21607
929.858	53.12547
930.243	38.08876
930.628	35.08299
931.013	18.04323
931.398	64.13763
931.783	42.1056
932.167	62.14698
932.552	49.11766
932.937	78.18376
933.321	32.07825
933.705	-4.00968
934.09	31.07393
934.474	37.08348
934.858	43.10798
935.242	2.00446
935.626	50.12404
936.009	22.05745
936.393	69.17108
936.777	28.06984
937.16	84.21142
937.544	11.02456
937.927	32.07895
938.311	67.15517
938.694	79.20137
939.077	34.07829
939.46	-5.01163
939.843	-11.02153
940.226	46.11307
940.609	62.13768
940.991	0
941.374	27.06412
941.757	43.10156
942.139	63.13545
942.522	46.10342
942.904	48.11075
943.286	58.14104
943.668	63.15882
944.05	44.10435
944.432	7.01666
944.814	-15.03552
945.196	32.07586
945.578	58.13452
945.959	18.04017
946.341	31.07177
946.722	15.03372
947.104	64.14631
947.485	64.14218
947.866	60.14656
948.247	68.16635
948.628	-29.06746
949.009	9.02237
949.39	31.07387
949.771	23.05011
950.152	49.11569
950.532	82.19866
950.913	50.11541
951.293	49.12932
951.674	18.04203
952.054	69.16719
952.434	42.10056
952.814	21.04752
953.194	-10.02514
953.574	46.10825
953.954	20.04523
954.334	80.19257
954.714	11.02608
955.093	54.12727
955.473	62.1506
955.853	49.12238
956.232	32.08498
956.611	32.07271
956.99	36.08767
957.37	62.1506
957.749	0
958.128	62.15099
958.506	40.10046
958.885	-7.0171
959.264	40.0957
959.643	70.15273
960.021	48.11528
960.4	46.09947
960.778	7.01641
961.156	13.03141
961.535	-2.00445
961.913	77.17259
962.291	78.19456
962.669	13.0321
963.047	67.16515
963.424	43.10739
963.802	43.10196
964.18	35.08385
964.557	36.07898
964.935	63.14232
965.312	76.19122
965.69	33.07882
966.067	25.05792
966.444	4.00935
966.821	70.17347
967.198	-4.00928
967.575	49.1147
967.952	49.1101
968.329	65.15239
968.705	98.19938
969.082	84.20945
969.458	10.02355
969.835	70.16273
970.211	60.14983
970.587	65.15543
970.963	13.03201
971.339	6.01531
971.715	39.094
972.091	50.11803
972.467	9.02138
972.843	63.15185
973.219	56.12715
973.594	-1.00255
973.97	6.01339
974.345	4.00931
974.721	34.07782
975.096	68.15871
975.471	48.1085
975.846	14.03219
976.221	-4.00989
976.596	76.17703
976.971	97.22972
977.346	30.0664
977.72	19.04658
978.095	-2.00502
978.469	86.19407
978.844	50.11995
979.218	52.12151
979.593	75.17025
979.967	-12.02779
980.341	28.06223
980.715	60.14552
981.089	17.0411
981.463	26.05733
981.837	76.17975
982.21	16.03476
982.584	47.10946
982.957	40.09687
983.331	14.03136
983.704	86.20426
984.078	36.08521
984.451	35.08228
984.824	30.0709
985.197	-42.09787
985.57	-16.03835
985.943	19.04437
986.316	2.00467
986.688	44.10152
987.061	79.17678
987.434	65.16521
987.806	-21.04869
988.179	34.07663
988.551	25.06094
988.923	-17.04042
989.295	26.06228
989.667	36.08405
990.039	50.12086
990.411	25.05428
990.783	10.02183
991.155	2.00468
991.527	36.08339
991.898	45.10842
992.27	45.10818
992.641	37.08871
993.012	10.02203
993.384	25.05703
993.755	21.05213
994.126	49.11407
994.497	38.08973
994.868	25.05437
995.239	30.06969
995.61	23.05598
995.98	11.02576
996.351	12.02897
996.722	68.1522
997.092	4.00921
997.462	25.05694
997.833	8.0181
998.203	-25.05795
998.573	66.15809
998.943	57.12845
999.313	61.14066
999.683	22.05106
1000.053	-33.07186
1000.423	45.10397
1000.792	2.00497
1001.162	3.00709
1001.531	62.14664
1001.901	21.05023
1002.27	26.05437
1002.639	-11.0271
1003.009	31.0706
1003.378	4.00994
1003.747	48.10766
1004.116	42.09613
1004.485	20.04598
1004.853	-1.00242
1005.222	-14.03364
1005.591	57.12871
1005.959	29.06294
1006.328	36.07785
1006.696	-25.05831
1007.064	18.04328
1007.433	-5.01201
1007.801	38.08789
1008.169	38.0913
1008.537	69.14457
1008.905	5.01133
1009.273	29.06836
1009.64	20.04662
1010.008	13.02979
1010.375	-7.01613
1010.743	-16.03451
1011.11	76.17487
1011.478	41.0983
1011.845	27.06054
1012.212	51.11153
1012.579	37.08749
1012.946	32.07212
1013.313	41.0925
1013.68	48.10211
1014.047	-12.02769
1014.414	-3.00683
1014.78	40.09603
1015.147	-15.03469
1015.513	22.05102
1015.88	43.10494
1016.246	21.04925
1016.612	36.07801
1016.978	68.16033
1017.344	37.08814
1017.71	71.16379
1018.076	30.06704
1018.442	38.09458
1018.808	42.10202
1019.174	-19.04604
1019.539	15.03161
1019.905	16.03655
1020.27	9.02141
1020.636	19.04317
1021.001	68.15577
1021.366	57.13154
1021.731	50.12558
1022.096	8.01975
1022.461	48.10898
1022.826	69.15765
1023.191	37.09381
1023.556	35.07806
1023.92	1.00235
1024.285	17.0395
1024.649	26.06087
1025.014	30.07057
1025.378	32.07808
1025.742	7.01664
1026.107	73.1558
1026.471	77.16925
1026.835	30.07158
1027.199	-11.02572
1027.562	-2.00443
1027.926	44.10241
1028.29	28.06842
1028.654	6.01321
1029.017	24.057
1029.381	22.05076
1029.744	35.08611
1030.107	53.11968
1030.471	58.13345
1030.834	-30.06493
1031.197	97.221
1031.56	22.04955
1031.923	42.10488
1032.286	116.25642
1032.648	18.04075
1033.011	48.10686
1033.374	36.07998
1033.736	-4.01025
1034.099	4.00943
1034.461	33.08107
1034.823	26.06273
1035.185	37.08868
1035.548	36.08458
1035.91	5.01153
1036.272	80.17351
1036.634	50.11702
1036.995	20.04475
1037.357	13.03069
1037.719	7.01647
1038.08	74.1687
1038.442	45.10194
1038.803	22.04987
1039.165	1.00243
1039.526	78.17954
1039.887	30.06881
1040.248	61.14653
1040.609	49.11461
1040.97	36.08415
1041.331	48.11768
1041.692	110.24722
1042.053	51.10974
1042.413	50.11029
1042.774	33.07728
1043.134	20.04508
1043.495	41.09901
1043.855	75.17542
1044.215	-12.0287
1044.576	46.10614
1044.936	17.03713
1045.296	69.16442
1045.656	2.00469
1046.016	36.08277
1046.375	33.07685
1046.735	80.17529
1047.095	40.0896
1047.454	39.07737
1047.814	63.14464
1048.173	79.17627
1048.533	56.12208
1048.892	6.01397
1049.251	41.09804
1049.61	42.09937
1049.969	24.05409
1050.328	76.1554
1050.687	35.08113
1051.046	53.12285
1051.405	12.02851
1051.763	56.1242
1052.122	24.05757
1052.48	57.13416
1052.839	28.06437
1053.197	51.11441
1053.555	72.15163
1053.914	26.06092
1054.272	-29.06647
1054.63	10.02367
1054.988	59.13518
1055.345	16.03237
1055.703	46.10618
1056.061	96.2385
1056.419	76.19177
1056.776	-26.06006
1057.134	-30.06598
1057.491	22.05316
1057.848	18.04292
1058.206	-8.01785
1058.563	34.07119
1058.92	58.12644
1059.277	25.05935
1059.634	-2.00447
1059.991	97.22064
1060.348	47.1017
1060.704	45.10525
1061.061	35.07606
1061.418	25.05841
1061.774	22.05233
1062.131	85.21895
1062.487	-2.00448
1062.843	20.04803
1063.199	23.05517
1063.555	45.10062
1063.911	-19.04632
1064.267	64.12344
1064.623	-11.02621
1064.979	-20.04404
1065.335	43.09729
1065.691	23.05206
1066.046	58.12042
1066.402	12.02596
1066.757	35.0851
1067.112	23.05403
1067.468	55.12586
1067.823	18.04067
1068.178	20.04616
1068.533	59.13648
1068.888	29.06604
1069.243	48.11357
1069.598	18.04178
1069.952	52.11423
1070.307	15.03605
1070.662	36.0831
1071.016	87.18712
1071.371	55.11977
1071.725	46.10406
1072.079	37.08552
1072.434	16.03762
1072.788	24.05403
1073.142	65.15287
1073.496	57.12855
1073.85	49.10802
1074.203	2.00469
1074.557	45.11704
1074.911	52.11744
1075.265	35.07771
1075.618	79.18376
1075.971	49.11114
1076.325	55.13532
1076.678	55.11982
1077.031	-26.05557
1077.385	70.14495
1077.738	21.04523
1078.091	11.02428
1078.444	27.05917
1078.796	22.05235
1079.149	61.14547
1079.502	37.0844
1079.855	24.05376
1080.207	45.10579
1080.56	26.06539
1080.912	56.12993
1081.264	58.13398
1081.617	48.11251
1081.969	8.01967
1082.321	20.04681
1082.673	19.04234
1083.025	22.04975
1083.377	51.11422
1083.728	55.1214
1084.08	3.00719
1084.432	16.03696
1084.783	-1.00221
1085.135	42.10167
1085.486	43.09456
1085.838	31.0737
1086.189	57.13353
1086.54	21.04792
1086.891	76.18758
1087.242	91.21451
1087.593	0
1087.944	-6.01322
1088.295	79.16919
1088.646	81.19072
1088.996	39.09072
1089.347	21.04925
1089.698	41.09394
1090.048	54.13387
1090.398	-10.0222
1090.749	13.02962
1091.099	33.08104
1091.449	46.11048
1091.799	58.13898
1092.149	22.05252
1092.499	38.08897
1092.849	19.04675
1093.199	29.06926
1093.548	71.1645
1093.898	19.04564
1094.248	8.01969
1094.597	35.08738
1094.947	29.07509
1095.296	28.06697
1095.645	40.09978
1095.994	35.08058
1096.343	55.13327
1096.692	39.10074
1097.041	24.06416
1097.39	8.01927
1097.739	-1.00252
1098.088	44.11292
1098.437	-5.01299
1098.785	-2.0052
1099.134	7.01773
1099.482	14.03762
1099.83	35.0889
1100.179	78.19913
1100.527	5.01275
1100.875	51.13114
1101.223	30.07772
1101.571	-33.08911
1101.919	33.08542
1102.267	29.08021
1102.615	6.01926
1102.962	8.02564
1103.31	7.02247
1103.658	-7.02246
