Data from N3 R3 sample 12_Subt2__4__11-08-15-811.txt Node

Date: Thu Sep 18 11:08:15 PDT 2025
User: uwsun
Spectrometer: HDX01956
Trigger mode: 0
Integration Time (sec): 5.000000E-1
Scans to average: 1
Nonlinearity correction enabled: true
Boxcar width: 0
Storing dark spectrum: false
XAxis mode: Wavelengths
Number of Pixels in Spectrum: 2068
>>>>>Begin Spectral Data<<<<<
194.03	27.07808
194.578	35.11333
195.127	35.11175
195.676	34.10896
196.225	77.20301
196.773	51.14141
197.321	60.16644
197.87	113.29036
198.418	155.39827
198.966	160.42005
199.513	157.39819
200.061	149.37817
200.609	154.40512
201.156	114.25137
201.704	115.29085
202.251	139.36942
202.798	143.37038
203.345	197.48342
203.892	132.33437
204.438	130.30924
204.985	151.35857
205.532	114.30101
206.078	176.42717
206.624	186.46376
207.17	172.4019
207.716	186.4533
208.262	180.35486
208.808	169.42329
209.354	179.44055
209.899	145.36475
210.445	186.46225
210.99	170.41354
211.535	210.48953
212.08	143.33237
212.625	137.34253
213.17	197.4975
213.715	206.466
214.259	179.41571
214.804	186.45212
215.348	157.36274
215.892	204.49029
216.436	126.28851
216.98	135.29686
217.524	172.40946
218.068	190.47545
218.612	170.43032
219.155	185.43388
219.698	140.33303
220.242	100.24808
220.785	172.40158
221.328	114.28239
221.871	157.39833
222.414	161.39538
222.956	92.22137
223.499	130.28953
224.041	153.34731
224.583	134.2817
225.126	124.27192
225.668	130.31518
226.21	168.42177
226.751	163.36053
227.293	182.40617
227.835	166.40336
228.376	179.40171
228.918	177.43531
229.459	153.3792
230	144.34439
230.541	148.33821
231.082	103.25155
231.622	120.27102
232.163	109.26302
232.704	165.40954
233.244	163.40073
233.784	150.36065
234.324	193.42849
234.864	86.19542
235.404	109.25665
235.944	159.37087
236.484	225.55008
237.023	150.35091
237.563	147.33991
238.102	197.45841
238.641	106.26641
239.18	147.34315
239.719	182.44967
240.258	174.38623
240.797	149.35369
241.335	123.29826
241.874	182.35019
242.412	178.42781
242.95	170.40703
243.488	123.27558
244.026	174.40066
244.564	213.42969
245.102	193.43134
245.64	110.26257
246.177	92.20532
246.715	156.37194
247.252	145.32688
247.789	225.40658
248.326	138.33142
248.863	176.38319
249.4	187.41793
249.936	167.34712
250.473	210.48818
251.009	159.36093
251.546	197.43373
252.082	108.23364
252.618	147.32718
253.154	173.41208
253.69	186.41132
254.226	160.38016
254.761	196.43307
255.297	203.43549
255.832	146.34556
256.367	160.37283
256.903	210.45896
257.438	185.42777
257.972	128.2846
258.507	156.35505
259.042	142.30772
259.576	203.44263
260.111	163.37076
260.645	162.34701
261.179	129.30184
261.713	191.42193
262.247	120.27378
262.781	205.42496
263.315	161.38688
263.849	145.36122
264.382	165.37546
264.915	182.42593
265.449	140.34031
265.982	195.43635
266.515	208.5018
267.048	175.36715
267.58	175.37299
268.113	189.40318
268.646	141.34319
269.178	150.33324
269.71	226.48995
270.243	238.53947
270.775	185.46937
271.307	164.38606
271.838	160.37459
272.37	171.41465
272.902	178.39839
273.433	243.52624
273.965	168.40423
274.496	182.44538
275.027	212.51897
275.558	160.3879
276.089	155.385
276.62	121.30449
277.15	203.49094
277.681	157.33536
278.211	212.50758
278.741	154.34041
279.272	220.49422
279.802	169.41625
280.332	175.40931
280.861	174.41151
281.391	175.39386
281.921	194.45686
282.45	200.48815
282.98	164.42382
283.509	209.46826
284.038	192.43398
284.567	192.44158
285.096	218.51975
285.625	184.40894
286.153	230.53931
286.682	231.52031
287.21	153.36192
287.739	210.48799
288.267	167.40373
288.795	196.50475
289.323	211.48789
289.851	191.44428
290.378	203.44544
290.906	228.54776
291.433	210.51522
291.961	220.49422
292.488	211.5147
293.015	217.50415
293.542	241.60751
294.069	220.53635
294.596	185.44674
295.122	196.46462
295.649	203.43756
296.175	200.47446
296.702	245.58669
297.228	231.54493
297.754	217.48017
298.28	220.49827
298.806	174.41597
299.332	171.3806
299.857	223.49838
300.383	202.50091
300.908	227.54877
301.433	223.53788
301.958	234.52588
302.483	200.48906
303.008	249.60648
303.533	209.531
304.058	204.4688
304.582	200.46695
305.107	183.47152
305.631	212.47351
306.155	198.4561
306.679	249.57346
307.203	238.5421
307.727	213.49759
308.251	228.55295
308.775	288.68188
309.298	225.53387
309.822	225.55559
310.345	288.66948
310.868	264.62216
311.391	235.56832
311.914	267.65323
312.437	235.5278
312.96	229.53077
313.482	177.41301
314.005	234.57325
314.527	202.51839
315.049	287.7071
315.571	331.71833
316.093	262.63444
316.615	247.58064
317.137	255.5442
317.659	276.6517
318.18	223.523
318.702	290.66133
319.223	270.53654
319.744	281.61658
320.265	270.64297
320.786	325.78592
321.307	272.65593
321.828	283.62202
322.348	285.65347
322.869	296.68617
323.389	519.93655
323.909	282.62776
324.43	309.71559
324.95	319.70673
325.47	329.7893
325.989	311.71593
326.509	302.65777
327.029	378.82642
327.548	322.70609
328.067	339.79468
328.587	445.05474
329.106	306.66903
329.625	362.90606
330.144	365.81535
330.662	373.84044
331.181	420.94186
331.7	343.76843
332.218	407.83953
332.736	357.8044
333.255	430.96072
333.773	369.83619
334.291	407.9719
334.808	426.91087
335.326	364.78539
335.844	402.90336
336.361	428.04761
336.879	446.99399
337.396	476.09028
337.913	470.02035
338.43	400.8612
338.947	420.9554
339.464	393.81029
339.981	417.94147
340.497	454.05352
341.014	452.0406
341.53	462.98184
342.046	535.24498
342.562	454.06887
343.078	480.06066
343.594	492.09537
344.11	515.15116
344.626	459.09509
345.141	474.01899
345.657	544.13913
346.172	534.19836
346.687	507.08516
347.202	582.22206
347.717	524.16384
348.232	506.17995
348.747	521.12094
349.261	554.12325
349.776	565.24179
350.29	592.36668
350.805	616.39392
351.319	542.16795
351.833	548.16927
352.347	633.3617
352.861	648.38057
353.374	601.24953
353.888	550.24895
354.401	601.25119
354.915	622.28148
355.428	620.41606
355.941	631.33761
356.454	636.28216
356.967	589.26096
357.48	570.18945
357.993	645.44392
358.505	571.28177
359.018	682.51022
359.53	667.47667
360.042	687.38101
360.554	684.5134
361.066	629.39651
361.578	688.36364
362.09	696.48872
362.602	684.37023
363.113	757.58129
363.625	710.4414
364.136	775.49379
364.647	717.52278
365.158	718.49345
365.669	709.51819
366.18	734.53895
366.691	741.43567
367.201	749.59632
367.712	805.61409
368.222	724.48791
368.733	817.54324
369.243	820.59692
369.753	789.59798
370.263	842.77491
370.773	751.62549
371.282	821.71737
371.792	840.69326
372.301	867.81526
372.811	856.96939
373.32	967.75332
373.829	912.84023
374.338	943.76953
374.847	924.81764
375.356	941.88623
375.865	1073.87327
376.373	1093.02913
376.882	1131.35627
377.39	1138.23666
377.898	1069.17985
378.407	1246.22239
378.915	1282.16777
379.423	1307.35968
379.93	1445.51916
380.438	1310.4567
380.946	1410.48156
381.453	1516.69938
381.96	1620.7916
382.468	1686.79813
382.975	1814.07196
383.482	1821.72599
383.989	1891.34727
384.495	2052.04376
385.002	2109.63888
385.509	2227.23975
386.015	2389.61221
386.521	2452.09471
387.028	2488.09161
387.534	2647.82398
388.04	2785.45619
388.546	2756.9818
389.051	2901.96309
389.557	3063.22154
390.063	3262.04479
390.568	3447.38652
391.073	3496.87867
391.578	3695.42024
392.084	3869.88255
392.589	3927.54217
393.093	4293.01498
393.598	4690.51904
394.103	5161.49223
394.607	5543.37094
395.112	5975.31685
395.616	6309.11004
396.12	6849.66412
396.624	7676.03781
397.128	8276.57851
397.632	9174.80777
398.136	9873.43006
398.639	10464.2186
399.143	11579.54584
399.646	13154.1534
400.15	14553.6001
400.653	15997.1947
401.156	18192.59067
401.659	21302.51791
402.162	26126.56449
402.664	34359.98703
403.167	48546.3628
403.67	61624.25299
404.172	63919.58413
404.674	63858.43483
405.176	63738.15102
405.678	63977.72923
406.18	64011.81569
406.682	63863.44694
407.184	63926.60148
407.686	63841.39382
408.187	64025.8516
408.688	63892.51763
409.19	60672.65883
409.691	48725.17022
410.192	41334.93582
410.693	35786.38833
411.194	32392.02102
411.694	30745.12508
412.195	28567.76552
412.696	25732.92121
413.196	23948.88855
413.696	23411.67655
414.196	23652.38144
414.696	23178.35886
415.196	22084.14439
415.696	19927.21169
416.196	16278.79801
416.695	12534.1285
417.195	10753.19927
417.694	10151.44866
418.194	9579.71549
418.693	8913.29355
419.192	8597.87847
419.691	8582.82166
420.19	8201.49725
420.688	8145.52516
421.187	7780.6007
421.685	7208.79168
422.184	6594.85833
422.682	5805.58864
423.18	4806.44467
423.678	4264.69562
424.176	4031.79635
424.674	3764.74905
425.172	3626.14112
425.669	3357.48349
426.167	3218.1588
426.664	2933.05783
427.161	2653.11504
427.659	2394.32825
428.156	2378.70721
428.652	2179.42133
429.149	2109.19406
429.646	2057.79364
430.143	1932.02007
430.639	1817.88653
431.135	1686.98388
431.632	1637.60353
432.128	1518.65884
432.624	1420.79204
433.12	1421.38941
433.616	1392.24276
434.111	1299.36891
434.607	1228.30024
435.103	1200.92279
435.598	1232.94094
436.093	1133.09843
436.588	1116.99402
437.083	1023.86074
437.578	1008.91259
438.073	932.96987
438.568	976.00113
439.062	951.66754
439.557	826.65053
440.051	830.58428
440.546	827.59875
441.04	798.6534
441.534	809.76301
442.028	825.70445
442.522	722.51909
443.015	665.25076
443.509	744.57983
444.002	712.53216
444.496	703.32625
444.989	730.5494
445.482	636.40768
445.975	665.35822
446.468	711.33613
446.961	707.33447
447.454	654.29373
447.947	685.44148
448.439	655.42899
448.931	624.27523
449.424	654.48539
449.916	676.45898
450.408	640.29674
450.9	597.30287
451.392	545.2608
451.884	551.14389
452.375	527.19013
452.867	535.08788
453.358	571.17598
453.849	511.99251
454.341	583.17865
454.832	476.94194
455.323	587.31827
455.814	524.0875
456.304	515.08425
456.795	485.01336
457.285	511.02057
457.776	526.08631
458.266	513.10938
458.756	405.89273
459.247	475.04369
459.737	545.19526
460.226	532.09774
460.716	478.04876
461.206	466.02538
461.695	430.98802
462.185	470.02511
462.674	424.89914
463.163	452.93423
463.653	466.90834
464.142	433.974
464.63	368.83815
465.119	436.93829
465.608	509.08522
466.096	345.70462
466.585	377.80594
467.073	356.79016
467.561	346.78296
468.05	356.77043
468.538	324.75017
469.026	352.78583
469.513	348.68929
470.001	373.80256
470.489	380.84588
470.976	400.87119
471.463	359.84156
471.951	364.85044
472.438	341.75515
472.925	344.76353
473.412	299.69024
473.899	327.70874
474.385	344.79457
474.872	321.70849
475.359	340.7897
475.845	295.5798
476.331	296.59809
476.817	297.68808
477.303	261.58138
477.789	241.55215
478.275	241.57579
478.761	248.56556
479.247	235.50457
479.732	274.65425
480.218	286.71667
480.703	222.52827
481.188	264.54665
481.673	265.58319
482.158	269.55564
482.643	298.72566
483.128	268.59833
483.612	270.61598
484.097	212.49458
484.581	277.6119
485.066	265.62221
485.55	260.5509
486.034	248.51605
486.518	293.66858
487.002	187.442
487.486	181.42765
487.969	192.4532
488.453	216.51972
488.936	226.49079
489.42	221.47206
489.903	196.47339
490.386	171.34481
490.869	274.5732
491.352	229.53119
491.835	226.44512
492.318	219.47528
492.8	250.4961
493.283	230.56679
493.765	206.48945
494.247	261.58186
494.73	257.5449
495.212	237.54059
495.694	294.65989
496.175	284.65157
496.657	273.61792
497.139	276.44758
497.62	235.54489
498.102	272.64848
498.583	196.46713
499.064	295.62492
499.545	309.66744
500.026	354.75202
500.507	310.67634
500.988	385.90178
501.469	371.86798
501.949	480.08625
502.43	446.99316
502.91	578.08709
503.39	489.10912
503.87	506.08792
504.35	533.12516
504.83	573.11392
505.31	629.34439
505.79	625.30815
506.269	710.41059
506.749	813.5694
507.228	890.74821
507.707	925.69145
508.187	1052.0238
508.666	1092.17617
509.145	1187.15095
509.623	1312.30711
510.102	1458.57839
510.581	1622.74082
511.059	1688.97521
511.538	1816.20295
512.016	2007.02268
512.494	2128.10648
512.972	2342.19306
513.45	2507.10891
513.928	2689.38026
514.406	2909.46251
514.884	3129.8138
515.361	3342.27314
515.839	3545.97087
516.316	3719.2841
516.793	3870.51658
517.27	4066.06484
517.747	4226.51324
518.224	4271.65492
518.701	4394.30719
519.178	4429.20646
519.654	4527.71801
520.131	4569.04824
520.607	4520.95929
521.083	4398.47082
521.56	4398.75238
522.036	4409.20186
522.512	4347.13938
522.987	4128.05665
523.463	4020.9821
523.939	3953.36113
524.414	3731.85938
524.89	3559.20486
525.365	3294.91645
525.84	3325.31018
526.315	3138.38527
526.79	2964.96156
527.265	2922.10537
527.74	2619.35644
528.215	2511.10987
528.689	2438.78324
529.164	2312.65543
529.638	2250.45254
530.112	2088.98702
530.587	1964.52727
531.061	1915.0076
531.534	1761.86599
532.008	1838.97041
532.482	1689.62209
532.956	1595.93421
533.429	1588.76632
533.903	1493.2921
534.376	1450.28078
534.849	1349.29702
535.322	1293.3107
535.795	1246.32037
536.268	1230.3085
536.741	1122.10731
537.213	1129.03412
537.686	1105.16507
538.158	1040.89412
538.631	1033.03226
539.103	1019.8497
539.575	954.57213
540.047	944.67211
540.519	899.79616
540.991	878.80555
541.463	751.5632
541.934	729.41979
542.406	784.61931
542.877	771.48536
543.348	787.63386
543.82	698.4885
544.291	652.34217
544.762	720.49296
545.233	692.55018
545.703	638.24907
546.174	651.33079
546.645	630.35727
547.115	614.32389
547.585	609.24537
548.056	661.44209
548.526	650.36625
548.996	580.24621
549.466	553.2169
549.935	528.14746
550.405	590.1533
550.875	604.28281
551.344	507.10339
551.814	542.12192
552.283	593.15068
552.752	575.21238
553.221	531.05961
553.69	578.17093
554.159	578.30148
554.628	532.09283
555.096	531.23566
555.565	478.96804
556.033	598.27943
556.502	540.18353
556.97	556.11241
557.438	536.14115
557.906	498.07482
558.374	597.23844
558.842	548.18999
559.31	592.18238
559.777	581.28128
560.245	539.11794
560.712	602.22909
561.18	593.16931
561.647	636.24338
562.114	645.30599
562.581	639.40169
563.048	699.39677
563.514	789.71577
563.981	714.42184
564.448	788.51925
564.914	754.51066
565.381	858.6481
565.847	837.65053
566.313	856.67266
566.779	906.68872
567.245	936.79041
567.711	970.91539
568.176	944.73712
568.642	1038.14372
569.108	1090.16016
569.573	1064.97114
570.038	1172.86178
570.504	1192.07673
570.969	1215.361
571.434	1362.21869
571.899	1317.36097
572.363	1354.30496
572.828	1483.4474
573.293	1422.375
573.757	1572.56636
574.222	1575.44891
574.686	1626.58368
575.15	1606.73101
575.614	1681.73004
576.078	1685.70785
576.542	1666.58375
577.006	1705.58486
577.469	1661.86498
577.933	1662.58193
578.396	1698.75715
578.86	1665.70082
579.323	1641.76946
579.786	1670.41618
580.249	1634.68022
580.712	1546.70395
581.175	1613.82547
581.637	1606.53574
582.1	1509.3007
582.563	1530.23958
583.025	1544.70603
583.487	1493.11919
583.95	1451.19972
584.412	1437.13077
584.874	1375.52183
585.336	1352.40611
585.797	1296.09407
586.259	1240.22977
586.721	1224.21768
587.182	1182.11645
587.643	1171.06618
588.105	1103.07608
588.566	1120.80108
589.027	1117.19171
589.488	1067.95858
589.949	1034.04611
590.41	1020.58506
590.87	987.84227
591.331	995.75402
591.791	1013.90486
592.252	912.76963
592.712	909.82286
593.172	831.59884
593.632	975.76339
594.092	848.58588
594.552	826.50361
595.011	729.44671
595.471	808.55712
595.931	722.41313
596.39	724.5173
596.849	670.37308
597.308	642.19883
597.768	683.56538
598.227	650.38483
598.685	620.25444
599.144	676.40287
599.603	651.34522
600.062	605.12709
600.52	633.26529
600.978	604.27557
601.437	587.19326
601.895	605.14831
602.353	572.12334
602.811	605.21482
603.269	544.17176
603.727	508.11376
604.184	556.14119
604.642	539.20439
605.099	590.23452
605.557	508.12872
606.014	517.00677
606.471	521.19471
606.928	562.12132
607.385	592.3363
607.842	537.11379
608.299	567.19235
608.755	588.27968
609.212	540.08633
609.668	550.11767
610.125	555.20904
610.581	586.23047
611.037	497.01323
611.493	564.18368
611.949	550.21409
612.405	547.99619
612.861	521.08584
613.316	545.18171
613.772	516.0723
614.227	537.17077
614.683	572.0779
615.138	520.10703
615.593	491.03998
616.048	492.02597
616.503	505.11902
616.958	498.14304
617.412	519.11998
617.867	504.02356
618.321	480.8992
618.776	496.99301
619.23	491.04949
619.684	467.95377
620.138	497.03389
620.592	479.06528
621.046	546.16449
621.5	413.92484
621.954	429.87458
622.407	423.86352
622.861	467.04155
623.314	413.86606
623.768	463.00363
624.221	458.81777
624.674	399.85776
625.127	377.81953
625.58	400.83343
626.033	426.85761
626.485	320.72502
626.938	386.85887
627.39	364.79817
627.843	414.88445
628.295	383.82372
628.747	366.81877
629.199	368.78346
629.651	343.73961
630.103	349.7519
630.555	303.60311
631.006	315.69292
631.458	338.74928
631.909	268.57257
632.361	276.60701
632.812	272.60098
633.263	315.64481
633.714	272.54758
634.165	246.56621
634.616	254.57527
635.067	280.58601
635.518	305.68556
635.968	275.51144
636.419	309.6374
636.869	293.6594
637.319	303.66653
637.769	247.53216
638.219	267.60164
638.669	263.59771
639.119	268.6124
639.569	233.53768
640.019	272.59922
640.468	279.5949
640.918	252.57237
641.367	262.55975
641.816	258.54762
642.265	328.72167
642.714	261.57174
643.163	290.637
643.612	269.63062
644.061	283.57432
644.51	270.59058
644.958	265.55818
645.406	261.59677
645.855	225.52645
646.303	285.62615
646.751	274.60464
647.199	253.5486
647.647	259.57525
648.095	236.51665
648.543	298.56981
648.99	306.69725
649.438	262.57865
649.885	295.7002
650.333	308.56127
650.78	280.64523
651.227	277.64709
651.674	284.61621
652.121	282.65993
652.568	261.61235
653.015	215.51368
653.461	285.64482
653.908	232.51175
654.354	301.67962
654.801	208.47129
655.247	246.50916
655.693	241.60316
656.139	220.50597
656.585	222.51077
657.031	250.56299
657.477	233.48862
657.922	200.43932
658.368	213.5054
658.813	174.3843
659.259	214.50101
659.704	272.61528
660.149	194.43295
660.594	199.45703
661.039	253.55117
661.484	208.47569
661.929	201.45404
662.373	144.35357
662.818	190.4556
663.262	221.51507
663.707	164.40684
664.151	207.48756
664.595	175.41156
665.039	184.44323
665.483	175.43309
665.927	151.34583
666.371	168.38484
666.814	204.46805
667.258	174.40785
667.701	244.49664
668.145	197.47464
668.588	215.51407
669.031	196.4459
669.474	152.35587
669.917	182.38614
670.36	208.50161
670.803	180.42224
671.245	138.27564
671.688	178.42049
672.13	191.41805
672.573	212.51666
673.015	190.44378
673.457	159.33668
673.899	196.45851
674.341	156.36623
674.783	180.41844
675.225	214.50787
675.666	212.5006
676.108	141.29752
676.549	165.37348
676.991	150.32075
677.432	136.26345
677.873	128.28602
678.314	105.24578
678.755	197.46978
679.196	134.29942
679.637	130.30436
680.078	169.38316
680.518	114.25673
680.959	132.30723
681.399	136.32898
681.839	140.33175
682.28	173.41745
682.72	128.28625
683.16	157.38142
683.6	198.43401
684.039	117.23646
684.479	182.43543
684.919	157.35942
685.358	123.29972
685.798	82.21059
686.237	128.29839
686.676	104.23095
687.115	162.37065
687.554	165.38335
687.993	161.34539
688.432	140.31128
688.871	167.37123
689.309	161.37509
689.748	130.26364
690.186	88.20256
690.625	111.25565
691.063	96.22511
691.501	148.35638
691.939	131.32242
692.377	125.29615
692.815	166.39396
693.253	133.30864
693.69	77.16619
694.128	107.25478
694.565	100.23247
695.003	180.44538
695.44	137.31628
695.877	108.24909
696.314	124.25435
696.751	145.31911
697.188	124.28074
697.625	115.25128
698.061	114.26701
698.498	123.28363
698.934	111.25952
699.371	70.16254
699.807	124.28553
700.243	89.21102
700.679	127.27563
701.115	109.24864
701.551	106.24087
701.987	64.1378
702.422	61.14385
702.858	129.29995
703.294	158.35086
703.729	93.22187
704.164	96.22458
704.599	133.28889
705.035	83.18297
705.47	85.2027
705.904	80.18208
706.339	134.29893
706.774	124.28291
707.209	126.28573
707.643	140.32533
708.078	88.20998
708.512	75.18507
708.946	83.19292
709.38	91.21201
709.814	71.15803
710.248	112.26765
710.682	108.25365
711.116	100.23861
711.549	57.14349
711.983	89.20146
712.416	122.28216
712.85	61.14881
713.283	90.20815
713.716	105.25414
714.149	55.12551
714.582	100.21957
715.015	70.16869
715.448	121.29704
715.881	67.14125
716.313	83.19002
716.746	133.3057
717.178	105.24655
717.61	151.37219
718.043	75.18173
718.475	89.21151
718.907	115.2796
719.339	99.21925
719.77	79.18572
720.202	16.03974
720.634	96.23056
721.065	76.17556
721.497	108.2578
721.928	99.23618
722.359	79.18876
722.79	89.20849
723.221	52.12707
723.652	76.1893
724.083	93.20407
724.514	155.34327
724.945	62.1426
725.375	71.16294
725.806	70.16914
726.236	124.30784
726.666	68.15721
727.096	82.19619
727.526	128.32066
727.956	71.15921
728.386	120.28557
728.816	78.19583
729.246	121.29043
729.675	36.08659
730.105	81.19361
730.534	56.12813
730.964	52.12744
731.393	85.20325
731.822	98.24436
732.251	86.21335
732.68	65.14725
733.109	72.17404
733.537	95.2269
733.966	87.21247
734.395	131.2929
734.823	67.14479
735.251	65.15299
735.68	64.15452
736.108	32.07881
736.536	74.16924
736.964	79.17868
737.392	103.25033
737.82	87.20229
738.247	84.19505
738.675	92.21015
739.102	67.16363
739.53	135.33667
739.957	109.27479
740.384	58.1367
740.811	44.10748
741.238	126.29961
741.665	125.28479
742.092	-2.00455
742.519	101.24427
742.945	93.22059
743.372	82.19918
743.798	51.12816
744.225	71.16398
744.651	81.19767
745.077	86.20905
745.503	69.16265
745.929	138.32309
746.355	58.13802
746.781	63.15133
747.207	77.17883
747.632	108.26105
748.058	137.3342
748.483	87.1946
748.908	87.21144
749.334	86.20693
749.759	118.27269
750.184	98.23007
750.609	99.23555
751.033	99.22382
751.458	131.28079
751.883	78.18704
752.307	86.19708
752.732	87.21744
753.156	72.17305
753.58	87.19925
754.005	62.15207
754.429	128.29357
754.853	122.29445
755.277	112.2579
755.7	127.30472
756.124	115.27719
756.548	90.20658
756.971	150.35187
757.394	61.15252
757.818	77.19412
758.241	108.26665
758.664	54.13367
759.087	97.21258
759.51	60.14459
759.933	62.14692
760.356	103.25873
760.778	79.18926
761.201	51.1205
761.623	27.06305
762.046	86.19479
762.468	135.31067
762.89	50.11926
763.312	83.19801
763.734	78.18333
764.156	81.19487
764.578	84.18553
765	118.27789
765.421	58.14515
765.843	59.15108
766.264	92.21083
766.686	28.06817
767.107	72.17002
767.528	111.27702
767.949	71.17565
768.37	82.19821
768.791	89.2067
769.212	76.18702
769.632	70.16003
770.053	43.11011
770.473	63.14788
770.894	59.14135
771.314	65.14899
771.734	112.25161
772.154	55.13702
772.575	97.21572
772.994	62.13648
773.414	71.16379
773.834	9.02205
774.254	78.18476
774.673	103.24422
775.093	44.1074
775.512	68.16375
775.931	63.15598
776.351	75.18228
776.77	59.14156
777.189	95.21836
777.607	57.1421
778.026	61.1482
778.445	53.1317
778.864	84.20625
779.282	59.13665
779.701	39.09567
780.119	36.08947
780.537	39.09486
780.955	68.16697
781.373	61.14659
781.791	88.19363
782.209	47.10296
782.627	43.11088
783.045	30.06654
783.462	50.12463
783.88	48.12159
784.297	55.13492
784.715	56.14105
785.132	4.00945
785.549	37.09029
785.966	43.10564
786.383	84.20136
786.8	95.21232
787.217	70.16267
787.633	63.15466
788.05	86.19249
788.466	81.18163
788.883	81.20237
789.299	46.10618
789.715	55.13061
790.131	83.19975
790.547	48.11642
790.963	47.11333
791.379	68.16703
791.795	58.12655
792.21	65.14593
792.626	29.06645
793.041	85.20208
793.457	36.08607
793.872	56.12632
794.287	76.17849
794.702	37.08719
795.117	63.15271
795.532	47.11572
795.947	53.12168
796.362	64.14431
796.776	42.09335
797.191	64.15213
797.605	62.14294
798.02	54.12722
798.434	71.15212
798.848	141.33663
799.262	32.07741
799.676	124.28918
800.09	61.14519
800.504	52.1216
800.918	-11.02471
801.331	31.07731
801.745	35.07748
802.158	22.05312
802.572	74.17305
802.985	98.22476
803.398	72.16487
803.811	2.00492
804.224	42.10003
804.637	82.1889
805.05	55.12196
805.462	103.24101
805.875	31.07868
806.288	68.15958
806.7	20.04845
807.112	7.01566
807.525	11.02602
807.937	45.10826
808.349	10.02426
808.761	45.10781
809.173	27.06394
809.584	30.07158
809.996	12.02861
810.408	47.11934
810.819	78.17667
811.231	100.25834
811.642	92.22036
812.053	107.25056
812.464	15.03458
812.875	72.17881
813.286	68.17103
813.697	17.03754
814.108	41.09646
814.519	95.20415
814.929	65.15957
815.34	61.14105
815.75	79.19545
816.16	32.07633
816.571	67.16758
816.981	33.07442
817.391	29.06719
817.801	23.05584
818.211	71.16215
818.62	26.06114
819.03	64.15066
819.44	4.01002
819.849	-3.0073
820.259	32.0786
820.668	29.06958
821.077	62.1502
821.486	-16.03714
821.895	17.04017
822.304	25.06437
822.713	95.21355
823.122	56.1346
823.531	-26.05937
823.939	45.10653
824.348	76.17612
824.756	41.09879
825.164	54.13048
825.573	37.09006
825.981	36.08587
826.389	49.11869
826.797	85.20844
827.205	59.13127
827.612	36.08544
828.02	14.03171
828.428	60.14727
828.835	59.15145
829.243	17.03897
829.65	63.15231
830.057	48.11172
830.464	66.15682
830.871	109.24974
831.278	19.04458
831.685	78.1652
832.092	34.07963
832.499	73.15336
832.905	57.13817
833.312	17.03672
833.718	73.17622
834.124	69.15141
834.531	54.12989
834.937	88.21767
835.343	65.14917
835.749	44.0973
836.155	25.06366
836.561	36.08577
836.966	41.09635
837.372	38.0931
837.777	48.11594
838.183	90.18895
838.588	67.16119
838.993	77.17982
839.399	53.12552
839.804	32.07565
840.209	29.07256
840.613	68.14415
841.018	50.1215
841.423	31.0772
841.828	61.14953
842.232	15.03537
842.637	49.11258
843.041	40.09985
843.445	39.09379
843.849	4.00968
844.253	38.08673
844.657	50.12245
845.061	76.16786
845.465	18.04216
845.869	42.09389
846.272	45.10633
846.676	23.05278
847.079	37.09191
847.483	73.17422
847.886	66.15246
848.289	65.16999
848.692	43.10443
849.095	20.04626
849.498	45.10834
849.901	28.0613
850.304	60.13739
850.707	53.12982
851.109	32.07787
851.512	96.22599
851.914	27.0665
852.316	101.24721
852.718	80.20417
853.121	21.04989
853.523	10.02246
853.925	20.05131
854.326	90.21705
854.728	2.00503
855.13	23.05825
855.531	2.00466
855.933	23.05278
856.334	65.15726
856.736	64.13851
857.137	78.17494
857.538	52.12711
857.939	38.09213
858.34	49.11358
858.741	14.03546
859.142	26.05997
859.542	48.12353
859.943	25.0601
860.343	50.12027
860.744	33.0777
861.144	89.20947
861.544	46.10812
861.945	55.13492
862.345	24.05645
862.745	80.19206
863.145	41.09235
863.544	55.13442
863.944	70.1581
864.344	-4.00953
864.743	59.14043
865.143	43.10782
865.542	-16.03558
865.941	62.14811
866.34	75.16928
866.74	58.15072
867.139	82.19048
867.537	35.08522
867.936	57.13238
868.335	18.04431
868.734	25.06208
869.132	20.04423
869.531	47.10786
869.929	61.13374
870.327	46.10605
870.726	48.11396
871.124	52.11548
871.522	11.02711
871.92	58.13749
872.318	-1.00236
872.715	34.07992
873.113	19.04451
873.511	36.08626
873.908	77.18994
874.306	37.08969
874.703	2.00481
875.1	-26.06403
875.497	48.11009
875.894	52.12508
876.291	61.14408
876.688	26.06511
877.085	95.21521
877.482	26.06292
877.878	83.19368
878.275	15.0371
878.671	-2.00416
879.068	43.09979
879.464	66.15271
879.86	38.08645
880.256	-10.0236
880.652	5.01236
881.048	9.02137
881.444	44.09901
881.84	40.098
882.236	47.11371
882.631	107.25135
883.027	46.10656
883.422	-26.06455
883.817	22.05402
884.213	58.14341
884.608	80.19221
885.003	2.00463
885.398	27.06545
885.793	22.0532
886.188	-18.04354
886.582	41.1005
886.977	39.08832
887.371	48.11607
887.766	26.06297
888.16	50.11784
888.554	62.1459
888.949	46.11119
889.343	38.08886
889.737	26.06801
890.131	26.06311
890.525	57.14143
890.918	8.01952
891.312	36.08194
891.706	6.01528
892.099	45.11002
892.492	51.10412
892.886	47.11028
893.279	41.10054
893.672	30.07445
894.065	76.18253
894.458	11.02653
894.851	69.16057
895.244	37.09124
895.637	72.16646
896.029	50.11835
896.422	16.0373
896.814	12.0288
897.206	57.13212
897.599	87.20509
897.991	43.10073
898.383	57.12934
898.775	77.16754
899.167	46.10465
899.559	43.10392
899.951	36.08074
900.342	2.00489
900.734	116.28081
901.125	5.01267
901.517	58.13696
901.908	70.15771
902.299	66.15519
902.69	73.16612
903.082	45.10476
903.473	95.22028
903.863	3.00739
904.254	90.20119
904.645	40.09449
905.036	61.14475
905.426	50.10766
905.817	16.0377
906.207	-44.10124
906.597	45.10215
906.987	39.09677
907.378	66.16128
907.768	32.0823
908.158	33.07734
908.547	42.10643
908.937	33.08074
909.327	43.10014
909.717	27.0651
910.106	25.0576
910.495	12.02866
910.885	46.11261
911.274	18.04346
911.663	42.10175
912.052	45.10542
912.441	46.11374
912.83	27.0591
913.219	64.16051
913.608	54.12757
913.997	23.05638
914.385	52.11912
914.774	48.11198
915.162	71.16372
915.55	79.18079
915.939	58.14199
916.327	-8.01924
916.715	76.18888
917.103	14.0327
917.491	38.09019
917.878	31.07328
918.266	23.05753
918.654	63.15609
919.041	47.12018
919.429	20.0455
919.816	53.12905
920.203	86.20103
920.591	48.11475
920.978	102.2374
921.365	32.08167
921.752	-21.04786
922.139	103.21075
922.525	33.07667
922.912	67.15567
923.299	25.06014
923.685	24.06008
924.072	4.00867
924.458	37.08881
924.844	37.0883
925.231	45.09933
925.617	51.12645
926.003	35.08608
926.389	34.08274
926.774	54.13107
927.16	52.12379
927.546	65.16228
927.931	41.09781
928.317	54.11787
928.702	39.0881
929.088	93.21428
929.473	68.16758
929.858	76.17912
930.243	67.1556
930.628	47.11118
931.013	94.22249
931.398	41.0886
931.783	3.0076
932.167	52.12351
932.552	27.0651
932.937	61.14419
933.321	51.12427
933.705	-31.0754
934.09	28.06681
934.474	27.06104
934.858	16.04037
935.242	16.0356
935.626	67.1657
936.009	42.10929
936.393	68.16863
936.777	43.10697
937.16	24.06106
937.544	31.06894
937.927	49.12051
938.311	26.06071
938.694	76.19382
939.077	46.10567
939.46	18.04166
939.843	77.14755
940.226	8.0198
940.609	55.12232
940.991	10.02452
941.374	47.11118
941.757	71.16678
942.139	24.05203
942.522	58.13008
942.904	60.13811
943.286	48.11694
943.668	90.22579
944.05	70.16517
944.432	11.02615
944.814	43.10069
945.196	52.12279
945.578	69.15968
945.959	70.15454
946.341	18.04178
946.722	48.10717
947.104	66.15082
947.485	70.15532
947.866	66.16104
948.247	53.13002
948.628	-22.0511
949.009	13.03229
949.39	30.0715
949.771	2.00438
950.152	33.07815
950.532	36.08797
950.913	56.12911
951.293	49.12932
951.674	44.10221
952.054	72.17436
952.434	45.10768
952.814	15.03398
953.194	6.01504
953.574	59.13849
953.954	25.05647
954.334	46.11144
954.714	21.0497
955.093	74.17373
955.473	34.08302
955.853	18.04521
956.232	61.16121
956.611	25.05689
956.99	65.15744
957.37	35.08545
957.749	-11.025
958.128	-6.0148
958.506	34.08549
958.885	52.12565
959.264	70.16652
959.643	79.17204
960.021	40.09621
960.4	13.02831
960.778	5.01173
961.156	-1.00242
961.535	56.12322
961.913	91.20338
962.291	54.13528
962.669	39.09585
963.047	27.06704
963.424	88.21799
963.802	50.11839
964.18	39.09336
964.557	8.01765
964.935	43.09753
965.312	26.066
965.69	43.10251
966.067	2.00466
966.444	1.00234
966.821	48.11943
967.198	17.03926
967.575	51.11933
967.952	69.15441
968.329	66.15471
968.705	104.2113
969.082	83.20699
969.458	29.06804
969.835	71.16502
970.211	51.12756
970.587	95.22586
970.963	19.04673
971.339	14.03568
971.715	92.21952
972.091	35.08286
972.467	20.04741
972.843	120.28611
973.219	106.23823
973.594	26.06591
973.97	-15.03362
974.345	46.10614
974.721	8.01841
975.096	42.09853
975.471	45.10178
975.846	15.03448
976.221	32.0786
976.596	101.2341
976.971	88.20877
977.346	59.12979
977.72	11.027
978.095	59.1465
978.469	63.14284
978.844	34.08181
979.218	56.13075
979.593	79.17919
979.967	-29.06738
980.341	58.1281
980.715	38.09255
981.089	38.09151
981.463	33.07266
981.837	41.09763
982.21	-39.08572
982.584	41.0956
982.957	51.12325
983.331	15.03359
983.704	108.25543
984.078	34.08051
984.451	27.06357
984.824	32.0756
985.197	-8.01852
985.57	-13.03114
985.943	24.05599
986.316	61.14077
986.688	22.05098
987.061	116.2576
987.434	88.22276
987.806	-3.00693
988.179	-16.03643
988.551	5.01223
988.923	16.0378
989.295	25.05989
989.667	71.16463
990.039	83.19938
990.411	-4.00874
990.783	2.00437
991.155	2.00468
991.527	61.14061
991.898	44.10603
992.27	57.13671
992.641	65.15501
993.012	-2.00442
993.384	41.09322
993.755	52.12834
994.126	55.12789
994.497	46.10846
994.868	2.00437
995.239	15.03495
995.61	21.05113
995.98	32.07463
996.351	21.05062
996.722	51.11455
997.092	10.02299
997.462	41.09307
997.833	30.06759
998.203	19.04366
998.573	12.02904
998.943	59.1329
999.313	69.15885
999.683	49.11313
1000.053	-1.00216
1000.423	21.04875
1000.792	4.00994
1001.162	15.03537
1001.531	45.10678
1001.901	62.14715
1002.27	4.00841
1002.639	1.00246
1003.009	31.0706
1003.378	30.07423
1003.747	40.08986
1004.116	6.01383
1004.485	43.0984
1004.853	-5.01211
1005.222	-13.03123
1005.591	56.12648
1005.959	15.03265
1006.328	32.06926
1006.696	35.08068
1007.064	-5.01207
1007.433	24.05733
1007.801	15.03485
1008.169	21.05062
1008.537	74.15488
1008.905	30.06762
1009.273	25.05898
1009.64	24.0559
1010.008	21.04804
1010.375	26.05951
1010.743	-10.02154
1011.11	59.13621
1011.478	75.17865
1011.845	11.02475
1012.212	50.10937
1012.579	36.08514
1012.946	57.12782
1013.313	3.00682
1013.68	18.03854
1014.047	29.06637
1014.414	52.11711
1014.78	74.17651
1015.147	45.10281
1015.513	35.08096
1015.88	35.08554
1016.246	14.03288
1016.612	72.15483
1016.978	36.08541
1017.344	30.07156
1017.71	72.16606
1018.076	35.07813
1018.442	62.15364
1018.808	50.12127
1019.174	-16.03875
1019.539	3.00634
1019.905	49.11119
1020.27	29.06873
1020.636	71.1596
1021.001	111.25207
1021.366	65.14977
1021.731	83.20722
1022.096	26.06398
1022.461	55.1247
1022.826	67.15314
1023.191	31.07868
1023.556	36.08028
1023.92	36.08412
1024.285	40.09251
1024.649	37.08644
1025.014	14.03303
1025.378	30.07323
1025.742	30.07101
1026.107	73.1558
1026.471	70.15409
1026.835	60.14235
1027.199	41.09488
1027.562	4.00885
1027.926	44.10241
1028.29	5.01227
1028.654	38.08312
1029.017	66.15549
1029.381	38.0874
1029.744	37.091
1030.107	89.19949
1030.471	63.14481
1030.834	-11.02371
1031.197	78.17839
1031.56	38.0853
1031.923	44.10983
1032.286	93.20657
1032.648	16.03624
1033.011	46.10245
1033.374	50.11076
1033.736	-1.00256
1034.099	66.15374
1034.461	37.09083
1034.823	0
1035.185	-19.04602
1035.548	28.06589
1035.91	87.19725
1036.272	53.11561
1036.634	47.11006
1036.995	23.05143
1037.357	16.03775
1037.719	56.13049
1038.08	68.15521
1038.442	13.02964
1038.803	1.00228
1039.165	18.04362
1039.526	22.05121
1039.887	23.05282
1040.248	62.1489
1040.609	21.04939
1040.97	22.05157
1041.331	77.18777
1041.692	80.1809
1042.053	32.06914
1042.413	50.11029
1042.774	87.20157
1043.134	18.04059
1043.495	66.15863
1043.855	90.20989
1044.215	10.02382
1044.576	32.07404
1044.936	61.13199
1045.296	53.12668
1045.656	0
1046.016	7.01619
1046.375	68.15727
1046.735	71.15586
1047.095	36.08071
1047.454	34.06753
1047.814	24.05553
1048.173	20.04517
1048.533	33.07229
1048.892	19.04413
1049.251	26.06235
1049.61	35.08292
1049.969	55.12318
1050.328	51.10487
1050.687	32.07422
1051.046	21.04898
1051.405	-17.04062
1051.763	54.11982
1052.122	36.08616
1052.48	25.05921
1052.839	88.19988
1053.197	17.0384
1053.555	42.08903
1053.914	9.02116
1054.272	31.0702
1054.63	40.09413
1054.988	25.05767
1055.345	27.05449
1055.703	65.14947
1056.061	78.19442
1056.419	72.18181
1056.776	-14.03226
1057.134	-21.0461
1057.491	44.10587
1057.848	36.08554
1058.206	-15.03351
1058.563	47.09813
1058.92	22.04833
1059.277	37.08763
1059.634	37.08194
1059.991	90.20501
1060.348	31.06731
1060.704	65.15144
1061.061	47.10187
1061.418	50.11624
1061.774	0
1062.131	61.15778
1062.487	-2.00448
1062.843	55.13121
1063.199	48.11458
1063.555	40.08953
1063.911	11.02666
1064.267	51.09867
1064.623	45.10608
1064.979	-13.02859
1065.335	67.15086
1065.691	-29.06634
1066.046	58.12042
1066.402	7.01516
1066.757	20.04876
1067.112	59.13762
1067.468	36.0827
1067.823	-31.07074
1068.178	43.0988
1068.533	36.08366
1068.888	38.08638
1069.243	-2.00478
1069.598	-9.021
1069.952	59.12941
1070.307	19.04562
1070.662	66.15143
1071.016	68.14686
1071.371	84.1818
1071.725	36.08161
1072.079	46.10614
1072.434	2.00472
1072.788	59.13186
1073.142	82.19221
1073.496	9.0205
1073.85	41.09054
1074.203	19.04442
1074.557	76.19661
1074.911	17.03867
1075.265	25.05562
1075.618	88.20434
1075.971	33.07509
1076.325	31.07661
1076.678	28.06135
1077.031	-11.02344
1077.385	62.12861
1077.738	41.08792
1078.091	22.04845
1078.444	55.11982
1078.796	56.13239
1079.149	53.12659
1079.502	55.125
1079.855	-14.03161
1080.207	56.13137
1080.56	42.10533
1080.912	66.15283
1081.264	55.12713
1081.617	33.07758
1081.969	19.04661
1082.321	36.08399
1082.673	23.05121
1083.025	34.0767
1083.377	21.04732
1083.728	40.08857
1084.08	-5.012
1084.432	37.08512
1084.783	-4.00883
1085.135	13.03164
1085.486	47.10326
1085.838	57.13484
1086.189	85.19803
1086.54	18.0411
1086.891	52.12891
1087.242	76.17968
1087.593	31.0712
1087.944	94.20275
1088.295	56.12053
1088.646	103.24148
1088.996	76.17549
1089.347	39.09115
1089.698	50.11435
1090.048	37.09201
1090.398	-10.0222
1090.749	-5.01143
1091.099	47.11513
1091.449	29.06987
1091.799	57.13661
1092.149	35.08334
1092.499	24.05634
1092.849	15.03693
1093.199	54.12836
1093.548	91.21001
1093.898	42.10045
1094.248	4.00985
1094.597	39.0973
1094.947	48.12388
1095.296	61.14497
1095.645	64.15894
1095.994	37.08515
1096.343	61.14764
1096.692	81.2077
1097.041	38.10135
1097.39	22.05286
1097.739	47.11751
1098.088	37.09508
1098.437	19.04916
1098.785	47.12128
1099.134	4.01014
1099.482	54.14417
1099.83	39.09899
1100.179	82.2092
1100.527	-9.02301
1100.875	51.13114
1101.223	48.12396
1101.571	-13.03499
1101.919	66.16986
1102.267	39.10769
1102.615	-4.01286
1102.962	2.00642
1103.31	2.00642
1103.658	-1.00321
