Data from N3 R3 sample 6_Subt2__3__11-04-34-817.txt Node

Date: Thu Sep 18 11:04:34 PDT 2025
User: uwsun
Spectrometer: HDX01956
Trigger mode: 0
Integration Time (sec): 5.000000E-1
Scans to average: 1
Nonlinearity correction enabled: true
Boxcar width: 0
Storing dark spectrum: false
XAxis mode: Wavelengths
Number of Pixels in Spectrum: 2068
>>>>>Begin Spectral Data<<<<<
194.03	42.12119
194.578	40.12945
195.127	48.15301
195.676	63.20119
196.225	42.11139
196.773	65.17983
197.321	76.21029
197.87	157.40031
198.418	173.44312
198.966	201.524
199.513	172.43507
200.061	162.41022
200.609	152.39999
201.156	163.35571
201.704	143.35985
202.251	167.44176
202.798	137.35521
203.345	210.51408
203.892	164.41306
204.438	166.39214
204.985	163.38617
205.532	150.39366
206.078	155.37769
206.624	223.55227
207.17	235.5423
207.716	194.47209
208.262	218.42593
208.808	194.48371
209.354	192.47141
209.899	165.41357
210.445	154.38496
210.99	175.4253
211.535	230.53403
212.08	186.42863
212.625	186.4609
213.17	195.49263
213.715	219.49409
214.259	168.39101
214.804	192.46618
215.348	181.4162
215.892	209.50183
216.436	207.46626
216.98	156.34152
217.524	168.40025
218.068	224.55708
218.612	235.58794
219.155	204.47667
219.698	198.46573
220.242	116.28693
220.785	208.48219
221.328	147.36193
221.871	182.45971
222.414	180.44048
222.956	115.27551
223.499	152.33698
224.041	145.32968
224.583	156.32635
225.126	114.25052
225.668	179.42997
226.21	192.47994
226.751	158.34984
227.293	187.4169
227.835	163.39629
228.376	163.367
228.918	145.35872
229.459	147.36473
230	235.55222
230.541	227.51046
231.082	144.34898
231.622	115.25999
232.163	160.38236
232.704	200.49323
233.244	172.42216
233.784	187.44645
234.324	229.50461
234.864	138.31027
235.404	134.31397
235.944	148.34596
236.484	198.4865
237.023	182.42309
237.563	159.36678
238.102	158.37049
238.641	147.36673
239.18	126.29534
239.719	164.40654
240.258	146.32597
240.797	197.46329
241.335	157.37827
241.874	194.3722
242.412	271.63977
242.95	183.43707
243.488	127.28431
244.026	171.39399
244.564	174.35417
245.102	225.49953
245.64	160.37826
246.177	158.3478
246.715	205.48417
247.252	190.42437
247.789	258.46228
248.326	158.37801
248.863	198.42907
249.4	165.37044
249.936	230.47135
250.473	241.5568
251.009	155.35213
251.546	230.50288
252.082	186.39566
252.618	213.46758
253.154	234.55083
253.69	157.34929
254.226	185.43744
254.761	199.43942
255.297	160.34643
255.832	208.48639
256.367	198.45792
256.903	217.47355
257.438	189.43667
257.972	163.35978
258.507	127.29075
259.042	211.4505
259.576	222.4821
260.111	188.42545
260.645	153.32837
261.179	233.53404
261.713	191.42193
262.247	172.3883
262.781	210.43484
263.315	185.44252
263.849	174.43117
264.382	201.45404
264.915	197.45968
265.449	131.31897
265.982	175.39321
266.515	215.518
267.048	197.4113
267.58	205.43408
268.113	194.4134
268.646	157.38099
269.178	149.33108
269.71	231.50026
270.243	222.50485
270.775	232.58368
271.307	157.37009
271.838	180.41977
272.37	181.43807
272.902	206.4584
273.433	223.48499
273.965	216.51498
274.496	220.53455
275.027	228.55648
275.558	231.55254
276.089	209.514
276.62	190.47219
277.15	210.5072
277.681	232.48749
278.211	223.53279
278.741	320.68276
279.272	191.43163
279.802	233.56709
280.332	176.41157
280.861	159.37713
281.391	211.47137
281.921	154.36549
282.45	183.44807
282.98	212.54329
283.509	256.568
284.038	247.55202
284.567	227.51841
285.096	284.66851
285.625	143.32052
286.153	248.57946
286.682	209.47288
287.21	174.40992
287.739	241.55658
288.267	203.48742
288.795	202.51966
289.323	236.54298
289.851	250.57472
290.378	193.42439
290.906	199.48072
291.433	214.52465
291.961	203.45762
292.488	199.48652
293.015	213.49525
293.542	267.66991
294.069	280.67496
294.596	237.56667
295.122	244.57303
295.649	248.52938
296.175	242.56944
296.702	276.657
297.228	184.43802
297.754	203.4505
298.28	211.47876
298.806	238.56199
299.332	264.57623
299.857	214.47916
300.383	259.63554
300.908	281.67237
301.433	249.59763
301.958	232.5216
302.483	253.61254
303.008	280.67802
303.533	205.52121
304.058	204.4688
304.582	245.56695
305.107	209.53607
305.631	251.55609
306.155	274.62157
306.679	267.6127
307.203	209.47884
307.727	249.57757
308.251	238.57612
308.775	311.73305
309.298	223.52933
309.822	230.56742
310.345	247.57883
310.868	277.65115
311.391	261.62809
311.914	258.63227
312.437	285.63352
312.96	262.60327
313.482	240.55306
314.005	213.52384
314.527	226.57754
315.049	269.66495
315.571	272.59771
316.093	285.68714
316.615	226.53345
317.137	287.60824
317.659	337.78629
318.18	273.63399
318.702	335.757
319.223	257.51226
319.744	330.71661
320.265	313.73919
320.786	320.77456
321.307	288.6924
321.828	311.67953
322.348	317.72217
322.869	342.78555
323.389	329.62253
323.909	313.69228
324.43	348.79965
324.95	292.65056
325.47	355.84744
325.989	317.72887
326.509	388.82963
327.029	352.77381
327.548	336.73461
328.067	371.86424
328.587	423.00674
329.106	367.79203
329.625	376.93871
330.144	390.86669
330.662	406.9086
331.181	392.88414
331.7	381.84687
332.218	452.92293
332.736	425.94426
333.255	413.92598
333.773	414.92956
334.291	462.08942
334.808	410.87969
335.326	406.86811
335.844	439.979
336.361	492.19027
336.879	456.01215
337.396	519.1787
337.913	462.00465
338.43	489.03077
338.947	460.03585
339.464	475.96131
339.981	467.04155
340.497	521.19328
341.014	485.10937
341.53	478.01041
342.046	548.27201
342.562	477.1181
343.078	518.13572
343.594	484.07931
344.11	573.26572
344.626	527.24125
345.141	521.10893
345.657	563.17404
346.172	545.22032
346.687	480.03325
347.202	581.22022
347.717	588.28889
348.232	573.31884
348.747	558.19116
349.261	605.21258
349.776	647.39781
350.29	567.31539
350.805	647.45494
351.319	631.33412
351.833	613.28979
352.347	631.35798
352.861	622.33256
353.374	606.25854
353.888	658.46187
354.401	651.34041
354.915	626.28857
355.428	688.55005
355.941	639.35223
356.454	631.27352
356.967	632.34061
357.48	644.32211
357.993	689.52858
358.505	622.38181
359.018	730.60049
359.53	746.62461
360.042	681.37082
360.554	755.64596
361.066	693.51835
361.578	753.47008
362.09	714.52134
362.602	705.40552
363.113	750.56907
363.625	779.55686
364.136	761.47168
364.647	771.61838
365.158	742.53521
365.669	788.65882
366.18	814.67683
366.691	787.50824
367.201	836.74839
367.712	867.71377
368.222	850.69776
368.733	797.51274
369.243	915.74217
369.753	838.6784
370.263	865.81426
370.773	858.81498
371.282	910.86638
371.792	927.83166
372.301	865.81187
372.811	965.17019
373.32	956.73816
373.829	993.9668
374.338	1043.90965
374.847	1025.96894
375.356	1055.05818
375.865	1117.92789
376.373	1095.03185
376.882	1127.35
377.39	1232.3687
377.898	1191.36234
378.407	1335.32768
378.915	1431.32479
379.423	1406.47576
379.93	1502.58025
380.438	1421.59355
380.946	1608.68796
381.453	1612.80108
381.96	1670.84063
382.468	1777.87795
382.975	2028.24448
383.482	1923.79453
383.989	2050.48493
384.495	2126.08673
385.002	2128.64617
385.509	2294.27271
386.015	2453.62163
386.521	2594.12736
387.028	2730.13309
387.534	2746.82745
388.04	2851.46455
388.546	2857.98298
389.051	3032.95266
389.557	3321.1864
390.063	3543.9715
390.568	3644.33553
391.073	3683.81337
391.578	3941.33402
392.084	4140.75812
392.589	4085.46519
393.093	4468.92424
393.598	4905.39722
394.103	5351.38698
394.607	5905.19569
395.112	6193.22905
395.616	6803.00731
396.12	7325.74032
396.624	7939.20138
397.128	8587.92487
397.632	9489.46277
398.136	10366.94085
398.639	11027.34981
399.143	12216.82657
399.646	13958.24703
400.15	15225.91838
400.653	16954.01255
401.156	19111.78316
401.659	22484.66144
402.162	27094.29086
402.664	36123.02913
403.167	51136.42493
403.67	61881.34076
404.172	63919.58413
404.674	63858.43483
405.176	63738.15102
405.678	63977.72923
406.18	64011.81569
406.682	63863.44694
407.184	63926.60148
407.686	63841.39382
408.187	64025.8516
408.688	63892.51763
409.19	63317.27542
409.691	51477.08947
410.192	43201.37308
410.693	37777.27477
411.194	34168.62723
411.694	32531.57871
412.195	30016.38957
412.696	27134.51509
413.196	25337.35501
413.696	24647.37438
414.196	25316.87468
414.696	24718.46988
415.196	23554.486
415.696	21337.33262
416.196	17229.77339
416.695	13183.44359
417.195	11478.24976
417.694	10900.33082
418.194	10166.47345
418.693	9467.40472
419.192	9163.78574
419.691	8979.43041
420.19	8802.20996
420.688	8571.95555
421.187	8251.10834
421.685	7662.95957
422.184	6977.83518
422.682	5972.52632
423.18	5117.26877
423.678	4542.54647
424.176	4101.76302
424.674	3939.6727
425.172	3781.08703
425.669	3483.45951
426.167	3335.13705
426.664	3189.03065
427.161	2834.13065
427.659	2609.39831
428.156	2526.73067
428.652	2313.49946
429.149	2218.25642
429.646	2111.8195
430.143	2027.08557
430.639	1929.97061
431.135	1774.06915
431.632	1650.6148
432.128	1658.80061
432.624	1509.90607
433.12	1408.37571
433.616	1470.3178
434.111	1379.46505
434.607	1339.4409
435.103	1307.0312
435.598	1275.98439
436.093	1238.23408
436.588	1126.00551
437.083	1097.95847
437.578	1064.99166
438.073	997.07588
438.568	1048.11433
439.062	930.63957
439.557	923.80334
440.051	805.54577
440.546	859.64804
441.04	837.71924
441.534	817.77744
442.028	841.73134
442.522	769.60142
443.015	749.38006
443.509	786.65388
444.002	777.64889
444.496	670.27409
444.989	691.47897
445.482	709.54561
445.975	746.49599
446.468	761.41273
446.961	666.26954
447.454	605.21035
447.947	652.38188
448.439	656.43087
448.931	703.41127
449.424	673.52271
449.916	640.39181
450.408	652.31748
450.9	604.31622
451.392	639.451
451.884	623.27289
452.375	550.23633
452.867	547.10929
453.358	571.17598
453.849	565.08164
454.341	536.09512
454.832	538.0475
455.323	578.30042
455.814	527.09301
456.304	539.12889
456.795	509.05796
457.285	520.03641
457.776	524.08266
458.266	513.10938
458.756	446.97464
459.247	512.11641
459.737	505.1167
460.226	560.14838
460.716	451.99702
461.206	454.00144
461.695	440.00687
462.185	466.01723
462.674	427.9049
463.163	453.93609
463.653	475.92391
464.142	409.92455
464.63	430.96705
465.119	401.86947
465.608	457.98707
466.096	387.78286
466.585	403.85666
467.073	361.80043
467.561	396.88696
468.05	369.79634
468.538	399.91002
469.026	354.78997
469.513	320.63798
470.001	378.81244
470.489	381.84793
470.976	405.88114
471.463	334.78679
471.951	363.84827
472.438	303.67632
472.925	307.68666
473.412	317.72916
473.899	306.6662
474.385	329.7622
474.872	306.67751
475.359	309.72211
475.845	268.53008
476.331	279.56594
476.817	294.68153
477.303	309.68144
477.789	222.51057
478.275	271.64374
478.761	244.55689
479.247	285.60532
479.732	268.64066
480.218	284.71191
480.703	224.53283
481.188	245.50947
481.673	235.52043
482.158	186.39135
482.643	269.65861
483.128	295.65493
483.612	280.6375
484.097	187.4384
484.581	221.49392
485.066	265.62221
485.55	239.50873
486.034	213.44668
486.518	277.63411
487.002	195.46019
487.486	204.47984
487.969	155.3685
488.453	162.39378
488.936	216.47007
489.42	234.49841
489.903	175.42435
490.386	159.3215
490.869	251.52776
491.352	154.36252
491.835	157.31425
492.318	140.30895
492.8	180.36304
493.283	179.44526
493.765	156.37422
494.247	195.44067
494.73	187.40255
495.212	171.39525
495.694	146.33766
496.175	165.38759
496.657	181.41736
497.139	100.17023
497.62	197.46022
498.102	186.45076
498.583	125.30197
499.064	185.40133
499.545	158.35232
500.026	125.27879
500.507	141.31864
500.988	185.45028
501.469	119.29213
501.949	169.40733
502.43	156.36823
502.91	195.40188
503.39	128.31207
503.87	155.35898
504.35	147.33707
504.83	136.29233
505.31	131.31048
505.79	105.2453
506.269	127.28689
506.749	90.20401
507.228	93.2171
507.707	168.36624
508.187	165.38547
508.666	141.34319
509.145	77.17911
509.623	125.28835
510.102	111.26521
510.581	96.22951
511.059	153.37754
511.538	136.34463
512.016	119.28139
512.494	76.18162
512.972	128.30191
513.45	98.22656
513.928	111.26673
514.406	135.32576
514.884	121.30776
515.361	140.32931
515.839	149.33686
516.316	164.39012
516.793	118.2939
517.27	70.16767
517.747	97.24663
518.224	109.24833
518.701	74.16296
519.178	112.27703
519.654	125.2918
520.131	121.29572
520.607	54.13176
521.083	74.16699
521.56	81.18983
522.036	104.22422
522.512	137.33283
522.987	147.34786
523.463	92.21641
523.939	125.30607
524.414	90.20451
524.89	126.2965
525.365	38.08617
525.84	117.27784
526.315	101.24243
526.79	121.26943
527.265	125.28502
527.74	60.14536
528.215	60.13976
528.689	43.09456
529.164	51.10955
529.638	51.12912
530.112	95.22159
530.587	84.17892
531.061	90.21631
531.534	90.21533
532.008	114.2741
532.482	123.27898
532.956	48.12241
533.429	175.4186
533.903	95.20662
534.376	72.15876
534.849	22.05092
535.322	85.19936
535.795	42.1016
536.268	81.19509
536.741	78.18426
537.213	68.15596
537.686	94.22824
538.158	104.2345
538.631	100.24007
539.103	88.19769
539.575	43.08894
540.047	82.178
540.519	120.28315
540.991	84.20365
541.463	67.16076
541.934	77.17337
542.406	86.20552
542.877	103.23049
543.348	116.277
543.82	78.18882
544.291	86.19977
544.762	121.28468
545.233	114.2859
545.703	72.16002
546.174	93.21436
546.645	57.13801
547.115	94.2255
547.585	85.19467
548.056	137.33233
548.526	119.27964
548.996	92.21868
549.466	75.1818
549.935	119.2815
550.405	121.26316
550.875	137.32094
551.344	77.18313
551.814	102.23225
552.283	153.32851
552.752	90.21022
553.221	122.26697
553.69	168.37276
554.159	143.35105
554.628	141.31565
555.096	127.31948
555.565	74.16371
556.033	140.32957
556.502	35.08497
556.97	94.20848
557.438	83.19436
557.906	93.21846
558.374	115.26454
558.842	67.16058
559.31	62.13923
559.777	89.21671
560.245	14.03248
560.712	63.14452
561.18	76.16828
561.647	52.11586
562.114	48.11057
562.581	50.12336
563.048	42.09679
563.514	115.28596
563.981	61.14004
564.448	81.18283
564.914	55.12809
565.381	101.22955
565.847	44.10298
566.313	22.05151
566.779	75.16873
567.245	70.16203
567.711	51.12242
568.176	48.10828
568.642	76.19081
569.108	35.08646
569.573	59.13675
570.038	76.15899
570.504	54.12251
570.969	-9.02258
571.434	68.15126
571.899	69.16348
572.363	108.24591
572.828	91.20841
573.293	101.23011
573.757	102.23534
574.222	65.14599
574.686	120.27345
575.15	89.21338
575.614	122.2853
576.078	84.19659
576.542	63.14388
577.006	106.23803
577.469	103.25136
577.933	134.30177
578.396	56.13306
578.86	89.20866
579.323	112.26765
579.786	139.29781
580.249	142.33011
580.712	90.21771
581.175	83.20376
581.637	63.144
582.1	78.16997
582.563	137.28743
583.025	65.15815
583.487	146.2965
583.95	80.17144
584.412	160.33042
584.874	188.44789
585.336	172.39985
585.797	147.31522
586.259	152.34986
586.721	131.30364
587.182	177.39934
587.643	198.43859
588.105	179.41374
588.566	196.3984
589.027	234.55511
589.488	215.47952
589.949	257.60155
590.41	274.51935
590.87	287.62895
591.331	342.70626
591.791	291.6447
592.252	308.68421
592.712	314.71663
593.172	344.74001
593.632	426.87892
594.092	403.83726
594.552	399.80565
595.011	375.80652
595.471	508.0486
595.931	509.04573
596.39	482.06332
596.849	585.22161
597.308	576.0929
597.768	695.58908
598.227	628.34428
598.685	720.42384
599.144	757.54288
599.603	782.569
600.062	845.48199
600.52	930.73269
600.978	956.86482
601.437	1030.88532
601.895	1137.88378
602.353	1146.95146
602.811	1229.1174
603.269	1198.22084
603.727	1381.47619
604.184	1429.36543
604.642	1459.64589
605.099	1523.54004
605.557	1606.76442
606.014	1704.41342
606.471	1791.07055
606.928	1923.66959
607.385	1990.23073
607.842	2038.86045
608.299	2169.01154
608.755	2270.23361
609.212	2222.82231
609.668	2411.93387
610.125	2482.28849
610.581	2593.16632
611.037	2536.92047
611.493	2548.13108
611.949	2693.40595
612.405	2754.47015
612.861	2865.08249
613.316	2846.32251
613.772	2908.061
614.227	2951.34874
614.683	2929.63775
615.138	2932.19528
615.593	2963.1326
616.048	2975.04855
616.503	2926.40337
616.958	3028.61075
617.412	2951.26931
617.867	2994.92102
618.321	2956.49468
618.776	2908.83749
619.23	2891.18333
619.684	2877.9063
620.138	2902.04476
620.592	2805.3842
621.046	2826.23234
621.5	2761.33018
621.954	2710.85544
622.407	2662.85311
622.861	2583.34541
623.314	2560.96035
623.768	2538.18242
624.221	2490.30794
624.674	2414.03242
625.127	2421.06523
625.58	2369.87649
626.033	2328.74111
626.485	2326.17657
626.938	2238.11679
627.39	2267.03972
627.843	2316.9877
628.295	2229.95493
628.747	2229.11843
629.199	2140.85841
629.651	2189.91161
630.103	2141.89221
630.555	2158.53085
631.006	2054.90676
631.458	2126.99989
631.909	2091.7595
632.361	2104.89661
632.812	2124.923
633.263	2189.66415
633.714	2163.54883
634.165	2164.10531
634.616	2216.06223
635.067	2232.73842
635.518	2259.09499
635.968	2235.26557
636.419	2239.7065
636.869	2294.10379
637.319	2326.01664
637.769	2378.87886
638.219	2419.12849
638.669	2521.19745
639.119	2530.23405
639.569	2517.24556
640.019	2641.06718
640.468	2701.91236
640.918	2750.22355
641.367	2777.90587
641.816	2832.86683
642.265	2967.13961
642.714	3016.03109
643.163	3130.0694
643.612	3195.43893
644.061	3144.61983
644.51	3229.00343
644.958	3362.74491
645.406	3325.24776
645.855	3412.33534
646.303	3464.99274
646.751	3639.95006
647.199	3559.83968
647.647	3630.97467
648.095	3587.86695
648.543	3713.12283
648.99	3746.16917
649.438	3700.91717
649.885	3707.45587
650.333	3687.90639
650.78	3762.2052
651.227	3722.31099
651.674	3719.8263
652.121	3766.31582
652.568	3763.3056
653.015	3699.39381
653.461	3716.10251
653.908	3581.91137
654.354	3555.16292
654.801	3530.06868
655.247	3521.5684
655.693	3487.82863
656.139	3414.21332
656.585	3470.20496
657.031	3390.12206
657.477	3434.65705
657.922	3274.93112
658.368	3211.44509
658.813	3236.93933
659.259	3230.35567
659.704	3179.21736
660.149	3176.03779
660.594	3020.23384
661.039	3040.98777
661.484	2923.22146
661.929	2930.14068
662.373	2865.58052
662.818	2943.49125
663.262	2835.34511
663.707	2881.67401
664.151	2906.39755
664.595	2891.34901
665.039	2881.50813
665.483	2782.65464
665.927	2819.1601
666.371	2779.17827
666.814	2778.22863
667.258	2770.31749
667.701	2733.64504
668.145	2758.50759
668.588	2724.47587
669.031	2758.16967
669.474	2708.27718
669.917	2727.78093
670.36	2770.52832
670.803	2707.32003
671.245	2646.44694
671.688	2645.34667
672.13	2672.94778
672.573	2606.5575
673.015	2680.30194
673.457	2594.74118
673.899	2704.32181
674.341	2644.28632
674.783	2632.25515
675.225	2695.4245
675.666	2690.39177
676.108	2567.70331
676.549	2688.09955
676.991	2584.77849
677.432	2591.31248
677.873	2599.97896
678.314	2531.18928
678.755	2695.43359
679.196	2556.97888
679.637	2560.22429
680.078	2623.10397
680.518	2533.99395
680.959	2491.17674
681.399	2563.41656
681.839	2516.29025
682.28	2587.44987
682.72	2583.98098
683.16	2605.47709
683.6	2548.9478
684.039	2514.47722
684.479	2623.4196
684.919	2541.1274
685.358	2579.44977
685.798	2558.71859
686.237	2605.208
686.676	2592.91999
687.115	2724.15954
687.554	2759.25423
687.993	2720.81387
688.432	2746.97913
688.871	2771.00942
689.309	2750.26463
689.748	2841.49386
690.186	2809.11585
690.625	2775.14367
691.063	2769.23007
691.501	2822.4565
691.939	2915.58613
692.377	2841.33152
692.815	2864.39231
693.253	2909.21898
693.69	2902.74374
694.128	2936.346
694.565	2970.18981
695.003	3003.68915
695.44	2984.19175
695.877	2990.15059
696.314	2965.52498
696.751	3076.91098
697.188	3064.05295
697.625	3042.83917
698.061	3033.25029
698.498	3099.15937
698.934	3024.23609
699.371	3067.14036
699.807	3096.15229
700.243	3079.29442
700.679	3109.80447
701.115	3180.0645
701.551	3156.04095
701.987	3242.65385
702.422	3225.20836
702.858	3256.19831
703.294	3359.92322
703.729	3322.31071
704.164	3330.18201
704.599	3356.75922
705.035	3294.80104
705.47	3374.28776
705.904	3520.93131
706.339	3433.90033
706.774	3471.01984
707.209	3498.97488
707.643	3483.15905
708.078	3476.27275
708.512	3532.48377
708.946	3608.04692
709.38	3617.07092
709.814	3687.71594
710.248	3725.24312
710.682	3738.1084
711.116	3771.1992
711.549	3633.58622
711.983	3742.82804
712.416	3888.9606
712.85	3816.29256
713.283	3900.91095
713.716	3896.26542
714.149	3928.75742
714.582	3961.54779
715.015	3940.16506
715.448	4119.30643
715.881	4024.21861
716.313	4050.76217
716.746	4043.86392
717.178	4120.94168
717.61	4186.35368
718.043	4213.09237
718.475	4229.95548
718.907	4298.13682
719.339	4256.45421
719.77	4330.80841
720.202	4347.13639
720.634	4344.98875
721.065	4408.63407
721.497	4565.84229
721.928	4518.84992
722.359	4585.79563
722.79	4575.66522
723.221	4632.90761
723.652	4636.10061
724.083	4679.15019
724.514	4748.26098
724.945	4678.43279
725.375	4855.32957
725.806	4867.71288
726.236	4947.97355
726.666	4797.41186
727.096	5043.55286
727.526	5076.98458
727.956	5098.02953
728.386	5139.51359
728.816	5192.85942
729.246	5197.55015
729.675	5107.48974
730.105	5161.47727
730.534	5188.09946
730.964	5259.57897
731.393	5329.39303
731.822	5375.72881
732.251	5457.62223
732.68	5395.93178
733.109	5440.39853
733.537	5539.28706
733.966	5580.42943
734.395	5615.82591
734.823	5606.52483
735.251	5693.0567
735.68	5645.27149
736.108	5565.42224
736.536	5661.87937
736.964	5606.83569
737.392	5589.40979
737.82	5673.00921
738.247	5623.01896
738.675	5601.92453
739.102	5604.38711
739.53	5574.6792
739.957	5658.6874
740.384	5534.13486
740.811	5537.38898
741.238	5572.28189
741.665	5530.98751
742.092	5344.89373
742.519	5322.51074
742.945	5458.27339
743.372	5430.45782
743.798	5296.76666
744.225	5228.16669
744.651	5183.6307
745.077	5135.63348
745.503	5004.44103
745.929	5050.46536
746.355	4968.51779
746.781	4857.66144
747.207	4801.45628
747.632	4813.80384
748.058	4769.94724
748.483	4725.24554
748.908	4658.90238
749.334	4673.8128
749.759	4588.59947
750.184	4540.71384
750.609	4483.84798
751.033	4383.52723
751.458	4326.24757
751.883	4253.99618
752.307	4171.71443
752.732	4118.4016
753.156	4012.11748
753.58	3958.81314
754.005	3859.31942
754.429	3903.9041
754.853	3760.31787
755.277	3756.96942
755.7	3621.3258
756.124	3582.35333
756.548	3469.01516
756.971	3392.25771
757.394	3408.58739
757.818	3266.68737
758.241	3306.57265
758.664	3199.53103
759.087	3225.80033
759.51	3067.36443
759.933	3040.25973
760.356	3077.70017
760.778	2944.35101
761.201	2936.23101
761.623	2801.12925
762.046	2775.02089
762.468	2770.16612
762.89	2662.26294
763.312	2697.30708
763.734	2589.196
764.156	2476.29929
764.578	2462.85114
765	2368.18482
765.421	2336.44006
765.843	2325.56696
766.264	2248.97608
766.686	2122.14969
767.107	2201.08203
767.528	2147.37023
767.949	2028.20843
768.37	2119.16285
768.791	1918.85908
769.212	1937.12028
769.632	1866.74238
770.053	1872.22661
770.473	1784.7849
770.894	1738.82741
771.314	1722.64395
771.734	1670.56317
772.154	1612.86243
772.575	1610.46718
772.994	1536.34572
773.414	1600.56928
773.834	1534.68284
774.254	1515.58693
774.673	1489.58007
775.093	1460.61116
775.512	1479.60025
775.931	1375.57205
776.351	1359.49734
776.77	1353.43812
777.189	1300.26459
777.607	1289.48032
778.026	1286.39626
778.445	1152.27692
778.864	1151.25751
779.282	1107.02577
779.701	1127.19689
780.119	1132.23939
780.537	1080.10557
780.955	1036.07865
781.373	1029.01018
781.791	966.73244
782.209	1016.77022
782.627	951.05334
783.045	882.60739
783.462	947.96804
783.88	899.9245
784.297	855.78067
784.715	831.79569
785.132	840.65839
785.549	761.60158
785.966	802.68831
786.383	837.71383
786.8	805.53315
787.217	797.58258
787.633	749.60046
788.05	754.4529
788.466	741.43362
788.883	701.55007
789.299	663.33943
789.715	713.47481
790.131	618.3331
790.547	648.39072
790.963	598.28825
791.379	609.34254
791.795	539.05418
792.21	549.10777
792.626	531.09151
793.041	548.18393
793.457	579.23739
793.872	505.03237
794.287	568.2031
794.702	481.03296
795.117	493.09556
795.532	514.15341
795.947	512.06492
796.362	415.86834
796.776	442.90046
797.191	425.93955
797.605	477.00631
798.02	397.87254
798.434	450.88507
798.848	398.90317
799.262	385.86889
799.676	394.86976
800.09	352.7907
800.504	359.7887
800.918	323.67555
801.331	245.58714
801.745	324.67389
802.158	303.69251
802.572	351.77599
802.985	327.71539
803.398	293.64101
803.811	285.66446
804.224	271.61689
804.637	312.6856
805.05	277.58576
805.462	285.64298
805.875	252.61436
806.288	241.54639
806.7	212.49497
807.112	245.52105
807.525	264.59378
807.937	249.57574
808.349	214.49924
808.761	253.58197
809.173	263.59432
809.584	240.54953
809.996	182.41975
810.408	205.50584
810.819	169.37568
811.231	246.61934
811.642	266.6159
812.053	233.53211
812.464	206.45669
812.875	205.49671
813.286	191.46974
813.697	159.34066
814.108	185.42301
814.519	237.49371
814.929	163.39287
815.34	132.30092
815.75	159.38758
816.16	133.31108
816.571	121.29968
816.981	134.29596
817.391	108.24631
817.801	131.31156
818.211	172.38481
818.62	150.34416
819.03	141.32694
819.44	112.275
819.849	94.22455
820.259	100.24254
820.668	124.29213
821.077	160.38046
821.486	145.32581
821.895	92.21421
822.304	134.33847
822.713	101.22676
823.122	124.29418
823.531	81.18096
823.939	113.26399
824.348	125.28686
824.756	96.22889
825.164	147.34894
825.573	85.20503
825.981	99.23328
826.389	126.30076
826.797	172.41496
827.205	91.20111
827.612	66.15573
828.02	28.06324
828.428	66.16182
828.835	105.26735
829.243	83.18772
829.65	100.24007
830.057	32.07472
830.464	92.2175
830.871	97.22278
831.278	58.13505
831.685	124.25998
832.092	60.13982
832.499	91.19042
832.905	42.1021
833.312	2.00433
833.718	82.19761
834.124	113.24566
834.531	71.17023
834.937	102.25165
835.343	91.20774
835.749	78.17127
836.155	56.14181
836.561	44.10467
836.966	71.16587
837.372	69.16807
837.777	57.13744
838.183	67.14138
838.588	127.30205
838.993	71.166
839.399	100.23468
839.804	38.08973
840.209	92.22756
840.613	70.14832
841.018	45.10945
841.423	54.13391
841.828	71.17372
842.232	33.07755
842.637	81.18492
843.041	40.09985
843.445	37.08901
843.849	57.13656
844.253	63.14307
844.657	65.15874
845.061	115.25192
845.465	46.10715
845.869	109.24029
846.272	10.02379
846.676	3.00691
847.079	61.15086
847.483	74.17657
847.886	76.17521
848.289	63.16481
848.692	32.07787
849.095	49.11267
849.498	63.15116
849.901	99.21348
850.304	38.0874
850.707	36.08846
851.109	59.14286
851.512	49.11641
851.914	60.14689
852.316	83.20383
852.718	61.1562
853.121	51.12046
853.523	90.19878
853.925	10.0257
854.326	51.1239
854.728	58.14446
855.13	47.11853
855.531	30.06944
855.933	50.11412
856.334	79.19063
856.736	64.13851
857.137	35.07919
857.538	45.11015
857.939	68.16393
858.34	54.12504
858.741	27.06824
859.142	25.05767
859.542	41.10565
859.943	69.16449
860.343	52.12503
860.744	36.08472
861.144	37.08797
861.544	109.25305
861.945	41.10084
862.345	81.18842
862.745	48.11594
863.145	19.04299
863.544	54.132
863.944	49.11114
864.344	34.08041
864.743	55.13101
865.143	73.18206
865.542	6.01328
865.941	54.1292
866.34	37.08416
866.74	48.12495
867.139	98.22692
867.537	30.07312
867.936	60.13926
868.335	45.11023
868.734	16.03979
869.132	44.09682
869.531	56.12828
869.929	16.03541
870.327	65.14929
870.726	75.17714
871.124	66.14614
871.522	32.07857
871.92	49.11636
872.318	37.08651
872.715	19.04479
873.113	-17.04011
873.511	33.07912
873.908	25.06226
874.306	25.06074
874.703	17.04077
875.1	35.08522
875.497	24.05531
875.894	65.15596
876.291	54.12772
876.688	2.00503
877.085	3.00692
877.482	67.16088
877.878	75.17529
878.275	34.08379
878.671	36.07424
879.068	49.11358
879.464	71.16411
879.86	4.00916
880.256	10.0235
880.652	20.04929
881.048	10.02374
881.444	15.03395
881.84	27.06631
882.236	58.14004
882.631	61.14458
883.027	55.12718
883.422	12.02958
883.817	28.06868
884.213	46.11399
884.608	104.24873
885.003	-17.03953
885.398	3.0073
885.793	23.05561
886.188	-13.03142
886.582	56.13689
886.977	24.05451
887.371	35.08484
887.766	50.12054
888.16	48.11317
888.554	22.05217
888.949	33.07996
889.343	64.1489
889.737	12.03146
890.131	45.10883
890.525	26.06488
890.918	35.08497
891.312	2.00458
891.706	79.19859
892.099	35.08573
892.492	68.13828
892.886	66.15428
893.279	27.06638
893.672	41.10155
894.065	83.19907
894.458	23.05535
894.851	44.1029
895.244	-10.02487
895.637	66.15277
896.029	53.12537
896.422	35.08129
896.814	27.06461
897.206	79.18231
897.599	88.2074
897.991	86.19977
898.383	51.11587
898.775	85.18463
899.167	40.09111
899.559	45.10871
899.951	25.0562
900.342	18.04389
900.734	66.16128
901.125	22.05557
901.517	61.14396
901.908	69.15549
902.299	5.0119
902.69	105.23738
903.082	55.12779
903.473	50.11697
903.863	26.06379
904.254	67.15049
904.645	50.11789
905.036	77.18215
905.426	37.07989
905.817	8.01888
906.207	-34.07807
906.597	67.15141
906.987	51.12627
907.378	29.07135
907.768	16.04126
908.158	76.17661
908.547	53.13404
908.937	-4.00985
909.327	51.11859
909.717	-3.00727
910.106	32.07363
910.495	66.15598
910.885	73.17782
911.274	71.16971
911.663	22.0535
912.052	38.08914
912.441	34.08425
912.83	56.12182
913.219	34.08573
913.608	74.17414
913.997	-14.03455
914.385	46.1055
914.774	42.0981
915.162	77.17734
915.55	14.03246
915.939	11.02716
916.327	26.06213
916.715	37.09261
917.103	9.02104
917.491	71.16743
917.878	51.12008
918.266	9.02257
918.654	84.20732
919.041	61.15559
919.429	21.04777
919.816	57.13869
920.203	55.12935
920.591	56.13368
920.978	73.17088
921.365	25.06388
921.752	-1.00227
922.139	100.20475
922.525	32.07436
922.912	42.09806
923.299	76.18107
923.685	-35.08855
924.072	-26.0567
924.458	49.11735
924.844	4.00961
925.231	15.03332
925.617	41.10184
926.003	35.08608
926.389	-3.00735
926.774	16.03911
927.16	49.11672
927.546	58.14499
927.931	28.06697
928.317	35.07671
928.702	73.16376
929.088	98.22557
929.473	45.11137
929.858	36.08551
930.243	59.13724
930.628	47.11118
931.013	26.06235
931.398	71.15245
931.783	27.06807
932.167	54.12821
932.552	49.11766
932.937	24.05714
933.321	83.20104
933.705	-12.02908
934.09	2.0048
934.474	68.15245
934.858	60.15021
935.242	14.03117
935.626	41.10188
936.009	38.09895
936.393	87.215
936.777	16.04
937.16	54.13665
937.544	10.02234
937.927	38.09365
938.311	86.19843
938.694	59.15092
939.077	52.11931
939.46	16.03705
939.843	10.01947
940.226	14.03462
940.609	74.16392
940.991	18.04407
941.374	47.11118
941.757	39.09219
942.139	57.1227
942.522	32.07215
942.904	46.10618
943.286	46.11211
943.668	62.15633
944.05	68.16052
944.432	-1.00238
944.814	36.08442
945.196	-7.01672
945.578	89.20514
945.959	40.08886
946.341	77.17663
946.722	45.10053
947.104	46.10554
947.485	24.05376
947.866	55.13447
948.247	66.16152
948.628	5.01155
949.009	16.03972
949.39	13.03109
949.771	14.03056
950.152	43.10164
950.532	92.22246
950.913	78.17904
951.293	49.12932
951.674	73.1686
952.054	72.17436
952.434	31.07438
952.814	1.00227
953.194	41.10214
953.574	68.15933
953.954	10.02266
954.334	44.10664
954.714	43.10133
955.093	89.20833
955.473	91.21984
955.853	30.07518
956.232	40.10608
956.611	38.08624
956.99	43.10459
957.37	-1.00246
957.749	4.00906
958.128	36.0881
958.506	14.03533
958.885	5.01219
959.264	56.13357
959.643	88.19127
960.021	16.03866
960.4	32.06941
960.778	27.06305
961.156	28.06745
961.535	23.05096
961.913	72.16155
962.291	50.12535
962.669	56.1372
963.047	57.14076
963.424	102.25202
963.802	26.06185
964.18	40.09574
964.557	88.19094
964.935	76.17123
965.312	20.05083
965.69	42.10014
966.067	53.12212
966.444	21.04891
966.821	43.10708
967.198	9.02082
967.575	46.10774
967.952	86.19177
968.329	117.27151
968.705	77.15741
969.082	50.12544
969.458	79.18355
969.835	24.0563
970.211	67.16709
970.587	49.11753
970.963	2.00493
971.339	42.10651
971.715	66.15827
972.091	9.02141
972.467	-6.01429
972.843	56.13516
973.219	92.20736
973.594	52.13121
973.97	15.03341
974.345	39.09011
974.721	28.06417
975.096	61.14257
975.471	69.1553
975.846	17.03906
976.221	31.07616
976.596	48.11243
976.971	103.24365
977.346	58.12762
977.72	44.10736
978.095	12.03005
978.469	37.08433
978.844	71.16964
979.218	21.04937
979.593	73.16578
979.967	-8.01851
980.341	68.14988
980.715	29.07075
981.089	36.08672
981.463	10.02212
981.837	36.0858
982.21	31.06714
982.584	41.0956
982.957	39.09447
983.331	66.14626
983.704	94.22292
984.078	26.06166
984.451	34.07995
984.824	8.01899
985.197	-30.06974
985.57	8.01909
985.943	23.05367
986.316	43.09959
986.688	49.11295
987.061	63.14144
987.434	89.22525
987.806	-6.01387
988.179	32.07215
988.551	41.09965
988.923	16.0378
989.295	71.1686
989.667	18.04218
990.039	70.16856
990.411	-9.01968
990.783	27.05872
991.155	26.06049
991.527	66.15198
991.898	56.13465
992.27	3.00727
992.641	62.14794
993.012	3.00662
993.384	14.03201
993.755	29.07188
994.126	66.15313
994.497	7.01663
994.868	-16.0351
995.239	54.12484
995.61	38.09223
995.98	15.0351
996.351	25.06021
996.722	51.11455
997.092	13.02987
997.462	29.06599
997.833	68.15201
998.203	16.03678
998.573	73.17462
998.943	56.12622
999.313	52.12012
999.683	-5.01167
1000.053	-28.06091
1000.423	61.14049
1000.792	-29.07251
1001.162	-6.01421
1001.531	61.1443
1001.901	35.0835
1002.27	4.00841
1002.639	-18.04441
1003.009	52.11792
1003.378	40.0988
1003.747	24.05409
1004.116	2.00461
1004.485	62.14134
1004.853	-1.00242
1005.222	-41.09901
1005.591	71.15986
1005.959	60.12936
1006.328	31.06711
1006.696	-16.03725
1007.064	-8.01933
1007.433	-12.02886
1007.801	2.00466
1008.169	-21.05102
1008.537	48.10104
1008.905	44.09889
1009.273	28.06602
1009.64	67.15474
1010.008	30.0685
1010.375	63.14313
1010.743	37.0789
1011.11	94.2155
1011.478	54.12915
1011.845	70.15558
1012.212	105.22701
1012.579	67.15751
1012.946	-10.02273
1013.313	69.15479
1013.68	26.05557
1014.047	24.05498
1014.414	15.03404
1014.78	20.0482
1015.147	42.09602
1015.513	18.04178
1015.88	63.15317
1016.246	7.01646
1016.612	27.05862
1016.978	46.10892
1017.344	56.13291
1017.71	54.12499
1018.076	66.14638
1018.442	56.13892
1018.808	82.19768
1019.174	-1.00241
1019.539	3.00634
1019.905	34.07738
1020.27	18.04275
1020.636	33.07476
1021.001	97.22091
1021.366	76.17473
1021.731	72.18012
1022.096	33.0811
1022.461	30.06836
1022.826	69.15765
1023.191	9.02293
1023.556	32.07142
1023.92	16.03753
1024.285	16.03718
1024.649	25.05854
1025.014	12.02833
1025.378	24.05865
1025.742	27.06394
1026.107	57.12207
1026.471	54.11927
1026.835	25.05971
1027.199	30.06958
1027.562	24.05288
1027.926	17.03978
1028.29	35.08541
1028.654	67.14566
1029.017	88.20643
1029.381	18.04156
1029.744	21.0518
1030.107	58.13083
1030.471	23.05329
1030.834	40.08527
1031.197	46.10588
1031.56	-4.00906
1031.923	20.05014
1032.286	75.16721
1032.648	-7.01593
1033.011	61.13543
1033.374	33.07336
1033.736	24.06119
1034.099	-1.00236
1034.461	47.11517
1034.823	17.04108
1035.185	5.01206
1035.548	44.10322
1035.91	34.07792
1036.272	83.1799
1036.634	46.10774
1036.995	21.04697
1037.357	40.09394
1037.719	65.1512
1038.08	95.21565
1038.442	44.0997
1038.803	0
1039.165	27.06533
1039.526	24.05584
1039.887	26.05968
1040.248	61.14653
1040.609	44.10302
1040.97	21.04923
1041.331	51.12497
1041.692	79.17868
1042.053	38.082
1042.413	20.0444
1042.774	50.1167
1043.134	35.07864
1043.495	7.01701
1043.855	95.22133
1044.215	5.01192
1044.576	58.1335
1044.936	8.01751
1045.296	91.21593
1045.656	32.07454
1046.016	19.04383
1046.375	35.08148
1046.735	43.09495
1047.095	73.16241
1047.454	24.04778
1047.814	68.15596
1048.173	42.09443
1048.533	60.13069
1048.892	9.02094
1049.251	11.02645
1049.61	30.07115
1049.969	43.09654
1050.328	64.13122
1050.687	27.06268
1051.046	32.07448
1051.405	1.00238
1051.763	86.18955
1052.122	2.00482
1052.48	8.01901
1052.839	84.19095
1053.197	41.09216
1053.555	48.10162
1053.914	46.10736
1054.272	-3.00684
1054.63	53.1244
1054.988	78.17803
1055.345	40.08049
1055.703	66.15174
1056.061	92.22873
1056.419	56.14181
1056.776	42.09571
1057.134	-4.00875
1057.491	17.04112
1057.848	51.12083
1058.206	-28.06272
1058.563	71.14745
1058.92	48.10486
1059.277	14.0333
1059.634	25.05551
1059.991	86.19605
1060.348	51.11026
1060.704	92.2132
1061.061	30.06526
1061.418	12.02811
1061.774	13.03098
1062.131	44.11415
1062.487	37.08218
1062.843	33.07906
1063.199	52.12403
1063.555	94.20805
1063.911	29.07006
1064.267	73.14049
1064.623	15.03557
1064.979	9.0197
1065.335	29.0658
1065.691	30.06781
1066.046	22.04604
1066.402	36.07748
1066.757	37.08992
1067.112	23.05403
1067.468	57.13039
1067.823	-11.025
1068.178	-10.02322
1068.533	52.12046
1068.888	33.07509
1069.243	70.16492
1069.598	50.11532
1069.952	53.1164
1070.307	11.02645
1070.662	86.19653
1071.016	19.04146
1071.371	52.11331
1071.725	75.16866
1072.079	37.08552
1072.434	-1.00236
1072.788	-34.07745
1073.142	70.16447
1073.496	16.03639
1073.85	50.1102
1074.203	17.03976
1074.557	65.16848
1074.911	86.19288
1075.265	50.11066
1075.618	33.07746
1075.971	23.05244
1076.325	37.09134
1076.678	-3.00662
1077.031	-56.12047
1077.385	52.10811
1077.738	59.12603
1078.091	21.04626
1078.444	37.08092
1078.796	14.03337
1079.149	49.11712
1079.502	50.11375
1079.855	66.14656
1080.207	44.10346
1080.56	18.04534
1080.912	83.19154
1081.264	63.14539
1081.617	-5.01184
1081.969	24.05882
1082.321	8.01877
1082.673	14.03123
1083.025	15.03397
1083.377	282.60143
1083.728	38.08418
1084.08	12.02871
1084.432	46.10563
1084.783	23.05051
1085.135	-2.00488
1085.486	68.14874
1085.838	40.09493
1086.189	57.13353
1086.54	34.07738
1086.891	58.14362
1087.242	35.0834
1087.593	8.01846
1087.944	72.15603
1088.295	69.14809
1088.646	88.20692
1088.996	49.11376
1089.347	15.03522
1089.698	29.06661
1090.048	5.01251
1090.398	46.10092
1090.749	11.02507
1091.099	65.15868
1091.449	72.17206
1091.799	53.12712
1092.149	39.09279
1092.499	44.1029
1092.849	29.07122
1093.199	47.11187
1093.548	38.08862
1093.898	-7.0169
1094.248	-15.03707
1094.597	13.03259
1094.947	39.10081
1095.296	41.09781
1095.645	55.13682
1095.994	53.12158
1096.343	54.13087
1096.692	40.1033
1097.041	51.13573
1097.39	10.02408
1097.739	-1.00252
1098.088	16.04126
1098.437	34.08775
1098.785	14.03633
1099.134	-4.01015
1099.482	34.09107
1099.83	31.07879
1100.179	58.14859
1100.527	23.05846
1100.875	24.062
1101.223	39.10088
1101.571	-1.00269
1101.919	59.15203
1102.267	22.06091
1102.615	-2.00643
1102.962	-7.02248
1103.31	7.02247
1103.658	-8.02567
