Data from N3 R3 sample 12_Subt2__1__11-08-12-812.txt Node

Date: Thu Sep 18 11:08:12 PDT 2025
User: uwsun
Spectrometer: HDX01956
Trigger mode: 0
Integration Time (sec): 5.000000E-1
Scans to average: 1
Nonlinearity correction enabled: true
Boxcar width: 0
Storing dark spectrum: false
XAxis mode: Wavelengths
Number of Pixels in Spectrum: 2068
>>>>>Begin Spectral Data<<<<<
194.03	25.07231
194.578	44.14233
195.127	29.09266
195.676	46.1472
196.225	51.13505
196.773	48.13315
197.321	53.14718
197.87	121.31048
198.418	139.35816
198.966	198.51645
199.513	170.43017
200.061	145.36828
200.609	138.36401
201.156	128.28141
201.704	131.33037
202.251	150.39793
202.798	147.38048
203.345	194.47632
203.892	154.38857
204.438	142.33701
204.985	155.36779
205.532	116.30619
206.078	117.28712
206.624	200.4974
207.17	184.42892
207.716	173.42265
208.262	182.35863
208.808	207.5149
209.354	178.43817
209.899	157.39409
210.445	166.41405
210.99	141.34486
211.535	199.46489
212.08	197.45298
212.625	119.29849
213.17	164.41661
213.715	157.3587
214.259	202.46699
214.804	149.36469
215.348	169.38954
215.892	208.49952
216.436	94.21663
216.98	177.38577
217.524	162.3864
218.068	152.38298
218.612	212.53261
219.155	178.41804
219.698	152.36074
220.242	139.34237
220.785	180.4196
221.328	121.29935
221.871	167.42295
222.414	161.39538
222.956	106.25438
223.499	159.35198
224.041	104.23843
224.583	149.31219
225.126	104.22903
225.668	150.36229
226.21	140.35325
226.751	159.35198
227.293	136.3064
227.835	173.41981
228.376	116.26369
228.918	134.33218
229.459	155.38402
230	194.45952
230.541	145.33155
231.082	159.38425
231.622	98.22233
232.163	131.31479
232.704	164.40713
233.244	134.33121
233.784	149.35832
234.324	184.40928
234.864	134.30152
235.404	95.22429
235.944	141.33005
236.484	149.36943
237.023	145.33954
237.563	216.49259
238.102	175.40899
238.641	150.37401
239.18	97.22866
239.719	129.32183
240.258	161.35834
240.797	171.40419
241.335	163.39228
241.874	152.29458
242.412	154.37181
242.95	176.42091
243.488	137.30606
244.026	174.40066
244.564	156.31883
245.102	208.46342
245.64	167.39427
246.177	105.2337
246.715	180.42719
247.252	149.33562
247.789	215.3895
248.326	155.37105
248.863	170.3706
249.4	136.30715
249.936	191.39488
250.473	204.47479
251.009	143.32566
251.546	221.48412
252.082	158.33815
252.618	149.3315
253.154	163.389
253.69	172.38147
254.226	169.40085
254.761	182.40331
255.297	182.39221
255.832	164.38681
256.367	135.31613
256.903	224.4881
257.438	168.38978
257.972	140.3105
258.507	137.31301
259.042	222.47285
259.576	229.49656
260.111	179.40583
260.645	183.39021
261.179	177.41025
261.713	151.33636
262.247	148.33575
262.781	154.32288
263.315	158.37989
263.849	179.44315
264.382	177.40179
264.915	196.45743
265.449	144.34977
265.982	212.47273
266.515	181.43889
267.048	213.44313
267.58	142.30483
268.113	158.33932
268.646	136.33133
269.178	141.31383
269.71	244.52694
270.243	196.44807
270.775	220.55469
271.307	132.31267
271.838	195.4534
272.37	170.4123
272.902	207.46053
273.433	223.48499
273.965	149.35981
274.496	203.49482
275.027	157.38826
275.558	199.47891
276.089	196.48319
276.62	148.37063
277.15	212.51183
277.681	200.42322
278.211	128.31138
278.741	205.44831
279.272	154.35064
279.802	151.37315
280.332	195.4543
280.861	173.40923
281.391	152.34371
281.921	158.37469
282.45	164.40297
282.98	163.42131
283.509	214.47896
284.038	217.48798
284.567	210.48123
285.096	215.5129
285.625	141.31617
286.153	211.4966
286.682	206.46638
287.21	155.36651
287.739	179.4185
288.267	195.46893
288.795	222.56911
289.323	206.4768
289.851	228.52646
290.378	164.36282
290.906	212.51087
291.433	192.47263
291.961	214.48133
292.488	205.50063
293.015	218.50637
293.542	272.68184
294.069	204.49884
294.596	191.4607
295.122	268.62643
295.649	183.39614
296.175	169.40332
296.702	269.6412
297.228	216.51103
297.754	222.49072
298.28	255.57342
298.806	182.43443
299.332	231.50773
299.857	211.47274
300.383	235.57922
300.908	262.62919
301.433	235.56553
301.958	190.43086
302.483	176.43229
303.008	253.61576
303.533	211.53589
304.058	221.50613
304.582	195.45573
305.107	217.55581
305.631	250.55399
306.155	210.48258
306.679	226.52288
307.203	195.44803
307.727	226.52661
308.251	235.56918
308.775	281.66621
309.298	212.50429
309.822	183.45537
310.345	269.62766
310.868	248.58628
311.391	256.61665
311.914	220.54295
312.437	253.56613
312.96	187.43703
313.482	249.57277
314.005	237.58027
314.527	210.53816
315.049	267.66025
315.571	251.55401
316.093	287.6917
316.615	242.56944
317.137	258.55025
317.659	277.65394
318.18	226.52972
318.702	292.66562
319.223	251.501
319.744	304.66381
320.265	255.609
320.786	306.74264
321.307	289.69467
321.828	300.65702
322.348	323.73494
322.869	260.60702
323.389	539.96768
323.909	300.66533
324.43	309.71559
324.95	308.68392
325.47	365.86964
325.989	297.68562
326.509	332.7185
327.029	340.74932
327.548	301.66296
328.067	314.73969
328.587	369.88927
329.106	367.79203
329.625	333.83786
330.144	374.8339
330.662	335.7607
331.181	385.8696
331.7	376.83663
332.218	355.74083
332.736	354.79813
333.255	404.90748
333.773	341.77714
334.291	375.90099
334.808	384.82853
335.326	392.84072
335.844	449.99922
336.361	435.0634
336.879	439.97981
337.396	448.03178
337.913	442.96713
338.43	441.9411
338.947	451.01741
339.464	393.81029
339.981	461.02942
340.497	417.97671
341.014	436.00689
341.53	398.85763
342.046	518.20939
342.562	509.18579
343.078	472.04469
343.594	494.09938
344.11	528.17711
344.626	489.1601
345.141	514.09566
345.657	537.12618
346.172	553.23623
346.687	506.08325
347.202	587.23122
347.717	586.28504
348.232	555.28193
348.747	573.21926
349.261	517.05694
349.776	576.26308
350.29	547.27394
350.805	577.3159
351.319	553.18888
351.833	518.11233
352.347	584.26935
352.861	621.3307
353.374	563.18028
353.888	596.34096
354.401	551.15966
354.915	616.2708
355.428	603.38189
355.941	577.23736
356.454	632.27525
356.967	582.24783
357.48	640.31507
357.993	643.44003
358.505	623.38375
359.018	614.37869
359.53	649.44215
360.042	662.33833
360.554	700.54368
361.066	605.34984
361.578	732.43612
362.09	678.4558
362.602	679.36177
363.113	717.51088
363.625	759.52384
364.136	653.29507
364.647	713.51559
365.158	717.4917
365.669	689.48167
366.18	708.49287
366.691	706.37916
367.201	778.64779
367.712	796.59932
368.222	829.6638
368.733	752.4428
369.243	844.63439
369.753	762.55273
370.263	823.74203
370.773	796.70647
371.282	809.69672
371.792	848.70627
372.301	832.75535
372.811	872.99982
373.32	916.68212
373.829	859.75417
374.338	927.74628
374.847	1002.9353
375.356	952.90348
375.865	1048.84148
376.373	1080.01137
376.882	1078.27196
377.39	1140.23955
377.898	1142.29066
378.407	1225.19654
378.915	1264.14751
379.423	1240.27625
379.93	1444.51807
380.438	1360.51968
380.946	1469.54655
381.453	1545.73093
381.96	1634.80554
382.468	1713.82253
382.975	1826.08262
383.482	1819.72456
383.989	1888.34447
384.495	1986.00191
385.002	2086.62972
385.509	2210.23087
386.015	2371.6091
386.521	2458.09636
387.028	2520.09923
387.534	2594.81977
388.04	2706.44261
388.546	2645.9737
389.051	2892.96348
389.557	3148.21362
390.063	3282.04072
390.568	3491.37657
391.073	3482.88304
391.578	3701.4184
392.084	3763.9257
392.589	3919.54591
393.093	4163.07807
393.598	4697.5151
394.103	5072.54243
394.607	5520.38296
395.112	5914.34394
395.616	6371.09127
396.12	6835.66399
396.624	7501.95911
397.128	8163.47448
397.632	9164.7887
398.136	9804.24194
398.639	10471.24267
399.143	11611.69814
399.646	13004.1144
400.15	14549.56391
400.653	16028.53321
401.156	18278.70709
401.659	21234.5386
402.162	25905.58337
402.664	34095.86947
403.167	48043.57608
403.67	61622.22139
404.172	63919.58413
404.674	63858.43483
405.176	63738.15102
405.678	63977.72923
406.18	64011.81569
406.682	63863.44694
407.184	63926.60148
407.686	63841.39382
408.187	64025.8516
408.688	63892.51763
409.19	60487.13881
409.691	48800.35632
410.192	41215.78623
410.693	35784.37224
411.194	32442.48644
411.694	30687.52732
412.195	28432.13262
412.696	25787.66787
413.196	23884.97572
413.696	23451.24887
414.196	23715.28553
414.696	23295.05121
415.196	22197.797
415.696	20252.79735
416.196	16230.2636
416.695	12601.54946
417.195	10649.82033
417.694	10329.06673
418.194	9551.64181
418.693	8886.24779
419.192	8679.98996
419.691	8508.72532
420.19	8240.53342
420.688	8190.56297
421.187	7798.61645
421.685	7353.82935
422.184	6676.84684
422.682	5808.58744
423.18	4815.43956
423.678	4182.73729
424.176	3977.82125
424.674	3878.70028
425.172	3615.14462
425.669	3390.47792
426.167	3201.16143
426.664	2849.05923
427.161	2621.11022
427.659	2454.351
428.156	2317.6935
428.652	2174.41815
429.149	2145.21565
429.646	1984.75526
430.143	1940.02586
430.639	1861.92075
431.135	1668.96544
431.632	1642.60788
432.128	1545.68748
432.624	1499.89361
433.12	1413.38099
433.616	1408.25856
434.111	1330.40683
434.607	1249.32768
435.103	1258.98329
435.598	1201.90865
436.093	1165.1408
436.588	1094.96563
437.083	989.8142
437.578	1041.95952
438.073	910.93257
438.568	928.92469
439.062	887.58107
439.557	912.78644
440.051	838.59649
440.546	863.65414
441.04	787.63458
441.534	817.77744
442.028	815.68753
442.522	753.57362
443.015	738.36349
443.509	739.57091
444.002	717.54128
444.496	675.28206
444.989	690.47714
445.482	684.49893
445.975	680.38419
446.468	680.28749
446.961	642.23082
447.454	648.28364
447.947	652.38188
448.439	695.50354
448.931	662.34138
449.424	647.47155
449.916	654.41807
450.408	578.18749
450.9	565.24127
451.392	591.3549
451.884	579.19463
452.375	543.22232
452.867	557.12703
453.358	561.15795
453.849	540.03992
454.341	601.21011
454.832	517.01154
455.323	590.3242
455.814	495.03384
456.304	559.16569
456.795	506.05242
457.285	534.06091
457.776	561.14965
458.266	510.10358
458.756	468.016
459.247	492.07726
459.737	525.15617
460.226	533.09957
460.716	503.09791
461.206	424.94301
461.695	448.02357
462.185	471.02708
462.674	443.93553
463.163	439.91001
463.653	425.83649
464.142	438.98423
464.63	408.92172
465.119	403.87343
465.608	443.9597
466.096	378.76623
466.585	375.80201
467.073	377.83311
467.561	404.90339
468.05	373.80429
468.538	406.92468
469.026	337.75468
469.513	358.70744
470.001	373.80256
470.489	384.85407
470.976	366.80289
471.463	376.87847
471.951	351.82216
472.438	329.7304
472.925	333.74081
473.412	362.82516
473.899	353.76084
474.385	291.67925
474.872	321.70849
475.359	281.66029
475.845	300.58893
476.331	289.58489
476.817	338.77668
477.303	277.61497
477.789	282.64076
478.275	279.66172
478.761	268.6087
479.247	294.62321
479.732	273.65198
480.218	266.66896
480.703	236.56007
481.188	247.5134
481.673	259.57071
482.158	276.5692
482.643	288.70263
483.128	317.70054
483.612	299.67814
484.097	242.56123
484.581	234.52156
485.066	244.57526
485.55	221.47226
486.034	203.42665
486.518	240.5535
487.002	190.44883
487.486	240.56055
487.969	200.47135
488.453	213.51279
488.936	232.50317
489.42	240.51053
489.903	211.50817
490.386	179.36027
490.869	246.51782
491.352	211.49118
491.835	226.44512
492.318	222.48149
492.8	266.52588
493.283	233.57386
493.765	231.5462
494.247	247.55225
494.73	213.45595
495.212	231.52754
495.694	253.57266
496.175	258.59501
496.657	306.68795
497.139	307.49351
497.62	236.5471
498.102	299.70915
498.583	214.50826
499.064	333.69955
499.545	316.68154
500.026	360.76377
500.507	345.74711
500.988	384.89961
501.469	356.83534
501.949	413.94916
502.43	467.03339
502.91	460.89153
503.39	478.08654
503.87	573.2145
504.35	547.15123
504.83	597.15405
505.31	602.2941
505.79	655.36196
506.269	730.44364
506.749	780.51747
507.228	873.72162
507.707	1010.80785
508.187	1105.09913
508.666	1141.24833
509.145	1235.21116
509.623	1351.35203
510.102	1451.57057
510.581	1630.74855
511.059	1773.05702
511.538	1899.27952
512.016	2123.09251
512.494	2209.14931
512.972	2403.21599
513.45	2585.12568
513.928	2782.3953
514.406	3022.46674
514.884	3225.81333
515.361	3450.24977
515.839	3633.94144
516.316	3823.24762
516.793	4020.46016
517.27	4203.00069
517.747	4379.44191
518.224	4417.57745
518.701	4564.21244
519.178	4674.07688
519.654	4639.65621
520.131	4720.96531
520.607	4670.87764
521.083	4630.34205
521.56	4587.64978
522.036	4504.1488
522.512	4408.10852
522.987	4246.00013
523.463	4162.91584
523.939	4083.30743
524.414	3855.80868
524.89	3727.15097
525.365	3543.84509
525.84	3423.29052
526.315	3233.37583
526.79	3131.94144
527.265	2947.10463
527.74	2750.38154
528.215	2616.13126
528.689	2458.78686
529.164	2348.66349
529.638	2230.44088
530.112	2144.01605
530.587	2163.60745
531.061	2041.09463
531.534	1837.92853
532.008	1870.99596
532.482	1681.61554
532.956	1667.0117
533.429	1618.79692
533.903	1534.32755
534.376	1496.32289
534.849	1375.32531
535.322	1365.39515
535.795	1278.36144
536.268	1294.3911
536.741	1204.21656
537.213	1187.10754
537.686	1093.14754
538.158	1143.02703
538.631	1056.06644
539.103	1038.87523
539.575	929.54137
540.047	924.64507
540.519	934.8511
540.991	857.77062
541.463	850.73068
541.934	819.56137
542.406	776.60563
542.877	767.47905
543.348	755.5785
543.82	676.44839
544.291	755.51859
544.762	729.50862
545.233	706.57702
545.703	682.3215
546.174	697.41015
546.645	635.36659
547.115	650.39083
547.585	658.33083
548.056	677.47205
548.526	646.35902
548.996	550.18927
549.466	605.317
549.935	608.29917
550.405	563.10745
550.875	580.23819
551.344	557.19955
551.814	557.14916
552.283	550.07802
552.752	567.19758
553.221	572.13074
553.69	613.23204
554.159	599.34304
554.628	547.11991
555.096	567.3102
555.565	515.03238
556.033	630.33869
556.502	535.17379
556.97	554.10892
557.438	528.12604
557.906	555.18346
558.374	547.14719
558.842	541.17651
559.31	566.13717
559.777	594.30643
560.245	587.20465
560.712	591.2096
561.18	589.1625
561.647	582.15216
562.114	607.23959
562.581	674.46769
563.048	722.43513
563.514	795.72663
563.981	713.42018
564.448	795.5302
564.914	773.542
565.381	865.65877
565.847	899.74727
566.313	886.71911
566.779	943.74178
567.245	921.76803
567.711	1022.99373
568.176	1022.84438
568.642	1093.22986
569.108	1131.22028
569.573	1142.07383
570.038	1209.90067
570.504	1287.18738
570.969	1337.52398
571.434	1339.1949
571.899	1376.43021
572.363	1460.41643
572.828	1481.44542
573.293	1500.45332
573.757	1566.56072
574.222	1571.44544
574.686	1655.60871
575.15	1676.79801
575.614	1801.83025
576.078	1708.72757
576.542	1678.59357
577.006	1765.63
577.469	1752.9512
577.933	1797.68635
578.396	1721.77709
578.86	1765.78563
579.323	1727.84891
579.786	1671.41691
580.249	1750.78126
580.712	1601.76083
581.175	1651.86404
581.637	1562.49648
582.1	1627.39713
582.563	1591.28695
583.025	1539.70071
583.487	1514.13531
583.95	1445.19442
584.412	1489.17424
584.874	1426.58256
585.336	1394.45453
585.797	1395.19294
586.259	1353.36415
586.721	1265.26855
587.182	1312.27246
587.643	1240.14943
588.105	1218.22905
588.566	1149.83285
589.027	1196.30371
589.488	1129.03928
589.949	1095.13639
590.41	1052.61983
590.87	1063.94732
591.331	1066.84493
591.791	1004.89206
592.252	927.79238
592.712	876.76994
593.172	952.77901
593.632	955.7359
594.092	841.57548
594.552	842.5266
595.011	780.52971
595.471	843.61108
595.931	782.50911
596.39	738.5419
596.849	735.48442
597.308	655.21922
597.768	715.62828
598.227	699.47355
598.685	672.34367
599.144	694.43451
599.603	634.31502
600.062	639.18055
600.52	653.29929
600.978	545.16563
601.437	629.26658
601.895	634.19497
602.353	566.1131
602.811	630.25782
603.269	582.24354
603.727	567.22791
604.184	601.22121
604.642	564.25385
605.099	622.29239
605.557	578.26587
606.014	618.17503
606.471	553.26009
606.928	600.18674
607.385	575.30237
607.842	524.08992
608.299	597.24726
608.755	568.24133
609.212	569.13716
609.668	612.22635
610.125	564.22634
610.581	571.20288
611.037	560.12561
611.493	534.12802
611.949	546.20625
612.405	592.06436
612.861	562.16079
613.316	552.19513
613.772	542.11992
614.227	626.33941
614.683	568.07139
615.138	530.12591
615.593	559.16672
616.048	489.02038
616.503	535.17822
616.958	535.21902
617.412	536.15253
617.867	494.0055
618.321	527.97581
618.776	499.99832
619.23	508.08191
619.684	495.00273
620.138	489.01903
620.592	459.02494
621.046	461.00098
621.5	419.93711
621.954	457.92573
622.407	483.97258
622.861	417.94147
623.314	445.92657
623.768	487.05036
624.221	403.72977
624.674	425.90853
625.127	404.87317
625.58	430.88996
626.033	438.87933
626.485	346.77978
626.938	394.87522
627.39	437.94347
627.843	414.88445
628.295	364.78606
628.747	382.85174
629.199	363.77366
629.651	314.68129
630.103	340.73392
630.555	301.5994
631.006	341.74601
631.458	294.65772
631.909	303.64243
632.361	289.63387
632.812	288.6342
633.263	345.70142
633.714	304.60749
634.165	237.54648
634.616	275.62017
635.067	309.64255
635.518	315.70658
635.968	260.48534
636.419	318.65463
636.869	284.64033
637.319	323.70753
637.769	302.64296
638.219	280.62925
638.669	206.47358
639.119	232.53399
639.569	259.59458
640.019	300.65702
640.468	235.50587
640.918	270.61101
641.367	204.44132
641.816	254.5396
642.265	339.74414
642.714	288.62728
643.163	307.67192
643.612	297.69244
644.061	252.51503
644.51	270.59058
644.958	259.54626
645.406	229.52698
645.855	265.61517
646.303	254.56168
646.751	317.69322
647.199	220.4804
647.647	327.71599
648.095	205.45172
648.543	244.47266
648.99	295.67368
649.438	234.51984
649.885	301.71361
650.333	264.48646
650.78	275.63434
651.227	261.61163
651.674	301.65072
652.121	276.64665
652.568	266.62347
653.015	208.49762
653.461	225.51529
653.908	251.55146
654.354	238.54429
654.801	218.49294
655.247	255.52672
655.693	231.57918
656.139	219.50377
656.585	247.56544
657.031	206.46808
657.477	295.61016
657.922	181.39918
658.368	223.5281
658.813	245.53307
659.259	189.44465
659.704	268.60673
660.149	212.47136
660.594	239.54449
661.039	230.50351
661.484	249.56475
661.929	242.54207
662.373	176.42957
662.818	190.4556
663.262	182.42743
663.707	192.47385
664.151	191.45128
664.595	182.42743
665.039	164.39655
665.483	197.48557
665.927	200.45353
666.371	184.42013
666.814	173.39939
667.258	209.48653
667.701	210.43075
668.145	207.49778
668.588	206.4934
669.031	148.33998
669.474	170.3966
669.917	170.36163
670.36	185.44809
670.803	197.46058
671.245	151.3007
671.688	168.39763
672.13	174.38221
672.573	179.43893
673.015	149.35082
673.457	212.4437
673.899	204.47648
674.341	142.33428
674.783	158.3689
675.225	153.36738
675.666	224.5277
676.108	156.32809
676.549	141.32072
676.991	176.37423
677.432	171.32847
677.873	100.22474
678.314	192.44175
678.755	200.47666
679.196	175.38772
679.637	132.30892
680.078	146.33256
680.518	144.3223
680.959	168.38823
681.399	130.31482
681.839	158.3731
682.28	167.40343
682.72	165.36618
683.16	151.36725
683.6	188.41296
684.039	123.24825
684.479	154.37041
684.919	179.40797
685.358	99.24232
685.798	113.28863
686.237	133.30974
686.676	83.18512
687.115	170.38832
687.554	132.30868
687.993	132.28495
688.432	135.30047
688.871	135.30209
689.309	160.37283
689.748	110.2241
690.186	88.20256
690.625	128.2938
691.063	135.31415
691.501	140.33763
691.939	149.36551
692.377	100.23806
692.815	171.40544
693.253	112.26099
693.69	97.20845
694.128	159.3748
694.565	45.10575
695.003	126.31486
695.44	134.30954
695.877	154.35192
696.314	90.18603
696.751	100.22216
697.188	147.33125
697.625	70.15441
698.061	72.17002
698.498	79.18376
698.934	103.2412
699.371	74.17169
699.807	139.31911
700.243	120.28282
700.679	101.22041
701.115	133.30191
701.551	86.19621
701.987	82.17588
702.422	145.33635
702.858	140.32482
703.294	139.30989
703.729	98.23357
704.164	61.14368
704.599	136.29522
705.035	105.2304
705.47	71.16977
705.904	74.16863
706.339	97.21805
706.774	85.19546
707.209	137.30998
707.643	105.24569
708.078	100.23806
708.512	77.18994
708.946	90.2089
709.38	92.2143
709.814	60.13385
710.248	140.33277
710.682	124.29031
711.116	131.31072
711.549	64.16091
711.983	68.15458
712.416	113.26181
712.85	91.22075
713.283	101.23308
713.716	122.29433
714.149	92.20838
714.582	98.21527
715.015	59.14248
715.448	111.273
715.881	65.1371
716.313	141.31903
716.746	122.28104
717.178	66.15616
717.61	127.31442
718.043	81.19605
718.475	78.18576
718.907	131.31754
719.339	46.103
719.77	118.27529
720.202	77.1891
720.634	113.27051
721.065	80.18466
721.497	113.26948
721.928	60.14421
722.359	104.2473
722.79	70.16459
723.221	57.13915
723.652	92.22848
724.083	121.26395
724.514	147.3261
724.945	77.17656
725.375	79.181
725.806	68.16437
726.236	48.12081
726.666	86.19811
727.096	75.17968
727.526	141.3524
727.956	108.24033
728.386	95.22716
728.816	126.3136
729.246	108.25987
729.675	37.08898
730.105	87.20771
730.534	84.19111
730.964	46.11286
731.393	101.24077
731.822	73.18285
732.251	98.24258
732.68	80.18068
733.109	79.1907
733.537	90.21516
733.966	97.23645
734.395	112.2514
734.823	72.15543
735.251	48.11335
735.68	81.19494
736.108	90.21927
736.536	76.17375
736.964	58.13174
737.392	77.18805
737.82	120.2772
738.247	80.18591
738.675	99.22583
739.102	35.08599
739.53	80.2015
739.957	98.24754
740.384	103.24063
740.811	34.08321
741.238	91.21784
741.665	109.24914
742.092	29.06556
742.519	51.12451
742.945	133.31303
743.372	104.25157
743.798	75.18765
744.225	62.14345
744.651	94.22884
745.077	53.12963
745.503	78.18355
745.929	129.30255
746.355	101.23836
746.781	66.15845
747.207	104.24024
747.632	106.25631
748.058	117.28648
748.483	52.11715
748.908	77.18749
749.334	94.22584
749.759	92.21371
750.184	90.21162
750.609	75.17927
751.033	108.24372
751.458	140.2995
751.883	43.1038
752.307	72.16546
752.732	100.24934
753.156	104.24844
753.58	112.25522
754.005	80.19556
754.429	125.28686
754.853	91.22092
755.277	93.21496
755.7	109.26243
756.124	97.2346
756.548	66.15222
756.971	123.29006
757.394	67.16734
757.818	129.32218
758.241	108.26665
758.664	59.14591
759.087	68.14994
759.51	68.16362
759.933	62.14692
760.356	122.30541
760.778	87.20811
761.201	76.1787
761.623	69.15981
762.046	59.13437
762.468	104.24082
762.89	57.13578
763.312	145.3418
763.734	108.25236
764.156	102.24441
764.578	95.20934
765	72.17108
765.421	46.11537
765.843	103.2617
766.264	95.21758
766.686	51.12362
767.107	71.16769
767.528	110.27458
767.949	91.22431
768.37	123.29501
768.791	68.15858
769.212	68.16758
769.632	88.20045
770.053	56.14307
770.473	95.22159
770.894	59.14135
771.314	70.16029
771.734	92.20753
772.154	82.20328
772.575	76.16975
772.994	6.01336
773.414	83.19101
773.834	59.14323
774.254	64.15201
774.673	84.1999
775.093	84.2035
775.512	89.21346
775.931	63.15598
776.351	78.18946
776.77	63.15105
777.189	82.18897
777.607	70.1741
778.026	57.13858
778.445	81.20025
778.864	34.08425
779.282	31.0722
779.701	31.07616
780.119	43.10673
780.537	42.1021
780.955	85.20805
781.373	51.12279
781.791	115.2516
782.209	41.08993
782.627	52.13387
783.045	27.05992
783.462	67.16649
783.88	82.20646
784.297	60.14705
784.715	50.12607
785.132	24.05648
785.549	55.13377
785.966	62.15178
786.383	73.17535
786.8	84.18816
787.217	103.23779
787.633	74.1813
788.05	62.13946
788.466	33.07473
788.883	44.11067
789.299	-11.02568
789.715	133.31108
790.131	66.15935
790.547	70.16907
790.963	85.20348
791.379	66.16218
791.795	23.05056
792.21	112.24902
792.626	10.023
793.041	73.17395
793.457	68.16157
793.872	42.09501
794.287	75.17618
794.702	36.08485
795.117	39.09496
795.532	89.21744
795.947	40.09207
796.362	32.07263
796.776	59.13067
797.191	65.15447
797.605	42.09722
798.02	36.08511
798.434	120.25438
798.848	94.22644
799.262	61.14675
799.676	112.26181
800.09	101.23855
800.504	56.13085
800.918	18.04019
801.331	3.00752
801.745	63.13865
802.158	0
802.572	82.19146
802.985	75.17281
803.398	52.11955
803.811	6.01475
804.224	22.0526
804.637	26.06056
805.05	83.18297
805.462	46.10884
805.875	33.08373
806.288	31.07328
806.7	-1.00243
807.112	76.16758
807.525	33.07773
807.937	40.09632
808.349	73.17502
808.761	43.10306
809.173	73.17135
809.584	50.11885
809.996	3.00717
810.408	79.19944
810.819	71.16104
811.231	100.25834
811.642	89.2133
812.053	88.20684
812.464	25.05751
812.875	105.2592
813.286	98.24516
813.697	27.0595
814.108	49.1151
814.519	98.21047
814.929	93.22712
815.34	20.04662
815.75	49.12189
816.16	20.04781
816.571	34.08555
816.981	54.12126
817.391	32.0741
817.801	69.16606
818.211	44.10104
818.62	57.13322
819.03	23.05458
819.44	33.08221
819.849	23.05569
820.259	36.08836
820.668	92.21809
821.077	95.22872
821.486	29.06671
821.895	41.09642
822.304	51.13073
822.713	56.12689
823.122	51.12269
823.531	-1.00227
823.939	62.1463
824.348	26.06085
824.756	59.14167
825.164	67.16149
825.573	31.07554
825.981	57.13541
826.389	68.16412
826.797	101.24694
827.205	48.10704
827.612	15.03574
828.02	8.01814
828.428	9.0223
828.835	25.06455
829.243	6.01378
829.65	50.12118
830.057	90.20774
830.464	96.22678
830.871	66.15252
831.278	76.17633
831.685	73.15478
832.092	37.08661
832.499	76.15956
832.905	5.01224
833.312	-3.00651
833.718	92.22129
834.124	66.14492
834.531	47.1132
834.937	71.17617
835.343	9.02089
835.749	22.04888
836.155	10.02553
836.561	76.17968
836.966	72.16818
837.372	50.12222
837.777	70.16837
838.183	106.22175
838.588	52.12546
838.993	71.166
839.399	24.05716
839.804	11.02611
840.209	51.1271
840.613	41.08743
841.018	51.1239
841.423	62.15353
841.828	24.05923
842.232	34.07988
842.637	103.2341
843.041	42.1048
843.445	24.05788
843.849	43.10329
844.253	51.1161
844.657	63.15392
845.061	121.26473
845.465	35.0817
845.869	79.17525
846.272	52.1227
846.676	11.0253
847.079	74.18257
847.483	60.14355
847.886	53.12275
848.289	76.19838
848.692	19.04635
849.095	46.10584
849.498	66.15827
849.901	45.09816
850.304	49.11245
850.707	42.10309
851.109	73.17629
851.512	49.11641
851.914	9.02224
852.316	67.16503
852.718	72.18401
853.121	50.11812
853.523	3.00675
853.925	73.18555
854.326	71.17185
854.728	33.08257
855.13	29.07337
855.531	25.05792
855.933	63.14342
856.334	27.06579
856.736	40.08702
857.137	110.24509
857.538	67.16332
857.939	59.14248
858.34	8.01869
858.741	27.06824
859.142	57.13065
859.542	41.10565
859.943	58.13856
860.343	26.06282
860.744	40.09405
861.144	69.16303
861.544	-7.01662
861.945	29.07148
862.345	55.12859
862.745	96.22977
863.145	65.14569
863.544	55.13442
863.944	20.04563
864.344	34.08041
864.743	53.1263
865.143	102.25304
865.542	-14.03112
865.941	72.17167
866.34	9.02059
866.74	32.08353
867.139	90.20873
867.537	33.08038
867.936	62.14385
868.335	44.1078
868.734	14.03483
869.132	13.02879
869.531	62.14185
869.929	77.16825
870.327	20.04635
870.726	44.10455
871.124	50.11108
871.522	22.05412
871.92	24.05727
872.318	44.10273
872.715	38.08925
873.113	24.05617
873.511	47.11238
873.908	24.05978
874.306	74.17813
874.703	18.04316
875.1	-5.01227
875.497	61.13954
875.894	53.12746
876.291	78.18362
876.688	30.07508
877.085	0
877.482	47.11329
877.878	44.10346
878.275	51.12529
878.671	37.07629
879.068	76.17521
879.464	53.12294
879.86	40.09097
880.256	39.09115
880.652	24.0591
881.048	19.04503
881.444	-26.05934
881.84	5.01233
882.236	51.1233
882.631	57.1352
883.027	47.10885
883.422	0
883.817	58.14146
884.213	29.07209
884.608	76.18273
885.003	17.03926
885.398	9.02189
885.793	48.1155
886.188	4.00964
886.582	0
886.977	29.0658
887.371	32.07761
887.766	22.05332
888.16	-27.06459
888.554	64.15055
888.949	77.18503
889.343	26.06094
889.737	8.02099
890.131	53.12799
890.525	21.05245
890.918	76.18308
891.312	42.09548
891.706	24.06093
892.099	74.17995
892.492	64.13027
892.886	13.0307
893.279	-3.00742
893.672	57.14076
894.065	48.11589
894.458	5.01207
894.851	59.13757
895.244	54.13274
895.637	80.18466
896.029	57.13473
896.422	9.02101
896.814	60.14267
897.206	43.09994
897.599	80.18884
897.991	69.16082
898.383	54.12261
898.775	93.20166
899.167	72.16294
899.559	6.0146
899.951	32.07183
900.342	11.02685
900.734	50.12254
901.125	63.15797
901.517	32.07595
901.908	32.07266
902.299	25.05925
902.69	72.16387
903.082	74.17128
903.473	50.11697
903.863	63.15352
904.254	81.18141
904.645	45.1062
905.036	79.18681
905.426	67.14374
905.817	19.04474
906.207	-12.02743
906.597	94.21126
906.987	31.07703
907.378	48.11768
907.768	55.14088
908.158	35.08199
908.547	32.08124
908.937	38.09289
909.327	45.10476
909.717	43.10337
910.106	32.07363
910.495	14.03342
910.885	82.1994
911.274	74.17678
911.663	55.13292
912.052	64.14937
912.441	69.16989
912.83	79.17101
913.219	47.11823
913.608	44.10415
913.997	26.0637
914.385	48.11004
914.774	78.1809
915.162	128.2918
915.55	40.09226
915.939	46.11286
916.327	42.10006
916.715	84.20846
917.103	83.19124
917.491	51.12074
917.878	17.04029
918.266	9.02257
918.654	85.20975
919.041	48.12272
919.429	38.08614
919.816	41.10006
920.203	84.19644
920.591	78.18541
920.978	65.15239
921.365	47.11963
921.752	21.04746
922.139	53.10967
922.525	40.09281
922.912	57.13269
923.299	68.16226
923.685	-5.01258
924.072	13.02812
924.458	22.05296
924.844	56.13316
925.231	-43.09666
925.617	56.13872
926.003	58.14204
926.389	39.09482
926.774	29.07072
927.16	43.10255
927.546	68.16968
927.931	38.09071
928.317	68.14799
928.702	45.10153
929.088	87.20069
929.473	55.13587
929.858	54.12781
930.243	91.21034
930.628	45.10649
931.013	59.14059
931.398	36.07788
931.783	21.053
932.167	65.154
932.552	44.10575
932.937	33.07843
933.321	45.10978
933.705	16.03857
934.09	19.04541
934.474	62.13917
934.858	24.06047
935.242	14.03117
935.626	24.05982
936.009	56.14538
936.393	87.215
936.777	53.1316
937.16	70.17663
937.544	29.06452
937.927	24.0593
938.311	54.12539
938.694	59.15092
939.077	47.10795
939.46	0
939.843	21.04079
940.226	20.0494
940.609	76.16828
940.991	30.07328
941.374	38.09005
941.757	42.09922
942.139	48.10353
942.522	37.08334
942.904	41.09473
943.286	29.0709
943.668	75.18867
944.05	27.06424
944.432	17.04037
944.814	25.05875
945.196	43.10172
945.578	76.17563
945.959	47.10426
946.341	48.11075
946.722	58.12923
947.104	65.14857
947.485	103.22697
947.866	52.12721
948.247	76.18564
948.628	-9.02085
949.009	16.03972
949.39	17.04062
949.771	21.04577
950.152	75.17618
950.532	83.20104
950.913	73.16773
951.293	45.11884
951.674	64.14808
952.054	110.26448
952.434	15.0361
952.814	12.0272
953.194	14.03505
953.574	43.10125
953.954	-9.02047
954.334	85.20441
954.714	7.01661
955.093	53.12494
955.473	62.1506
955.853	60.14955
956.232	2.00534
956.611	37.08399
956.99	27.06587
957.37	26.06358
957.749	20.04517
958.128	47.11478
958.506	43.10794
958.885	48.11607
959.264	101.23883
959.643	96.2083
960.021	72.17213
960.4	30.0651
960.778	29.0677
961.156	18.04344
961.535	24.05316
961.913	29.06564
962.291	9.02273
962.669	66.1614
963.047	60.14809
963.424	61.15185
963.802	34.08076
964.18	3.00723
964.557	48.10504
964.935	65.14677
965.312	46.11636
965.69	11.02638
966.067	38.08782
966.444	27.06281
966.821	47.11696
967.198	46.10563
967.575	38.08914
967.952	59.1323
968.329	86.2008
968.705	79.16142
969.082	74.18485
969.458	58.13531
969.835	45.10513
970.211	67.16709
970.587	53.12702
970.963	3.0074
971.339	42.10651
971.715	74.17718
972.091	44.10398
972.467	11.02612
972.843	44.10644
973.219	85.19186
973.594	19.04822
973.97	2.00447
974.345	43.09927
974.721	28.06417
975.096	81.18856
975.471	52.11744
975.846	48.1096
976.221	28.06883
976.596	90.20906
976.971	106.2506
977.346	46.10147
977.72	18.04413
978.095	-11.02766
978.469	40.09111
978.844	32.07703
979.218	28.06574
979.593	72.16354
979.967	0
980.341	67.1477
980.715	64.15511
981.089	24.05795
981.463	42.0923
981.837	61.14469
982.21	22.04774
982.584	60.13938
982.957	58.13998
983.331	8.01794
983.704	102.24152
984.078	38.08991
984.451	25.05889
984.824	75.1757
985.197	26.05977
985.57	-30.07211
985.943	2.00469
986.316	47.10877
986.688	79.181
987.061	97.21626
987.434	107.26994
987.806	2.00462
988.179	-11.02502
988.551	14.0342
988.923	29.06834
989.295	27.06466
989.667	19.04451
990.039	90.2159
990.411	-8.01749
990.783	73.15722
991.155	-12.02813
991.527	26.06035
991.898	33.07969
992.27	11.02661
992.641	49.11721
993.012	-16.03544
993.384	31.07063
993.755	42.10385
994.126	55.12789
994.497	35.0827
994.868	28.06086
995.239	51.11798
995.61	42.10187
995.98	12.0281
996.351	35.08414
996.722	33.07439
997.092	26.05958
997.462	54.12226
997.833	17.0384
998.203	-21.04864
998.573	54.12964
998.943	71.15954
999.313	41.09492
999.683	34.07873
1000.053	-45.09825
1000.423	17.0395
1000.792	4.00994
1001.162	13.03067
1001.531	20.04769
1001.901	51.1213
1002.27	-29.06138
1002.639	8.01964
1003.009	-26.05989
1003.378	10.02484
1003.747	4.00905
1004.116	29.06655
1004.485	56.12782
1004.853	-22.05346
1005.222	-27.06503
1005.591	27.06134
1005.959	27.05862
1006.328	80.17136
1006.696	-7.01627
1007.064	1.00241
1007.433	29.06921
1007.801	24.05566
1008.169	3.00726
1008.537	77.16105
1008.905	74.16529
1009.273	53.12435
1009.64	34.07904
1010.008	57.12944
1010.375	46.10487
1010.743	22.04706
1011.11	73.16806
1011.478	61.14569
1011.845	54.12042
1012.212	79.17175
1012.579	51.12027
1012.946	56.1256
1013.313	37.08355
1013.68	34.07255
1014.047	18.04128
1014.414	18.04082
1014.78	36.08649
1015.147	68.15464
1015.513	35.08096
1015.88	36.08797
1016.246	32.07489
1016.612	72.15483
1016.978	65.15334
1017.344	19.04541
1017.71	31.07208
1018.076	-2.0045
1018.442	37.09211
1018.808	41.09961
1019.174	-10.02419
1019.539	1.00211
1019.905	46.10444
1020.27	-20.04785
1020.636	68.15295
1021.001	58.13313
1021.366	62.14294
1021.731	93.23176
1022.096	46.11278
1022.461	43.09773
1022.826	72.1644
1023.191	41.10388
1023.556	-11.02477
1023.92	52.12113
1024.285	12.02791
1024.649	29.06786
1025.014	20.04714
1025.378	55.13362
1025.742	10.02376
1026.107	74.1579
1026.471	70.15409
1026.835	40.09526
1027.199	-21.0492
1027.562	22.04849
1027.926	71.16437
1028.29	27.06599
1028.654	54.11772
1029.017	85.19951
1029.381	20.04616
1029.744	11.02718
1030.107	75.16859
1030.471	36.0832
1030.834	30.0641
1031.197	67.15357
1031.56	8.01807
1031.923	7.01759
1032.286	87.19348
1032.648	40.09016
1033.011	6.01347
1033.374	31.06894
1033.736	20.05102
1034.099	20.04701
1034.461	39.09571
1034.823	19.0459
1035.185	5.01206
1035.548	73.17028
1035.91	24.05511
1036.272	107.23074
1036.634	57.13322
1036.995	43.09575
1037.357	38.08928
1037.719	45.10509
1038.08	121.27322
1038.442	29.06591
1038.803	-37.08488
1039.165	-10.02436
1039.526	23.05352
1039.887	39.08929
1040.248	19.046
1040.609	29.0681
1040.97	28.06556
1041.331	41.10065
1041.692	86.19423
1042.053	56.12037
1042.413	40.08842
1042.774	76.17647
1043.134	31.06971
1043.495	44.1062
1043.855	68.15927
1044.215	28.06645
1044.576	41.09469
1044.936	75.1618
1045.296	43.10298
1045.656	-1.00234
1046.016	46.10554
1046.375	33.07685
1046.735	63.13853
1047.095	21.04723
1047.454	53.1048
1047.814	53.12192
1048.173	-4.00908
1048.533	40.0875
1048.892	-33.07743
1049.251	34.08141
1049.61	6.01429
1049.969	63.14086
1050.328	69.14131
1050.687	-3.00701
1051.046	2.00468
1051.405	8.01902
1051.763	33.07354
1052.122	-2.00482
1052.48	52.12251
1052.839	54.1235
1053.197	25.05638
1053.555	30.06376
1053.914	42.0981
1054.272	-14.03199
1054.63	15.03547
1054.988	91.20716
1055.345	28.0565
1055.703	61.14038
1056.061	92.22873
1056.419	31.07885
1056.776	-2.0046
1057.134	2.00437
1057.491	46.11064
1057.848	34.08082
1058.206	16.03552
1058.563	45.09399
1058.92	29.06361
1059.277	72.16936
1059.634	10.02227
1059.991	78.1781
1060.348	60.12947
1060.704	60.13993
1061.061	47.10187
1061.418	40.09317
1061.774	52.12299
1062.131	51.13214
1062.487	-13.02917
1062.843	59.14065
1063.199	31.07424
1063.555	77.17103
1063.911	28.06766
1064.267	76.14616
1064.623	55.1294
1064.979	-30.0662
1065.335	46.10402
1065.691	6.01363
1066.046	25.05229
1066.402	20.04319
1066.757	38.09234
1067.112	35.08203
1067.468	46.10546
1067.823	-22.05011
1068.178	41.09424
1068.533	66.15246
1068.888	21.0479
1069.243	21.04995
1069.598	32.07407
1069.952	60.13158
1070.307	44.10515
1070.662	72.165
1071.016	76.16385
1071.371	33.0722
1071.725	30.06809
1072.079	65.14941
1072.434	7.01649
1072.788	9.02032
1073.142	75.17604
1073.496	15.03412
1073.85	40.08835
1074.203	82.18935
1074.557	53.13766
1074.911	63.14197
1075.265	41.09092
1075.618	46.1077
1075.971	36.08187
1076.325	70.17175
1076.678	21.04608
1077.031	18.03811
1077.385	48.09988
1077.738	42.09004
1078.091	49.1073
1078.444	67.1456
1078.796	68.16039
1079.149	85.20177
1079.502	32.07307
1079.855	22.0493
1080.207	33.07776
1080.56	71.17713
1080.912	65.15054
1081.264	69.15904
1081.617	22.05183
1081.969	-11.02713
1082.321	15.03514
1082.673	93.20407
1083.025	19.04299
1083.377	313.66305
1083.728	68.14969
1084.08	36.08574
1084.432	2.00463
1084.783	1.00221
1085.135	66.15905
1085.486	37.08146
1085.838	51.12078
1086.189	79.18427
1086.54	49.11119
1086.891	78.19244
1087.242	108.25375
1087.593	31.0712
1087.944	27.05907
1088.295	97.20693
1088.646	104.24378
1088.996	34.07917
1089.347	37.08651
1089.698	37.08484
1090.048	24.05982
1090.398	41.09004
1090.749	21.04777
1091.099	76.18516
1091.449	66.15791
1091.799	48.11524
1092.149	49.11636
1092.499	17.03997
1092.849	24.059
1093.199	57.13541
1093.548	48.11172
1093.898	7.01685
1094.248	-25.0619
1094.597	23.05755
1094.947	28.07251
1095.296	37.08834
1095.645	38.09482
1095.994	49.11249
1096.343	79.19056
1096.692	47.12123
1097.041	50.13309
1097.39	-16.03872
1097.739	35.0877
1098.088	15.03869
1098.437	51.13123
1098.785	30.07764
1099.134	14.03541
1099.482	45.12032
1099.83	44.11158
1100.179	77.19661
1100.527	-18.04608
1100.875	43.11072
1101.223	70.18009
1101.571	-9.02421
1101.919	49.12648
1102.267	-5.0139
1102.615	-2.00643
1102.962	0
1103.31	5.01606
1103.658	-5.01604
