Data from N3 R3 sample 3_Subt2__4__11-09-40-810.txt Node

Date: Thu Sep 18 11:09:40 PDT 2025
User: uwsun
Spectrometer: HDX01956
Trigger mode: 0
Integration Time (sec): 5.000000E-1
Scans to average: 1
Nonlinearity correction enabled: true
Boxcar width: 0
Storing dark spectrum: false
XAxis mode: Wavelengths
Number of Pixels in Spectrum: 2068
>>>>>Begin Spectral Data<<<<<
194.03	107.30578
194.578	120.38471
195.127	108.34178
195.676	112.35556
196.225	134.34989
196.773	152.41474
197.321	229.61827
197.87	268.66988
198.418	320.79837
198.966	282.72491
199.513	338.82949
200.061	314.77346
200.609	290.74521
201.156	265.56579
201.704	258.63578
202.251	333.85611
202.798	237.60383
203.345	317.76051
203.892	269.66471
204.438	320.73327
204.985	280.64831
205.532	304.77681
206.078	315.74449
206.624	386.92723
207.17	328.74284
207.716	324.76917
208.262	369.69516
208.808	362.87487
209.354	377.89374
209.899	345.83647
210.445	333.80526
210.99	319.75424
211.535	344.78065
212.08	338.75521
212.625	295.71635
213.17	358.8779
213.715	332.73169
214.259	340.76438
214.804	310.73594
215.348	410.8994
215.892	353.82426
216.436	287.63584
216.98	340.71536
217.524	326.753
218.068	352.85488
218.612	345.84588
219.155	331.75405
219.698	317.72829
220.242	284.68071
220.785	321.72743
221.328	286.68603
221.871	361.88247
222.414	292.69962
222.956	260.60559
223.499	249.54085
224.041	255.56684
224.583	279.56775
225.126	251.53567
225.668	300.70397
226.21	294.72127
226.751	320.68454
227.293	313.67956
227.835	304.71947
228.376	247.54655
228.918	286.68916
229.459	256.62248
230	325.75025
230.541	286.63534
231.082	321.75191
231.622	253.55585
232.163	299.69545
232.704	324.7807
233.244	348.82613
233.784	288.67423
234.324	314.67955
234.864	344.74065
235.404	297.6736
235.944	287.65251
236.484	328.78645
237.023	311.70449
237.563	274.61753
238.102	341.77087
238.641	279.67928
239.18	284.64504
239.719	284.68848
240.258	308.66457
240.797	333.76228
241.335	297.69652
241.874	298.55739
242.412	346.80491
242.95	350.80907
243.488	284.61516
244.026	348.77337
244.564	349.68205
245.102	390.83607
245.64	271.62685
246.177	273.58641
246.715	305.70633
247.252	250.55145
247.789	322.56746
248.326	331.76561
248.863	321.67732
249.4	327.70965
249.936	362.7197
250.473	323.73405
251.009	320.70259
251.546	401.84499
252.082	275.57364
252.618	329.70455
253.154	334.77086
253.69	299.64557
254.226	325.74756
254.761	309.66659
255.297	269.56885
255.832	302.69314
256.367	324.7305
256.903	343.7285
257.438	358.79923
257.972	315.67312
258.507	291.64417
259.042	331.6883
259.576	370.77813
260.111	320.70466
260.645	358.73432
261.179	351.78538
261.713	380.80619
262.247	277.6119
262.781	336.67611
263.315	309.72154
263.849	340.81676
264.382	329.72371
264.915	365.82343
265.449	307.72278
265.982	345.74807
266.515	377.88028
267.048	324.65737
267.58	334.68726
268.113	315.65357
268.646	293.69278
269.178	348.74121
269.71	370.77744
270.243	361.79776
270.775	375.91907
271.307	390.87748
271.838	359.80758
272.37	341.80031
272.902	333.72143
273.433	372.78337
273.965	326.76078
274.496	345.81853
275.027	399.9426
275.558	390.90437
276.089	297.7185
276.62	323.78315
277.15	370.86649
277.681	348.71252
278.211	299.70395
278.741	368.77699
279.272	399.86329
279.802	360.85526
280.332	366.82383
280.861	338.77388
281.391	376.81128
281.921	347.79273
282.45	375.88523
282.98	378.94029
283.509	419.89803
284.038	402.8696
284.567	360.80004
285.096	437.99787
285.625	314.67897
286.153	376.85637
286.682	390.84977
287.21	322.73666
287.739	374.8408
288.267	399.92212
288.795	379.94466
289.323	378.84491
289.851	380.85078
290.378	397.83546
290.906	385.89719
291.433	376.89395
291.961	399.86329
292.488	435.01432
293.015	379.85221
293.542	397.9726
294.069	442.03047
294.596	381.88578
295.122	435.9833
295.649	400.82565
296.175	399.91002
296.702	414.95925
297.228	436.98737
297.754	342.73698
298.28	472.01207
298.806	438.99391
299.332	450.94344
299.857	456.96994
300.383	431.0215
300.908	451.0418
301.433	414.96228
301.958	442.95079
302.483	423.99114
303.008	481.11826
303.533	430.04707
304.058	423.92928
304.582	416.92983
305.107	414.02114
305.631	489.02761
306.155	398.88006
306.679	469.03049
307.203	488.0532
307.727	417.93495
308.251	475.09604
308.775	491.11457
309.298	471.06217
309.822	419.99748
310.345	506.12334
310.868	523.16811
311.391	508.16277
311.914	500.16776
312.437	537.12916
312.96	440.97697
313.482	457.00533
314.005	460.07714
314.527	430.0568
315.049	539.26365
315.571	552.1396
316.093	533.22227
316.615	499.11305
317.137	494.99953
317.659	549.22526
318.18	486.07886
318.702	578.23924
319.223	486.91718
319.744	603.23141
320.265	556.24882
320.786	585.34274
321.307	546.24587
321.828	584.20037
322.348	575.23943
322.869	616.33502
323.389	652.13531
323.909	600.2455
324.43	622.34861
324.95	619.28357
325.47	606.37461
325.989	647.38708
326.509	651.31094
327.029	672.37595
327.548	612.25802
328.067	662.45128
328.587	702.58226
329.106	644.30545
329.625	703.64785
330.144	711.47264
330.662	689.44991
331.181	737.54287
331.7	673.40316
332.218	706.357
332.736	719.49785
333.255	715.50138
333.773	731.53232
334.291	806.77461
334.808	737.46805
335.326	783.53596
335.844	861.75032
336.361	825.8713
336.879	804.65695
337.396	831.76892
337.913	807.62778
338.43	815.59657
338.947	823.71701
339.464	862.5891
339.981	799.661
340.497	811.75021
341.014	854.80966
341.53	896.72286
342.046	956.03914
342.562	918.96729
343.078	905.82401
343.594	926.87789
344.11	955.94247
344.626	937.02995
345.141	982.88306
345.657	955.82022
346.172	945.943
346.687	982.88848
347.202	1063.99808
347.717	1033.0522
348.232	1006.11451
348.747	1089.05866
349.261	1068.91488
349.776	1055.08048
350.29	1149.35798
350.805	1115.26662
351.319	1040.00257
351.833	1040.98489
352.347	1113.14808
352.861	1164.2035
353.374	1106.04269
353.888	1141.2808
354.401	1147.10027
354.915	1118.04853
355.428	1193.41008
355.941	1219.25487
356.454	1195.10325
356.967	1146.15987
357.48	1102.03023
357.993	1273.48211
358.505	1154.28088
359.018	1315.52927
359.53	1304.50508
360.042	1278.22376
360.554	1308.51876
361.066	1246.41281
361.578	1307.22156
362.09	1273.38536
362.602	1291.22827
363.113	1286.37392
363.625	1294.28121
364.136	1388.28895
364.647	1405.54118
365.158	1442.52242
365.669	1367.51459
366.18	1386.49214
366.691	1437.33072
367.201	1457.63296
367.712	1421.44999
368.222	1506.5585
368.733	1445.31903
369.243	1566.52124
369.753	1518.57078
370.263	1560.7767
370.773	1522.75717
371.282	1644.82283
371.792	1631.70244
372.301	1580.79384
372.811	1719.27445
373.32	1646.4848
373.829	1673.79823
374.338	1795.6849
374.847	1804.83422
375.356	1879.97282
375.865	1907.63024
376.373	2071.95219
376.882	2138.48765
377.39	2085.21781
377.898	2152.34682
378.407	2290.04692
378.915	2439.92432
379.423	2480.22224
379.93	2630.25918
380.438	2657.43894
380.946	2746.28013
381.453	2943.47426
381.96	3071.44636
382.468	3276.33124
382.975	3434.57212
383.482	3523.96986
383.989	3580.88514
384.495	3815.13264
385.002	3843.46597
385.509	4184.12376
386.015	4430.01254
386.521	4576.57988
387.028	4784.44547
387.534	4882.9981
388.04	5177.63408
388.546	5166.03458
389.051	5407.88359
389.557	5865.9813
390.063	6292.67077
390.568	6503.00523
391.073	6728.50865
391.578	7142.04952
392.084	7237.6859
392.589	7589.62575
393.093	8099.3667
393.598	8851.18319
394.103	9478.43814
394.607	10432.08698
395.112	11345.58113
395.616	11835.00614
396.12	13065.04262
396.624	14187.34851
397.128	15611.27661
397.632	17247.96331
398.136	18842.77935
398.639	20006.12867
399.143	22169.61013
399.646	25057.41728
400.15	27722.23678
400.653	30589.3622
401.156	34638.66955
401.659	40376.82221
402.162	49071.33698
402.664	60389.41176
403.167	63755.31552
403.67	63769.22307
404.172	63919.58413
404.674	63858.43483
405.176	63738.15102
405.678	63977.72923
406.18	64011.81569
406.682	63863.44694
407.184	63926.60148
407.686	63841.39382
408.187	64025.8516
408.688	63892.51763
409.19	63833.37461
409.691	63977.72923
410.192	63945.6488
410.693	63713.09355
411.194	61260.21168
411.694	58480.13194
412.195	53911.31123
412.696	48305.87363
413.196	44855.40585
413.696	44162.78159
414.196	44646.62481
414.696	44022.35977
415.196	41871.91376
415.696	38151.96439
416.196	30786.96791
416.695	23512.64119
417.195	20436.6449
417.694	19156.4553
418.194	18216.61179
418.693	16798.30755
419.192	16345.52831
419.691	16072.82667
420.19	15640.63139
420.688	15093.87459
421.187	14570.92111
421.685	13717.72411
422.184	12635.85273
422.682	10852.00506
423.18	9219.86291
423.678	8054.15272
424.176	7491.76673
424.674	7124.52373
425.172	6818.77645
425.669	6461.09695
426.167	5995.87837
426.664	5448.97791
427.161	5007.3073
427.659	4642.90514
428.156	4449.13552
428.652	4079.48941
429.149	3963.25311
429.646	3826.73926
430.143	3579.29953
430.639	3364.27666
431.135	3103.65743
431.632	3046.10569
432.128	2874.39545
432.624	2751.81653
433.12	2654.08651
433.616	2556.87484
434.111	2453.24754
434.607	2312.23286
435.103	2316.61958
435.598	2350.59936
436.093	2203.04664
436.588	2130.86126
437.083	2043.79903
437.578	1895.84521
438.073	1831.12159
438.568	1793.01432
439.062	1716.42766
439.557	1638.67062
440.051	1529.43572
440.546	1510.4521
441.04	1541.6707
441.534	1492.78414
442.028	1436.56543
442.522	1341.44089
443.015	1322.0934
443.509	1354.49616
444.002	1376.54188
444.496	1320.12118
444.989	1272.3829
445.482	1266.43539
445.975	1296.27294
446.468	1318.11437
446.961	1267.06927
447.454	1222.10027
447.947	1246.30098
448.439	1210.33074
448.931	1196.13068
449.424	1184.40002
449.916	1202.30317
450.408	1163.07752
450.9	1122.17733
451.392	1112.28246
451.884	1055.94716
452.375	1068.14592
452.867	1053.89226
453.358	1084.97842
453.849	1049.77757
454.341	1024.86397
454.832	1018.75974
455.323	1091.19672
455.814	1003.86205
456.304	987.86496
456.795	948.78024
457.285	962.72349
457.776	929.74749
458.266	898.78381
458.756	893.76523
459.247	923.83906
459.737	893.81626
460.226	905.7131
460.716	880.76911
461.206	845.71309
461.695	783.66957
462.185	890.77036
462.674	821.58865
463.163	883.6478
463.653	850.50522
464.142	794.6517
464.63	763.59665
465.119	766.52979
465.608	799.59762
466.096	744.38077
466.585	712.40997
467.073	669.38616
467.561	689.448
468.05	691.38651
468.538	687.47356
469.026	707.46043
469.513	646.18904
470.001	682.36811
470.489	704.45975
470.976	666.36672
471.463	679.48952
471.951	670.46884
472.438	610.27305
472.925	590.24051
473.412	563.22909
473.899	558.14788
474.385	594.30151
474.872	574.19781
475.359	549.22021
475.845	597.08849
476.331	532.01515
476.817	585.27557
477.303	529.11084
477.789	513.1089
478.275	480.09198
478.761	456.99607
479.247	475.96703
479.732	450.03599
480.218	503.20847
480.703	430.98209
481.188	455.90186
481.673	482.01042
482.158	466.92
482.643	453.06878
483.128	518.09464
483.612	480.04652
484.097	420.93954
484.581	432.92329
485.066	450.01618
485.55	375.77457
486.034	414.82961
486.518	443.98015
487.002	354.80953
487.486	316.72701
487.969	353.80708
488.453	339.79655
488.936	361.76138
489.42	332.69207
489.903	328.77236
490.386	270.53204
490.869	430.86845
491.352	301.68821
491.835	297.57519
492.318	354.74612
492.8	297.5829
493.283	340.82079
493.765	281.65797
494.247	372.81021
494.73	316.66135
495.212	282.63738
495.694	339.75385
496.175	333.75646
496.657	313.70268
497.139	264.42956
497.62	310.70807
498.102	325.76693
498.583	227.53778
499.064	241.51656
499.545	284.61673
500.026	275.59426
500.507	282.61891
500.988	298.70991
501.469	225.54147
501.949	277.65394
502.43	290.66667
502.91	338.67418
503.39	256.60917
503.87	256.58098
504.35	288.64165
504.83	250.52415
505.31	243.56343
505.79	240.54578
506.269	234.51703
506.749	265.57927
507.228	222.50505
507.707	283.60186
508.187	309.70138
508.666	263.62546
509.145	230.5188
509.623	205.46534
510.102	238.55479
510.581	311.71279
511.059	230.55948
511.538	245.60874
512.016	268.61536
512.494	240.55549
512.972	268.61487
513.45	239.53701
513.928	259.60481
514.406	256.60355
514.884	242.60228
515.361	278.63627
515.839	260.57447
516.316	284.65992
516.793	243.59143
517.27	244.56497
517.747	249.61597
518.224	241.53438
518.701	227.48382
519.178	254.61183
519.654	284.64216
520.131	220.52774
520.607	211.49969
521.083	220.48162
521.56	260.5879
522.036	252.52601
522.512	324.75938
522.987	319.72965
523.463	273.61943
523.939	355.83186
524.414	285.62193
524.89	298.67765
525.365	294.63192
525.84	274.6309
526.315	325.74666
526.79	317.6771
527.265	351.76367
527.74	293.67854
528.215	286.6364
528.689	268.56139
529.164	303.61547
529.638	266.64751
530.112	310.69237
530.587	342.68755
531.061	313.72025
531.534	342.77863
532.008	394.89663
532.482	392.84035
532.956	321.77888
533.429	422.9615
533.903	399.81157
534.376	396.81373
534.849	370.79696
535.322	422.92416
535.795	396.89353
536.268	403.91099
536.741	382.84892
537.213	449.95069
537.686	443.00258
538.158	496.02654
538.631	415.9362
539.103	467.96718
539.575	487.90713
540.047	483.95871
540.519	491.07258
540.991	489.0925
541.463	461.02051
541.934	454.94299
542.406	498.09363
542.877	526.07222
543.348	521.14494
543.82	492.09537
544.291	531.12241
544.762	540.16413
545.233	534.23459
545.703	549.09712
546.174	582.20808
546.645	535.17576
547.115	596.28998
547.585	579.19195
548.056	584.29461
548.526	645.35721
548.996	601.28558
549.466	659.4183
549.935	612.3066
550.405	623.20843
550.875	629.32872
551.344	605.28968
551.814	643.30134
552.283	668.27336
552.752	681.40289
553.221	630.22872
553.69	704.38565
554.159	679.49764
554.628	665.32566
555.096	703.58096
555.565	627.22489
556.033	717.49501
556.502	639.37168
556.97	655.28089
557.438	605.26903
557.906	605.27628
558.374	655.3414
558.842	600.28869
559.31	663.30269
559.777	635.38473
560.245	573.17958
560.712	574.17926
561.18	628.2283
561.647	552.10032
562.114	654.32152
562.581	615.35578
563.048	605.23494
563.514	705.56022
563.981	644.30307
564.448	696.37117
564.914	640.31566
565.381	697.3902
565.847	635.31094
566.313	595.23374
566.779	599.20054
567.245	650.32844
567.711	621.32555
568.176	602.20183
568.642	617.39421
569.108	673.46334
569.573	607.25137
570.038	667.21149
570.504	701.37877
570.969	628.38996
571.434	702.35384
571.899	688.43161
572.363	715.42549
572.828	785.54424
573.293	758.4949
573.757	748.5007
574.222	766.47041
574.686	831.61876
575.15	803.65896
575.614	897.7748
576.078	809.62062
576.542	828.59649
577.006	857.62524
577.469	901.86575
577.933	938.76229
578.396	965.8864
578.86	976.88681
579.323	953.90592
579.786	1028.7799
580.249	1124.10077
580.712	1054.07802
581.175	1081.15371
581.637	1065.94025
582.1	1149.93617
582.563	1185.91527
583.025	1212.30572
583.487	1364.01234
583.95	1267.02343
584.412	1433.12734
584.874	1406.55901
585.336	1481.55
585.797	1622.38895
586.259	1705.7128
586.721	1781.78573
587.182	1917.811
587.643	1983.79286
588.105	2047.99807
588.566	2120.50427
589.027	2350.33442
589.488	2427.02579
589.949	2572.36441
590.41	2760.34913
590.87	2826.07042
591.331	3050.79993
591.791	3225.10718
592.252	3429.10198
592.712	3638.22734
593.172	3823.81129
593.632	4092.53866
594.092	4254.46643
594.552	4575.10877
595.011	4808.34469
595.471	5194.06191
595.931	5423.9118
596.39	5701.20586
596.849	6128.81157
597.308	6472.21386
597.768	6944.36324
598.227	7334.92589
598.685	7817.91482
599.144	8420.60676
599.603	8853.19579
600.062	9548.6672
600.52	10156.34454
600.978	10624.84365
601.437	11271.71522
601.895	11991.908
602.353	12715.23729
602.811	13577.21183
603.269	14424.50452
603.727	15177.32502
604.184	16241.48589
604.642	17015.6321
605.099	18158.01728
605.557	18980.76959
606.014	19921.08687
606.471	21016.17541
606.928	22147.21548
607.385	23199.87509
607.842	24084.32912
608.299	25438.7969
608.755	26176.82025
609.212	27532.53767
609.668	28558.70825
610.125	29560.73038
610.581	30693.48026
611.037	31546.85364
611.493	32553.62177
611.949	33588.10163
612.405	34563.89218
612.861	35088.52302
613.316	35983.12282
613.772	36572.43621
614.227	37442.68875
614.683	37949.54026
615.138	38462.32402
615.593	38737.76548
616.048	39085.91402
616.503	39399.6801
616.958	39476.8348
617.412	39420.20334
617.867	39323.28256
618.321	38980.53186
618.776	38846.45669
619.23	38534.95373
619.684	37991.19336
620.138	37568.42262
620.592	37077.6709
621.046	36774.6275
621.5	36195.77768
621.954	35276.61666
622.407	34555.76057
622.861	33944.25881
623.314	33618.56705
623.768	32891.51258
624.221	32027.56635
624.674	31059.54302
625.127	30725.02795
625.58	30077.95706
626.033	29399.1136
626.485	28797.24616
626.938	27961.33186
627.39	27388.66535
627.843	26561.38954
628.295	25721.15868
628.747	25195.97003
629.199	24688.22802
629.651	24228.52681
630.103	23520.37194
630.555	22772.00315
631.006	22099.36551
631.458	21702.22944
631.909	21105.07333
632.361	20542.12237
632.812	20137.27138
633.263	19499.149
633.714	18984.74218
634.165	18397.58286
634.616	17819.5455
635.067	17269.46175
635.518	16743.44744
635.968	16273.08837
636.419	15928.04957
636.869	15354.44218
637.319	15100.30563
637.769	14623.32309
638.219	14079.75566
638.669	13682.41879
639.119	13391.11114
639.569	13231.91301
640.019	12820.47671
640.468	12572.14645
640.918	12226.47843
641.367	11815.62433
641.816	11529.15967
642.265	11283.65919
642.714	10925.17131
643.163	10702.23505
643.612	10418.03125
644.061	10065.19845
644.51	9944.67569
644.958	9830.40077
645.406	9419.30124
645.855	9327.11585
646.303	9071.5585
646.751	8799.07885
647.199	8768.99483
647.647	8446.57733
648.095	8206.24277
648.543	8185.95773
648.99	7973.21833
649.438	7709.87132
649.885	7642.20747
650.333	7503.15729
650.78	7343.92828
651.227	7121.96186
651.674	7065.55738
652.121	6915.97062
652.568	6711.97592
653.015	6672.04458
653.461	6451.81518
653.908	6299.62277
654.354	6254.87405
654.801	6061.83476
655.247	5925.37629
655.693	5874.72037
656.139	5667.12371
656.585	5537.19429
657.031	5624.03842
657.477	5458.63074
657.922	5244.99168
658.368	5249.5694
658.813	5134.05217
659.259	4988.61409
659.704	5041.41418
660.149	4857.30819
660.594	4858.52096
661.039	4625.35915
661.484	4659.61559
661.929	4407.6548
662.373	4289.26372
662.818	4308.13487
663.262	4194.0196
663.707	4189.42417
664.151	4007.16274
664.595	4032.09438
665.039	3851.35946
665.483	3840.55868
665.927	3771.9801
666.371	3744.01544
666.814	3570.13424
667.258	3624.22348
667.701	3529.46886
668.145	3433.49679
668.588	3385.47613
669.031	3304.13573
669.474	3276.26933
669.917	3193.72681
670.36	3128.55286
670.803	3137.33501
671.245	3024.39688
671.688	2973.38299
672.13	2916.95069
672.573	2783.60081
673.015	2814.31985
673.457	2841.74183
673.899	2843.33873
674.341	2713.29831
674.783	2671.26227
675.225	2589.39972
675.666	2660.38567
676.108	2592.7051
676.549	2527.07317
676.991	2606.78032
677.432	2530.31401
677.873	2455.95269
678.314	2391.14811
678.755	2349.32379
679.196	2332.92556
679.637	2273.12852
680.078	2332.0307
680.518	2251.91539
680.959	2160.04854
681.399	2161.24203
681.839	2188.15778
682.28	2129.24558
682.72	2060.81303
683.16	2077.23099
683.6	2086.80237
684.039	2058.39177
684.479	1947.08975
684.919	1975.89238
685.358	1901.08705
685.798	1880.28111
686.237	1883.8837
686.676	1822.62519
687.115	1834.79865
687.554	1827.85858
687.993	1845.55431
688.432	1775.62622
688.871	1763.63793
689.309	1742.79805
689.748	1685.23745
690.186	1638.60734
690.625	1668.65258
691.063	1618.66396
691.501	1598.78239
691.939	1666.92565
692.377	1528.63349
692.815	1628.77015
693.253	1534.57169
693.69	1516.27558
694.128	1493.60194
694.565	1541.56193
695.003	1520.82271
695.44	1452.47279
695.877	1452.45041
696.314	1406.06239
696.751	1387.26032
697.188	1473.42147
697.625	1365.19833
698.061	1359.4019
698.498	1318.3117
698.934	1352.3864
699.371	1355.343
699.807	1325.3162
700.243	1336.39822
700.679	1276.09389
701.115	1292.24118
701.551	1293.22939
701.987	1181.93556
702.422	1242.25041
702.858	1200.1949
703.294	1230.12193
703.729	1186.22895
704.164	1151.12976
704.599	1116.91749
705.035	1129.94352
705.47	1154.18029
705.904	1121.01042
706.339	1136.00678
706.774	1140.06392
707.209	1092.98805
707.643	1065.01708
708.078	1054.04218
708.512	1021.0715
708.946	1017.92362
709.38	996.90261
709.814	1017.81808
710.248	996.97229
710.682	1040.9935
711.116	1088.09722
711.549	903.9206
711.983	899.69675
712.416	924.79295
712.85	891.83107
713.283	948.81514
713.716	902.84996
714.149	807.55929
714.582	910.65602
715.015	828.70417
715.448	868.83055
715.881	808.42548
716.313	792.55182
716.746	805.59849
717.178	848.69845
717.61	838.79887
718.043	750.58221
718.475	719.49785
718.907	784.66267
719.339	695.34577
719.77	804.61913
720.202	711.53688
720.634	722.52376
721.065	698.40992
721.497	692.46357
721.928	655.39278
722.359	636.35438
722.79	688.41955
723.221	602.31684
723.652	648.44201
724.083	626.21744
724.514	594.19297
724.945	614.25363
725.375	629.27936
725.806	572.24798
726.236	618.39222
726.666	558.1618
727.096	539.17414
727.526	662.49447
727.956	593.18466
728.386	581.2572
728.816	559.27839
729.246	566.2406
729.675	486.06634
730.105	509.11431
730.534	479.00036
730.964	480.08008
731.393	515.12747
731.822	544.24329
732.251	501.14557
732.68	495.02103
733.109	469.04602
733.537	481.06133
733.966	489.10194
734.395	462.96217
734.823	440.87478
735.251	409.89777
735.68	432.96996
736.108	390.89649
736.536	359.77377
736.964	393.83177
737.392	412.94289
737.82	390.85229
738.247	375.82038
738.675	368.79368
739.102	328.76184
739.53	387.92062
739.957	352.84847
740.384	311.69675
740.811	302.70201
741.238	372.84247
741.665	414.88789
742.092	252.54375
742.519	318.73745
742.945	389.86967
743.372	349.805
743.798	312.74696
744.225	296.65291
744.651	283.66447
745.077	289.67564
745.503	298.67107
745.929	351.78732
746.355	266.60759
746.781	263.60763
747.207	260.58191
747.632	296.68997
748.058	313.73834
748.483	297.63548
748.908	262.61577
749.334	234.54718
749.759	302.67228
750.184	286.64668
750.609	259.5972
751.033	248.5436
751.458	287.59441
751.883	217.50654
752.307	229.50968
752.732	253.61323
753.156	239.55613
753.58	225.50099
754.005	186.44567
754.429	254.56778
754.853	265.62221
755.277	270.60205
755.7	220.51848
756.124	198.46972
756.548	211.47254
756.971	221.51121
757.394	179.43795
757.818	223.54742
758.241	192.4667
758.664	165.4001
759.087	190.40822
759.51	176.41479
759.933	201.46347
760.356	245.59963
760.778	178.41837
761.201	186.42795
761.623	171.38801
762.046	159.35477
762.468	197.44773
762.89	187.43429
763.312	205.47759
763.734	139.32282
764.156	169.39977
764.578	162.35196
765	189.43893
765.421	142.34995
765.843	161.40485
766.264	182.40953
766.686	133.31741
767.107	117.27387
767.528	152.37652
767.949	119.29181
768.37	175.41556
768.791	134.30843
769.212	149.36171
769.632	139.31335
770.053	68.17336
770.473	117.27172
770.894	138.32562
771.314	134.30288
771.734	109.24502
772.154	124.30503
772.575	196.42691
772.994	119.25881
773.414	105.24057
773.834	122.29267
774.254	119.27964
774.673	168.39332
775.093	143.34258
775.512	98.23465
775.931	143.34884
776.351	147.35243
776.77	110.26137
777.189	165.37394
777.607	90.22303
778.026	104.25063
778.445	127.31131
778.864	71.17475
779.282	81.18678
779.701	113.2734
780.119	95.23356
780.537	95.22863
780.955	103.25126
781.373	97.2315
781.791	171.36969
782.209	66.144
782.627	69.17712
783.045	80.17558
783.462	101.24941
783.88	100.25097
784.297	95.23132
784.715	81.20311
785.132	65.15174
785.549	89.21509
785.966	115.27876
786.383	109.26004
786.8	138.30569
787.217	105.24231
787.633	101.2462
788.05	111.24716
788.466	127.28208
788.883	83.20729
789.299	89.20367
789.715	125.29283
790.131	138.32865
790.547	115.2754
790.963	88.21054
791.379	94.22978
791.795	116.24998
792.21	130.28797
792.626	85.19256
793.041	105.24867
793.457	94.22223
793.872	64.14413
794.287	100.23376
794.702	94.21904
795.117	96.23126
795.532	69.1692
795.947	54.12395
796.362	72.16208
796.776	102.22387
797.191	80.18957
797.605	78.17925
798.02	43.10152
798.434	116.24611
798.848	117.28062
799.262	82.19649
799.676	91.2136
800.09	75.17803
800.504	47.11002
800.918	90.19795
801.331	-16.04024
801.745	60.13213
802.158	63.15093
802.572	107.2486
802.985	78.17961
803.398	102.23215
803.811	29.07101
804.224	47.11183
804.637	89.20474
805.05	114.24968
805.462	87.20421
805.875	62.1565
806.288	57.13405
806.7	54.12999
807.112	76.16758
807.525	53.12435
807.937	63.15105
808.349	77.18447
808.761	88.20909
809.173	112.26088
809.584	50.11885
809.996	57.13473
810.408	88.22181
810.819	38.08677
811.231	90.23291
811.642	116.27658
812.053	169.39093
812.464	136.3059
812.875	156.38147
813.286	135.33545
813.697	103.22335
814.108	96.22344
814.519	148.31442
814.929	104.25347
815.34	24.0559
815.75	102.25128
816.16	37.08817
816.571	85.21191
816.981	90.20061
817.391	74.16992
817.801	64.15417
818.211	148.33275
818.62	58.13553
819.03	88.20619
819.44	35.08716
819.849	41.09894
820.259	39.09567
820.668	76.18072
821.077	76.18364
821.486	66.1507
821.895	41.09642
822.304	77.19648
822.713	56.12689
823.122	81.19376
823.531	35.07894
823.939	87.20429
824.348	49.11416
824.756	70.16773
825.164	94.22541
825.573	63.1526
825.981	58.13776
826.389	87.20922
826.797	74.18183
827.205	90.19895
827.612	66.15573
828.02	22.04975
828.428	50.12295
828.835	72.1844
829.243	36.0822
829.65	68.16424
830.057	66.15307
830.464	95.22447
830.871	80.18436
831.278	20.04692
831.685	74.15687
832.092	22.05165
832.499	97.2027
832.905	82.19783
833.312	70.14949
833.718	89.21419
834.124	119.25837
834.531	63.15128
834.937	91.22497
835.343	55.12647
835.749	73.16046
836.155	56.14181
836.561	82.19364
836.966	61.14279
837.372	61.14881
837.777	75.18023
838.183	62.13097
838.588	84.20143
838.993	64.14984
839.399	69.16291
839.804	12.02848
840.209	92.22756
840.613	50.10641
841.018	50.1215
841.423	59.14618
841.828	49.12038
842.232	37.08688
842.637	127.28724
843.041	48.11964
843.445	59.14135
843.849	46.11043
844.253	37.08447
844.657	118.28533
845.061	132.28813
845.465	35.0817
845.869	95.21004
846.272	45.10633
846.676	56.12766
847.079	25.06224
847.483	74.17657
847.886	78.17975
848.289	42.11027
848.692	44.10684
849.095	53.12178
849.498	91.21718
849.901	66.14333
850.304	74.16897
850.707	53.12982
851.109	28.06819
851.512	54.12816
851.914	69.16864
852.316	58.1431
852.718	90.22928
853.121	53.12513
853.523	57.12676
853.925	20.05131
854.326	55.13352
854.728	54.1346
855.13	71.17829
855.531	58.1335
855.933	67.1524
856.334	73.17635
856.736	129.27531
857.137	66.14839
857.538	56.13679
857.939	92.22078
858.34	43.09979
858.741	50.12585
859.142	48.11022
859.542	84.21483
859.943	57.13619
860.343	42.10118
860.744	69.16133
861.144	106.24866
861.544	48.11278
861.945	53.13006
862.345	62.14476
862.745	102.24385
863.145	70.15674
863.544	74.18022
863.944	47.10665
864.344	19.04507
864.743	63.14984
865.143	72.17959
865.542	8.0177
865.941	59.14102
866.34	58.13137
866.74	57.14815
867.139	99.22919
867.537	18.04397
867.936	66.15301
868.335	40.09807
868.734	17.04227
869.132	35.07716
869.531	10.02312
869.929	62.13591
870.327	45.10377
870.726	21.05012
871.124	51.11328
871.522	27.06636
871.92	74.17488
872.318	71.16489
872.715	41.09624
873.113	56.13024
873.511	52.12422
873.908	38.09441
874.306	103.24657
874.703	43.10262
875.1	28.06827
875.497	38.08733
875.894	76.18197
876.291	56.13239
876.688	71.17636
877.085	52.11883
877.482	9.02185
877.878	73.17068
878.275	40.09847
878.671	45.09262
879.068	48.11128
879.464	59.1367
879.86	58.13142
880.256	40.09347
880.652	35.08602
881.048	63.14805
881.444	12.02718
881.84	65.15851
882.236	55.13287
882.631	53.12581
883.027	78.17954
883.422	23.05659
883.817	57.13905
884.213	43.10662
884.608	81.19457
885.003	12.02774
885.398	49.11829
885.793	7.01697
886.188	-5.01207
886.582	53.12963
886.977	13.02959
887.371	47.11367
887.766	37.08942
888.16	41.0968
888.554	54.12727
888.949	55.13272
889.343	50.11665
889.737	23.06019
890.131	29.07035
890.525	58.14389
890.918	58.1402
891.312	47.10673
891.706	69.17376
892.099	66.16074
892.492	94.19002
892.886	29.06828
893.279	39.09567
893.672	60.14809
894.065	66.15881
894.458	28.06732
894.851	77.1789
895.244	34.08388
895.637	62.14362
896.029	56.13239
896.422	58.13409
896.814	-5.01204
897.206	57.13212
897.599	103.24205
897.991	53.12392
898.383	79.17846
898.775	74.16112
899.167	43.09789
899.559	63.15168
899.951	51.11403
900.342	44.10676
900.734	59.14436
901.125	37.09321
901.517	71.16724
901.908	76.17102
902.299	39.09219
902.69	106.2396
903.082	88.20312
903.473	78.18147
903.863	43.10517
904.254	92.20558
904.645	10.02376
905.036	75.17748
905.426	84.17954
905.817	65.15168
906.207	-42.0966
906.597	33.07509
906.987	25.06219
907.378	48.11768
907.768	30.07718
908.158	9.02119
908.547	69.17401
908.937	-9.02219
909.327	7.01642
909.717	28.0675
910.106	81.18454
910.495	37.08793
910.885	84.20419
911.274	78.18619
911.663	-5.01222
912.052	12.02829
912.441	44.10884
912.83	72.15609
913.219	24.06062
913.608	68.1602
913.997	26.0637
914.385	44.10095
914.774	70.1626
915.162	52.12036
915.55	31.07163
915.939	50.12259
916.327	45.10715
916.715	53.13227
917.103	70.1617
917.491	74.17441
917.878	44.10374
918.266	44.10963
918.654	102.25091
919.041	80.20337
919.429	86.19304
919.816	64.15552
920.203	66.15489
920.591	85.20177
920.978	91.21226
921.365	51.12972
921.752	-5.01136
922.139	80.16454
922.525	53.12265
922.912	-4.00942
923.299	20.04816
923.685	-36.0911
924.072	-18.03919
924.458	70.16697
924.844	14.03356
925.231	29.06423
925.617	81.19973
926.003	34.08364
926.389	-4.0098
926.774	30.07314
927.16	40.09545
927.546	68.16968
927.931	44.10491
928.317	68.14799
928.702	44.09929
929.088	89.20523
929.473	54.13342
929.858	45.1067
930.243	33.07716
930.628	65.15323
931.013	4.00963
931.398	6.01306
931.783	27.06807
932.167	54.12821
932.552	29.0699
932.937	47.1114
933.321	-6.01478
933.705	3.00725
934.09	27.06444
934.474	27.06104
934.858	66.16505
935.242	40.08857
935.626	15.03745
936.009	58.15052
936.393	92.22715
936.777	67.16594
937.16	37.09391
937.544	31.06894
937.927	16.03959
938.311	26.06071
938.694	65.16609
939.077	55.12612
939.46	19.04397
939.843	40.07734
940.226	17.04201
940.609	108.23754
940.991	49.11927
941.374	46.10884
941.757	57.13426
942.139	68.14604
942.522	92.2049
942.904	19.04409
943.286	67.16265
943.668	96.24059
944.05	3.00717
944.432	28.06635
944.814	31.07276
945.196	56.13214
945.578	45.10463
945.959	-5.01121
946.341	27.06256
946.722	45.10053
947.104	72.16434
947.485	68.15094
947.866	32.07857
948.247	27.06655
948.628	-27.06278
949.009	27.0669
949.39	7.01676
949.771	-20.04397
950.152	53.12503
950.532	65.15797
950.913	42.0971
951.293	64.16848
951.674	63.14579
952.054	58.14083
952.434	52.12427
952.814	13.02946
953.194	10.02505
953.574	53.12455
953.954	62.139
954.334	79.1902
954.714	24.05676
955.093	67.15751
955.473	42.1024
955.853	52.1298
956.232	1.00267
956.611	-11.02521
956.99	25.06101
957.37	-5.0123
957.749	-11.025
958.128	34.08324
958.506	39.09797
958.885	22.05346
959.264	40.0957
959.643	60.13119
960.021	46.11052
960.4	55.1187
960.778	49.11394
961.156	14.03382
961.535	26.05757
961.913	107.23835
962.291	74.18472
962.669	-18.0447
963.047	31.07692
963.424	16.04016
963.802	104.24368
964.18	7.01686
964.557	46.10071
964.935	64.14454
965.312	56.1414
965.69	22.05266
966.067	11.02556
966.444	19.04427
966.821	74.18324
967.198	63.14417
967.575	12.02829
967.952	88.19615
968.329	78.1824
968.705	80.16343
969.082	102.2535
969.458	28.06571
969.835	45.10513
970.211	91.22596
970.587	20.04823
970.963	15.03692
971.339	37.09391
971.715	49.11788
972.091	50.11803
972.467	14.03323
972.843	56.13516
973.219	56.12715
973.594	26.06591
973.97	18.04007
974.345	57.13123
974.721	34.07782
975.096	70.16331
975.471	99.22145
975.846	64.14566
976.221	35.08592
976.596	33.07752
976.971	72.17134
977.346	14.03109
977.72	-3.00738
978.095	29.0724
978.469	36.08207
978.844	48.11519
979.218	61.14229
979.593	54.1231
979.967	-4.00925
980.341	84.18452
980.715	44.10704
981.089	51.12251
981.463	30.06609
981.837	73.17275
982.21	30.06498
982.584	52.12098
982.957	21.05104
983.331	36.08028
983.704	70.16677
984.078	57.13437
984.451	21.0495
984.824	27.06385
985.197	33.07576
985.57	16.03812
985.943	9.02106
986.316	56.12936
986.688	37.08549
987.061	69.15472
987.434	61.15516
987.806	-1.00231
988.179	-6.01363
988.551	55.13332
988.923	28.06599
989.295	22.05274
989.667	42.09795
990.039	91.21826
990.411	-6.01311
990.783	60.12958
991.155	-11.02578
991.527	17.03953
991.898	76.18204
992.27	53.12722
992.641	63.1503
993.012	41.08974
993.384	10.02288
993.755	52.12834
994.126	87.20101
994.497	23.05447
994.868	11.024
995.239	50.11569
995.61	36.08741
995.98	24.05606
996.351	27.06501
996.722	60.13451
997.092	50.11403
997.462	23.0524
997.833	29.06535
998.203	23.0528
998.573	40.09629
998.943	31.07023
999.313	48.11097
999.683	59.13594
1000.053	-10.02167
1000.423	5.01164
1000.792	-31.07754
1001.162	7.01653
1001.531	79.18623
1001.901	29.06926
1002.27	-18.03801
1002.639	-3.00738
1003.009	16.03655
1003.378	37.09144
1003.747	40.08986
1004.116	29.06655
1004.485	52.11878
1004.853	36.08653
1005.222	-4.00959
1005.591	52.11754
1005.959	9.01962
1006.328	25.05419
1006.696	-23.05363
1007.064	25.06003
1007.433	-31.07483
1007.801	17.03948
1008.169	43.10321
1008.537	71.1487
1008.905	63.14104
1009.273	22.05193
1009.64	63.14562
1010.008	33.07531
1010.375	27.06179
1010.743	15.03214
1011.11	116.26476
1011.478	55.13151
1011.845	39.08724
1012.212	87.18882
1012.579	64.15055
1012.946	44.09893
1013.313	59.13263
1013.68	83.17521
1014.047	-2.00461
1014.414	3.00682
1014.78	51.12218
1015.147	29.06647
1015.513	32.07407
1015.88	62.15077
1016.246	31.07257
1016.612	40.08661
1016.978	61.14402
1017.344	55.13056
1017.71	48.11124
1018.076	70.15512
1018.442	90.22188
1018.808	101.24261
1019.174	31.07441
1019.539	12.0253
1019.905	76.17151
1020.27	20.04749
1020.636	11.02503
1021.001	70.16029
1021.366	28.06499
1021.731	82.20476
1022.096	59.14431
1022.461	55.1247
1022.826	90.20476
1023.191	33.08373
1023.556	38.0847
1023.92	63.14643
1024.285	25.05799
1024.649	11.02583
1025.014	35.08225
1025.378	67.16241
1025.742	26.06159
1026.107	82.17466
1026.471	54.11927
1026.835	28.06684
1027.199	16.03721
1027.562	4.00885
1027.926	63.14608
1028.29	30.07328
1028.654	39.08529
1029.017	111.25922
1029.381	48.11018
1029.744	43.10564
1030.107	81.18186
1030.471	47.10838
1030.834	14.03001
1031.197	45.1036
1031.56	31.06969
1031.923	34.08502
1032.286	78.17379
1032.648	7.01588
1033.011	61.13543
1033.374	29.06452
1033.736	-3.00768
1034.099	-13.03075
1034.461	53.12973
1034.823	43.10341
1035.185	17.0409
1035.548	34.07992
1035.91	24.05511
1036.272	44.09616
1036.634	61.14245
1036.995	34.07585
1037.357	52.12184
1037.719	33.07725
1038.08	81.18439
1038.442	43.09745
1038.803	12.02726
1039.165	62.14902
1039.526	50.11573
1039.887	33.07564
1040.248	62.1489
1040.609	29.0681
1040.97	25.05857
1041.331	78.19017
1041.692	41.09345
1042.053	85.18156
1042.413	31.06866
1042.774	77.17876
1043.134	66.14736
1043.495	26.06297
1043.855	87.20301
1044.215	32.07589
1044.576	39.09011
1044.936	39.08479
1045.296	83.19725
1045.656	27.06295
1046.016	55.12597
1046.375	37.0861
1046.735	79.17313
1047.095	31.06957
1047.454	63.12429
1047.814	58.13329
1048.173	37.08327
1048.533	13.0286
1048.892	-1.00233
1049.251	32.07665
1049.61	55.1298
1049.969	37.08317
1050.328	65.13324
1050.687	16.03723
1051.046	22.05131
1051.405	21.04981
1051.763	48.10664
1052.122	18.04323
1052.48	50.11784
1052.839	100.22659
1053.197	55.12328
1053.555	82.17231
1053.914	69.16031
1054.272	51.11502
1054.63	52.12208
1054.988	89.20269
1055.345	5.01014
1055.703	92.21041
1056.061	55.13766
1056.419	54.13679
1056.776	40.09119
1057.134	-10.0219
1057.491	47.11303
1057.848	58.13723
1058.206	6.01335
1058.563	52.10845
1058.92	58.12644
1059.277	74.174
1059.634	28.06213
1059.991	57.1307
1060.348	21.04569
1060.704	83.19269
1061.061	76.16371
1061.418	20.04677
1061.774	16.03811
1062.131	61.15778
1062.487	37.08218
1062.843	70.16652
1063.199	25.05994
1063.555	38.08509
1063.911	25.06044
1064.267	122.23203
1064.623	29.06857
1064.979	-19.04183
1065.335	56.12637
1065.691	18.04079
1066.046	57.11837
1066.402	-5.01086
1066.757	59.1428
1067.112	60.13993
1067.468	61.13943
1067.823	14.03166
1068.178	30.06911
1068.533	70.16158
1068.888	64.14472
1069.243	57.13463
1069.598	14.03252
1069.952	83.18113
1070.307	27.06473
1070.662	84.19204
1071.016	50.1084
1071.371	69.14981
1071.725	52.11749
1072.079	68.15621
1072.434	43.10058
1072.788	13.02933
1073.142	71.16678
1073.496	19.04318
1073.85	47.10366
1074.203	76.1757
1074.557	58.15052
1074.911	87.19509
1075.265	47.10409
1075.618	76.17689
1075.971	56.12684
1076.325	26.06431
1076.678	5.01101
1077.031	-1.00213
1077.385	66.13679
1077.738	19.04094
1078.091	35.07687
1078.444	19.04171
1078.796	39.09251
1079.149	49.11712
1079.502	37.0844
1079.855	14.03143
1080.207	32.07542
1080.56	35.08789
1080.912	59.13681
1081.264	42.09733
1081.617	47.11019
1081.969	14.03438
1082.321	10.02345
1082.673	71.15652
1083.025	11.02493
1083.377	258.55311
1083.728	53.11704
1084.08	11.02632
1084.432	26.05994
1084.783	49.10702
1085.135	14.03407
1085.486	29.06396
1085.838	34.08079
1086.189	37.08702
1086.54	46.10444
1086.891	69.17052
1087.242	65.154
1087.593	29.06663
1087.944	30.06559
1088.295	53.11414
1088.646	117.27355
1088.996	64.14814
1089.347	8.01881
1089.698	24.05518
1090.048	17.04243
1090.398	62.13556
1090.749	-20.04587
1091.099	25.06149
1091.449	74.17678
1091.799	14.03383
1092.149	60.14218
1092.499	68.15827
1092.849	-3.00741
1093.199	53.12601
1093.548	67.15536
1093.898	-11.02657
1094.248	25.06133
1094.597	29.07248
1094.947	40.10337
1095.296	64.15201
1095.645	55.13682
1095.994	48.11022
1096.343	34.08271
1096.692	37.09561
1097.041	67.17784
1097.39	-13.03144
1097.739	9.02266
1098.088	21.05411
1098.437	21.05432
1098.785	-12.03128
1099.134	12.03037
1099.482	21.05637
1099.83	83.20902
1100.179	59.15113
1100.527	7.01784
1100.875	35.09025
1101.223	54.13931
1101.571	-1.00269
1101.919	39.10084
1102.267	22.06091
1102.615	3.00964
1102.962	8.02564
1103.31	9.02889
1103.658	2.00641
