Data from N2 R9 sample 8_Subt2__2__18-44-57-296.txt Node

Date: Fri Aug 29 18:44:57 PDT 2025
User: uwsun
Spectrometer: HDX01956
Trigger mode: 0
Integration Time (sec): 5.000000E-1
Scans to average: 1
Nonlinearity correction enabled: true
Boxcar width: 0
Storing dark spectrum: false
XAxis mode: Wavelengths
Number of Pixels in Spectrum: 2068
>>>>>Begin Spectral Data<<<<<
194.03	915.18922
194.578	878.45063
195.127	904.46717
195.676	919.51163
196.225	947.10024
196.773	1085.43814
197.321	1484.97497
197.87	2011.13383
198.418	1979.04985
198.966	1919.03447
199.513	1914.81582
200.061	1918.89133
200.609	1962.1812
201.156	1921.29327
201.704	1814.79191
202.251	1893.08405
202.798	1935.0274
203.345	1970.85111
203.892	2050.95844
204.438	2042.73463
204.985	1985.61938
205.532	2007.13284
206.078	2078.85812
206.624	2062.83377
207.17	2060.61184
207.716	1965.73087
208.262	2058.00361
208.808	2015.79489
209.354	2005.76146
209.899	2061.01297
210.445	2057.87425
210.99	2139.77677
211.535	2164.71098
212.08	2095.63515
212.625	2045.93762
213.17	2143.05106
213.715	2034.38178
214.259	2129.65928
214.804	2148.94197
215.348	2091.56916
215.892	2095.77036
216.436	2124.6501
216.98	2138.46319
217.524	2058.68364
218.068	2074.99199
218.612	2075.99801
219.155	2017.65399
219.698	1982.69365
220.242	1897.85666
220.785	1877.56667
221.328	1834.80028
221.871	1868.91607
222.414	1836.81153
222.956	1825.63361
223.499	1840.40365
224.041	1810.53591
224.583	1890.30926
225.126	1830.3269
225.668	1770.64462
226.21	1817.81682
226.751	1765.24463
227.293	1811.45404
227.835	1769.65803
228.376	1898.55049
228.918	1846.87635
229.459	1798.74936
230	1828.60338
230.541	1866.51142
231.082	1820.66726
231.622	1817.48298
232.163	1799.64316
232.704	1814.74514
233.244	1863.78652
233.784	1827.73672
234.324	1718.21259
234.864	1806.40065
235.404	1859.6279
235.944	1859.6132
236.484	1940.87871
237.023	1836.56496
237.563	1803.45717
238.102	1860.58608
238.641	1866.86973
239.18	1798.48407
239.719	1875.84298
240.258	1880.40994
240.797	1921.65499
241.335	1947.78553
241.874	1928.88219
242.412	1895.65815
242.95	1929.63765
243.488	1866.44812
244.026	1960.5186
244.564	1925.10458
245.102	1905.39271
245.64	1911.6978
246.177	1891.38932
246.715	1899.66886
247.252	1851.4658
247.789	1917.84351
248.326	1880.61609
248.863	1910.29848
249.4	1955.46736
249.936	1958.09869
250.473	1965.5549
251.009	1952.47271
251.546	1946.33152
252.082	2025.34431
252.618	1936.35884
253.154	1957.66315
253.69	1975.42386
254.226	1922.62199
254.761	1912.38284
255.297	1824.24209
255.832	1868.55166
256.367	1908.56091
256.903	1942.30342
257.438	2019.61308
257.972	2024.39196
258.507	2038.48191
259.042	2053.30187
259.576	1928.19801
260.111	2037.54946
260.645	2006.28004
261.179	1983.53785
261.713	2016.36679
262.247	1986.50675
262.781	1969.12657
263.315	2037.76048
263.849	2058.8676
264.382	2164.56195
264.915	2080.57918
265.449	2072.71493
265.982	2184.51843
266.515	2117.77653
267.048	2067.18199
267.58	2014.31325
268.113	2007.23312
268.646	2053.78985
269.178	2047.36381
269.71	2099.31518
270.243	2118.50002
270.775	2138.97252
271.307	2155.74821
271.838	2148.69576
272.37	2170.82668
272.902	2202.50127
273.433	2145.3128
273.965	2111.75023
274.496	2093.8547
275.027	2191.86338
275.558	2177.74924
276.089	2127.75339
276.62	2194.00625
277.15	2159.84072
277.681	2169.29857
278.211	2168.81094
278.741	2133.30458
279.272	2168.46277
279.802	2173.88219
280.332	2252.62116
280.861	2249.7267
281.391	2183.43213
281.921	2236.73782
282.45	2219.90115
282.98	2264.12066
283.509	2245.41307
284.038	2276.47173
284.567	2253.59682
285.096	2250.72891
285.625	2299.44765
286.153	2313.58227
286.682	2273.46547
287.21	2293.69515
287.739	2299.61381
288.267	2290.70979
288.795	2342.17691
289.323	2335.54026
289.851	2407.5893
290.378	2369.38679
290.906	2289.67676
291.433	2372.86927
291.961	2380.39958
292.488	2364.85318
293.015	2278.54029
293.542	2368.90626
294.069	2370.76107
294.596	2454.84343
295.122	2398.62956
295.649	2512.29211
296.175	2564.74292
296.702	2482.73127
297.228	2523.74902
297.754	2534.34417
298.28	2522.37838
298.806	2580.64969
299.332	2606.23824
299.857	2607.33843
300.383	2640.95138
300.908	2556.64402
301.433	2503.66208
301.958	2612.46864
302.483	2659.7987
303.008	2696.79141
303.533	2710.08625
304.058	2634.54601
304.582	2616.49572
305.107	2624.01467
305.631	2710.36918
306.155	2810.39907
306.679	2780.40921
307.203	2759.38354
307.727	2883.48828
308.251	2798.71292
308.775	2722.44694
309.298	2900.4701
309.822	2971.79184
310.345	2907.43769
310.868	3065.43583
311.391	2984.63668
311.914	2989.68925
312.437	3055.21206
312.96	3028.3299
313.482	3010.35903
314.005	3102.65751
314.527	3076.91098
315.049	3177.69647
315.571	3075.94466
316.093	3269.48823
316.615	3197.3331
317.137	3190.81338
317.659	3337.36238
318.18	3373.29646
318.702	3300.07097
319.223	3390.42473
319.744	3457.78207
320.265	3483.15198
320.786	3473.24642
321.307	3547.27092
321.828	3558.73545
322.348	3572.90955
322.869	3676.82415
323.389	3420.47976
323.909	3763.65527
324.43	3690.00386
324.95	3776.57214
325.47	3810.91256
325.989	3829.64989
326.509	3943.1893
327.029	4035.23981
327.548	3961.24623
328.067	4054.54317
328.587	4069.76917
329.106	4061.22051
329.625	4240.06679
330.144	4178.18254
330.662	4254.12292
331.181	4399.09968
331.7	4353.10916
332.218	4442.64926
332.736	4553.95392
333.255	4502.91254
333.773	4530.96902
334.291	4673.21666
334.808	4755.49699
335.326	4875.48932
335.844	4849.54727
336.361	4925.92854
336.879	4918.4902
337.396	5042.57747
337.913	5205.26949
338.43	5291.12775
338.947	5215.37975
339.464	5293.88724
339.981	5405.22417
340.497	5474.41049
341.014	5515.28533
341.53	5336.98084
342.046	5582.24204
342.562	5586.33869
343.078	5719.02238
343.594	5749.06301
344.11	5829.01844
344.626	5843.21162
345.141	5933.82618
345.657	6171.85989
346.172	6079.98872
346.687	6003.80597
347.202	6157.75198
347.717	6327.94798
348.232	6281.06761
348.747	6376.84022
349.261	6228.63057
349.776	6418.88115
350.29	6709.07986
350.805	6737.14236
351.319	6717.99417
351.833	6675.89811
352.347	6783.02808
352.861	6777.00035
353.374	7016.20171
353.888	7020.24241
354.401	7071.24056
354.915	7079.233
355.428	7225.44266
355.941	7305.5099
356.454	7455.72269
356.967	7425.66783
357.48	7315.52402
357.993	7574.87312
358.505	7583.89241
359.018	7767.18545
359.53	7753.18885
360.042	7924.63106
360.554	8041.72336
361.066	7759.19937
361.578	7927.7172
362.09	7888.472
362.602	7862.59188
363.113	8195.23573
363.625	8234.44538
364.136	8402.96676
364.647	8473.12925
365.158	8573.32742
365.669	8692.57842
366.18	8789.96946
366.691	8518.43645
367.201	8573.32009
367.712	8769.21193
368.222	8988.98568
368.733	9180.15845
369.243	9328.73077
369.753	9512.19166
370.263	9570.2916
370.773	9579.16957
371.282	9792.61201
371.792	9914.99933
372.301	10312.58962
372.811	10435.52537
373.32	10442.25948
373.829	10772.46135
374.338	11277.99807
374.847	11499.71124
375.356	11777.9275
375.865	12278.02055
376.373	13025.6176
376.882	13098.05591
377.39	13301.85257
377.898	13621.76641
378.407	14456.32362
378.915	14987.51987
379.423	15504.50428
379.93	15990.28537
380.438	16606.79803
380.946	17636.13575
381.453	18223.49757
381.96	19008.36893
382.468	20415.66227
382.975	21759.34347
383.482	22537.64907
383.989	22697.73566
384.495	23488.24856
385.002	24383.17036
385.509	25919.63162
386.015	27509.8085
386.521	28985.31616
387.028	30066.62752
387.534	31143.58257
388.04	32313.3137
388.546	32849.89495
389.051	34152.27526
389.557	36995.67777
390.063	40308.59295
390.568	41304.99665
391.073	42488.03297
391.578	43981.2765
392.084	44945.50921
392.589	45945.02969
393.093	48970.06031
393.598	51117.37755
394.103	51005.06799
394.607	50142.91461
395.112	49369.44386
395.616	48367.91388
396.12	46549.62089
396.624	44696.74816
397.128	43370.29424
397.632	41414.05101
398.136	39172.79427
398.639	36273.96993
399.143	32503.66402
399.646	28888.45294
400.15	25083.82847
400.653	20124.16724
401.156	13866.23708
401.659	5169.95759
402.162	1054.15589
402.664	0
403.167	0
403.67	0
404.172	0
404.674	0
405.176	0
405.678	0
406.18	0
406.682	0
407.184	0
407.686	0
408.187	0
408.688	0
409.19	0
409.691	0
410.192	0
410.693	0
411.194	435.30976
411.694	4082.94878
412.195	8864.71461
412.696	12089.80453
413.196	12760.96929
413.696	12863.67595
414.196	13703.56671
414.696	17261.84252
415.196	21764.24417
415.696	29583.19008
416.196	36460.31858
416.695	40057.39798
417.195	41392.74103
417.694	42311.08144
418.194	43882.52025
418.693	44704.85811
419.192	45402.14938
419.691	45678.73777
420.19	46397.77183
420.688	47237.71801
421.187	47797.94428
421.685	49412.82777
422.184	51092.75195
422.682	52582.97697
423.18	53761.37874
423.678	52941.09704
424.176	49258.45029
424.674	46595.68093
425.172	44482.30466
425.669	41971.23162
426.167	39097.40896
426.664	35679.37621
427.161	32798.69615
427.659	30217.52277
428.156	28355.62893
428.652	26441.66778
429.149	25590.8956
429.646	24721.669
430.143	23502.56412
430.639	21813.29662
431.135	20791.77106
431.632	19737.48029
432.128	18366.66058
432.624	17302.37318
433.12	16527.07455
433.616	15997.1554
434.111	15395.77594
434.607	14625.95498
435.103	14540.65353
435.598	14256.63692
436.093	13711.29681
436.588	13083.29735
437.083	12378.52552
437.578	11698.7405
438.073	11220.02196
438.568	11000.64571
439.062	10637.77988
439.557	10225.67413
440.051	9846.97701
440.546	9510.18555
441.04	9270.57347
441.534	9164.61045
442.028	9002.19089
442.522	8631.90418
443.015	8549.01175
443.509	8532.35808
444.002	8340.80374
444.496	8128.5958
444.989	8161.26793
445.482	7930.68443
445.975	7972.0557
446.468	7856.8813
446.961	7714.53656
447.454	7501.95853
447.947	7400.72741
448.439	7172.34997
448.931	7115.32639
449.424	7207.38653
449.916	7222.41044
450.408	6896.029
450.9	6712.8599
451.392	6644.85595
451.884	6704.83844
452.375	6283.63361
452.867	6391.60951
453.358	6284.52564
453.849	6228.445
454.341	6039.4313
454.832	6084.39269
455.323	5857.56213
455.814	5877.46857
456.304	5966.50331
456.795	5891.48248
457.285	5877.47268
457.776	5722.53704
458.266	5596.5911
458.756	5525.68889
459.247	5285.66311
459.737	5230.69472
460.226	5139.56134
460.716	5090.81055
461.206	4922.93428
461.695	4911.16919
462.185	4818.96413
462.674	4825.90859
463.163	4900.75739
463.653	4670.68357
464.142	4554.24739
464.63	4546.38742
465.119	4458.16874
465.608	4306.26252
466.096	4433.05016
466.585	4327.37719
467.073	4234.61389
467.561	4238.64798
468.05	4215.53384
468.538	4098.88884
469.026	4055.79908
469.513	3963.31558
470.001	3939.63777
470.489	3891.86822
470.976	3851.83712
471.463	3712.32685
471.951	3519.4983
472.438	3434.20196
472.925	3392.20386
473.412	3390.55965
473.899	3249.30632
474.385	3239.65023
474.872	3252.37669
475.359	3086.69723
475.845	3043.03257
476.331	3010.30405
476.817	2899.85588
477.303	2896.63511
477.789	2803.85215
478.275	2697.01146
478.761	2740.91762
479.247	2748.62706
479.732	2663.07566
480.218	2562.35406
480.703	2575.14566
481.188	2594.52831
481.673	2474.82165
482.158	2365.51315
482.643	2329.35151
483.128	2297.83555
483.612	2322.9745
484.097	2308.21375
484.581	2160.99507
485.066	2116.14282
485.55	2079.7538
486.034	1933.70629
486.518	1959.98552
487.002	2059.17657
487.486	1973.17067
487.969	1890.14845
488.453	1897.32212
488.936	1808.86914
489.42	1783.82681
489.903	1833.32052
490.386	1745.06504
490.869	1778.81192
491.352	1711.19225
491.835	1719.6525
492.318	1735.90221
492.8	1708.65065
493.283	1611.2421
493.765	1495.05997
494.247	1577.99738
494.73	1469.75158
495.212	1530.08396
495.694	1431.87325
496.175	1432.90282
496.657	1474.98271
497.139	1400.22331
497.62	1350.85677
498.102	1316.97475
498.583	1300.0103
499.064	1243.63524
499.545	1326.7766
500.026	1273.68633
500.507	1205.72561
500.988	1277.97717
501.469	1161.86471
501.949	1233.93195
502.43	1149.71887
502.91	1117.39939
503.39	1180.92052
503.87	1114.67169
504.35	1072.66531
504.83	1120.53079
505.31	1127.76801
505.79	1021.62036
506.269	1128.70196
506.749	992.49569
507.228	1045.61041
507.707	1026.47908
508.187	1124.76176
508.666	1004.66672
509.145	1002.56058
509.623	983.55623
510.102	967.60905
510.581	953.59698
511.059	991.70341
511.538	977.77778
512.016	995.62048
512.494	1026.69777
512.972	944.55731
513.45	859.37714
513.928	939.57858
514.406	941.5502
514.884	909.66548
515.361	892.50136
515.839	938.46048
516.316	952.58791
516.793	884.61348
517.27	940.60475
517.747	858.59435
518.224	846.39359
518.701	843.32232
519.178	823.47279
519.654	844.44891
520.131	763.39396
520.607	814.48322
521.083	812.32853
521.56	774.33553
522.036	807.26565
522.512	797.45401
522.987	753.30714
523.463	814.40324
523.939	804.45239
524.414	856.41871
524.89	776.35393
525.365	767.26483
525.84	712.25182
526.315	739.32283
526.79	778.27628
527.265	780.29666
527.74	721.31841
528.215	784.35714
528.689	760.2245
529.164	816.27131
529.638	751.46409
530.112	695.22793
530.587	734.13515
531.061	680.23984
531.534	730.33524
532.008	710.28355
532.482	726.24518
532.956	672.31326
533.429	720.31823
533.903	737.20782
534.376	759.23084
534.849	735.27312
535.322	758.33358
535.795	650.22639
536.268	703.28025
536.741	709.29381
537.213	693.21293
537.686	677.25838
538.158	639.08303
538.631	739.36296
539.103	659.11399
539.575	715.10211
540.047	672.1142
540.519	723.31142
540.991	720.3461
541.463	729.33844
541.934	768.30193
542.406	712.28258
542.877	724.22119
543.348	760.38323
543.82	756.40448
544.291	810.39929
544.762	697.25134
545.233	826.5363
545.703	758.22956
546.174	864.45331
546.645	863.48359
547.115	917.58173
547.585	906.48203
548.056	858.48794
548.526	934.53906
548.996	1040.72766
549.466	1115.85834
549.935	1124.76176
550.405	1162.62683
550.875	1138.78073
551.344	1080.75411
551.814	1143.72113
552.283	1231.68226
552.752	1184.76999
553.221	1229.64476
553.69	1340.79558
554.159	1354.06288
554.628	1338.79287
555.096	1300.10763
555.565	1325.79569
556.033	1282.92449
556.502	1128.84062
556.97	1098.61698
557.438	1088.76222
557.906	1038.72054
558.374	1045.65767
558.842	977.6632
559.31	947.50587
559.777	858.52651
560.245	909.56123
560.712	943.57672
561.18	877.40132
561.647	915.47308
562.114	963.56379
562.581	1044.84208
563.048	1038.69221
563.514	1017.78919
563.981	1040.68036
564.448	1066.66461
564.914	1083.7713
565.381	1120.76457
565.847	1194.91097
566.313	1145.84304
566.779	1135.75808
567.245	1172.883
567.711	1234.00555
568.176	1207.81165
568.642	1213.09744
569.108	1344.18917
569.573	1387.12418
570.038	1346.78596
570.504	1384.96168
570.969	1398.30681
571.434	1373.8918
571.899	1511.24306
572.363	1576.15867
572.828	1574.1836
573.293	1622.2127
573.757	1545.16119
574.222	1624.11179
574.686	1607.111
575.15	1633.32217
575.614	1609.19398
576.078	1686.3163
576.542	1673.21976
577.006	1677.18423
577.469	1729.56026
577.933	1699.1633
578.396	1580.29825
578.86	1629.30489
579.323	1620.32276
579.786	1618.02377
580.249	1580.15173
580.712	1599.40945
581.175	1555.39522
581.637	1596.22724
582.1	1563.06041
582.563	1546.99172
583.025	1506.2981
583.487	1527.79455
583.95	1333.81489
584.412	1504.89878
584.874	1427.23724
585.336	1398.14055
585.797	1458.93912
586.259	1419.16218
586.721	1363.08099
587.182	1460.18413
587.643	1352.99656
588.105	1348.10089
588.566	1295.76374
589.027	1252.03726
589.488	1274.93526
589.949	1298.11846
590.41	1209.51172
590.87	1242.91647
591.331	1298.83169
591.791	1231.91548
592.252	1211.8667
592.712	1264.06148
593.172	1254.88215
593.632	1230.80839
594.092	1244.85364
594.552	1241.76765
595.011	1225.89283
595.471	1311.9232
595.931	1264.86895
596.39	1195.96946
596.849	1313.02407
597.308	1308.85175
597.768	1232.17033
598.227	1328.13653
598.685	1272.96537
599.144	1346.06871
599.603	1348.10938
600.062	1292.74422
600.52	1324.91704
600.978	1345.10767
601.437	1409.07375
601.895	1482.91314
602.353	1475.03985
602.811	1512.06042
603.269	1505.27839
603.727	1622.37167
604.184	1579.13856
604.642	1552.38846
605.099	1724.3377
605.557	1714.50506
606.014	1698.07185
606.471	1746.58657
606.928	1716.05016
607.385	1952.5993
607.842	2183.47415
608.299	2225.5762
608.755	2142.67699
609.212	2070.32431
609.668	2116.30562
610.125	2195.72216
610.581	2263.71371
611.037	2245.54578
611.493	2177.6638
611.949	2026.6495
612.405	2072.99958
612.861	2029.6054
613.316	2104.66577
613.772	2160.53877
614.227	2098.62018
614.683	2168.29477
615.138	2112.59675
615.593	2164.5931
616.048	2203.56631
616.503	2198.87566
616.958	2162.92793
617.412	2144.67957
617.867	2160.39903
618.321	2131.1842
618.776	2143.43406
619.23	2109.65333
619.684	2071.50669
620.138	2170.66508
620.592	2014.76975
621.046	1983.63386
621.5	1947.74282
621.954	2004.49917
622.407	1981.44671
622.861	1947.75818
623.314	1891.494
623.768	1850.54922
624.221	1816.98701
624.674	1739.44925
625.127	1762.52489
625.58	1815.48973
626.033	1769.35739
626.485	1633.5123
626.938	1626.50359
627.39	1629.43199
627.843	1592.39098
628.295	1507.32055
628.747	1591.48544
629.199	1480.25273
629.651	1352.13273
630.103	1394.20076
630.555	1339.9491
631.006	1347.23249
631.458	1307.20612
631.909	1271.11272
632.361	1250.12361
632.812	1179.01368
633.263	1148.82657
633.714	1215.88714
634.165	1120.07582
634.616	1099.00102
635.067	1144.90532
635.518	1092.00774
635.968	1091.63648
636.419	1007.70065
636.869	1028.92131
637.319	1057.89365
637.769	964.70144
638.219	1008.91167
638.669	904.74826
639.119	952.87542
639.569	871.72409
640.019	951.76533
640.468	890.61137
640.918	944.84399
641.367	892.62484
641.816	854.56647
642.265	897.69215
642.714	830.5927
643.163	885.6654
643.612	788.58614
644.061	822.42686
644.51	823.55535
644.958	815.48317
645.406	790.5909
645.855	832.71011
646.303	853.65696
646.751	825.55914
647.199	835.5773
647.647	777.50697
648.095	806.54657
648.543	839.41382
648.99	788.59123
649.438	904.75242
649.885	792.66725
650.333	791.26849
650.78	801.63635
651.227	787.6266
651.674	777.49765
652.121	758.57954
652.568	728.523
653.015	769.67296
653.461	725.48427
653.908	762.51546
654.354	800.62287
654.801	694.41016
655.247	745.39671
655.693	732.66132
656.139	689.43974
656.585	698.4576
657.031	664.35035
657.477	674.26119
657.922	695.38813
658.368	680.47388
658.813	675.3768
659.259	659.39035
659.704	651.33319
660.149	623.28498
660.594	667.39125
661.039	639.2832
661.484	642.36007
661.929	629.30492
662.373	594.34355
662.818	614.36063
663.262	590.27208
663.707	592.34933
664.151	575.26644
664.595	567.23261
665.039	590.32257
665.483	567.30709
665.927	594.25606
666.371	483.02256
666.814	545.18271
667.258	497.07472
667.701	578.12233
668.145	561.26908
668.588	542.21185
669.031	484.04455
669.474	523.15127
669.917	525.06071
670.36	491.12222
670.803	573.25412
671.245	487.94454
671.688	453.02775
672.13	467.96805
672.573	527.22971
673.015	493.09148
673.457	466.93986
673.899	482.0806
674.341	463.0373
674.783	408.91909
675.225	427.98407
675.666	430.96587
676.108	436.88501
676.549	443.98179
676.991	467.95593
677.432	355.67207
677.873	412.89732
678.314	426.95492
678.755	419.95832
679.196	413.88938
679.637	468.06463
680.078	407.89939
680.518	391.86404
680.959	363.8276
681.399	381.8959
681.839	371.85845
682.28	359.8432
682.72	335.73382
683.16	357.847
683.6	382.82775
684.039	346.6895
684.479	366.85444
684.919	297.65936
685.358	381.91887
685.798	350.87604
686.237	385.88447
686.676	361.80043
687.115	353.79246
687.554	311.71136
687.993	353.74647
688.432	320.70348
688.871	283.62202
689.309	298.68724
689.748	288.58487
690.186	359.81948
690.625	282.6405
691.063	317.73149
691.501	308.73429
691.939	316.75797
692.377	318.7462
692.815	257.59825
693.253	324.74987
693.69	275.58765
694.128	263.61921
694.565	306.70457
695.003	261.64423
695.44	262.59942
695.877	248.56511
696.314	283.5919
696.751	339.74289
697.188	248.55643
697.625	314.69667
698.061	278.647
698.498	278.65362
698.934	294.68531
699.371	214.49492
699.807	283.64941
700.243	237.55778
700.679	260.57471
701.115	294.67126
701.551	261.59941
701.987	245.53986
702.422	299.68612
702.858	234.5459
703.294	235.52238
703.729	255.60854
704.164	203.4813
704.599	225.49267
705.035	215.47336
705.47	189.45347
705.904	197.4528
706.339	237.54103
706.774	211.48634
707.209	173.39557
707.643	254.59511
708.078	207.49589
708.512	178.43947
708.946	247.57883
709.38	220.51223
709.814	189.4278
710.248	196.47124
710.682	193.453
711.116	188.44221
711.549	228.57609
711.983	187.42741
712.416	259.59743
712.85	207.50758
713.283	207.48244
713.716	241.59225
714.149	283.65513
714.582	211.46689
715.015	265.64617
715.448	240.59143
715.881	276.58812
716.313	187.43326
716.746	188.43721
717.178	204.48283
717.61	211.5258
718.043	238.58023
718.475	232.55079
718.907	293.71868
719.339	188.42112
719.77	196.45779
720.202	220.54554
720.634	229.54524
721.065	212.49419
721.497	235.56361
721.928	200.48323
722.359	187.44457
722.79	227.53217
723.221	229.56464
723.652	295.73695
724.083	197.43846
724.514	260.58215
724.945	188.43652
725.375	176.40397
725.806	210.5156
726.236	257.64158
726.666	180.42175
727.096	209.50431
727.526	197.49235
727.956	197.44155
728.386	247.59373
728.816	217.5382
729.246	195.46661
729.675	191.46314
730.105	224.5406
730.534	226.51852
730.964	245.60497
731.393	266.6434
731.822	219.54851
732.251	218.54255
732.68	265.60811
733.109	235.56618
733.537	174.41565
733.966	228.5542
734.395	210.47698
734.823	244.53844
735.251	216.51064
735.68	275.66904
736.108	217.53859
736.536	239.55131
736.964	217.49438
737.392	230.56324
737.82	252.58973
738.247	233.54623
738.675	299.69079
739.102	199.48887
739.53	247.61282
739.957	248.62169
740.384	245.59049
740.811	236.58478
741.238	204.48954
741.665	230.52177
742.092	216.50668
742.519	212.51454
742.945	213.50208
743.372	222.5384
743.798	234.58787
744.225	179.42063
744.651	229.56214
745.077	243.5912
745.503	221.52862
745.929	222.52198
746.355	295.7099
746.781	272.65419
747.207	171.39666
747.632	183.43974
748.058	238.58002
748.483	256.5739
748.908	265.63965
749.334	230.55256
749.759	215.49733
750.184	232.53995
750.609	275.6555
751.033	261.60061
751.458	277.60268
751.883	241.58305
752.307	213.49192
752.732	199.48815
753.156	312.74154
753.58	221.51466
754.005	290.71199
754.429	239.54823
754.853	247.59599
755.277	243.56098
755.7	252.60862
756.124	246.59458
756.548	210.48837
756.971	233.55604
757.394	255.63912
757.818	214.53956
758.241	255.6292
758.664	228.56269
759.087	184.40503
759.51	225.54783
759.933	203.47963
760.356	242.6049
760.778	216.52031
761.201	215.5129
761.623	270.63581
762.046	264.60885
762.468	298.69108
762.89	241.58041
763.312	255.60574
763.734	208.49135
764.156	205.4969
764.578	225.5068
765	228.5438
765.421	205.5103
765.843	213.54709
766.264	240.56583
766.686	238.58326
767.107	202.48069
767.528	162.40393
767.949	206.51381
768.37	209.50297
768.791	217.51429
769.212	149.37051
769.632	169.38891
770.053	180.46677
770.473	195.46626
770.894	184.45394
771.314	217.50793
771.734	166.38255
772.154	172.43569
772.575	164.37628
772.994	130.29408
773.414	214.50356
773.834	134.33278
774.254	174.4201
774.673	208.49667
775.093	147.36033
775.512	129.31586
775.931	138.34708
776.351	151.3711
776.77	154.37238
777.189	181.42401
777.607	133.33709
778.026	113.28048
778.445	120.29856
778.864	158.40052
779.282	115.27582
779.701	141.35227
780.119	111.27933
780.537	119.29537
780.955	157.3948
781.373	81.20076
781.791	117.26203
782.209	116.26668
782.627	152.39566
783.045	83.19154
783.462	126.31963
783.88	80.20703
784.297	112.28048
784.715	98.25089
785.132	120.28896
785.549	116.28861
785.966	106.26565
786.383	93.22856
786.8	126.29095
787.217	103.24365
787.633	71.17758
788.05	131.30916
788.466	107.25184
788.883	94.23913
789.299	55.13332
789.715	99.24016
790.131	96.23824
790.547	89.22212
790.963	138.33921
791.379	107.26926
791.795	113.25693
792.21	101.23568
792.626	62.14788
793.041	94.23157
793.457	104.25611
793.872	87.20461
794.287	46.11056
794.702	107.26258
795.117	89.22075
795.532	44.11095
795.947	109.26133
796.362	107.25468
796.776	149.34522
797.191	50.12313
797.605	52.12279
798.02	49.11998
798.434	57.12787
798.848	61.15075
799.262	38.09496
799.676	126.30502
800.09	94.23072
800.504	108.26086
800.918	82.1901
801.331	110.28673
801.745	95.21784
802.158	62.15544
802.572	86.2085
802.985	99.23862
803.398	76.18148
803.811	107.27369
804.224	64.15976
804.637	55.13166
805.05	45.10513
805.462	80.19658
805.875	65.16865
806.288	6.01467
806.7	50.12625
807.112	72.16732
807.525	97.23857
807.937	21.05243
808.349	77.19287
808.761	82.20156
809.173	87.21049
809.584	97.23892
809.996	30.07407
810.408	85.21879
810.819	105.24569
811.231	205.51715
811.642	296.67556
812.053	460.01046
812.464	533.15319
812.875	446.06179
813.286	278.68959
813.697	214.48744
814.108	142.34271
814.519	104.23076
814.929	116.29364
815.34	112.2698
815.75	74.18792
816.16	101.25051
816.571	80.20746
816.981	77.18187
817.391	78.18825
817.801	16.04014
818.211	82.19529
818.62	79.18998
819.03	124.30108
819.44	58.15181
819.849	122.30464
820.259	90.2296
820.668	42.10385
821.077	28.07007
821.486	92.22087
821.895	80.19745
822.304	71.18801
822.713	38.09047
823.122	48.12029
823.531	37.08834
823.939	72.17541
824.348	99.23952
824.756	59.1481
825.164	89.22324
825.573	27.06826
825.981	93.22974
826.389	81.20311
826.797	38.09571
827.205	57.13123
827.612	70.17277
828.02	43.10152
828.428	63.16058
828.835	91.23846
829.243	120.28337
829.65	57.142
830.057	58.14109
830.464	64.1561
830.871	91.2171
831.278	75.18112
831.685	72.16075
832.092	71.17378
832.499	53.11645
832.905	46.1169
833.312	46.1055
833.718	74.18418
834.124	15.03467
834.531	53.13395
834.937	58.14906
835.343	47.11389
835.749	63.14741
836.155	70.18309
836.561	35.08659
836.966	86.2096
837.372	74.18806
837.777	21.05273
838.183	68.15132
838.588	37.09234
838.993	59.14388
839.399	23.05667
839.804	-18.04454
840.209	34.08698
840.613	52.1161
841.018	46.11686
841.423	60.15399
841.828	59.14933
842.232	77.19036
842.637	49.116
843.041	21.05421
843.445	68.17042
843.849	27.06729
844.253	98.23151
844.657	65.16357
845.061	69.1565
845.465	67.16174
845.869	61.14189
846.272	13.03195
846.676	68.16437
847.079	31.07924
847.483	83.20632
847.886	131.31479
848.289	76.20223
848.692	70.17701
849.095	82.19626
849.498	96.24189
849.901	60.13778
850.304	68.16238
850.707	73.18574
851.109	102.25627
851.512	48.11825
851.914	20.05075
852.316	70.17676
852.718	7.01823
853.121	43.10572
853.523	28.06589
853.925	43.11245
854.326	18.04534
854.728	36.09294
855.13	10.026
855.531	31.07449
855.933	62.14885
856.334	37.09261
856.736	14.03167
857.137	54.12574
857.538	12.03042
857.939	3.00749
858.34	86.20858
858.741	41.10748
859.142	36.08689
859.542	58.153
859.943	9.02257
860.343	15.03744
860.744	67.16326
861.144	20.04914
861.544	8.01941
861.945	-4.01031
862.345	61.14914
862.745	16.04007
863.145	86.20458
863.544	48.12151
863.944	10.02385
864.344	85.21013
864.743	76.18799
865.143	58.14896
865.542	31.07231
865.941	34.08453
866.34	68.16263
866.74	87.2323
867.139	19.04583
867.537	61.15532
867.936	58.13961
868.335	38.09701
868.734	22.05656
869.132	34.07939
869.531	59.14269
869.929	35.08016
870.327	16.03866
870.726	83.20602
871.124	71.16555
871.522	64.16282
871.92	95.2327
872.318	54.1321
872.715	60.14847
873.113	60.14612
873.511	43.10739
873.908	-11.0281
874.306	10.02508
874.703	31.07793
875.1	53.13567
875.497	32.07709
875.894	4.00989
876.291	51.12529
876.688	24.06224
877.085	26.06275
877.482	76.18957
877.878	40.09658
878.275	17.04348
878.671	57.12697
879.068	74.17806
879.464	24.05836
879.86	33.0784
880.256	50.12354
880.652	37.09441
881.048	95.23374
881.444	37.08841
881.84	10.02562
882.236	73.18298
882.631	12.02969
883.027	53.12842
883.422	46.11781
883.817	12.03039
884.213	64.16397
884.608	3.00743
885.003	37.08952
885.398	13.03279
885.793	31.07815
886.188	28.06994
886.582	66.16897
886.977	45.10703
887.371	70.17657
887.766	1.00251
888.16	55.13727
888.554	69.1702
888.949	44.11071
889.343	55.13437
889.737	-5.01345
890.131	3.0076
890.525	43.11018
890.918	38.09592
891.312	31.07452
891.706	63.16504
892.099	53.1349
892.492	37.08016
892.886	52.1273
893.279	47.11988
893.672	27.06906
894.065	30.07546
894.458	53.13333
894.851	87.21192
895.244	-2.00516
895.637	70.16812
896.029	28.0688
896.422	54.13195
896.814	32.07988
897.206	43.10262
897.599	40.0992
897.991	49.1186
898.383	40.09479
898.775	52.11744
899.167	-2.00472
899.559	56.14171
899.951	37.08753
900.342	71.18002
900.734	-12.03013
901.125	17.04488
901.517	7.01733
901.908	35.08423
902.299	24.059
902.69	31.07347
903.082	73.17615
903.473	-2.00484
903.863	31.07941
904.254	15.03508
904.645	75.18582
905.036	0
905.426	61.13948
905.817	29.07148
906.207	9.02163
906.597	-46.10968
906.987	58.1502
907.378	32.08124
907.768	52.13749
908.158	29.07104
908.547	-9.0235
908.937	72.18414
909.327	53.12871
909.717	54.13708
910.106	29.06998
910.495	54.13479
910.885	45.11414
911.274	31.07779
911.663	49.12446
912.052	30.07434
912.441	23.05879
912.83	57.13076
913.219	32.08404
913.608	56.1371
913.997	-48.1225
914.385	17.0409
914.774	26.06363
915.162	15.036
915.55	40.09702
915.939	0
916.327	47.11743
916.715	20.05126
917.103	60.14749
917.491	53.13112
917.878	77.18847
918.266	29.0755
918.654	30.07694
919.041	24.06295
919.429	41.09699
919.816	86.21669
920.203	32.0779
920.591	26.06478
920.978	70.17086
921.365	26.06852
921.752	0
922.139	12.02628
922.525	23.05554
922.912	47.11474
923.299	30.07486
923.685	15.03937
924.072	25.05797
924.458	21.05232
924.844	-1.0025
925.231	1.00235
925.617	22.05624
926.003	51.13036
926.389	-1.00255
926.774	29.07379
927.16	52.12914
927.546	26.06666
927.931	43.10747
928.317	38.08778
928.702	40.09486
929.088	19.04522
929.473	26.06645
929.858	-20.049
930.243	-9.02185
930.628	4.00982
931.013	2.005
931.398	27.06241
931.783	88.23025
932.167	18.04428
932.552	21.0529
932.937	66.16337
933.321	55.13791
933.705	-2.00509
934.09	61.15389
934.474	38.0905
934.858	37.0962
935.242	21.04896
935.626	26.06684
936.009	12.03212
936.393	41.10451
936.777	51.13059
937.16	50.13011
937.544	55.1295
937.927	-1.00256
938.311	24.05889
938.694	84.22091
939.077	17.04096
939.46	53.13011
939.843	36.07538
940.226	19.04901
940.609	-17.03956
940.991	36.09188
941.374	26.06384
941.757	65.15998
942.139	24.0542
942.522	71.16717
942.904	8.01939
943.286	47.1195
943.668	-2.00523
944.05	48.11829
944.432	64.15755
944.814	47.11585
945.196	-11.02711
945.578	-35.08455
945.959	-6.01422
946.341	88.21455
946.722	56.13132
947.104	17.0409
947.485	44.10253
947.866	-3.00763
948.247	-12.03061
948.628	61.14853
949.009	3.00775
949.39	48.11956
949.771	-6.01411
950.152	45.11055
950.532	-46.11516
950.913	48.11585
951.293	20.05429
951.674	-6.01467
952.054	5.01249
952.434	26.06483
952.814	57.13546
953.194	66.17228
953.574	71.17424
953.954	25.05967
954.334	28.07007
954.714	18.04413
955.093	75.18357
955.473	21.05279
955.853	35.09084
956.232	49.13433
956.611	35.0842
956.99	57.14308
957.37	40.10212
957.749	7.01684
958.128	29.07335
958.506	26.06773
958.885	30.076
959.264	-3.00742
959.643	4.00919
960.021	-9.02254
960.4	57.12902
960.778	37.09137
961.156	33.08299
961.535	40.09343
961.913	26.06114
962.291	3.00776
962.669	17.04332
963.047	59.15033
963.424	9.02313
963.802	19.04699
964.18	48.12151
964.557	56.12885
964.935	54.12786
965.312	18.04713
965.69	49.12273
966.067	16.03921
966.444	31.07667
966.821	40.1033
967.198	69.16682
967.575	20.04945
967.952	52.12251
968.329	26.06356
968.705	74.1579
969.082	42.10787
969.458	-40.0976
969.835	43.10482
970.211	-1.00259
970.587	15.03759
970.963	34.08747
971.339	45.1176
971.715	36.09012
972.091	59.14506
972.467	34.08506
972.843	11.02749
973.219	53.12722
973.594	26.06828
973.97	62.14726
974.345	-10.02421
974.721	44.10668
975.096	62.1497
975.471	22.05248
975.846	27.06515
976.221	-7.01796
976.596	15.0362
976.971	88.21575
977.346	2.0047
977.72	36.09194
978.095	28.07264
978.469	79.18753
978.844	82.20498
979.218	-10.02424
979.593	26.06259
979.967	-6.01477
980.341	13.03016
980.715	50.12598
981.089	51.12765
981.463	33.07603
981.837	-1.00247
982.21	73.16914
982.584	28.06791
982.957	21.05271
983.331	17.04045
983.704	33.08134
984.078	19.04709
984.451	60.14961
984.824	-5.0123
985.197	16.03911
985.57	53.13285
985.943	74.18197
986.316	45.11068
986.688	17.04125
987.061	42.0986
987.434	18.04716
987.806	20.04878
988.179	2.00476
988.551	73.18443
988.923	27.06677
989.295	46.11503
989.667	-26.06301
990.039	-12.02999
990.411	49.11281
990.783	4.0093
991.155	-45.11006
991.527	15.03718
991.898	25.06257
992.27	-11.02751
992.641	56.14034
993.012	-18.04292
993.384	-1.00241
993.755	43.10976
994.126	20.04838
994.497	32.07881
994.868	33.07607
995.239	24.05845
995.61	24.06067
995.98	37.09009
996.351	-8.02002
996.722	-14.03288
997.092	-9.02155
997.462	-22.05211
997.833	9.0215
998.203	24.05847
998.573	22.05506
998.943	-16.038
999.313	45.10793
999.683	23.05548
1000.053	17.03937
1000.423	25.06103
1000.792	25.06507
1001.162	20.04949
1001.531	58.14278
1001.901	14.03512
1002.27	6.01353
1002.639	47.12014
1003.009	-12.02887
1003.378	6.01546
1003.747	33.07821
1004.116	6.01448
1004.485	18.04328
1004.853	46.11661
1005.222	28.07088
1005.591	59.13984
1005.959	21.04759
1006.328	-33.07552
1006.696	2.00487
1007.064	28.0707
1007.433	15.03772
1007.801	49.12029
1008.169	10.02543
1008.537	18.04012
1008.905	-5.01177
1009.273	52.12839
1009.64	7.01683
1010.008	58.13802
1010.375	70.16933
1010.743	66.15192
1011.11	55.13
1011.478	36.08931
1011.845	44.10358
1012.212	-24.05513
1012.579	18.04444
1012.946	78.18462
1013.313	60.14251
1013.68	9.0204
1014.047	-8.01927
1014.414	30.07112
1014.78	-2.00502
1015.147	40.09691
1015.513	31.07495
1015.88	70.17833
1016.246	33.0817
1016.612	45.1031
1016.978	23.05663
1017.344	4.00997
1017.71	67.16284
1018.076	62.14584
1018.442	45.11583
1018.808	8.02014
1019.174	24.06047
1019.539	81.18529
1019.905	7.01664
1020.27	2.00498
1020.636	15.0362
1021.001	55.13151
1021.366	30.0723
1021.731	46.11835
1022.096	-22.05619
1022.461	25.05944
1022.826	33.07867
1023.191	25.06585
1023.556	19.04479
1023.92	37.09117
1024.285	38.09293
1024.649	37.09087
1025.014	76.1873
1025.378	48.12068
1025.742	4.01001
1026.107	71.15986
1026.471	35.08193
1026.835	43.10669
1027.199	29.07006
1027.562	54.12539
1027.926	21.05161
1028.29	33.08373
1028.654	-17.03962
1029.017	26.06417
1029.381	-8.01932
1029.744	30.07675
1030.107	37.08773
1030.471	8.0193
1030.834	3.00689
1031.197	27.0653
1031.56	-9.02147
1031.923	32.08296
1032.286	36.08475
1032.648	30.072
1033.011	-7.01624
1033.374	68.15921
1033.736	42.11053
1034.099	68.16511
1034.461	13.03304
1034.823	-36.091
1035.185	66.16558
1035.548	20.04893
1035.91	-7.01694
1036.272	45.10248
1036.634	73.17775
1036.995	48.11282
1037.357	7.01716
1037.719	-5.01228
1038.08	51.12102
1038.442	10.02391
1038.803	35.08423
1039.165	32.08098
1039.526	14.03404
1039.887	32.0768
1040.248	-2.00497
1040.609	26.0645
1040.97	6.01478
1041.331	69.17401
1041.692	16.03758
1042.053	38.0867
1042.413	24.05619
1042.774	60.14558
1043.134	68.16126
1043.495	42.10567
1043.855	22.05362
1044.215	16.03994
1044.576	-34.08256
1044.936	73.16652
1045.296	3.00755
1045.656	25.0616
1046.016	46.11106
1046.375	0
1046.735	4.00915
1047.095	45.10538
1047.454	53.11218
1047.814	30.07235
1048.173	73.17355
1048.533	24.05524
1048.892	10.02417
1049.251	60.15026
1049.61	28.06918
1049.969	54.12712
1050.328	21.04579
1050.687	14.03427
1051.046	3.00736
1051.405	33.0823
1051.763	31.07151
1052.122	-20.05048
1052.48	36.08846
1052.839	9.02133
1053.197	16.03789
1053.555	44.10039
1053.914	69.16807
1054.272	27.06552
1054.63	24.05893
1054.988	-8.01921
1055.345	5.01087
1055.703	39.094
1056.061	46.11835
1056.419	7.01824
1056.776	18.04389
1057.134	2.00467
1057.491	28.07035
1057.848	36.0898
1058.206	-18.04287
1058.563	0
1058.92	37.08546
1059.277	50.12327
1059.634	54.12687
1059.991	31.07449
1060.348	-11.02515
1060.704	-26.06282
1061.061	86.19827
1061.418	48.11637
1061.774	42.10377
1062.131	-17.04542
1062.487	-4.00945
1062.843	26.06507
1063.199	32.07979
1063.555	20.04659
1063.911	40.10115
1064.267	15.03151
1064.623	11.02689
1064.979	27.06422
1065.335	35.08385
1065.691	31.07452
1066.046	43.09464
1066.402	-7.01608
1066.757	59.14858
1067.112	76.1855
1067.468	-29.06948
1067.823	43.10345
1068.178	57.1376
1068.533	6.01466
1068.888	54.12885
1069.243	40.09883
1069.598	19.0464
1069.952	-32.07322
1070.307	-34.08539
1070.662	18.04297
1071.016	6.01356
1071.371	-28.06466
1071.725	23.05527
1072.079	23.05556
1072.434	9.02202
1072.788	13.03116
1073.142	37.09117
1073.496	15.0358
1073.85	29.06748
1074.203	17.04147
1074.557	14.03743
1074.911	63.14989
1075.265	11.02575
1075.618	39.09535
1075.971	37.08817
1076.325	-30.07726
1076.678	-24.05566
1077.031	25.05682
1077.385	-23.0514
1077.738	27.06119
1078.091	-35.0809
1078.444	29.06756
1078.796	6.01483
1079.149	8.02003
1079.502	13.03091
1079.855	28.06553
1080.207	24.05937
1080.56	-15.03917
1080.912	19.04649
1081.264	-1.00243
1081.617	-8.01969
1081.969	12.03045
1082.321	-13.03209
1082.673	-31.07185
1083.025	50.11853
1083.377	-201.45441
1083.728	66.15337
1084.08	38.09499
1084.432	-16.03904
1084.783	46.10778
1085.135	16.04031
1085.486	-20.04637
1085.838	22.05442
1086.189	3.00734
1086.54	-9.02172
1086.891	27.06851
1087.242	63.15288
1087.593	53.12886
1087.944	15.03416
1088.295	30.06842
1088.646	19.04628
1088.996	-20.04878
1089.347	-2.00495
1089.698	-18.04307
1090.048	35.09106
1090.398	58.1342
1090.749	1.00241
1091.099	-14.03558
1091.449	11.02757
1091.799	59.14735
1092.149	-60.14917
1092.499	-18.04443
1092.849	22.05615
1093.199	76.18943
1093.548	-6.01456
1093.898	-3.00757
1094.248	17.0439
1094.597	17.04361
1094.947	16.04289
1095.296	43.10623
1095.645	8.02094
1095.994	17.04105
1096.343	56.14065
1096.692	-2.0053
1097.041	-1.00273
1097.39	50.12531
1097.739	-2.00524
1098.088	55.1471
1098.437	-27.07178
1098.785	51.13735
1099.134	21.05598
1099.482	33.09092
1099.83	28.07379
1100.179	35.09144
1100.527	71.18782
1100.875	26.06895
1101.223	15.04003
1101.571	27.07482
1101.919	22.0577
1102.267	10.0283
1102.615	9.02892
1102.962	32.10276
1103.31	8.0257
1103.658	23.07398
