Data from N2 R8 sample 8_Subt2__3__17-31-27-906.txt Node

Date: Fri Aug 29 17:31:27 PDT 2025
User: uwsun
Spectrometer: HDX01956
Trigger mode: 0
Integration Time (sec): 5.000000E-1
Scans to average: 1
Nonlinearity correction enabled: true
Boxcar width: 0
Storing dark spectrum: false
XAxis mode: Wavelengths
Number of Pixels in Spectrum: 2068
>>>>>Begin Spectral Data<<<<<
194.03	342.90862
194.578	326.98847
195.127	348.03237
195.676	330.98739
196.225	378.93858
196.773	368.94885
197.321	566.3726
197.87	734.56669
198.418	713.50573
198.966	754.58927
199.513	718.44109
200.061	715.46444
200.609	733.59662
201.156	693.19702
201.704	651.34341
202.251	686.49321
202.798	731.54108
203.345	743.48276
203.892	711.45164
204.438	755.44055
204.985	734.37368
205.532	786.65968
206.078	782.52498
206.624	779.51373
207.17	795.44816
207.716	725.4073
208.262	760.15212
208.808	717.4083
209.354	784.50429
209.899	825.66185
210.445	745.47576
210.99	740.41632
211.535	788.46114
212.08	775.42235
212.625	811.61117
213.17	827.66207
213.715	733.271
214.259	782.43703
214.804	825.61314
215.348	764.38068
215.892	738.41793
216.436	759.39992
216.98	838.43398
217.524	758.42217
218.068	759.54066
218.612	816.6373
219.155	747.40115
219.698	709.36376
220.242	719.46335
220.785	677.28649
221.328	737.48914
221.871	670.40834
222.414	672.38153
222.956	629.24449
223.499	653.19503
224.041	732.37668
224.583	700.21846
225.126	711.25299
225.668	650.29842
226.21	670.38546
226.751	655.15228
227.293	689.27629
227.835	697.38312
228.376	679.27902
228.918	721.48938
229.459	652.33374
230	667.29577
230.541	662.24419
231.082	711.39518
231.622	673.26148
232.163	666.3169
232.704	669.35713
233.244	649.32489
233.784	735.46135
234.324	596.06224
234.864	692.26049
235.404	705.35931
235.944	705.35345
236.484	755.52138
237.023	628.21553
237.563	665.24217
238.102	703.33923
238.641	700.44434
239.18	674.26803
239.719	725.47424
240.258	720.28974
240.797	736.40458
241.335	717.41955
241.874	747.09766
242.412	711.37221
242.95	682.31017
243.488	758.36424
244.026	720.31757
244.564	743.18723
245.102	694.23987
245.64	776.48749
246.177	687.23082
246.715	741.42337
247.252	735.34135
247.789	691.01819
248.326	728.38593
248.863	755.2871
249.4	752.34511
249.936	711.13982
250.473	762.39389
251.009	733.32016
251.546	724.2517
252.082	788.33233
252.618	694.22137
253.154	745.41388
253.69	751.32227
254.226	748.40958
254.761	730.28689
255.297	672.16406
255.832	715.34234
256.367	750.39054
256.903	762.29313
257.438	754.3952
257.972	681.20188
258.507	734.31082
259.042	745.25364
259.576	697.16437
260.111	765.38284
260.645	766.27892
261.179	744.35679
261.713	734.26903
262.247	741.33937
262.781	795.25542
263.315	755.4517
263.849	718.4285
264.382	800.41941
264.915	775.40238
265.449	797.49144
265.982	809.41202
266.515	820.54325
267.048	704.15134
267.58	767.29287
268.113	726.20665
268.646	749.45051
269.178	799.35207
269.71	804.33154
270.243	780.37238
270.775	774.54507
271.307	790.48014
271.838	851.54961
272.37	754.4522
272.902	818.4154
273.433	813.33721
273.965	751.42806
274.496	792.53647
275.027	812.55361
275.558	816.51616
276.089	746.41888
276.62	829.63703
277.15	854.61365
277.681	845.36923
278.211	800.51808
278.741	784.2976
279.272	794.37085
279.802	846.61643
280.332	841.4904
280.861	869.57366
281.391	795.35838
281.921	868.57863
282.45	906.70623
282.98	818.65188
283.509	793.34262
284.038	860.45206
284.567	830.46514
285.096	915.63867
285.625	800.36146
286.153	818.43715
286.682	840.42357
287.21	831.50165
287.739	856.5033
288.267	836.51493
288.795	876.75541
289.323	845.45566
289.851	951.60924
290.378	867.42
290.906	861.53699
291.433	855.59703
291.961	914.48268
292.488	923.68949
293.015	917.55489
293.542	867.62987
294.069	848.54452
294.596	925.67955
295.122	962.64154
295.649	928.45072
296.175	951.66667
296.702	939.64988
297.228	920.62949
297.754	925.46908
298.28	940.5011
298.806	952.62878
299.332	919.41955
299.857	900.4378
300.383	1012.83279
300.908	918.58304
301.433	929.60674
301.958	974.5795
302.483	971.71338
303.008	952.68457
303.533	1012.8867
304.058	1005.64963
304.582	941.55106
305.107	923.73448
305.631	1051.6254
306.155	1013.60118
306.679	982.56844
307.203	1066.65016
307.727	1034.66687
308.251	1043.76927
308.775	999.6016
309.298	1005.62678
309.822	1042.80708
310.345	1072.68954
310.868	1130.76509
311.391	1073.78123
311.914	1109.84628
312.437	1158.69142
312.96	1077.65902
313.482	1062.65353
314.005	1070.79523
314.527	1146.99224
315.049	1253.02472
315.571	1104.52343
316.093	1187.87232
316.615	1175.78125
317.137	1168.53715
317.659	1174.81302
318.18	1282.89349
318.702	1178.68192
319.223	1278.47039
319.744	1218.61433
320.265	1307.86717
320.786	1227.83638
321.307	1308.93689
321.828	1294.67302
322.348	1368.81671
322.869	1309.75415
323.389	1104.92646
323.909	1412.76611
324.43	1480.97399
324.95	1326.66974
325.47	1401.89992
325.989	1478.8231
326.509	1354.54306
327.029	1449.64907
327.548	1444.62787
328.067	1419.7929
328.587	1565.0085
329.106	1545.69511
329.625	1637.26587
330.144	1515.69611
330.662	1461.65926
331.181	1628.77275
331.7	1575.7395
332.218	1611.51469
332.736	1683.76021
333.255	1645.70416
333.773	1660.75278
334.291	1681.95393
334.808	1700.54821
335.326	1733.59008
335.844	1738.62102
336.361	1845.92494
336.879	1752.60896
337.396	1881.73686
337.913	1865.56265
338.43	1838.47549
338.947	1962.66053
339.464	1846.28733
339.981	1996.59505
340.497	2043.76519
341.014	1958.66628
341.53	2052.37633
342.046	1951.64524
342.562	2018.73179
343.078	2126.48399
343.594	2105.52653
344.11	2118.49236
344.626	2161.67577
345.141	2117.29709
345.657	2280.28252
346.172	2164.46243
346.687	2195.25902
347.202	2262.14637
347.717	2321.34522
348.232	2334.50886
348.747	2354.15823
349.261	2333.90629
349.776	2327.20402
350.29	2356.30315
350.805	2522.35043
351.319	2538.06913
351.833	2425.9368
352.347	2453.0701
352.861	2471.00286
353.374	2575.96571
353.888	2488.13079
354.401	2546.89377
354.915	2596.70832
355.428	2617.09317
355.941	2671.79483
356.454	2842.65274
356.967	2768.8276
357.48	2713.73826
357.993	2823.92256
358.505	2722.88172
359.018	2806.84445
359.53	2790.73836
360.042	2876.43524
360.554	2956.69224
361.066	2927.67455
361.578	2878.31165
362.09	2885.59973
362.602	2909.27327
363.113	2989.38373
363.625	2943.2744
364.136	3046.14897
364.647	2975.21916
365.158	3068.24932
365.669	3123.31053
366.18	3122.2346
366.691	3164.97371
367.201	3153.20933
367.712	3217.95763
368.222	3245.93407
368.733	3181.74712
369.243	3266.71734
369.753	3458.7493
370.263	3615.72957
370.773	3572.82838
371.282	3510.66221
371.792	3457.43296
372.301	3771.42596
372.811	3740.67595
373.32	3768.99418
373.829	3861.12109
374.338	4054.87885
374.847	4091.86206
375.356	4184.8318
375.865	4395.59668
376.373	4652.62469
376.882	4732.72529
377.39	4785.65542
377.898	4768.62651
378.407	5214.91064
378.915	5428.2149
379.423	5424.16188
379.93	5749.78688
380.438	5857.08681
380.946	6413.68701
381.453	6497.2748
381.96	6774.91733
382.468	7097.57863
382.975	7876.28552
383.482	8131.47889
383.989	8068.16015
384.495	8252.10192
385.002	8511.96698
385.509	9139.07516
386.015	9693.23732
386.521	10212.52681
387.028	10715.56685
387.534	10933.60487
388.04	11637.12968
388.546	11492.83342
389.051	11801.20954
389.557	12980.40492
390.063	14519.12086
390.568	15022.63313
391.073	15139.79315
391.578	15842.90884
392.084	15882.8373
392.589	16067.58842
393.093	17069.5742
393.598	18900.74509
394.103	20538.75896
394.607	22988.3505
395.112	24688.00201
395.616	25948.06355
396.12	27525.92594
396.624	30280.55207
397.128	32998.78375
397.632	37071.75036
398.136	38116.59908
398.639	35847.86641
399.143	32503.66402
399.646	28888.45294
400.15	25083.82847
400.653	20124.16724
401.156	13866.23708
401.659	5169.95759
402.162	1054.15589
402.664	0
403.167	0
403.67	0
404.172	0
404.674	0
405.176	0
405.678	0
406.18	0
406.682	0
407.184	0
407.686	0
408.187	0
408.688	0
409.19	0
409.691	0
410.192	0
410.693	0
411.194	435.30976
411.694	4082.94878
412.195	8864.71461
412.696	12089.80453
413.196	12760.96929
413.696	12863.67595
414.196	13703.56671
414.696	17261.84252
415.196	21764.24417
415.696	29583.19008
416.196	36460.31858
416.695	40057.39798
417.195	41392.74103
417.694	42311.08144
418.194	43822.01586
418.693	40845.82395
419.192	39417.53748
419.691	38977.45877
420.19	38056.99118
420.688	37530.86402
421.187	36776.83125
421.685	34884.82535
422.184	31973.8476
422.682	27412.42665
423.18	22761.91305
423.678	19960.89733
424.176	18434.27441
424.674	17302.09562
425.172	16743.62986
425.669	15723.30872
426.167	15014.36128
426.664	13417.37701
427.161	12214.97042
427.659	11068.12565
428.156	10581.83577
428.652	9815.68975
429.149	9339.20206
429.646	9097.04147
430.143	8692.20202
430.639	8002.43668
431.135	7605.14098
431.632	7178.44445
432.128	6688.02332
432.624	6304.62347
433.12	5932.40603
433.616	5776.04251
434.111	5477.35789
434.607	5345.05352
435.103	5289.0532
435.598	5331.04975
436.093	4905.66357
436.588	4792.64137
437.083	4442.66285
437.578	4345.74651
438.073	3905.0158
438.568	4099.08184
439.062	3864.91114
439.557	3812.25001
440.051	3505.31367
440.546	3392.41075
441.04	3283.67089
441.534	3460.8275
442.028	3203.86992
442.522	3079.94295
443.015	3070.72388
443.509	3096.10562
444.002	3009.16133
444.496	2829.95175
444.989	2774.3552
445.482	2822.39762
445.975	2724.12235
446.468	2801.98388
446.961	2756.0256
447.454	2680.26195
447.947	2580.4254
448.439	2595.5918
448.931	2478.36706
449.424	2493.81807
449.916	2515.67884
450.408	2415.46258
450.9	2287.75527
451.392	2290.92184
451.884	2304.67233
452.375	2057.93945
452.867	2226.72154
453.358	2204.6723
453.849	2158.54935
454.341	2126.7339
454.832	2094.62963
455.323	2116.99377
455.814	2021.88529
456.304	2018.90833
456.795	1963.91084
457.285	2014.89223
457.776	2036.99065
458.266	1898.06526
458.756	1904.15449
459.247	1901.09287
459.737	1792.11279
460.226	1782.97963
460.716	1708.17045
461.206	1710.21786
461.695	1706.38016
462.185	1562.18831
462.674	1640.1639
463.163	1672.07813
463.653	1644.95556
464.142	1508.27711
464.63	1580.37987
465.119	1476.19125
465.608	1453.19342
466.096	1420.0983
466.585	1463.27007
467.073	1445.3694
467.561	1482.40365
468.05	1447.31918
468.538	1362.43907
469.026	1301.34985
469.513	1314.07521
470.001	1307.23654
470.489	1298.33632
470.976	1340.32898
471.463	1185.43912
471.951	1207.48817
472.438	1052.22544
472.925	1118.26286
473.412	1092.39978
473.899	1119.27888
474.385	1055.37929
474.872	1072.27769
475.359	1079.39386
475.845	959.00994
476.331	1040.17644
476.817	977.34486
477.303	936.21644
477.789	930.28763
478.275	878.28828
478.761	901.279
479.247	895.15847
479.732	839.26744
480.218	861.39603
480.703	802.24651
481.188	785.00355
481.673	835.15654
482.158	712.91293
482.643	749.25559
483.128	749.06633
483.612	751.12047
484.097	764.22541
484.581	714.08796
485.066	703.13144
485.55	695.97968
486.034	665.93491
486.518	630.994
487.002	626.04461
487.486	591.00148
487.969	567.97048
488.453	612.09307
488.936	561.87862
489.42	581.89256
489.903	608.09711
490.386	586.61885
490.869	569.87256
491.352	553.99232
491.835	540.78726
492.318	487.79685
492.8	468.69781
493.283	465.8868
493.765	460.84768
494.247	474.83193
494.73	472.76905
495.212	458.844
495.694	430.75468
496.175	369.66581
496.657	468.83995
497.139	420.53754
497.62	333.61038
498.102	429.81654
498.583	341.67685
499.064	349.5985
499.545	334.59601
500.026	325.56841
500.507	358.64976
500.988	424.82136
501.469	315.62816
501.949	347.68425
502.43	256.48712
502.91	310.49933
503.39	298.60573
503.87	314.58557
504.35	349.65747
504.83	285.4966
505.31	286.55879
505.79	287.5521
506.269	308.5798
506.749	247.45639
507.228	338.63002
507.707	275.49008
508.187	323.62465
508.666	233.46961
509.145	226.43234
509.623	228.43997
510.102	249.49678
510.581	306.60411
511.059	292.59624
511.538	280.60002
512.016	277.54262
512.494	366.7168
512.972	270.52928
513.45	217.41201
513.928	258.51485
514.406	227.44867
514.884	294.62266
515.361	277.54493
515.839	244.45751
516.316	250.49796
516.793	302.63289
517.27	273.55023
517.747	250.53527
518.224	252.48418
518.701	278.50814
519.178	256.52558
519.654	287.56673
520.131	217.45165
520.607	250.52114
521.083	249.47207
521.56	237.468
522.036	268.48664
522.512	303.62249
522.987	172.34499
523.463	281.55384
523.939	288.58941
524.414	291.55818
524.89	282.55673
525.365	232.43995
525.84	262.51554
526.315	256.51585
526.79	279.52198
527.265	242.4625
527.74	273.5563
528.215	294.57579
528.689	217.40397
529.164	258.468
529.638	282.61161
530.112	257.50654
530.587	245.4339
531.061	268.54027
531.534	290.59
532.008	273.54921
532.482	303.57923
532.956	300.6387
533.429	315.63634
533.903	378.68222
534.376	293.53814
534.849	334.64081
535.322	361.70182
535.795	347.7042
536.268	378.74591
536.741	426.83392
537.213	382.72407
537.686	414.82079
538.158	335.61529
538.631	480.94364
539.103	378.68851
539.575	451.74988
540.047	443.78179
540.519	424.82843
540.991	541.0556
541.463	467.91483
541.934	454.83579
542.406	466.89324
542.877	539.95576
543.348	535.02854
543.82	511.00639
544.291	565.03888
544.762	563.04506
545.233	580.1439
545.703	567.96996
546.174	631.12796
546.645	586.08109
547.115	618.14993
547.585	655.14566
548.056	673.22365
548.526	725.26308
548.996	784.39312
549.466	784.42411
549.935	797.36619
550.405	783.22717
550.875	852.44241
551.344	872.49791
551.814	884.43304
552.283	941.40529
552.752	900.45907
553.221	862.29184
553.69	969.45516
554.159	936.60132
554.628	1003.49025
555.096	949.68926
555.565	982.47788
556.033	958.57613
556.502	1001.69048
556.97	889.39153
557.438	894.52599
557.906	905.55434
558.374	890.47362
558.842	865.51637
559.31	900.45007
559.777	842.50416
560.245	917.57166
560.712	923.5516
561.18	912.44297
561.647	868.41571
562.114	884.46688
562.581	979.75626
563.048	994.6401
563.514	947.69611
563.981	943.56468
564.448	933.51235
564.914	950.61058
565.381	962.58361
565.847	960.63724
566.313	954.61739
566.779	1003.6126
567.245	975.65266
567.711	957.67546
568.176	933.51404
568.642	945.74982
569.108	920.6751
569.573	1013.72099
570.038	982.45844
570.504	946.52361
570.969	971.79003
571.434	959.49549
571.899	991.70069
572.363	974.59191
572.828	982.61844
573.293	977.60972
573.757	945.57232
574.222	939.50163
574.686	852.40118
575.15	899.57118
575.614	915.52725
576.078	919.57341
576.542	930.53668
577.006	870.4404
577.469	959.74936
577.933	878.43208
578.396	905.58833
578.86	928.60118
579.323	829.4805
579.786	829.32135
580.249	777.33395
580.712	903.64201
581.175	822.53717
581.637	781.37235
582.1	796.31752
582.563	756.23526
583.025	704.32847
583.487	738.11799
583.95	713.16578
584.412	744.18578
584.874	770.4355
585.336	728.33425
585.797	715.18472
586.259	766.39205
586.721	683.25193
587.182	703.29061
587.643	693.22757
588.105	644.20851
588.566	723.16702
589.027	654.2418
589.488	664.19044
589.949	674.29104
590.41	625.94157
590.87	692.23884
591.331	652.10721
591.791	615.12761
592.252	603.09445
592.712	665.26548
593.172	596.07047
593.632	632.09809
594.092	666.16464
594.552	613.04447
595.011	647.16793
595.471	590.05587
595.931	576.02916
596.39	605.15892
596.849	626.15908
597.308	631.08332
597.768	564.16597
598.227	599.16179
598.685	593.09758
599.144	592.11129
599.603	563.08092
600.062	584.97254
600.52	590.04772
600.978	619.17322
601.437	561.03927
601.895	557.94721
602.353	591.04977
602.811	568.01223
603.269	597.14798
603.727	575.11091
604.184	533.97117
604.642	592.16761
605.099	612.13197
605.557	597.1717
606.014	529.91756
606.471	544.09993
606.928	620.03627
607.385	631.20941
607.842	766.33504
608.299	761.3623
608.755	693.30608
609.212	677.16622
609.668	627.08391
610.125	684.30076
610.581	743.38199
611.037	667.21087
611.493	601.15014
611.949	556.08878
612.405	548.88197
612.861	652.23258
613.316	550.07345
613.772	559.0469
614.227	599.14243
614.683	584.01396
615.138	547.04812
615.593	537.02545
616.048	573.0737
616.503	613.23148
616.958	597.22355
617.412	574.11348
617.867	587.05021
618.321	599.0041
618.776	656.16641
619.23	640.21812
619.684	710.28028
620.138	620.18227
620.592	682.34165
621.046	696.32041
621.5	660.30867
621.954	721.30381
622.407	666.20568
622.861	718.4106
623.314	737.34705
623.768	767.4253
624.221	776.19261
624.674	766.41039
625.127	795.48183
625.58	873.56087
626.033	885.52314
626.485	818.55833
626.938	899.67772
627.39	926.67329
627.843	983.74362
628.295	1010.78008
628.747	1041.88305
629.199	1109.87153
629.651	1061.8125
630.103	1163.95668
630.555	1186.80603
631.006	1237.11098
631.458	1278.17375
631.909	1403.24985
632.361	1398.2828
632.812	1476.32602
633.263	1581.21506
633.714	1602.21739
634.165	1705.71433
634.616	1806.72163
635.067	1917.54743
635.518	1948.8444
635.968	1976.22471
636.419	2133.56813
636.869	2194.9763
637.319	2249.86456
637.769	2320.74102
638.219	2553.13431
638.669	2525.10462
639.119	2832.29102
639.569	2948.22378
640.019	3033.99333
640.468	3246.76087
640.918	3354.1978
641.367	3370.76024
641.816	3618.66375
642.265	3756.81705
642.714	3968.73093
643.163	4049.65667
643.612	4214.84139
644.061	4339.98487
644.51	4593.30599
644.958	4753.99059
645.406	4966.43601
645.855	5183.50986
646.303	5365.08141
646.751	5508.8081
647.199	5562.79305
647.647	5867.72952
648.095	6069.63436
648.543	6201.02136
648.99	6365.81155
649.438	6625.6875
649.885	6760.98827
650.333	6994.87112
650.78	7149.84305
651.227	7418.94832
651.674	7616.74002
652.121	7780.11975
652.568	8255.4844
653.015	8349.7429
653.461	8520.72399
653.908	8710.94849
654.354	9139.72373
654.801	9321.07595
655.247	9549.63192
655.693	9828.2891
656.139	10251.54102
656.585	10532.48409
657.031	10859.83792
657.477	11384.60307
657.922	11776.19546
658.368	12136.61895
658.813	12708.60999
659.259	13026.45457
659.704	13812.7141
660.149	14219.09569
660.594	14772.74088
661.039	15281.37209
661.484	15787.6094
661.929	16418.94015
662.373	17186.11327
662.818	18128.11246
663.262	18824.01272
663.707	19483.42592
664.151	20400.24672
664.595	21110.80938
665.039	22139.68069
665.483	23079.65006
665.927	23812.57456
666.371	24907.73007
666.814	25781.78979
667.258	26623.40463
667.701	27845.98206
668.145	28610.91313
668.588	29589.56309
669.031	30443.7768
669.474	31167.69254
669.917	32034.54215
670.36	33257.85627
670.803	34160.04387
671.245	34752.8397
671.688	35449.48916
672.13	35905.32523
672.573	36700.89632
673.015	37449.6608
673.457	37876.42485
673.899	38256.02812
674.341	38951.84505
674.783	39354.37159
675.225	39791.74664
675.666	39663.01236
676.108	40201.33597
676.549	40572.33326
676.991	40672.46463
677.432	40529.7378
677.873	40264.90413
678.314	40415.76679
678.755	40018.89322
679.196	39725.25262
679.637	39619.28948
680.078	39218.49939
680.518	38901.86888
680.959	38319.68011
681.399	38157.86691
681.839	37579.46084
682.28	37233.52128
682.72	36760.78063
683.16	36300.97183
683.6	35497.73065
684.039	35127.95428
684.479	34668.99119
684.919	34361.37569
685.358	33958.47383
685.798	33702.75069
686.237	33265.20784
686.676	32609.98031
687.115	32480.61875
687.554	31875.76492
687.993	31626.57891
688.432	31004.89249
688.871	30715.09301
689.309	30252.23207
689.748	30041.5239
690.186	29930.71979
690.625	29317.34856
691.063	29127.67262
691.501	28848.7077
691.939	28309.07312
692.377	28252.93217
692.815	27684.43305
693.253	27356.09956
693.69	27106.17394
694.128	26718.72291
694.565	26400.90141
695.003	26058.56124
695.44	25720.15214
695.877	25289.42664
696.314	24982.31231
696.751	24681.50965
697.188	24401.42282
697.625	24122.38181
698.061	23704.18767
698.498	23607.48169
698.934	23123.64855
699.371	22875.77728
699.807	22416.92356
700.243	22018.63429
700.679	21684.53357
701.115	21480.40848
701.551	21189.22697
701.987	21005.90208
702.422	20564.06641
702.858	20515.26611
703.294	20086.60422
703.729	19730.45291
704.164	19450.07937
704.599	19257.55357
705.035	18944.19999
705.47	18741.26194
705.904	18723.17317
706.339	18432.30365
706.774	18318.70519
707.209	17990.89443
707.643	17724.49339
708.078	17528.74047
708.512	17296.29388
708.946	17326.64211
709.38	16941.33716
709.814	16921.91774
710.248	16722.147
710.682	16632.70036
711.116	16247.35702
711.549	16187.94684
711.983	15929.5261
712.416	15751.15523
712.85	15663.2047
713.283	15427.842
713.716	15220.65716
714.149	15036.85485
714.582	14766.33934
715.015	14825.01491
715.448	14440.50954
715.881	14188.48768
716.313	14105.79953
716.746	13997.84213
717.178	13929.98409
717.61	13941.30091
718.043	13706.71762
718.475	13443.10279
718.907	13555.36192
719.339	13164.89622
719.77	12910.61997
720.202	13008.5607
720.634	12881.14405
721.065	12587.50371
721.497	12472.48241
721.928	12383.949
722.359	12363.99949
722.79	12150.819
723.221	12133.31266
723.652	12130.10154
724.083	11749.06632
724.514	11624.28816
724.945	11564.85026
725.375	11510.673
725.806	11318.36561
726.236	11152.55356
726.666	11138.84347
727.096	11038.26474
727.526	10947.78278
727.956	10962.28385
728.386	10787.27548
728.816	10464.08866
729.246	10289.60398
729.675	10165.20688
730.105	10221.37236
730.534	10126.15888
730.964	10089.96781
731.393	9911.49446
731.822	9974.65616
732.251	9840.31536
732.68	9812.25496
733.109	9597.72707
733.537	9506.50923
733.966	9426.36306
734.395	9430.3199
734.823	9392.22993
735.251	9209.89341
735.68	9142.84398
736.108	8960.57283
736.536	8904.31783
736.964	8695.95875
737.392	8734.21844
737.82	8693.03851
738.247	8551.84706
738.675	8584.88423
739.102	8299.72392
739.53	8083.63986
739.957	8254.82224
740.384	8192.58295
740.811	8157.67695
741.238	7998.37593
741.665	7832.03438
742.092	7724.10699
742.519	7619.23393
742.945	7557.05035
743.372	7528.20775
743.798	7529.44073
744.225	7240.90188
744.651	7440.26422
745.077	7239.18776
745.503	7163.04447
745.929	7067.93094
746.355	7051.16816
746.781	6988.13542
747.207	6700.78891
747.632	6668.04257
748.058	6682.21494
748.483	6718.6842
748.908	6601.19839
749.334	6485.14313
749.759	6334.89682
750.184	6198.00433
750.609	6214.23288
751.033	6238.95235
751.458	6216.6186
751.883	6121.33211
752.307	5994.99821
752.732	5913.46964
753.156	5814.4353
753.58	5894.11117
754.005	5737.70225
754.429	5545.19312
754.853	5532.60018
755.277	5481.27895
755.7	5372.70268
756.124	5379.69573
756.548	5227.42249
756.971	5179.68479
757.394	5213.11273
757.818	5185.11588
758.241	4967.11597
758.664	4929.09657
759.087	4913.16733
759.51	4851.022
759.933	4792.77937
760.356	4801.30005
760.778	4579.07023
761.201	4565.99836
761.623	4507.0118
762.046	4445.87711
762.468	4340.02383
762.89	4278.25999
763.312	4186.21705
763.734	4196.10048
764.156	4028.3688
764.578	3953.89348
765	4009.28623
765.421	3895.63013
765.843	3903.89904
766.264	3766.31019
766.686	3733.60669
767.107	3599.37607
767.528	3588.66993
767.949	3629.72502
768.37	3447.50215
768.791	3421.41068
769.212	3253.68309
769.632	3278.17913
770.053	3265.03823
770.473	3215.473
770.894	3209.67537
771.314	3213.36029
771.734	2971.2162
772.154	3008.84199
772.575	2983.18697
772.994	2957.06384
773.414	2961.40219
773.834	2911.64879
774.254	2852.50739
774.673	2794.4715
775.093	2687.54108
775.512	2614.49518
775.931	2697.69485
776.351	2674.55838
776.77	2535.42544
777.189	2519.27181
777.607	2529.68063
778.026	2501.52188
778.445	2346.47563
778.864	2454.67615
779.282	2388.28667
779.701	2320.50723
780.119	2294.5033
780.537	2200.38208
780.955	2234.5102
781.373	2222.35011
781.791	2166.85862
782.209	2212.99951
782.627	2076.58157
783.045	2116.94117
783.462	2068.41431
783.88	1987.41148
784.297	2018.29836
784.715	1947.33868
785.132	1951.06841
785.549	1929.20032
785.966	1889.19254
786.383	1884.08692
786.8	1899.85299
787.217	1826.88225
787.633	1740.0193
788.05	1857.91936
788.466	1840.87507
788.883	1761.13313
789.299	1697.83565
789.715	1690.86575
790.131	1680.94735
790.547	1670.9554
790.963	1624.88238
791.379	1622.9524
791.795	1608.5548
792.21	1574.60797
792.626	1546.6325
793.041	1555.78541
793.457	1545.78005
793.872	1476.52729
794.287	1493.59381
794.702	1525.74668
795.117	1405.63219
795.532	1409.66673
795.947	1360.47498
796.362	1364.45491
796.776	1456.49681
797.191	1396.57131
797.605	1303.32389
798.02	1306.43962
798.434	1310.18208
798.848	1297.46488
799.262	1268.44853
799.676	1247.3719
800.09	1245.39318
800.504	1227.32814
800.918	1157.10593
801.331	1199.52443
801.745	1148.07215
802.158	1164.32525
802.572	1159.23388
802.985	1118.16648
803.398	1066.05569
803.811	1097.30449
804.224	1115.24103
804.637	992.94427
805.05	1041.95187
805.462	1038.08935
805.875	966.10481
806.288	921.86138
806.7	950.00276
807.112	920.77586
807.525	976.00203
807.937	878.84437
808.349	899.91044
808.761	868.81776
809.173	866.78245
809.584	872.83497
809.996	776.64784
810.408	801.79778
810.819	776.57341
811.231	813.82248
811.642	820.67105
812.053	899.7945
812.464	981.92133
812.875	913.97965
813.286	830.84652
813.697	778.56742
814.108	725.55315
814.519	688.33886
814.929	680.54386
815.34	637.37853
815.75	585.34702
816.16	605.35873
816.571	590.39116
816.981	608.28515
817.391	539.18456
817.801	512.1663
818.211	547.18353
818.62	524.15082
819.03	554.23363
819.44	574.36594
819.849	494.14741
820.259	478.13288
820.668	472.07202
821.077	424.98435
821.486	441.98793
821.895	430.99236
822.304	466.14879
822.713	411.90785
823.122	427.99621
823.531	405.89834
823.939	378.86788
824.348	405.92296
824.756	407.95702
825.164	385.91376
825.573	375.88866
825.981	388.90614
826.389	359.85469
826.797	333.79403
827.205	306.66931
827.612	295.69777
828.02	313.70008
828.428	323.7852
828.835	269.68341
829.243	270.61896
829.65	273.65323
830.057	244.5728
830.464	268.62864
830.871	302.69119
831.278	251.5859
831.685	251.53962
832.092	309.72267
832.499	235.49652
832.905	225.55355
833.312	262.57477
833.718	246.59301
834.124	196.43669
834.531	215.52759
834.937	219.54693
835.343	208.48868
835.749	248.55917
836.155	230.58507
836.561	197.47284
836.966	199.47473
837.372	213.5279
837.777	156.38218
838.183	226.4864
838.588	162.39511
838.993	175.41748
839.399	143.34454
839.804	149.35736
840.209	133.33433
840.613	141.30901
841.018	146.3643
841.423	143.36166
841.828	152.37831
842.232	147.35873
842.637	161.37287
843.041	112.28452
843.445	127.31488
843.849	133.32505
844.253	144.33714
844.657	113.28191
845.061	113.25401
845.465	65.15697
845.869	94.21723
846.272	78.18939
846.676	132.31521
847.079	87.22019
847.483	154.37784
847.886	121.29132
848.289	104.27544
848.692	65.16451
849.095	130.30829
849.498	137.34265
849.901	92.2099
850.304	105.24896
850.707	107.27061
851.109	156.38812
851.512	76.18626
851.914	64.16114
852.316	72.18174
852.718	41.10616
853.121	104.25281
853.523	74.17257
853.925	59.15387
854.326	18.04534
854.728	62.15934
855.13	48.12401
855.531	68.16226
855.933	89.21257
856.334	46.11495
856.736	32.07212
857.137	58.13494
857.538	62.15577
857.939	60.1482
858.34	86.20858
858.741	109.28242
859.142	92.21969
859.542	32.08478
859.943	84.20778
860.343	24.0598
860.744	72.17528
861.144	44.10764
861.544	49.11797
861.945	67.17048
862.345	90.21886
862.745	75.18582
863.145	50.11976
863.544	51.12903
863.944	33.07837
864.344	53.13179
864.743	83.20504
865.143	73.18699
865.542	55.12768
865.941	71.17533
866.34	82.19559
866.74	109.28999
867.139	74.17664
867.537	74.18799
867.936	23.05573
868.335	47.1198
868.734	58.14818
869.132	53.12329
869.531	68.16418
869.929	4.00922
870.327	33.07948
870.726	59.14709
871.124	64.14943
871.522	73.18542
871.92	97.23751
872.318	64.15627
872.715	91.22389
873.113	10.02458
873.511	64.15923
873.908	6.01528
874.306	58.1442
874.703	52.13022
875.1	61.15592
875.497	62.14851
875.894	10.02471
876.291	25.06171
876.688	11.02859
877.085	26.06275
877.482	50.12531
877.878	16.03881
878.275	27.06894
878.671	45.10049
879.068	25.06071
879.464	12.02925
879.86	-13.03116
880.256	58.1431
880.652	27.06902
881.048	61.15102
881.444	73.17322
881.84	42.107
882.236	87.21752
882.631	51.12529
883.027	57.13801
883.422	41.1051
883.817	1.00254
884.213	43.11057
884.608	46.11299
885.003	33.0799
885.398	29.07293
885.793	57.14303
886.188	3.00753
886.582	49.12582
886.977	57.13525
887.371	31.07874
887.766	-43.10883
888.16	48.11995
888.554	59.14581
888.949	20.05054
889.343	58.14162
889.737	4.01075
890.131	25.06305
890.525	51.1305
890.918	63.15831
891.312	48.11502
891.706	59.15466
892.099	51.12986
892.492	25.0543
892.886	26.06396
893.279	3.00771
893.672	42.10715
894.065	45.11288
894.458	29.07327
894.851	51.12506
895.244	15.03857
895.637	42.10141
896.029	22.05412
896.422	29.07119
896.814	14.03506
897.206	-33.0799
897.599	83.20421
897.991	21.0511
898.383	24.05705
898.775	-11.02516
899.167	-15.03546
899.559	31.07879
899.951	40.09457
900.342	40.10198
900.734	-38.09585
901.125	47.12346
901.517	23.05678
901.908	39.09379
902.299	-3.00741
902.69	-14.03347
903.082	49.11878
903.473	-9.02181
903.863	24.06155
904.254	7.0164
904.645	28.06997
905.036	18.04387
905.426	39.08957
905.817	62.1519
906.207	-4.00964
906.597	-10.02368
906.987	57.14764
907.378	1.00255
907.768	55.14535
908.158	30.07347
908.547	0
908.937	43.11053
909.327	57.13832
909.717	71.1797
910.106	20.04834
910.495	66.16439
910.885	46.11665
911.274	33.08278
911.663	57.14457
912.052	18.0447
912.441	34.08674
912.83	21.04852
913.219	56.14647
913.608	26.06401
913.997	-31.07888
914.385	47.11243
914.774	19.04656
915.162	32.07656
915.55	11.02682
915.939	0
916.327	42.10503
916.715	-26.06717
917.103	39.09624
917.491	65.16046
917.878	59.1449
918.266	2.00523
918.654	29.07439
919.041	-4.01054
919.429	-22.05268
919.816	-3.00768
920.203	27.06579
920.591	40.09941
920.978	16.03945
921.365	17.04487
921.752	34.08135
922.139	42.09141
922.525	-14.03404
922.912	68.16536
923.299	22.05498
923.685	5.01315
924.072	63.14498
924.458	42.10423
924.844	24.05969
925.231	-40.09479
925.617	10.02562
926.003	21.05396
926.389	1.00255
926.774	33.08391
927.16	36.08967
927.546	30.07686
927.931	32.08014
928.317	43.09923
928.702	5.01194
929.088	-24.0576
929.473	21.05372
929.858	-5.01222
930.243	34.08187
930.628	9.02207
931.013	26.06474
931.398	31.0716
931.783	41.10813
932.167	38.09313
932.552	16.04034
932.937	58.14378
933.321	-1.00253
933.705	33.08346
934.09	59.1489
934.474	29.06918
934.858	26.06773
935.242	-9.02111
935.626	28.07196
936.009	20.05347
936.393	8.02051
936.777	38.09753
937.16	8.02097
937.544	27.06392
937.927	31.07893
938.311	54.13176
938.694	39.10334
939.077	14.03375
939.46	26.06415
939.843	-2.00422
940.226	12.03099
940.609	-18.0419
940.991	30.07664
941.374	10.02463
941.757	47.11607
942.139	25.05645
942.522	22.05229
942.904	50.12022
943.286	33.08412
943.668	32.08316
944.05	-17.0424
944.432	11.02734
944.814	42.10362
945.196	-42.10412
945.578	-34.08212
945.959	38.08928
946.341	49.12034
946.722	24.05663
947.104	20.04809
947.485	-11.02591
947.866	-8.02037
948.247	20.05074
948.628	20.04907
949.009	10.02579
949.39	38.09482
949.771	9.02111
950.152	1.00248
950.532	-10.02487
950.913	9.02188
951.293	14.03804
951.674	26.06318
952.054	33.08203
952.434	6.01502
952.814	19.04548
953.194	62.16195
953.574	56.13781
953.954	-31.07478
954.334	26.06509
954.714	1.00246
955.093	64.15697
955.473	-4.0101
955.853	51.13201
956.232	36.09889
956.611	4.00968
956.99	36.09071
957.37	11.02823
957.749	60.14289
958.128	-16.04079
958.506	5.01307
958.885	23.05834
959.264	-30.07461
959.643	25.05719
960.021	-15.03761
960.4	54.12231
960.778	47.11585
961.156	15.03784
961.535	40.09343
961.913	25.0588
962.291	-10.02592
962.669	18.04586
963.047	22.05642
963.424	-4.01031
963.802	16.03959
964.18	42.10643
964.557	57.13112
964.935	45.10674
965.312	6.01574
965.69	35.08789
966.067	30.07333
966.444	29.07175
966.821	33.08533
967.198	38.09241
967.575	46.1132
967.952	35.08273
968.329	0
968.705	108.22874
969.082	-18.04671
969.458	-15.03643
969.835	39.09514
970.211	-26.06761
970.587	56.13928
970.963	37.09514
971.339	28.07339
971.715	30.07518
972.091	38.09379
972.467	18.04516
972.843	1.0025
973.219	46.11056
973.594	0
973.97	49.11667
974.345	53.12678
974.721	57.13786
975.096	33.08011
975.471	17.04059
975.846	44.10583
976.221	-12.03081
976.596	-14.03397
976.971	47.11611
977.346	70.16235
977.72	7.01797
978.095	24.0623
978.469	20.04802
978.844	49.12322
979.218	0
979.593	18.04339
979.967	14.03434
980.341	32.07395
980.715	17.04309
981.089	35.08786
981.463	12.02776
981.837	-24.05945
982.21	61.14167
982.584	-2.00488
982.957	-24.06073
983.331	9.02145
983.704	7.01734
984.078	40.09876
984.451	38.09513
984.824	-29.07167
985.197	-11.02702
985.57	79.19709
985.943	41.10143
986.316	30.07399
986.688	18.04367
987.061	23.0542
987.434	21.05499
987.806	24.05849
988.179	-9.02148
988.551	16.04083
988.923	36.08888
989.295	52.1299
989.667	-65.15868
990.039	-1.00249
990.411	7.01625
990.783	15.03478
991.155	-3.00728
991.527	102.24878
991.898	23.05759
992.27	-30.07529
992.641	34.08555
993.012	57.13395
993.384	17.04081
993.755	0
994.126	18.04356
994.497	-7.01736
994.868	17.03931
995.239	27.06572
995.61	2.00508
995.98	11.02691
996.351	-12.03005
996.722	-6.01407
997.092	-15.03596
997.462	-11.026
997.833	46.10913
998.203	36.08751
998.573	6.01506
998.943	28.06594
999.313	-39.09503
999.683	-9.02184
1000.053	47.10821
1000.423	46.11186
1000.792	14.03651
1001.162	18.04456
1001.531	-9.02243
1001.901	5.01256
1002.27	1.00226
1002.639	2.00515
1003.009	0
1003.378	7.01803
1003.747	16.03805
1004.116	-23.05579
1004.485	22.05286
1004.853	30.07627
1005.222	-8.02038
1005.591	15.03585
1005.959	-30.06869
1006.328	-7.01594
1006.696	-23.05623
1007.064	13.03291
1007.433	20.05025
1007.801	30.07391
1008.169	34.0861
1008.537	-29.06527
1008.905	-15.03539
1009.273	40.09898
1009.64	-13.03138
1010.008	28.06702
1010.375	62.1502
1010.743	54.12459
1011.11	22.05233
1011.478	26.06462
1011.845	64.15008
1012.212	-42.09683
1012.579	2.00495
1012.946	54.12841
1013.313	8.01919
1013.68	21.04748
1014.047	-34.08231
1014.414	12.02855
1014.78	-1.00251
1015.147	18.04379
1015.513	18.04362
1015.88	54.13796
1016.246	26.06445
1016.612	22.05064
1016.978	40.09818
1017.344	4.00997
1017.71	71.17243
1018.076	50.11789
1018.442	40.10305
1018.808	16.04023
1019.174	2.00506
1019.539	44.1014
1019.905	-20.0478
1020.27	-18.04496
1020.636	33.07936
1021.001	44.10543
1021.366	-23.05598
1021.731	13.03364
1022.096	-17.04338
1022.461	6.01432
1022.826	-15.03609
1023.191	64.16746
1023.556	18.04244
1023.92	46.11316
1024.285	33.08077
1024.649	19.04682
1025.014	15.03738
1025.378	-20.0509
1025.742	-10.0251
1026.107	-9.0206
1026.471	32.07495
1026.835	22.0548
1027.199	-24.05856
1027.562	24.05606
1027.926	30.07361
1028.29	23.05846
1028.654	-9.02094
1029.017	37.09114
1029.381	-16.03869
1029.744	24.06147
1030.107	16.03809
1030.471	-7.01694
1030.834	22.05032
1031.197	45.10847
1031.56	37.08749
1031.923	17.04419
1032.286	51.11971
1032.648	26.06244
1033.011	-26.06056
1033.374	36.08481
1033.736	-20.05318
1034.099	18.04412
1034.461	-9.02296
1034.823	-21.05294
1035.185	-3.00762
1035.548	17.04161
1035.91	50.11972
1036.272	7.01606
1036.634	43.10529
1036.995	7.01658
1037.357	4.00981
1037.719	-8.01966
1038.08	-19.04569
1038.442	29.06908
1038.803	39.09379
1039.165	21.05324
1039.526	20.04858
1039.887	14.03371
1040.248	-5.01244
1040.609	16.03977
1040.97	7.01724
1041.331	23.05848
1041.692	-28.06633
1042.053	23.05263
1042.413	41.09567
1042.774	85.20527
1043.134	49.11663
1043.495	15.03792
1043.855	65.15715
1044.215	16.03994
1044.576	26.06242
1044.936	18.04151
1045.296	32.08008
1045.656	4.00989
1046.016	26.06301
1046.375	1.00245
1046.735	-40.09229
1047.095	38.08911
1047.454	34.07226
1047.814	10.02421
1048.173	95.2249
1048.533	-16.03712
1048.892	-27.06572
1049.251	29.07303
1049.61	3.00745
1049.969	15.03558
1050.328	29.06313
1050.687	12.02939
1051.046	40.09753
1051.405	35.08726
1051.763	-32.07474
1052.122	20.05012
1052.48	-12.02975
1052.839	-1.00237
1053.197	-6.01427
1053.555	27.06181
1053.914	37.09066
1054.272	38.09203
1054.63	-17.04206
1054.988	-14.03365
1055.345	-20.04369
1055.703	5.01213
1056.061	15.0388
1056.419	-3.00783
1056.776	55.13317
1057.134	28.06507
1057.491	17.0428
1057.848	6.01505
1058.206	17.04021
1058.563	27.05977
1058.92	-6.01398
1059.277	62.15252
1059.634	30.07082
1059.991	25.06014
1060.348	-21.04812
1060.704	-14.03375
1061.061	74.17101
1061.418	7.0171
1061.774	19.04714
1062.131	26.06898
1062.487	-20.04738
1062.843	47.11717
1063.199	10.02503
1063.555	-14.03283
1063.911	3.00764
1064.267	62.1289
1064.623	43.10451
1064.979	65.15346
1065.335	19.04566
1065.691	22.05298
1066.046	37.08153
1066.402	-14.0322
1066.757	10.0254
1067.112	49.1202
1067.468	-21.05023
1067.823	52.12489
1068.178	21.05104
1068.533	31.07537
1068.888	24.0576
1069.243	1.00249
1069.598	18.04397
1069.952	-9.0205
1070.307	-31.07782
1070.662	2.00479
1071.016	-29.06599
1071.371	42.09563
1071.725	35.08391
1072.079	48.11541
1072.434	27.06584
1072.788	13.03116
1073.142	40.09851
1073.496	-33.07948
1073.85	22.05127
1074.203	5.01222
1074.557	15.04009
1074.911	20.04798
1075.265	1.00235
1075.618	-6.01479
1075.971	10.02395
1076.325	-2.00513
1076.678	-17.03937
1077.031	31.07037
1077.385	36.07948
1077.738	-10.02283
1078.091	2.00459
1078.444	24.05597
1078.796	52.12744
1079.149	48.11934
1079.502	-25.05987
1079.855	14.03285
1080.207	1.00248
1080.56	-18.04703
1080.912	-1.00246
1081.264	10.02424
1081.617	17.04166
1081.969	-36.09213
1082.321	29.07104
1082.673	-45.10459
1083.025	-13.03119
1083.377	-232.5278
1083.728	-5.01178
1084.08	17.04266
1084.432	28.06776
1084.783	2.00473
1085.135	9.02271
1085.486	-16.03706
1085.838	6.01488
1086.189	4.00979
1086.54	-6.01447
1086.891	-6.01531
1087.242	16.03917
1087.593	3.00736
1087.944	17.0387
1088.295	40.09104
1088.646	10.0244
1088.996	-14.03411
1089.347	17.04193
1089.698	-30.07194
1090.048	25.06516
1090.398	-9.0211
1090.749	12.0289
1091.099	7.01772
1091.449	39.09726
1091.799	35.08779
1092.149	-8.0197
1092.499	24.05878
1092.849	6.01536
1093.199	42.10533
1093.548	48.11528
1093.898	2.00504
1094.248	33.08497
1094.597	-35.09059
1094.947	13.03486
1095.296	31.07675
1095.645	-9.02362
1095.994	28.06748
1096.343	23.05811
1096.692	-21.05578
1097.041	-6.01638
1097.39	5.01263
1097.739	43.1118
1098.088	58.15505
1098.437	19.05013
1098.785	8.0217
1099.134	44.11685
1099.482	34.09366
1099.83	-3.00795
1100.179	-22.05803
1100.527	-5.0134
1100.875	-8.02134
1101.223	28.07456
1101.571	38.10511
1101.919	-42.11135
1102.267	8.02265
1102.615	4.01286
1102.962	14.04506
1103.31	8.0257
1103.658	13.04186
