Data from N2 R8 sample 8_Subt2__4__17-32-14-907.txt Node

Date: Fri Aug 29 17:32:14 PDT 2025
User: uwsun
Spectrometer: HDX01956
Trigger mode: 0
Integration Time (sec): 5.000000E-1
Scans to average: 1
Nonlinearity correction enabled: true
Boxcar width: 0
Storing dark spectrum: false
XAxis mode: Wavelengths
Number of Pixels in Spectrum: 2068
>>>>>Begin Spectral Data<<<<<
194.03	114.31434
194.578	163.50501
195.127	137.41943
195.676	145.44485
196.225	161.41556
196.773	162.43262
197.321	248.63819
197.87	314.73192
198.418	303.69808
198.966	308.71341
199.513	238.53114
200.061	244.55352
200.609	336.79427
201.156	266.51232
201.704	270.60553
202.251	293.6917
202.798	278.64496
203.345	307.67533
203.892	266.59852
204.438	309.654
204.985	249.5224
205.532	309.72126
206.078	303.65869
206.624	335.7205
207.17	353.71572
207.716	321.68386
208.262	343.58537
208.808	284.61542
209.354	262.56654
209.899	414.91352
210.445	325.70771
210.99	288.61209
211.535	350.72051
212.08	351.71362
212.625	361.7931
213.17	357.79584
213.715	294.56979
214.259	380.76958
214.804	343.74785
215.348	359.71657
215.892	340.71662
216.436	327.66907
216.98	381.73258
217.524	326.67745
218.068	334.74442
218.612	371.82157
219.155	329.68139
219.698	351.73411
220.242	314.69869
220.785	298.61926
221.328	297.66128
221.871	339.76541
222.414	356.78491
222.956	234.50643
223.499	301.60052
224.041	358.73598
224.583	333.63658
225.126	279.54783
225.668	294.63654
226.21	274.61753
226.751	279.53981
227.293	320.64807
227.835	292.63491
228.376	312.64141
228.918	334.75058
229.459	249.55649
230	274.58285
230.541	268.5532
231.082	286.61816
231.622	282.58026
232.163	299.6428
232.704	273.60458
233.244	303.66793
233.784	368.79504
234.324	239.46596
234.864	212.43367
235.404	304.64328
235.944	286.60519
236.484	301.67047
237.023	279.58586
237.563	265.54467
238.102	345.71517
238.641	351.78182
239.18	317.64949
239.719	311.69274
240.258	292.58135
240.797	282.59803
241.335	333.71928
241.874	279.46946
242.412	296.62882
242.95	265.56088
243.488	333.66529
244.026	295.5984
244.564	282.5105
245.102	266.52835
245.64	311.66371
246.177	304.59903
246.715	327.69149
247.252	340.68321
247.789	366.59358
248.326	237.50557
248.863	307.58716
249.4	304.60721
249.936	300.53782
250.473	243.50328
251.009	345.68383
251.546	305.58673
252.082	260.50317
252.618	297.57767
253.154	300.63176
253.69	310.60942
254.226	290.60855
254.761	348.67542
255.297	273.52365
255.832	292.60598
256.367	308.63462
256.903	290.55559
257.438	349.71181
257.972	320.6187
258.507	299.59459
259.042	291.5509
259.576	233.43936
260.111	301.60917
260.645	347.64664
261.179	301.61113
261.713	306.58993
262.247	367.72743
262.781	284.51517
263.315	295.63065
263.849	320.69638
264.382	392.7699
264.915	291.59217
265.449	266.56361
265.982	364.71052
266.515	343.72183
267.048	289.52812
267.58	314.59517
268.113	292.544
268.646	298.63996
269.178	308.59121
269.71	337.63081
270.243	311.61499
270.775	339.74571
271.307	364.75438
271.838	331.68277
272.37	322.68524
272.902	348.678
273.433	304.57143
273.965	355.74083
274.496	401.8513
275.027	353.75104
275.558	296.62169
276.089	302.63709
276.62	375.82004
277.15	348.7396
277.681	379.69541
278.211	397.8281
278.741	272.51455
279.272	317.61745
279.802	361.7714
280.332	302.61078
280.861	324.66879
281.391	335.64382
281.921	351.72273
282.45	368.78517
282.98	350.78331
283.509	335.63823
284.038	380.72591
284.567	400.78599
285.096	392.79715
285.625	313.60328
286.153	292.58432
286.682	378.72139
287.21	312.6391
287.739	316.63411
288.267	367.74512
288.795	378.84526
289.323	350.68319
289.851	365.71636
290.378	350.6566
290.906	386.77422
291.433	377.78813
291.961	363.68083
292.488	333.70078
293.015	378.73505
293.542	343.7285
294.069	387.78788
294.596	388.80124
295.122	336.6705
295.649	357.65141
296.175	377.76088
296.702	379.76422
297.228	440.87723
297.754	381.70014
298.28	394.72786
298.806	369.73071
299.332	398.70951
299.857	377.69279
300.383	435.90414
300.908	325.64961
301.433	397.78432
301.958	384.72679
302.483	349.71634
303.008	431.86667
303.533	455.96592
304.058	443.84156
304.582	374.7141
305.107	378.80615
305.631	448.81604
306.155	388.72431
306.679	393.73383
307.203	432.79368
307.727	427.8072
308.251	446.87927
308.775	405.75961
309.298	422.79599
309.822	487.96935
310.345	455.84541
310.868	475.8839
311.391	471.9122
311.914	464.91003
312.437	450.80141
312.96	473.85875
313.482	441.81164
314.005	452.88691
314.527	459.94339
315.049	459.90894
315.571	453.75737
316.093	531.99648
316.615	448.82722
317.137	508.81753
317.659	573.03989
318.18	529.96144
318.702	517.89197
319.223	513.76057
319.744	458.76216
320.265	477.85985
320.786	487.89228
321.307	503.92811
321.828	547.8881
322.348	557.94056
322.869	547.91865
323.389	577.60711
323.909	575.93098
324.43	609.04657
324.95	544.87254
325.47	508.89163
325.989	517.85638
326.509	541.80703
327.029	571.86683
327.548	555.83899
328.067	533.88193
328.587	575.98999
329.106	592.89205
329.625	699.25879
330.144	612.92334
330.662	635.94748
331.181	604.92329
331.7	682.01317
332.218	604.82173
332.736	682.00212
333.255	657.95608
333.773	665.98392
334.291	746.1673
334.808	662.88729
335.326	717.959
335.844	739.99509
336.361	699.0685
336.879	707.95501
337.396	741.03303
337.913	756.97356
338.43	791.96712
338.947	759.01302
339.464	721.82047
339.981	758.9835
340.497	824.12033
341.014	808.06411
341.53	796.92174
342.046	803.05004
342.562	819.10151
343.078	812.98407
343.594	856.03983
344.11	856.0242
344.626	807.06171
345.141	867.94232
345.657	961.01044
346.172	829.99
346.687	812.88872
347.202	897.90228
347.717	928.02154
348.232	1001.15466
348.747	902.92064
349.261	808.7477
349.776	885.92743
350.29	886.97562
350.805	990.08796
351.319	978.94988
351.833	927.84184
352.347	949.92099
352.861	969.90283
353.374	1010.92365
353.888	1014.99289
354.401	990.87345
354.915	948.77439
355.428	1005.98942
355.941	1000.85391
356.454	1173.88685
356.967	1045.91038
357.48	1124.885
357.993	1076.98318
358.505	1003.90685
359.018	1195.9896
359.53	1144.91023
360.042	1207.78479
360.554	1157.93144
361.066	1124.90295
361.578	1133.70151
362.09	1181.87168
362.602	1123.68747
363.113	1201.78719
363.625	1204.71298
364.136	1260.6801
364.647	1136.67983
365.158	1342.75543
365.669	1312.8064
366.18	1277.75661
366.691	1254.6154
367.201	1274.75141
367.712	1263.62417
368.222	1275.62029
368.733	1226.48521
369.243	1274.49582
369.753	1334.58262
370.263	1468.62318
370.773	1373.67293
371.282	1344.54579
371.792	1360.37342
372.301	1419.47714
372.811	1494.63208
373.32	1342.16885
373.829	1440.2804
374.338	1603.08824
374.847	1542.10427
375.356	1602.08223
375.865	1684.76227
376.373	1782.76852
376.882	1915.92572
377.39	1897.76374
377.898	1784.69365
378.407	1980.38867
378.915	2093.23653
379.423	2155.23279
379.93	2223.08998
380.438	2259.03056
380.946	2385.88669
381.453	2427.83231
381.96	2437.79701
382.468	2552.79802
382.975	2918.76315
383.482	2995.93773
383.989	2964.83525
384.495	3081.20695
385.002	2990.78273
385.509	3300.08926
386.015	3565.78039
386.521	3854.38909
387.028	3937.50507
387.534	4020.71778
388.04	4264.20285
388.546	4125.97201
389.051	4268.68077
389.557	4629.35724
390.063	5690.0227
390.568	5518.29891
391.073	5455.66911
391.578	5846.26359
392.084	5775.19315
392.589	5562.63916
393.093	5879.86055
393.598	6740.77959
394.103	7281.70793
394.607	8284.39993
395.112	8784.43245
395.616	9561.25688
396.12	10000.17088
396.624	10707.61781
397.128	12037.79967
397.632	13725.24129
398.136	14959.37889
398.639	14352.10718
399.143	14494.36645
399.646	16882.03497
400.15	18538.68404
400.653	18672.67898
401.156	13341.95875
401.659	5169.95759
402.162	1054.15589
402.664	0
403.167	0
403.67	0
404.172	0
404.674	0
405.176	0
405.678	0
406.18	0
406.682	0
407.184	0
407.686	0
408.187	0
408.688	0
409.19	0
409.691	0
410.192	0
410.693	0
411.194	435.30976
411.694	4082.94878
412.195	8864.71461
412.696	12089.80453
413.196	12760.96929
413.696	12863.67595
414.196	13703.56671
414.696	17261.84252
415.196	21764.24417
415.696	29583.19008
416.196	35824.63622
416.695	25788.59135
417.195	19952.89096
417.694	18840.28438
418.194	18085.82925
418.693	16372.90867
419.192	15469.007
419.691	15690.12301
420.19	15546.63605
420.688	15310.65838
421.187	14833.64693
421.685	14500.29624
422.184	13223.98226
422.682	11542.35586
423.18	9365.74071
423.678	8142.77161
424.176	7488.48375
424.674	6941.29431
425.172	6874.55851
425.669	6541.64711
426.167	6182.08643
426.664	5578.5643
427.161	5159.80689
427.659	4511.99222
428.156	4270.67203
428.652	4045.79037
429.149	3666.31726
429.646	3629.23974
430.143	3617.8141
430.639	3287.66131
431.135	3133.60353
431.632	3051.61957
432.128	2611.82643
432.624	2451.00599
433.12	2269.981
433.616	2270.0009
434.111	1994.24542
434.607	2042.32117
435.103	2120.23738
435.598	2050.30936
436.093	1960.63804
436.588	1807.74797
437.083	1745.86825
437.578	1700.99041
438.073	1452.20725
438.568	1531.31122
439.062	1478.09364
439.557	1342.37668
440.051	1317.31528
440.546	1236.34948
441.04	1228.47412
441.534	1206.62398
442.028	1234.56604
442.522	1090.55519
443.015	1081.43257
443.509	1133.65375
444.002	1072.64599
444.496	1107.48565
444.989	995.66175
445.482	1001.69605
445.975	995.53258
446.468	991.4825
446.961	975.48864
447.454	952.58123
447.947	843.59884
448.439	946.71834
448.931	806.53926
449.424	864.7645
449.916	858.70406
450.408	794.56387
450.9	899.72045
451.392	736.70377
451.884	889.67898
452.375	710.67166
452.867	858.67651
453.358	701.57378
453.849	725.52941
454.341	648.55822
454.832	647.51467
455.323	683.67934
455.814	683.62925
456.304	655.61959
456.795	617.59066
457.285	689.63538
457.776	773.73267
458.266	632.65744
458.756	627.68775
459.247	511.56628
459.737	518.57785
460.226	502.52008
460.716	534.61325
461.206	491.58828
461.695	556.70997
462.185	566.65647
462.674	510.59092
463.163	477.53057
463.653	514.5208
464.142	463.59122
464.63	468.62435
465.119	452.55352
465.608	417.51956
466.096	445.51952
466.585	458.58786
467.073	419.57814
467.561	417.5821
468.05	450.59751
468.538	434.63139
469.026	381.54548
469.513	359.43432
470.001	376.50317
470.489	392.55543
470.976	364.51214
471.463	353.55814
471.951	385.61438
472.438	331.48997
472.925	287.42819
473.412	347.55974
473.899	362.53311
474.385	327.53375
474.872	252.3914
475.359	286.47061
475.845	253.34333
476.331	323.46618
476.817	255.43399
477.303	268.42823
477.789	240.40702
478.275	189.33663
478.761	239.41093
479.247	228.36306
479.732	215.38612
480.218	232.44339
480.703	264.47547
481.188	178.2758
481.673	221.36738
482.158	88.13731
482.643	194.37508
483.128	131.2233
483.612	133.23603
484.097	187.34967
484.581	182.32173
485.066	179.3314
485.55	99.1662
486.034	114.18861
486.518	120.21734
487.002	55.10636
487.486	91.17539
487.969	91.17573
488.453	128.25757
488.936	67.12008
489.42	100.17557
489.903	137.27739
490.386	90.11425
490.869	77.13537
491.352	138.2741
491.835	101.16734
492.318	67.12255
492.8	59.09894
493.283	82.17094
493.765	37.07543
494.247	73.14164
494.73	48.08755
495.212	48.09757
495.694	69.1326
496.175	-40.07975
496.657	65.12878
497.139	49.07079
497.62	-14.02791
498.102	-8.01685
498.583	5.0107
499.064	2.00375
499.545	31.05966
500.026	1.0019
500.507	-31.06185
500.988	42.0888
501.469	9.01922
501.949	0
502.43	-39.07955
502.91	-4.00702
503.39	-3.00652
503.87	-4.00805
504.35	24.04883
504.83	-46.08719
505.31	-34.07148
505.79	-14.02889
506.269	8.01617
506.749	-67.13355
507.228	-36.07334
507.707	-5.00956
508.187	37.07646
508.666	-40.08568
509.145	-60.12274
509.623	-61.12589
510.102	-18.03814
510.581	-32.06819
511.059	-14.03057
511.538	-16.03648
512.016	18.03742
512.494	-6.01279
512.972	-26.05454
513.45	-86.17537
513.928	-50.10692
514.406	-79.16736
514.884	-20.04526
515.361	-36.07605
515.839	6.01191
516.316	-3.00633
516.793	-2.00447
517.27	-15.03224
517.747	-14.03168
518.224	-27.05537
518.701	3.00587
519.178	-2.00435
519.654	-18.03809
520.131	-31.06808
520.607	-20.04419
521.083	-26.05261
521.56	-22.04609
522.036	-20.03898
522.512	17.03718
522.987	-69.14611
523.463	-12.02528
523.939	-21.04598
524.414	-1.00205
524.89	-34.07211
525.365	-48.09726
525.84	-43.09069
526.315	-9.01924
526.79	5.00999
527.265	-55.11269
527.74	0
528.215	-19.03997
528.689	-25.04934
529.164	8.01544
529.638	11.02523
530.112	-13.02725
530.587	-31.05886
531.061	-64.13887
531.534	60.12847
532.008	52.10994
532.482	45.09141
532.956	15.03391
533.429	41.08803
533.903	46.09009
534.376	37.07234
534.849	70.14287
535.322	38.07957
535.795	77.1659
536.268	51.10837
536.741	57.12133
537.213	105.2125
537.686	74.15838
538.158	65.12751
538.631	94.20161
539.103	64.12587
539.575	160.28742
540.047	87.16784
540.519	191.39382
540.991	156.33271
541.463	183.38258
541.934	198.38795
542.406	126.26137
542.877	142.27783
543.348	210.43601
543.82	251.52544
544.291	269.53219
544.762	183.3724
545.233	221.47328
545.703	165.31282
546.174	281.54837
546.645	227.45709
547.115	282.56928
547.585	344.65172
548.056	266.53427
548.526	315.60888
548.996	393.76986
549.466	400.79822
549.935	324.62643
550.405	362.6373
550.875	409.7762
551.344	448.85748
551.814	463.84017
552.283	450.77239
552.752	414.76366
553.221	450.75875
553.69	534.90734
554.159	498.95274
554.628	528.8981
555.096	564.10291
555.565	559.94856
556.033	641.14646
556.502	584.09678
556.97	608.02841
557.438	637.16158
557.906	625.1529
558.374	601.07366
558.842	602.12732
559.31	640.10615
559.777	602.14122
560.245	624.15249
560.712	633.14727
561.18	621.06383
561.647	686.17515
562.114	651.14882
562.581	711.36237
563.048	742.30878
563.514	739.39361
563.981	764.32944
564.448	754.28297
564.914	760.35387
565.381	808.3862
565.847	842.48097
566.313	818.43715
566.779	797.35524
567.245	806.42786
567.711	808.46929
568.176	793.33681
568.642	796.52809
569.108	831.54676
569.573	899.57365
570.038	810.26486
570.504	829.37874
570.969	832.58657
571.434	849.36569
571.899	824.47647
572.363	836.4183
572.828	925.54822
573.293	899.51277
573.757	892.50544
574.222	872.42067
574.686	811.34872
575.15	867.52783
575.614	906.5159
576.078	827.45035
576.542	828.40621
577.006	798.34709
577.469	910.68029
577.933	811.34724
578.396	793.43211
578.86	773.38809
579.323	718.31853
579.786	750.22201
580.249	708.23762
580.712	778.45905
581.175	717.37521
581.637	697.25134
582.1	770.28351
582.563	696.15602
583.025	670.27471
583.487	630.98597
583.95	542.9294
584.412	655.07009
584.874	634.22131
585.336	629.18118
585.797	621.05529
586.259	624.17436
586.721	553.04636
587.182	664.23081
587.643	536.98926
588.105	564.07894
588.566	549.93057
589.027	514.00875
589.488	559.02885
589.949	521.03432
590.41	519.80664
590.87	605.10701
591.331	556.96979
591.791	536.00201
592.252	448.84629
592.712	508.00306
593.172	497.91657
593.632	514.92207
594.092	503.91835
594.552	463.82179
595.011	415.79451
595.471	544.98645
595.931	467.85908
596.39	495.97473
596.849	502.95946
597.308	522.92343
597.768	481.01254
598.227	510.00984
598.685	537.0076
599.144	490.94424
599.603	519.00683
600.062	475.81467
600.52	479.87629
600.978	555.0681
601.437	509.9566
601.895	457.79808
602.353	510.92619
602.811	560
603.269	537.04728
603.727	524.02454
604.184	473.87493
604.642	539.0761
605.099	518.9819
605.557	543.07908
606.014	486.85255
606.471	497.01552
606.928	523.89848
607.385	534.04709
607.842	634.14296
608.299	598.11485
608.755	599.1546
609.212	543.96986
609.668	559.98506
610.125	647.24132
610.581	645.22855
611.037	642.17279
611.493	543.05349
611.949	524.03374
612.405	519.84213
612.861	558.07878
613.316	537.05125
613.772	505.95982
614.227	519.00875
614.683	558.97687
615.138	527.01459
615.593	503.96999
616.048	565.06077
616.503	574.16335
616.958	568.17163
617.412	535.04733
617.867	533.96822
618.321	550.93555
618.776	543.99492
619.23	503.99048
619.684	560.048
620.138	610.16598
620.592	555.124
621.046	612.18451
621.5	614.23037
621.954	594.10848
622.407	660.19662
622.861	597.2059
623.314	604.14055
623.768	569.10876
624.221	599.96933
624.674	571.10211
625.127	603.17681
625.58	693.29585
626.033	728.30477
626.485	671.32339
626.938	744.44115
627.39	725.37653
627.843	757.42064
628.295	720.36403
628.747	829.5797
629.199	827.50125
629.651	797.45694
630.103	910.63512
630.555	931.52349
631.006	952.74837
631.458	961.77332
631.909	1079.88773
632.361	1092.93402
632.812	1139.96703
633.263	1235.91729
633.714	1226.89825
634.165	1313.31905
634.616	1291.23885
635.067	1383.15526
635.518	1454.43669
635.968	1555.01982
636.419	1648.31691
636.869	1639.61263
637.319	1707.56363
637.769	1764.48894
638.219	1969.89211
638.669	1944.8573
639.119	2119.07356
639.569	2113.01473
640.019	2293.91482
640.468	2299.76067
640.918	2507.18741
641.367	2593.84312
641.816	2706.83991
642.265	2804.01724
642.714	2908.02118
643.163	3077.97609
643.612	3180.19459
644.061	3215.48935
644.51	3486.82726
644.958	3554.59717
645.406	3703.06873
645.855	3865.19217
646.303	3999.81959
646.751	4146.55025
647.199	4251.50717
647.647	4495.4489
648.095	4565.38712
648.543	4726.64108
648.99	4968.44963
649.438	5166.25021
649.885	5397.49377
650.333	5590.9309
650.78	5677.16225
651.227	5880.12303
651.674	6030.63429
652.121	6236.99696
652.568	6521.90541
653.015	6828.15063
653.461	7030.75292
653.908	7207.68452
654.354	7522.91544
654.801	7753.94701
655.247	8065.99493
655.693	8324.85694
656.139	8772.10374
656.585	8986.45326
657.031	9471.41358
657.477	9802.35285
657.922	10273.70165
658.368	10749.17927
658.813	11168.12844
659.259	11587.94121
659.704	12156.20429
660.149	12804.2486
660.594	13207.83592
661.039	13863.41321
661.484	14406.28029
661.929	15072.80863
662.373	15854.24966
662.818	16562.26141
663.262	17314.76954
663.707	18042.43356
664.151	18870.15863
664.595	19532.52855
665.039	20485.87411
665.483	21464.1946
665.927	22428.53065
666.371	23216.60762
666.814	24498.94247
667.258	25290.40575
667.701	26372.26661
668.145	27274.37547
668.588	27865.21297
669.031	28975.59633
669.474	29925.6818
669.917	30700.47758
670.36	31934.66562
670.803	32893.01877
671.245	33307.74236
671.688	33941.01864
672.13	34611.8873
672.573	35479.13328
673.015	36408.374
673.457	36718.13446
673.899	37273.11191
674.341	37806.44635
674.783	38304.59701
675.225	38631.90649
675.666	38742.18246
676.108	39331.60491
676.549	39273.8178
676.991	39820.67424
677.432	39886.78517
677.873	39517.2689
678.314	39608.58288
678.755	39236.10078
679.196	39432.70068
679.637	38810.42731
680.078	38604.33897
680.518	38124.44358
680.959	37827.68508
681.399	37287.87785
681.839	37109.7109
682.28	36570.24867
682.72	35959.41034
683.16	35679.00252
683.6	34989.62749
684.039	34450.4448
684.479	34328.15363
684.919	33684.6634
685.358	33703.27361
685.798	33296.16643
686.237	32756.65259
686.676	32190.10217
687.115	31814.35586
687.554	31726.32645
687.993	31064.06003
688.432	30539.12194
688.871	30102.67462
689.309	29816.51194
689.748	29564.37954
690.186	29575.80242
690.625	29150.45032
691.063	28636.94766
691.501	28525.87851
691.939	28072.17763
692.377	27682.9001
692.815	27841.38572
693.253	26995.46976
693.69	26923.83965
694.128	26459.29718
694.565	26129.26958
695.003	26037.27227
695.44	25696.83393
695.877	25317.81939
696.314	24794.69802
696.751	24472.5608
697.188	24427.79666
697.625	24131.51209
698.061	23674.76373
698.498	23481.66456
698.934	23053.63265
699.371	22709.35897
699.807	22432.14498
700.243	22172.87633
700.679	21604.37057
701.115	21474.32039
701.551	21085.73653
701.987	20815.16063
702.422	20572.18191
702.858	20661.34557
703.294	20069.36135
703.729	19868.36546
704.164	19512.94186
704.599	19324.47156
705.035	19072.94394
705.47	19045.3177
705.904	18641.08408
706.339	18584.30099
706.774	18680.45324
707.209	18071.93122
707.643	17940.19852
708.078	17904.40189
708.512	17733.61322
708.946	17537.20752
709.38	17232.80015
709.814	17201.25326
710.248	16872.88298
710.682	16943.29482
711.116	16763.17072
711.549	16422.48382
711.983	16183.28153
712.416	16075.60343
712.85	15813.75032
713.283	15877.48338
713.716	15605.44494
714.149	15248.90693
714.582	15022.78865
715.015	15158.12188
715.448	14766.37893
715.881	14661.75797
716.313	14458.84671
716.746	14462.81715
717.178	14185.08838
717.61	14241.73583
718.043	13979.85681
718.475	13841.151
718.907	13902.00197
719.339	13544.74348
719.77	13447.43474
720.202	13321.70659
720.634	13276.86569
721.065	13217.73973
721.497	13080.39092
721.928	12792.46816
722.359	12728.2492
722.79	12706.17112
723.221	12663.39196
723.652	12488.10309
724.083	12253.91689
724.514	12065.65748
724.945	12200.24693
725.375	12025.3684
725.806	11741.33356
726.236	11601.50916
726.666	11562.79282
727.096	11493.24965
727.526	11499.09199
727.956	11370.11407
728.386	11291.3177
728.816	11151.60664
729.246	11122.66169
729.675	10853.53152
730.105	10819.39699
730.534	10685.06119
730.964	10741.02807
731.393	10648.7458
731.822	10557.37418
732.251	10555.38072
732.68	10539.50442
733.109	10235.41426
733.537	10155.20062
733.966	10256.4678
734.395	10109.12941
734.823	10011.87075
735.251	9942.59306
735.68	9921.51936
736.108	9710.00236
736.536	9657.85979
736.964	9475.42397
737.392	9365.25103
737.82	9437.35355
738.247	9361.18985
738.675	9294.0504
739.102	9181.90286
739.53	9046.72066
739.957	8944.59706
740.384	8945.48399
740.811	8908.50112
741.238	8851.30872
741.665	8532.72779
742.092	8456.7235
742.519	8487.87569
742.945	8419.69548
743.372	8462.8524
743.798	8278.84019
744.225	8222.45493
744.651	8030.53169
745.077	8204.63357
745.503	7980.3632
745.929	7865.20679
746.355	7864.38991
746.781	7725.29206
747.207	7511.90688
747.632	7540.11683
748.058	7518.25124
748.483	7499.81977
748.908	7423.19791
749.334	7308.10371
749.759	7282.86282
750.184	7201.89905
750.609	7294.10576
751.033	7204.86813
751.458	7115.57348
751.883	7053.13543
752.307	6852.80472
752.732	6802.19078
753.156	6772.12283
753.58	6747.87229
754.005	6651.34864
754.429	6553.82392
754.853	6429.21409
755.277	6538.87328
755.7	6360.24907
756.124	6269.27655
756.548	6266.94636
756.971	6163.19999
757.394	6178.61606
757.818	5943.70871
758.241	5996.56453
758.664	5968.53786
759.087	5882.68055
759.51	5823.49115
759.933	5709.27815
760.356	5651.82506
760.778	5650.47763
761.201	5586.43232
761.623	5460.48081
762.046	5436.32635
762.468	5408.43369
762.89	5363.66766
763.312	5308.60944
763.734	5058.63467
764.156	5092.81698
764.578	5066.30028
765	4994.77745
765.421	4861.17234
765.843	4909.4381
766.264	4743.84614
766.686	4729.16415
767.107	4563.96023
767.528	4514.30662
767.949	4669.29638
768.37	4377.15731
768.791	4383.04651
769.212	4325.35807
769.632	4287.80449
770.053	4317.77409
770.473	4271.13815
770.894	4174.41586
771.314	4146.06858
771.734	4022.93862
772.154	3955.70341
772.575	4006.91193
772.994	3965.78496
773.414	3967.1825
773.834	3793.54249
774.254	3763.39293
774.673	3719.37351
775.093	3622.51091
775.512	3563.49279
775.931	3591.70283
776.351	3524.5596
776.77	3490.45254
777.189	3448.27683
777.607	3396.78931
778.026	3337.61385
778.445	3302.64446
778.864	3321.83197
779.282	3251.38643
779.701	3253.70675
780.119	3132.72386
780.537	2997.63416
780.955	3099.77709
781.373	3002.57748
781.791	3031.98394
782.209	2995.14071
782.627	2916.99747
783.045	2919.12668
783.462	2848.77218
783.88	2868.85817
784.297	2748.64971
784.715	2708.76722
785.132	2715.40781
785.549	2700.60141
785.966	2610.61011
786.383	2640.48423
786.8	2562.14483
787.217	2576.25629
787.633	2459.50549
788.05	2469.24422
788.466	2512.21643
788.883	2411.60908
789.299	2379.27901
789.715	2405.33884
790.131	2311.4195
790.547	2270.42204
790.963	2303.40536
791.379	2282.49261
791.795	2235.95351
792.21	2192.04719
792.626	2196.11978
793.041	2142.28371
793.457	2207.32993
793.872	2077.01133
794.287	2112.09744
794.702	2095.24648
795.117	2009.2235
795.532	1983.24487
795.947	2086.12824
796.362	2024.05321
796.776	2066.99289
797.191	1855.03639
797.605	1811.82193
798.02	1822.98344
798.434	1855.64824
798.848	1838.04697
799.262	1763.01104
799.676	1809.98547
800.09	1725.94345
800.504	1681.84658
800.918	1654.64345
801.331	1654.13896
801.745	1640.60026
802.158	1662.94568
802.572	1609.77471
802.985	1554.70534
803.398	1597.69756
803.811	1567.95666
804.224	1553.81287
804.637	1423.50908
805.05	1455.45485
805.462	1411.60097
805.875	1324.66841
806.288	1297.39725
806.7	1405.67069
807.112	1322.30912
807.525	1259.42016
807.937	1243.40186
808.349	1271.48286
808.761	1206.33739
809.173	1200.28503
809.584	1174.30648
809.996	1086.15022
810.408	1149.39381
810.819	1087.04788
811.231	1063.25933
811.642	1076.06514
812.053	1127.13069
812.464	1173.19316
812.875	1149.36535
813.286	1056.23814
813.697	1073.01552
814.108	949.9355
814.519	919.69144
814.929	944.02738
815.34	885.81465
815.75	827.81289
816.16	866.84147
816.571	859.9201
816.981	850.70246
817.391	775.61964
817.801	731.59226
818.211	744.54278
818.62	720.51687
819.03	715.53961
819.44	732.68945
819.849	741.6379
820.259	693.57498
820.668	636.39715
821.077	645.4297
821.486	643.3785
821.895	669.46818
822.304	576.39165
822.713	569.21336
823.122	570.29025
823.531	544.16975
823.939	516.14984
824.348	552.21851
824.756	481.11254
825.164	537.2349
825.573	475.10169
825.981	488.11513
826.389	460.07168
826.797	416.97608
827.205	405.86728
827.612	419.96717
828.02	375.828
828.428	456.07857
828.835	355.88807
829.243	396.88477
829.65	344.81191
830.057	332.76594
830.464	363.83561
830.871	387.87055
831.278	332.76259
831.685	333.70325
832.092	302.70728
832.499	271.56806
832.905	330.79606
833.312	300.65286
833.718	315.74939
834.124	258.56743
834.531	327.78569
834.937	230.57325
835.343	271.62884
835.749	286.63983
836.155	261.66027
836.561	260.61655
836.966	226.53634
837.372	275.67379
837.777	252.60632
838.183	216.46587
838.588	214.51686
838.993	236.5564
839.399	175.41908
839.804	148.35503
840.209	185.46069
840.613	195.42248
841.018	149.37158
841.423	177.44492
841.828	166.4121
842.232	210.50643
842.637	112.26191
843.041	134.33908
843.445	170.41817
843.849	158.38435
844.253	158.3689
844.657	114.28435
845.061	129.28902
845.465	123.29377
845.869	157.35827
846.272	123.29613
846.676	101.24261
847.079	112.2822
847.483	134.32999
847.886	161.38467
848.289	112.29623
848.692	161.40049
849.095	121.28745
849.498	163.40576
849.901	93.21214
850.304	123.29062
850.707	105.26565
851.109	106.26613
851.512	107.26073
851.914	51.12871
852.316	130.32473
852.718	69.1778
853.121	93.22653
853.523	95.22063
853.925	105.27168
854.326	66.16481
854.728	100.2553
855.13	44.11375
855.531	39.09358
855.933	127.30112
856.334	93.23042
856.736	7.01586
857.137	70.16248
857.538	62.15577
857.939	89.21865
858.34	82.19903
858.741	98.2544
859.142	50.12036
859.542	73.19208
859.943	124.30446
860.343	55.13627
860.744	105.25404
861.144	62.15116
861.544	63.15128
861.945	48.12254
862.345	108.26174
862.745	56.13923
863.145	79.18818
863.544	55.13905
863.944	65.1534
864.344	72.17842
864.743	74.18311
865.143	77.1971
865.542	55.12768
865.941	63.1558
866.34	88.20966
866.74	56.1503
867.139	63.1507
867.537	80.20301
867.936	70.16812
868.335	34.08686
868.734	42.1076
869.132	79.18282
869.531	54.13072
869.929	28.06422
870.327	13.03143
870.726	69.17171
871.124	33.07752
871.522	31.07932
871.92	23.05709
872.318	70.17073
872.715	82.20209
873.113	34.08321
873.511	68.16906
873.908	-11.0281
874.306	37.09234
874.703	46.11532
875.1	45.11535
875.497	47.1129
875.894	37.09097
876.291	85.20751
876.688	-5.01303
877.085	66.15809
877.482	90.22392
877.878	25.06053
878.275	26.0664
878.671	71.1577
879.068	25.06071
879.464	49.1186
879.86	-13.03116
880.256	71.17475
880.652	17.04353
881.048	52.12895
881.444	27.06464
881.84	54.13728
882.236	20.05061
882.631	14.03463
883.027	63.15237
883.422	44.11273
883.817	-2.00508
884.213	67.17156
884.608	-17.04224
885.003	9.02189
885.398	16.04033
885.793	40.10068
886.188	35.08732
886.582	40.10287
886.977	60.14229
887.371	9.02295
887.766	-32.08083
888.16	44.11003
888.554	65.16046
888.949	37.09321
889.343	55.13437
889.737	-10.02693
890.131	36.09061
890.525	37.09491
890.918	4.01016
891.312	36.08646
891.706	12.03171
892.099	27.06904
892.492	37.08016
892.886	23.05661
893.279	43.10976
893.672	1.00257
894.065	26.06544
894.458	58.14577
894.851	77.18791
895.244	28.07184
895.637	29.07019
896.029	34.08345
896.422	31.07608
896.814	13.03256
897.206	6.01442
897.599	73.17994
897.991	-19.04658
898.383	6.01431
898.775	3.00684
899.167	-15.03546
899.559	33.08385
899.951	34.08048
900.342	42.10704
900.734	-48.12129
901.125	18.04751
901.517	0
901.908	36.08662
902.299	21.05165
902.69	6.01429
903.082	63.15231
903.473	17.04099
903.863	51.13018
904.254	42.09772
904.645	37.09231
905.036	-18.04416
905.426	61.13948
905.817	-1.00248
906.207	-17.04105
906.597	-6.0142
906.987	15.03913
907.378	17.04327
907.768	20.05317
908.158	15.03684
908.547	30.0778
908.937	54.13854
909.327	45.10945
909.717	73.18469
910.106	18.04353
910.495	23.05773
910.885	50.1267
911.274	12.03021
911.663	3.00768
912.052	48.11856
912.441	-9.02313
912.83	14.03239
913.219	71.18523
913.608	31.07624
913.997	4.01011
914.385	8.01928
914.774	18.04412
915.162	-25.06046
915.55	45.10904
915.939	21.0533
916.327	44.10999
916.715	-10.02576
917.103	97.2368
917.491	59.14581
917.878	49.12056
918.266	24.06254
918.654	37.09478
919.041	28.07339
919.429	-25.05989
919.816	45.11422
920.203	-10.02454
920.591	22.05486
920.978	72.17568
921.365	16.04223
921.752	11.02643
922.139	26.05678
922.525	-18.0438
922.912	-18.04448
923.299	14.03504
923.685	18.04723
924.072	7.01629
924.458	14.03492
924.844	0
925.231	-5.01177
925.617	-23.05927
926.003	43.11007
926.389	27.06841
926.774	6.01533
927.16	-5.01255
927.546	-3.00773
927.931	50.12481
928.317	29.06711
928.702	-29.06969
929.088	-9.02154
929.473	27.06899
929.858	-29.07117
930.243	-31.07557
930.628	36.08784
931.013	19.04737
931.398	43.09908
931.783	25.06611
932.167	12.02955
932.552	21.0529
932.937	54.13396
933.321	-8.02029
933.705	-2.00509
934.09	18.04576
934.474	2.0048
934.858	41.10653
935.242	-31.07302
935.626	5.0129
936.009	17.04547
936.393	64.16247
936.777	15.03865
937.16	16.04188
937.544	3.00714
937.927	7.0179
938.311	17.04177
938.694	84.22091
939.077	19.04576
939.46	-1.00248
939.843	0
940.226	12.03099
940.609	16.03699
940.991	7.01796
941.374	-9.02224
941.757	32.07924
942.139	-20.04558
942.522	-20.04792
942.904	-21.05117
943.286	11.02815
943.668	24.06245
944.05	1.00249
944.432	-1.00249
944.814	33.08155
945.196	0
945.578	-42.1016
945.959	14.03305
946.341	56.13735
946.722	71.166
947.104	9.02168
947.485	25.05847
947.866	-7.01782
948.247	-17.04341
948.628	38.09293
949.009	4.01033
949.39	16.04008
949.771	21.04914
950.152	24.05919
950.532	-61.15312
950.913	64.154
951.293	1.00272
951.674	-4.00977
952.054	-4.01001
952.434	16.03997
952.814	23.05502
953.194	11.02898
953.574	40.09872
953.954	17.04063
954.334	-21.05302
954.714	5.01229
955.093	50.12295
955.473	30.07529
955.853	68.17549
956.232	23.06331
956.611	53.12707
956.99	-7.01777
957.37	5.01284
957.749	-12.02897
958.128	-29.0741
958.506	22.05735
958.885	58.14619
959.264	25.06156
959.643	19.04352
960.021	0
960.4	-14.03215
960.778	71.17424
961.156	-17.04313
961.535	33.07719
961.913	-16.03793
962.291	11.02841
962.669	10.02551
963.047	44.11241
963.424	18.0462
963.802	-6.01491
964.18	67.16903
964.557	11.02554
964.935	48.11379
965.312	35.09138
965.69	17.04283
966.067	19.04654
966.444	29.07175
966.821	32.08276
967.198	39.09482
967.575	30.07404
967.952	29.06863
968.329	34.08299
968.705	42.09024
969.082	-1.00259
969.458	-18.04374
969.835	1.00246
970.211	-14.03633
970.587	54.13435
970.963	10.02583
971.339	32.08381
971.715	20.05021
972.091	42.10358
972.467	34.08506
972.843	-1.0025
973.219	80.19104
973.594	13.03422
973.97	44.10487
974.345	-31.07534
974.721	29.07051
975.096	-13.03183
975.471	28.06671
975.846	20.04833
976.221	-20.05142
976.596	-2.00484
976.971	24.05954
977.346	18.04218
977.72	-8.02059
978.095	33.08554
978.469	33.07903
978.844	70.17537
979.218	-40.09753
979.593	50.11981
979.967	30.07336
980.341	35.08084
980.715	24.06075
981.089	27.06787
981.463	-19.04423
981.837	-12.02966
982.21	38.08865
982.584	14.03404
982.957	17.0427
983.331	19.04519
983.704	1.00248
984.078	21.05203
984.451	67.16685
984.824	-14.0345
985.197	55.13347
985.57	-10.02535
985.943	60.14792
986.316	41.10091
986.688	21.05092
987.061	12.02834
987.434	30.07844
987.806	54.13087
988.179	12.02852
988.551	80.20186
988.923	0
989.295	40.10014
989.667	-44.107
990.039	-11.02748
990.411	14.03246
990.783	28.06476
991.155	-16.03892
991.527	60.14749
991.898	17.04261
992.27	-19.04759
992.641	43.10802
993.012	40.09431
993.384	-9.02171
993.755	27.06911
994.126	12.02907
994.497	8.01979
994.868	-14.03257
995.239	1.00245
995.61	-4.01016
995.98	20.04885
996.351	6.01498
996.722	-2.00469
997.092	-37.08908
997.462	-50.11908
997.833	34.08085
998.203	33.08026
998.573	-4.01006
998.943	16.03777
999.313	29.06977
999.683	7.01694
1000.053	9.02088
1000.423	20.04887
1000.792	-1.00261
1001.162	10.02479
1001.531	14.03474
1001.901	36.08996
1002.27	35.07848
1002.639	1.00258
1003.009	46.10947
1003.378	28.07186
1003.747	26.06171
1004.116	-16.03876
1004.485	24.05764
1004.853	44.11158
1005.222	33.08346
1005.591	43.10223
1005.959	-38.08715
1006.328	1.00227
1006.696	28.06781
1007.064	41.10329
1007.433	12.03019
1007.801	49.12029
1008.169	19.04824
1008.537	25.05564
1008.905	1.00235
1009.273	37.09161
1009.64	-35.08484
1010.008	11.02641
1010.375	51.12381
1010.743	64.14737
1011.11	29.06889
1011.478	39.0967
1011.845	1.00237
1012.212	-33.07594
1012.579	39.09592
1012.946	25.05978
1013.313	51.12134
1013.68	38.08561
1014.047	-22.05314
1014.414	2.00477
1014.78	0
1015.147	30.07282
1015.513	23.05569
1015.88	38.09735
1016.246	49.12096
1016.612	43.09856
1016.978	13.03207
1017.344	-20.05005
1017.71	34.08314
1018.076	24.05687
1018.442	65.16673
1018.808	5.0126
1019.174	-30.07632
1019.539	65.14917
1019.905	-10.02385
1020.27	-31.07762
1020.636	43.10321
1021.001	8.0193
1021.366	-55.13467
1021.731	28.07226
1022.096	-11.02804
1022.461	-29.06966
1022.826	9.02155
1023.191	26.06847
1023.556	34.07992
1023.92	35.08627
1024.285	19.04663
1024.649	9.02222
1025.014	3.00749
1025.378	7.01773
1025.742	2.00501
1026.107	36.08164
1026.471	7.01648
1026.835	4.01
1027.199	4.00971
1027.562	-7.01645
1027.926	24.05895
1028.29	1.00255
1028.654	-4.0093
1029.017	-3.00744
1029.381	22.05282
1029.744	10.02567
1030.107	42.09949
1030.471	28.0673
1030.834	-22.05076
1031.197	28.06771
1031.56	-9.02147
1031.923	-47.1235
1032.286	50.11738
1032.648	51.1219
1033.011	-3.00696
1033.374	31.07311
1033.736	1.00265
1034.099	2.00492
1034.461	-12.03064
1034.823	-14.03525
1035.185	55.13826
1035.548	-25.06167
1035.91	16.03856
1036.272	-14.03226
1036.634	14.03446
1036.995	16.03784
1037.357	-9.02213
1037.719	47.11431
1038.08	31.07384
1038.442	-15.03603
1038.803	-11.0267
1039.165	39.09857
1039.526	39.09439
1039.887	23.05529
1040.248	5.01242
1040.609	39.09652
1040.97	31.07599
1041.331	17.04327
1041.692	-15.03544
1042.053	-15.03459
1042.413	10.02348
1042.774	23.05619
1043.134	49.11663
1043.495	40.10068
1043.855	0
1044.215	33.08212
1044.576	-39.09479
1044.936	26.05987
1045.296	39.09747
1045.656	23.05669
1046.016	-23.05625
1046.375	-11.02697
1046.735	-42.09695
1047.095	30.07046
1047.454	40.0849
1047.814	23.05554
1048.173	68.16182
1048.533	48.10996
1048.892	-28.06817
1049.251	2.00506
1049.61	13.03221
1049.969	-34.08141
1050.328	7.01531
1050.687	45.10953
1051.046	18.04407
1051.405	46.11445
1051.763	-31.07239
1052.122	-20.05048
1052.48	3.00742
1052.839	-17.04049
1053.197	8.01897
1053.555	30.06864
1053.914	-20.04953
1054.272	42.10164
1054.63	-28.06941
1054.988	-5.012
1055.345	-32.07009
1055.703	20.04838
1056.061	3.00778
1056.419	3.00782
1056.776	35.08506
1057.134	-15.03515
1057.491	15.03777
1057.848	25.06248
1058.206	-23.05483
1058.563	9.02
1058.92	8.01858
1059.277	36.08898
1059.634	34.0802
1059.991	26.06254
1060.348	-3.00685
1060.704	-10.02409
1061.061	43.09998
1061.418	-24.05897
1061.774	1.00249
1062.131	2.00533
1062.487	22.05169
1062.843	16.04011
1063.199	18.045
1063.555	9.02101
1063.911	7.0178
1064.267	36.07528
1064.623	-1.00245
1064.979	19.04526
1065.335	40.09574
1065.691	20.04818
1066.046	13.02879
1066.402	-17.03912
1066.757	9.02287
1067.112	51.12506
1067.468	-25.05985
1067.823	12.02904
1068.178	60.14476
1068.533	6.01466
1068.888	39.09333
1069.243	13.03228
1069.598	13.03178
1069.952	-38.08705
1070.307	-5.01249
1070.662	-27.06501
1071.016	-67.15363
1071.371	1.0023
1071.725	1.00241
1072.079	-9.02187
1072.434	-4.00981
1072.788	26.06216
1073.142	59.14479
1073.496	-3.00718
1073.85	-12.02815
1074.203	3.00734
1074.557	25.06671
1074.911	45.10744
1075.265	15.03508
1075.618	32.07834
1075.971	2.0048
1076.325	-13.03338
1076.678	-9.02081
1077.031	-25.0574
1077.385	-21.04692
1077.738	-37.08494
1078.091	-47.1089
1078.444	35.08145
1078.796	5.01236
1079.149	29.07235
1079.502	-39.09365
1079.855	18.04221
1080.207	41.1011
1080.56	6.01561
1080.912	28.0684
1081.264	34.08206
1081.617	30.07333
1081.969	-16.0408
1082.321	13.03194
1082.673	-55.12809
1083.025	36.08557
1083.377	-232.5278
1083.728	13.03053
1084.08	-4.01008
1084.432	29.07016
1084.783	41.09616
1085.135	44.11031
1085.486	8.01844
1085.838	15.03715
1086.189	1.00245
1086.54	12.02884
1086.891	-2.0051
1087.242	-1.00246
1087.593	56.13608
1087.944	21.04777
1088.295	2.00459
1088.646	5.01221
1088.996	-50.12263
1089.347	-5.01238
1089.698	-14.03347
1090.048	12.03134
1090.398	35.08135
1090.749	15.0361
1091.099	-37.09441
1091.449	-6.01509
1091.799	-3.00758
1092.149	-57.14164
1092.499	20.04902
1092.849	16.04088
1093.199	17.04283
1093.548	-3.00727
1093.898	-39.09906
1094.248	13.03359
1094.597	-67.17438
1094.947	28.0749
1095.296	-7.01745
1095.645	4.01048
1095.994	8.01935
1096.343	16.04047
1096.692	9.02378
1097.041	-24.0657
1097.39	16.04034
1097.739	-22.05784
1098.088	25.0672
1098.437	-22.05844
1098.785	39.10524
1099.134	46.12212
1099.482	37.10188
1099.83	19.05014
1100.179	-11.02896
1100.527	-3.00803
1100.875	-4.01066
1101.223	19.05067
1101.571	-26.07264
1101.919	-18.04753
1102.267	-17.04831
1102.615	1.00322
1102.962	10.0322
1103.31	4.01285
1103.658	11.03543
