Data from N2 R8 sample 7_Subt2__3__17-34-12-904.txt Node

Date: Fri Aug 29 17:34:12 PDT 2025
User: uwsun
Spectrometer: HDX01956
Trigger mode: 0
Integration Time (sec): 5.000000E-1
Scans to average: 1
Nonlinearity correction enabled: true
Boxcar width: 0
Storing dark spectrum: false
XAxis mode: Wavelengths
Number of Pixels in Spectrum: 2068
>>>>>Begin Spectral Data<<<<<
194.03	182.49642
194.578	155.48072
195.127	150.45844
195.676	181.55266
196.225	192.4929
196.773	191.50761
197.321	280.71651
197.87	407.93126
198.418	376.8536
198.966	372.85068
199.513	288.63606
200.061	322.71887
200.609	384.89926
201.156	331.62755
201.704	324.71855
202.251	364.84744
202.798	352.80463
203.345	394.85084
203.892	346.76574
204.438	430.88598
204.985	342.70277
205.532	310.72345
206.078	384.82036
206.624	384.81717
207.17	395.79318
207.716	342.72527
208.262	409.68565
208.808	317.68208
209.354	371.78349
209.899	415.91554
210.445	374.80592
210.99	350.7338
211.535	427.86377
212.08	403.80962
212.625	413.89739
213.17	398.87969
213.715	284.55172
214.259	394.79538
214.804	399.8596
215.348	378.75116
215.892	368.77086
216.436	422.84486
216.98	414.78972
217.524	368.75756
218.068	426.93134
218.612	435.95041
219.155	403.82083
219.698	378.78585
220.242	391.8561
220.785	410.83071
221.328	358.787
221.871	354.79682
222.414	370.81338
222.956	294.62811
223.499	341.674
224.041	320.6635
224.583	296.57092
225.126	369.70917
225.668	364.77629
226.21	346.76829
226.751	268.51989
227.293	327.66118
227.835	327.70571
228.376	418.83879
228.918	377.83972
229.459	291.6447
230	356.74374
230.541	330.67169
231.082	346.73823
231.622	335.68109
232.163	355.75398
232.704	350.76263
233.244	333.72944
233.784	323.70455
234.324	245.47698
234.864	321.64042
235.404	321.67672
235.944	353.736
236.484	368.8083
237.023	312.65038
237.563	336.67954
238.102	350.72472
238.641	357.79419
239.18	306.62851
239.719	373.82014
240.258	357.7
240.797	396.81886
241.335	352.75722
241.874	353.58202
242.412	367.76757
242.95	348.72316
243.488	402.79029
244.026	348.69735
244.564	354.62909
245.102	314.6167
245.64	383.80458
246.177	340.6643
246.715	366.76734
247.252	362.72373
247.789	423.67506
248.326	286.6036
248.863	317.60482
249.4	377.74027
249.936	330.58705
250.473	314.63999
251.009	316.63059
251.546	328.62748
252.082	358.67659
252.618	350.67216
253.154	338.70583
253.69	391.75399
254.226	357.73806
254.761	344.66829
255.297	356.66918
255.832	336.69044
256.367	388.78506
256.903	362.68146
257.438	391.78986
257.972	409.77393
258.507	329.64967
259.042	391.72213
259.576	270.50451
260.111	397.78579
260.645	402.73892
261.179	334.67302
261.713	355.67634
262.247	331.6616
262.781	329.58997
263.315	343.72564
263.849	390.83607
264.382	364.71963
264.915	372.74303
265.449	323.67585
265.982	409.78984
266.515	410.85009
267.048	384.6849
267.58	421.77716
268.113	343.63093
268.646	420.87821
269.178	356.67544
269.71	407.74868
270.243	381.74106
270.775	390.84869
271.307	399.82045
271.838	506.00097
272.37	380.79845
272.902	405.77836
273.433	397.72918
273.965	389.80565
274.496	404.8571
275.027	393.82886
275.558	400.82083
276.089	332.69576
276.62	377.82406
277.15	431.89942
277.681	364.67041
278.211	412.85653
278.741	368.67982
279.272	397.75857
279.802	360.76943
280.332	416.81935
280.861	468.93479
281.391	359.68596
281.921	377.77172
282.45	436.91651
282.98	398.8819
283.509	425.79202
284.038	426.80472
284.567	461.89283
285.096	396.80455
285.625	393.74292
286.153	433.83819
286.682	396.75244
287.21	346.70329
287.739	422.82609
288.267	392.79134
288.795	414.91887
289.323	419.80449
289.851	421.81535
290.378	407.75282
290.906	391.78334
291.433	423.87528
291.961	412.7634
292.488	434.89301
293.015	459.87535
293.542	445.92409
294.069	445.894
294.596	455.92547
295.122	418.81826
295.649	435.7781
296.175	456.90363
296.702	484.9524
297.228	498.97948
297.754	438.79337
298.28	439.80188
298.806	415.81296
299.332	445.78368
299.857	523.92592
300.383	472.97294
300.908	393.77314
301.433	465.90402
301.958	458.8512
302.483	493.97901
303.008	506.99991
303.533	526.09749
304.058	465.87862
304.582	452.84673
305.107	459.96166
305.631	510.91442
306.155	426.78777
306.679	481.87861
307.203	472.85846
307.727	504.93485
308.251	503.97837
308.775	469.86579
309.298	481.89417
309.822	525.03402
310.345	523.95536
310.868	566.02794
311.391	520.99532
311.914	489.9534
312.437	602.02872
312.96	530.94834
313.482	544.97541
314.005	505.97852
314.527	509.03256
315.049	570.09781
315.571	510.83941
316.093	619.13496
316.615	587.04481
317.137	594.9328
317.659	637.13753
318.18	583.04358
318.702	618.03631
319.223	568.82814
319.744	583.93702
320.265	579.0151
320.786	613.08612
321.307	584.05424
321.828	637.00695
322.348	669.09425
322.869	617.01517
323.389	625.64509
323.909	690.08003
324.43	701.17556
324.95	628.98341
325.47	665.11808
325.989	648.03353
326.509	625.90886
327.029	670.98741
327.548	694.00484
328.067	726.13656
328.587	768.25353
329.106	658.97206
329.625	741.32029
330.144	734.06628
330.662	713.0379
331.181	760.10762
331.7	683.01436
332.218	781.00116
332.736	750.07952
333.255	800.11246
333.773	742.07129
334.291	826.26302
334.808	759.98514
335.326	868.10308
335.844	886.13545
336.361	886.28099
336.879	898.13752
337.396	854.14846
337.913	910.11068
338.43	881.04249
338.947	942.18294
339.464	874.93844
339.981	862.07878
340.497	895.18927
341.014	909.15754
341.53	904.00492
342.046	903.14192
342.562	1013.27771
343.078	940.0873
343.594	978.13757
344.11	1067.18222
344.626	1023.25114
345.141	987.02308
345.657	1116.103
346.172	1089.18092
346.687	991.01058
347.202	1002.96513
347.717	1131.1507
348.232	1076.20749
348.747	1070.0186
349.261	1055.8731
349.776	1107.05944
350.29	1120.12479
350.805	1218.22494
351.319	1145.03515
351.833	1104.92557
352.347	1114.00705
352.861	1134.98245
353.374	1273.03308
353.888	1161.06799
354.401	1181.95406
354.915	1169.85616
355.428	1289.12321
355.941	1259.94978
356.454	1271.91429
356.967	1293.00249
357.48	1343.94705
357.993	1261.0605
358.505	1205.9942
359.018	1364.04163
359.53	1352.96992
360.042	1338.80698
360.554	1313.97944
361.066	1311.96043
361.578	1371.73371
362.09	1428.92449
362.602	1414.72149
363.113	1405.81842
363.625	1375.73194
364.136	1365.68751
364.647	1330.7052
365.158	1457.7624
365.669	1511.82358
366.18	1530.77282
366.691	1495.61427
367.201	1437.76595
367.712	1501.62325
368.222	1562.61268
368.733	1451.47057
369.243	1527.47291
369.753	1684.5489
370.263	1674.60137
370.773	1631.66149
371.282	1689.5044
371.792	1596.32806
372.301	1764.41211
372.811	1797.59037
373.32	1677.06537
373.829	1793.17835
374.338	1875.98121
374.847	1909.96127
375.356	1910.95882
375.865	1980.61304
376.373	2117.59647
376.882	2279.74531
377.39	2195.60868
377.898	2204.46935
378.407	2309.20231
378.915	2434.0456
379.423	2553.01127
379.93	2680.85015
380.438	2772.77497
380.946	2857.68677
381.453	2916.65308
381.96	3000.6518
382.468	3164.78425
382.975	3486.86674
383.482	3743.3132
383.989	3584.0352
384.495	3746.70853
385.002	3929.97373
385.509	4033.16789
386.015	4411.88727
386.521	4680.71313
387.028	4676.89324
387.534	4932.19115
388.04	5133.66676
388.546	4986.90246
389.051	5108.20897
389.557	5662.08179
390.063	6837.41345
390.568	6783.09068
391.073	6620.28587
391.578	7152.19102
392.084	7065.78276
392.589	7017.96685
393.093	7363.11756
393.598	8404.43744
394.103	9319.84606
394.607	10253.93395
395.112	11048.51388
395.616	11578.39096
396.12	12314.78266
396.624	13768.92626
397.128	15368.99349
397.632	17236.95243
398.136	18459.86976
398.639	18486.72796
399.143	19256.63019
399.646	22435.56196
400.15	23606.89136
400.653	19560.02093
401.156	13866.23708
401.659	5169.95759
402.162	1054.15589
402.664	0
403.167	0
403.67	0
404.172	0
404.674	0
405.176	0
405.678	0
406.18	0
406.682	0
407.184	0
407.686	0
408.187	0
408.688	0
409.19	0
409.691	0
410.192	0
410.693	0
411.194	435.30976
411.694	4082.94878
412.195	8864.71461
412.696	12089.80453
413.196	12760.96929
413.696	12863.67595
414.196	13703.56671
414.696	17261.84252
415.196	21764.24417
415.696	29583.19008
416.196	36460.31858
416.695	29758.05498
417.195	23247.59557
417.694	22357.93535
418.194	21134.48321
418.693	18995.88053
419.192	18234.48118
419.691	18200.60327
420.19	17618.20552
420.688	17862.25933
421.187	16956.89855
421.685	16167.6343
422.184	14934.22545
422.682	13092.68733
423.18	10778.61561
423.678	9384.55541
424.176	8767.2916
424.674	8165.01462
425.172	7917.28111
425.669	7641.49802
426.167	7247.45521
426.664	6460.36311
427.161	5871.80098
427.659	5458.70751
428.156	4998.52104
428.652	4669.71609
429.149	4512.29697
429.646	4445.11467
430.143	4150.12183
430.639	3790.77496
431.135	3680.58545
431.632	3348.57566
432.128	3195.6061
432.624	2968.75273
433.12	2735.75757
433.616	2716.78097
434.111	2428.00361
434.607	2398.11985
435.103	2547.99943
435.598	2427.09655
436.093	2238.48698
436.588	2243.51831
437.083	2061.71486
437.578	1927.89169
438.073	1672.14132
438.568	1880.20563
439.062	1726.00437
439.557	1723.29456
440.051	1616.24945
440.546	1494.30819
441.04	1486.45311
441.534	1510.62787
442.028	1492.55881
442.522	1354.56911
443.015	1277.43014
443.509	1381.6781
444.002	1347.68181
444.496	1264.48902
444.989	1282.72003
445.482	1143.73487
445.975	1187.55651
446.468	1164.49835
446.961	1113.50506
447.454	1185.62521
447.947	1080.67222
448.439	1120.77698
448.931	1065.61165
449.424	1102.87258
449.916	1100.8005
450.408	979.62756
450.9	998.76171
451.392	942.82284
451.884	1042.73535
452.375	846.75395
452.867	961.71967
453.358	915.6731
453.849	976.62074
454.341	810.646
454.832	783.58153
455.323	799.75685
455.814	798.69835
456.304	810.71558
456.795	858.73812
457.285	796.69984
457.776	806.75317
458.266	756.74767
458.756	779.80501
459.247	705.72392
459.737	607.65431
460.226	699.66729
460.716	648.71282
461.206	640.72599
461.695	708.8575
462.185	597.68452
462.674	631.69865
463.163	636.66485
463.653	663.63107
464.142	557.68848
464.63	575.74012
465.119	483.585
465.608	584.68551
466.096	559.6254
466.585	615.74745
467.073	586.76545
467.561	549.7343
468.05	525.67981
468.538	584.81062
469.026	498.68707
469.513	478.55376
470.001	470.60952
470.489	460.63787
470.976	436.59948
471.463	442.68105
471.951	473.73595
472.438	433.62117
472.925	326.48065
473.412	399.63419
473.899	384.56172
474.385	373.60102
474.872	385.57483
475.359	298.48872
475.845	356.46689
476.331	377.53501
476.817	332.55332
477.303	345.5392
477.789	282.47282
478.275	258.45133
478.761	294.49808
479.247	309.48066
479.732	225.40304
480.218	279.52714
480.703	256.46201
481.188	217.33239
481.673	238.39379
482.158	206.3104
482.643	241.4607
483.128	178.29957
483.612	185.32387
484.097	254.46709
484.581	236.41132
485.066	182.3367
485.55	126.20997
486.034	119.19661
486.518	111.2015
487.002	141.26705
487.486	138.26297
487.969	136.25979
488.453	150.30031
488.936	142.24957
489.42	172.29628
489.903	163.32807
490.386	156.1935
490.869	128.22202
491.352	190.37281
491.835	126.20731
492.318	72.13153
492.8	136.22327
493.283	72.15043
493.765	35.07139
494.247	144.27467
494.73	89.16065
495.212	105.21065
495.694	35.06781
496.175	35.06856
496.657	110.21563
497.139	52.07505
497.62	34.06703
498.102	67.13877
498.583	59.12482
499.064	11.02058
499.545	66.12595
500.026	29.05468
500.507	30.059
500.988	84.17596
501.469	-9.0193
501.949	33.06988
502.43	-26.05287
502.91	-2.00351
503.39	29.06256
503.87	-23.04648
504.35	13.02652
504.83	-8.01502
505.31	-15.0314
505.79	-6.01236
506.269	26.05234
506.749	-55.10932
507.228	-30.06104
507.707	0
508.187	23.04768
508.666	-54.11602
509.145	-34.06914
509.623	-22.045
510.102	-28.05946
510.581	42.08806
511.059	-29.06353
511.538	1.00227
512.016	-21.04404
512.494	14.0297
512.972	-8.01671
513.45	-76.15462
513.928	-1.00212
514.406	-80.16951
514.884	3.00676
515.361	-7.01469
515.839	-32.06409
516.316	-21.04447
516.793	-11.02465
517.27	35.0744
517.747	7.01577
518.224	19.03856
518.701	-47.09298
519.178	-60.13197
519.654	-3.00633
520.131	-12.02625
520.607	-9.01984
521.083	-18.03635
521.56	-11.02299
522.036	5.00969
522.512	41.08921
522.987	-33.06933
523.463	-10.02106
523.939	-13.02842
524.414	13.02661
524.89	1.0021
525.365	-65.13221
525.84	-75.1593
526.315	-52.11221
526.79	27.05367
527.265	5.01011
527.74	11.02375
528.215	4.00837
528.689	-11.02164
529.164	22.04231
529.638	-4.0092
530.112	-76.16153
530.587	-44.0838
531.061	-21.04515
531.534	24.05179
532.008	14.02985
532.482	31.06317
532.956	10.02263
533.429	33.07098
533.903	31.06093
534.376	42.08202
534.849	35.072
535.322	39.08164
535.795	39.08471
536.268	27.05767
536.741	26.05572
537.213	51.10449
537.686	-10.02179
538.158	19.03768
538.631	69.14879
539.103	20.03974
539.575	92.16815
540.047	90.1735
540.519	95.20011
540.991	91.19682
541.463	91.19413
541.934	43.08734
542.406	74.15529
542.877	66.13146
543.348	65.13932
543.82	154.3293
544.291	148.30111
544.762	113.23362
545.233	135.29449
545.703	110.21135
546.174	172.34435
546.645	90.18695
547.115	171.35401
547.585	145.28808
548.056	137.28337
548.526	135.27222
548.996	221.45055
549.466	262.5396
549.935	164.32925
550.405	217.39654
550.875	229.45369
551.344	250.50144
551.814	265.50511
552.283	299.53396
552.752	209.40534
553.221	249.44282
553.69	284.51517
554.159	264.53368
554.628	245.44861
555.096	255.53594
555.565	257.47177
556.033	343.66142
556.502	261.52991
556.97	256.47503
557.438	268.53505
557.906	326.64722
558.374	260.50606
558.842	276.55922
559.31	344.64216
559.777	190.39695
560.245	282.56614
560.712	291.57409
561.18	266.49975
561.647	252.48255
562.114	269.52271
562.581	296.62471
563.048	292.5762
563.514	309.64484
563.981	321.62465
564.448	251.48564
564.914	310.61718
565.381	319.61957
565.847	324.64776
566.313	311.61961
566.779	318.61129
567.245	328.65393
567.711	305.62603
568.176	277.53312
568.642	316.67745
569.108	326.68349
569.573	361.7219
570.038	338.60097
570.504	294.56161
570.969	353.75202
571.434	286.53415
571.899	331.66897
572.363	364.69703
572.828	390.74899
573.293	322.62764
573.757	306.59929
574.222	298.56429
574.686	283.53968
575.15	303.61322
575.614	305.59493
576.078	333.66035
576.542	296.57559
577.006	311.5951
577.469	357.75096
577.933	288.54802
578.396	303.61631
578.86	306.61603
579.323	281.57339
579.786	280.51698
580.249	285.55433
580.712	264.5584
581.175	257.54823
581.637	274.54602
582.1	259.49295
582.563	309.56867
583.025	253.5308
583.487	209.36724
583.95	189.35481
584.412	232.42448
584.874	221.46858
585.336	231.47693
585.797	194.36825
586.259	222.45969
586.721	212.43525
587.182	294.59596
587.643	266.52415
588.105	205.42686
588.566	222.40968
589.027	200.42229
589.488	222.44383
589.949	228.48437
590.41	163.2798
590.87	267.53095
591.331	260.48895
591.791	193.39203
592.252	197.39504
592.712	215.45446
593.172	216.42643
593.632	241.46271
594.092	258.50026
594.552	243.45597
595.011	235.4695
595.471	271.52559
595.931	214.41871
596.39	232.48513
596.849	250.507
597.308	299.55967
597.768	235.52238
598.227	263.55177
598.685	314.62253
599.144	292.58947
599.603	312.63621
600.062	288.5187
600.52	280.53798
600.978	297.60796
601.437	354.69067
601.895	299.5439
602.353	339.6424
602.811	342.64603
603.269	318.65345
603.727	315.64744
604.184	343.65506
604.642	373.77459
605.099	426.82563
605.557	427.87287
606.014	405.72554
606.471	347.73442
606.928	424.74766
607.385	473.94236
607.842	560.02837
608.299	559.05206
608.755	559.08769
609.212	584.0306
609.668	509.90864
610.125	635.22178
610.581	708.32819
611.037	618.13569
611.493	615.173
611.949	621.19766
612.405	657.02375
612.861	653.23417
613.316	645.23093
613.772	729.30891
614.227	705.31053
614.683	725.2126
615.138	748.36478
615.593	785.41041
616.048	837.46793
616.503	855.62302
616.958	815.58905
617.412	907.62181
617.867	828.39107
618.321	949.44209
618.776	984.60384
619.23	986.72141
619.684	1027.70458
620.138	1114.87442
620.592	1126.98721
621.046	1213.01578
621.5	1232.12091
621.954	1322.03271
622.407	1371.04788
622.861	1396.31234
623.314	1459.1937
623.768	1577.35764
624.221	1584.88266
624.674	1634.37495
625.127	1793.54557
625.58	1874.52405
626.033	2018.48089
626.485	2005.76496
626.938	2183.84508
627.39	2302.78876
627.843	2366.78995
628.295	2533.82331
628.747	2654.97901
629.199	2767.76516
629.651	2930.75238
630.103	3163.7674
630.555	3248.34825
631.006	3471.84753
631.458	3609.83805
631.909	3903.59391
632.361	4154.55453
632.812	4299.409
633.263	4572.8589
633.714	4816.69662
634.165	5088.34058
634.616	5236.12485
635.067	5521.5661
635.518	5971.81908
635.968	6251.84047
636.419	6516.17965
636.869	6691.6473
637.319	7143.52829
637.769	7463.51239
638.219	7902.0649
638.669	8159.27161
639.119	8570.82086
639.569	8954.37652
640.019	9498.48211
640.468	9881.5562
640.918	10277.64255
641.367	10576.91458
641.816	10960.49797
642.265	11394.30996
642.714	11896.90657
643.163	12331.48555
643.612	12643.07181
644.061	12926.31174
644.51	13381.81021
644.958	13726.99255
645.406	14078.71674
645.855	14352.64843
646.303	14699.49816
646.751	14949.37406
647.199	15098.80248
647.647	15502.6703
648.095	15484.54783
648.543	15863.60806
648.99	15879.87102
649.438	16125.7799
649.885	16028.67342
650.333	16269.23582
650.78	16372.97371
651.227	16128.11355
651.674	16261.94527
652.121	16218.06117
652.568	16201.9358
653.015	16079.68466
653.461	15913.23499
653.908	15825.67626
654.354	15590.7161
654.801	15441.57703
655.247	15200.27537
655.693	15175.92246
656.139	15006.83975
656.585	14753.43858
657.031	14836.74611
657.477	14610.84657
657.922	14272.78423
658.368	14231.32876
658.813	14064.7752
659.259	13877.8345
659.704	13758.27621
660.149	13567.76447
660.594	13395.20726
661.039	13197.24089
661.484	13041.55454
661.929	12960.23745
662.373	12750.06854
662.818	12719.02532
663.262	12693.16356
663.707	12645.34586
664.151	12428.35518
664.595	12567.33505
665.039	12493.57055
665.483	12376.68481
665.927	12263.67939
666.371	12293.04113
666.814	12271.60061
667.258	12273.72456
667.701	12312.71275
668.145	12289.34335
668.588	12121.51631
669.031	12135.96128
669.474	12284.59779
669.917	12368.82608
670.36	12303.45362
670.803	12411.30974
671.245	12161.9872
671.688	12258.31489
672.13	12168.51827
672.573	12149.37418
673.015	12285.6071
673.457	12179.81262
673.899	12093.43143
674.341	12055.2543
674.783	11875.3395
675.225	11861.08173
675.666	11736.60847
676.108	11655.85177
676.549	11812.06928
676.991	11810.57738
677.432	11511.68426
677.873	11354.94938
678.314	11244.27944
678.755	11089.52799
679.196	11036.57501
679.637	10785.29915
680.078	10550.56844
680.518	10570.65062
680.959	10287.62535
681.399	10238.41823
681.839	9906.48965
682.28	9973.66417
682.72	9638.82218
683.16	9490.49778
683.6	9411.27453
684.039	9184.76595
684.479	9205.91146
684.919	8973.39216
685.358	8911.50549
685.798	8678.31415
686.237	8649.00123
686.676	8535.7424
687.115	8383.58716
687.554	8228.45782
687.993	8064.06899
688.432	8028.13827
688.871	7917.01684
689.309	7801.14698
689.748	7719.60197
690.186	7623.06259
690.625	7515.91449
691.063	7280.96156
691.501	7386.1639
691.939	7346.20198
692.377	7190.04526
692.815	7047.91046
693.253	6929.95302
693.69	7007.46294
694.128	6867.98743
694.565	6792.90387
695.003	6660.34666
695.44	6619.82633
695.877	6491.80436
696.314	6411.35947
696.751	6456.68553
697.188	6268.75805
697.625	6391.74266
698.061	6204.06633
698.498	6051.19755
698.934	5998.17895
699.371	5907.04571
699.807	5875.10228
700.243	5775.26694
700.679	5743.8698
701.115	5689.16804
701.551	5613.19959
701.987	5607.89085
702.422	5542.28551
702.858	5601.28185
703.294	5514.98133
703.729	5404.59306
704.164	5430.44881
704.599	5348.95057
705.035	5256.02259
705.47	5170.66544
705.904	5131.3694
706.339	5136.37545
706.774	5204.36999
707.209	5063.33413
707.643	5028.65775
708.078	5117.71068
708.512	4989.98709
708.946	4981.67537
709.38	4984.58334
709.814	4895.37952
710.248	4981.80013
710.682	4909.64694
711.116	4842.69394
711.549	4705.42485
711.983	4783.51046
712.416	4693.73584
712.85	4751.10863
713.283	4768.69377
713.716	4777.16577
714.149	4681.80536
714.582	4592.42351
715.015	4586.24123
715.448	4644.25993
715.881	4551.28718
716.313	4579.72484
716.746	4545.77303
717.178	4507.95125
717.61	4674.2937
718.043	4579.2018
718.475	4525.00825
718.907	4575.33995
719.339	4490.53188
719.77	4485.84987
720.202	4528.34264
720.634	4492.04382
721.065	4528.8356
721.497	4501.10556
721.928	4479.12312
722.359	4418.00761
722.79	4397.97039
723.221	4469.33888
723.652	4518.52838
724.083	4460.51677
724.514	4472.64285
724.945	4520.77482
725.375	4422.72505
725.806	4486.26572
726.236	4468.48783
726.666	4438.8749
727.096	4547.09036
727.526	4488.39404
727.956	4468.56121
728.386	4491.1472
728.816	4457.37572
729.246	4448.05484
729.675	4491.13202
730.105	4424.17872
730.534	4497.75489
730.964	4514.35294
731.393	4578.18081
731.822	4487.44725
732.251	4505.3823
732.68	4604.75548
733.109	4515.13464
733.537	4583.93736
733.966	4624.13778
734.395	4539.63531
734.823	4679.40335
735.251	4554.93502
735.68	4549.25762
736.108	4626.29441
736.536	4559.78018
736.964	4527.67403
737.392	4581.22537
737.82	4643.86242
738.247	4595.87375
738.675	4564.87866
739.102	4577.20593
739.53	4605.34912
739.957	4638.42257
740.384	4635.08889
740.811	4629.30838
741.238	4589.01624
741.665	4547.65135
742.092	4604.84786
742.519	4562.13419
742.945	4506.93383
743.372	4494.17909
743.798	4571.45437
744.225	4499.86311
744.651	4522.27477
745.077	4520.22361
745.503	4577.02271
745.929	4481.94118
746.355	4434.25864
746.781	4378.24729
747.207	4333.84178
747.632	4266.16135
748.058	4319.33066
748.483	4400.68456
748.908	4297.30498
749.334	4344.19183
749.759	4332.8861
750.184	4170.0369
750.609	4293.22282
751.033	4229.96713
751.458	4267.5804
751.883	4201.33194
752.307	4198.93876
752.732	4043.44791
753.156	3983.39288
753.58	4102.0571
754.005	3986.61212
754.429	3962.03641
754.853	3888.44942
755.277	3903.11204
755.7	3873.46927
756.124	3809.48853
756.548	3784.16378
756.971	3821.37022
757.394	3727.80904
757.818	3677.81015
758.241	3613.71467
758.664	3595.68232
759.087	3470.87116
759.51	3483.60099
759.933	3490.35523
760.356	3424.82942
760.778	3374.53128
761.201	3358.46478
761.623	3342.45152
762.046	3278.31543
762.468	3273.39641
762.89	3207.58208
763.312	3213.50669
763.734	3132.41596
764.156	3091.58401
764.578	3037.1477
765	3090.50596
765.421	2881.74655
765.843	2966.9867
766.264	2909.44329
766.686	2843.67777
767.107	2712.43008
767.528	2701.66831
767.949	2784.74226
768.37	2648.49076
768.791	2664.41351
769.212	2552.59062
769.632	2510.16055
770.053	2595.90557
770.473	2563.41438
770.894	2578.59078
771.314	2470.29099
771.734	2388.12868
772.154	2430.67535
772.575	2423.11528
772.994	2392.99986
773.414	2332.26366
773.834	2252.42992
774.254	2287.33719
774.673	2197.2663
775.093	2169.32492
775.512	2106.26289
775.931	2124.4211
776.351	2149.32974
776.77	2112.22757
777.189	2018.04221
777.607	2046.39945
778.026	1983.22895
778.445	1945.21672
778.864	2003.38898
779.282	1875.98984
779.701	1895.21298
780.119	1923.24539
780.537	1812.09136
780.955	1913.27298
781.373	1846.08355
781.791	1848.68611
782.209	1824.77345
782.627	1707.22518
783.045	1742.6999
783.462	1762.14686
783.88	1673.10604
784.297	1716.03317
784.715	1629.02401
785.132	1655.81867
785.549	1606.89544
785.966	1580.88855
786.383	1624.84853
786.8	1576.58999
787.217	1557.6422
787.633	1475.7355
788.05	1551.64739
788.466	1521.59035
788.883	1490.83338
789.299	1479.61504
789.715	1479.64732
790.131	1429.66816
790.547	1417.66897
790.963	1397.62226
791.379	1450.75182
791.795	1353.30264
792.21	1371.39575
792.626	1264.31237
793.041	1303.48228
793.457	1334.52745
793.872	1282.30676
794.287	1231.2839
794.702	1254.41225
795.117	1215.38106
795.532	1202.38805
795.947	1244.32916
796.362	1149.17977
796.776	1167.15304
797.191	1172.27781
797.605	1078.03236
798.02	1096.15193
798.434	1093.9283
798.848	1057.12426
799.262	1049.13033
799.676	1001.01612
800.09	1054.11774
800.504	993.99148
800.918	938.80201
801.331	986.1719
801.745	943.79123
802.158	915.93351
802.572	922.87827
802.985	934.88983
803.398	873.76186
803.811	887.95015
804.224	882.86821
804.637	811.6568
805.05	785.5638
805.462	847.78038
805.875	774.75596
806.288	785.63549
806.7	781.70842
807.112	733.47767
807.525	733.5865
807.937	667.46563
808.349	674.50178
808.761	693.50687
809.173	674.44658
809.584	644.42245
809.996	582.2875
810.408	577.3539
810.819	579.22617
811.231	565.33035
811.642	622.32396
812.053	639.35164
812.464	624.32419
812.875	671.52925
813.286	609.41626
813.697	608.27224
814.108	552.22613
814.519	476.97414
814.929	483.13968
815.34	473.05887
815.75	444.05055
816.16	482.10935
816.571	431.04697
816.981	436.95763
817.391	397.89999
817.801	362.85107
818.211	403.90022
818.62	349.79601
819.03	367.85021
819.44	409.00343
819.849	347.83088
820.259	392.94628
820.668	327.76596
821.077	279.66631
821.486	320.73474
821.895	335.78776
822.304	317.80447
822.713	290.65679
823.122	276.66305
823.531	281.63939
823.939	284.66435
824.348	283.66084
824.756	254.61507
825.164	288.69634
825.573	249.60444
825.981	320.75733
826.389	251.60998
826.797	211.5149
827.205	206.46011
827.612	276.65524
828.02	174.40034
828.428	209.51893
828.835	194.49943
829.243	231.5337
829.65	193.46887
830.057	159.37946
830.464	182.4341
830.871	231.53625
831.278	173.41002
831.685	179.39079
832.092	181.43394
832.499	123.26626
832.905	176.43692
833.312	176.39311
833.718	170.4157
834.124	156.35045
834.531	143.35559
834.937	162.40876
835.343	151.35871
835.749	179.40929
836.155	114.29594
836.561	140.33967
836.966	135.326
837.372	142.3565
837.777	112.27663
838.183	104.2297
838.588	89.22002
838.993	151.36188
839.399	119.28802
839.804	65.15839
840.209	87.2205
840.613	70.15571
841.018	113.28365
841.423	110.27984
841.828	106.26603
842.232	127.31108
842.637	83.1952
843.041	48.12332
843.445	86.21483
843.849	49.12163
844.253	96.22687
844.657	74.18592
845.061	57.1296
845.465	110.26338
845.869	101.23308
846.272	54.13171
846.676	85.2048
847.079	67.17018
847.483	106.26239
847.886	82.19888
848.289	107.28324
848.692	55.13945
849.095	80.19155
849.498	144.3597
849.901	73.16719
850.304	73.17415
850.707	78.19829
851.109	86.21669
851.512	47.11581
851.914	24.06086
852.316	75.18921
852.718	19.04938
853.121	20.04938
853.523	21.04948
853.925	21.05512
854.326	29.0729
854.728	51.13132
855.13	37.09577
855.531	28.06732
855.933	97.23132
856.334	32.08017
856.736	22.04969
857.137	14.03285
857.538	19.04811
857.939	39.0967
858.34	116.27975
858.741	60.15678
859.142	20.04842
859.542	32.08478
859.943	27.06748
860.343	7.0175
860.744	61.14881
861.144	65.15839
861.544	16.03876
861.945	53.13519
862.345	50.1225
862.745	45.1121
863.145	31.07452
863.544	35.0888
863.944	6.01432
864.344	78.19308
864.743	102.2511
865.143	43.11072
865.542	10.02342
865.941	28.06969
866.34	64.15318
866.74	40.10764
867.139	34.08178
867.537	34.08698
867.936	8.01944
868.335	39.09955
868.734	48.12285
869.132	16.03749
869.531	30.07295
869.929	-14.03238
870.327	34.08187
870.726	14.03519
871.124	40.09383
871.522	2.00514
871.92	70.17226
872.318	46.1127
872.715	59.14602
873.113	12.02949
873.511	9.02262
873.908	-18.04603
874.306	12.03008
874.703	41.10288
875.1	82.20883
875.497	14.03384
875.894	-27.06717
876.291	7.01734
876.688	25.06482
877.085	46.1106
877.482	42.10541
877.878	2.00486
878.275	12.03072
878.671	48.10712
879.068	16.03892
879.464	-1.00244
879.86	30.07131
880.256	31.07686
880.652	25.06393
881.048	19.0474
881.444	-20.04831
881.84	13.03329
882.236	64.16068
882.631	1.00248
883.027	71.17146
883.422	-18.04662
883.817	-5.0127
884.213	39.10035
884.608	-32.07973
885.003	17.04129
885.398	10.02523
885.793	6.01519
886.188	-51.12922
886.582	67.1715
886.977	41.09759
887.371	13.03312
887.766	-10.02516
888.16	31.0777
888.554	46.11395
888.949	65.16293
889.343	29.07119
889.737	-9.02423
890.131	17.04293
890.525	33.08471
890.918	23.05821
891.312	57.13635
891.706	51.13387
892.099	43.10964
892.492	3.00655
892.886	2.00494
893.279	34.08692
893.672	23.05887
894.065	29.07295
894.458	19.04809
894.851	18.04441
895.244	10.02574
895.637	33.07981
896.029	-4.00989
896.422	26.06386
896.814	9.02256
897.206	-36.08722
897.599	48.11886
897.991	-3.00733
898.383	-14.03352
898.775	8.01823
899.167	-38.09022
899.559	20.05093
899.951	25.05928
900.342	38.09691
900.734	-33.08316
901.125	76.19865
901.517	26.06415
901.908	43.10333
902.299	-10.02474
902.69	-11.02628
903.082	9.02198
903.473	-38.09258
903.863	2.00515
904.254	36.08386
904.645	46.11458
905.036	-20.04909
905.426	60.13722
905.817	-12.0298
906.207	-41.09946
906.597	7.01652
906.987	37.09617
907.378	-1.00255
907.768	29.07697
908.158	-3.00739
908.547	9.02342
908.937	47.12073
909.327	42.10221
909.717	38.09674
910.106	26.06278
910.495	38.09513
910.885	49.12419
911.274	9.02267
911.663	32.08152
912.052	18.0447
912.441	22.05624
912.83	-5.01161
913.219	13.03425
913.608	28.0689
913.997	15.03786
914.385	22.05288
914.774	20.049
915.162	24.05751
915.55	27.06565
915.939	-14.03575
916.327	36.09012
916.715	18.04615
917.103	30.07415
917.491	41.10166
917.878	52.12787
918.266	24.06254
918.654	18.04626
919.041	-3.0079
919.429	-9.0215
919.816	48.12177
920.203	37.08999
920.591	38.09448
920.978	66.16122
921.365	41.10777
921.752	19.04559
922.139	11.0241
922.525	-10.0243
922.912	39.09535
923.299	24.05995
923.685	2.00526
924.072	-25.05854
924.458	13.03243
924.844	0
925.231	25.0585
925.617	-21.05409
926.003	19.04884
926.389	12.03048
926.774	-2.00512
927.16	22.05494
927.546	2.00515
927.931	-5.01261
928.317	29.06711
928.702	42.09957
929.088	-39.09386
929.473	22.05626
929.858	-15.03672
930.243	-45.10998
930.628	26.06356
931.013	-14.03511
931.398	15.03475
931.783	13.03445
932.167	34.08339
932.552	29.07295
932.937	69.17071
933.321	-29.07382
933.705	-12.03059
934.09	71.1788
934.474	15.03588
934.858	21.05475
935.242	-50.11821
935.626	13.0335
936.009	19.0508
936.393	38.09691
936.777	-3.00775
937.16	26.06794
937.544	21.04977
937.927	-9.02308
938.311	7.01723
938.694	52.13749
939.077	27.06493
939.46	90.21943
939.843	68.14137
940.226	6.01551
940.609	17.03929
940.991	32.08172
941.374	7.01725
941.757	4.00996
942.139	-39.08921
942.522	46.10884
942.904	-1.00243
943.286	29.07397
943.668	42.10896
944.05	-4.00995
944.432	37.09154
944.814	16.03966
945.196	-50.12413
945.578	-34.08212
945.959	11.02598
946.341	92.22414
946.722	36.08475
947.104	15.0361
947.485	38.08865
947.866	-22.05615
948.247	9.02288
948.628	-1.00246
949.009	5.01291
949.39	14.03509
949.771	11.02579
950.152	-3.00744
950.532	-22.05484
950.913	12.02916
951.293	-6.01636
951.674	9.02194
952.054	4.01
952.434	-29.07303
952.814	21.05025
953.194	1.00264
953.574	51.12562
953.954	20.04778
954.334	28.07007
954.714	-50.12413
955.093	62.15212
955.473	9.02267
955.853	43.11145
956.232	16.04409
956.611	39.09375
956.99	21.05306
957.37	12.03079
957.749	10.02404
958.128	11.02791
958.506	38.09878
958.885	-5.01274
959.264	-23.05713
959.643	5.01148
960.021	6.01499
960.4	-4.00917
960.778	30.07418
961.156	-6.01519
961.535	25.05857
961.913	23.05411
962.291	-3.00777
962.669	8.02042
963.047	1.00257
963.424	-1.00257
963.802	15.03712
964.18	51.12903
964.557	71.16287
964.935	17.04054
965.312	-1.00263
965.69	16.04031
966.067	26.0636
966.444	18.04462
966.821	39.10074
967.198	17.0415
967.575	43.10588
967.952	27.06392
968.329	19.04651
968.705	7.01515
969.082	18.04642
969.458	-46.11236
969.835	29.07088
970.211	3.00776
970.587	8.02007
970.963	25.06442
971.339	41.10722
971.715	7.01762
972.091	46.11337
972.467	37.09251
972.843	6.01501
973.219	47.11294
973.594	13.03422
973.97	75.17769
974.345	12.02893
974.721	42.10187
975.096	55.13297
975.471	7.01674
975.846	0
976.221	22.05615
976.596	-16.03884
976.971	-6.01497
977.346	4.0094
977.72	-4.01029
978.095	11.02862
978.469	6.01444
978.844	50.12571
979.218	-16.03884
979.593	27.06498
979.967	3.00737
980.341	4.0093
980.715	50.12598
981.089	15.03779
981.463	-41.09586
981.837	-16.03958
982.21	18.04216
982.584	11.02676
982.957	-16.04043
983.331	10.02382
983.704	39.09603
984.078	-5.01245
984.451	69.17177
984.824	-19.04687
985.197	3.00735
985.57	52.13037
985.943	33.08176
986.316	71.17378
986.688	45.10863
987.061	17.04011
987.434	28.07324
987.806	39.09479
988.179	10.02378
988.551	50.12684
988.923	26.06431
989.295	42.10511
989.667	-27.06545
990.039	-12.02999
990.411	-8.01863
990.783	38.08771
991.155	-45.11006
991.527	32.07907
991.898	-7.01762
992.27	-19.04759
992.641	-1.00253
993.012	11.02608
993.384	26.0623
993.755	-12.03093
994.126	21.05079
994.497	-28.06972
994.868	5.01159
995.239	-1.00245
995.61	14.03545
995.98	-31.07644
996.351	-44.11083
996.722	-9.02112
997.092	-20.048
997.462	-47.11187
997.833	-22.05288
998.203	23.05605
998.573	-24.06056
998.943	13.0307
999.313	-10.02424
999.683	-14.03401
1000.053	-1.00232
1000.423	83.20044
1000.792	25.06507
1001.162	56.13765
1001.531	18.04464
1001.901	22.05512
1002.27	-2.00452
1002.639	8.02059
1003.009	-15.03611
1003.378	8.0206
1003.747	27.06407
1004.116	11.02651
1004.485	1.00241
1004.853	4.01022
1005.222	17.04312
1005.591	30.0715
1005.959	-48.11031
1006.328	-25.05712
1006.696	-10.02439
1007.064	7.01774
1007.433	6.01511
1007.801	60.147
1008.169	-9.02296
1008.537	31.06891
1008.905	-22.05197
1009.273	33.08176
1009.64	-20.04834
1010.008	22.05272
1010.375	36.08764
1010.743	54.12459
1011.11	19.04522
1011.478	-1.0025
1011.845	34.0802
1012.212	-44.10148
1012.579	-5.0124
1012.946	41.09774
1013.313	23.05502
1013.68	39.08785
1014.047	-18.04344
1014.414	5.01191
1014.78	-23.0579
1015.147	18.04379
1015.513	-13.03169
1015.88	54.13796
1016.246	35.08662
1016.612	2.00462
1016.978	26.06398
1017.344	47.11619
1017.71	55.13397
1018.076	15.03561
1018.442	15.03881
1018.808	-5.01262
1019.174	-21.05334
1019.539	71.16274
1019.905	-41.09838
1020.27	0
1020.636	46.11035
1021.001	-1.00242
1021.366	-37.09029
1021.731	44.11324
1022.096	-51.13091
1022.461	17.04048
1022.826	3.00719
1023.191	31.08157
1023.556	47.11019
1023.92	25.06174
1024.285	26.06372
1024.649	47.11521
1025.014	16.03987
1025.378	-24.06112
1025.742	27.06731
1026.107	8.01825
1026.471	35.08193
1026.835	45.11162
1027.199	2.00486
1027.562	-20.04712
1027.926	36.08823
1028.29	27.06858
1028.654	-6.01395
1029.017	50.12286
1029.381	17.04085
1029.744	14.03592
1030.107	41.09714
1030.471	18.04335
1030.834	20.04576
1031.197	46.11085
1031.56	-13.03104
1031.923	23.05972
1032.286	47.11041
1032.648	21.05048
1033.011	-8.01857
1033.374	1.00237
1033.736	-9.02389
1034.099	8.01964
1034.461	-8.02041
1034.823	-29.07321
1035.185	46.11582
1035.548	-7.01721
1035.91	-32.07782
1036.272	-24.05542
1036.634	69.16814
1036.995	-27.06439
1037.357	-37.09144
1037.719	-13.03197
1038.08	23.05487
1038.442	-2.00479
1038.803	-3.00727
1039.165	1.00254
1039.526	3.00731
1039.887	39.09347
1040.248	-40.10014
1040.609	27.06697
1040.97	-23.05694
1041.331	-21.05381
1041.692	-35.08302
1042.053	-21.04848
1042.413	3.00705
1042.774	50.12154
1043.134	33.07879
1043.495	30.07564
1043.855	2.00489
1044.215	8.02
1044.576	-23.05573
1044.936	17.03922
1045.296	19.04766
1045.656	2.00495
1046.016	0
1046.375	33.08026
1046.735	2.00458
1047.095	19.04472
1047.454	43.09121
1047.814	30.07235
1048.173	61.14536
1048.533	-57.13332
1048.892	-31.07551
1049.251	67.16758
1049.61	16.03962
1049.969	-9.02145
1050.328	2.00438
1050.687	14.03427
1051.046	34.08299
1051.405	-5.01256
1051.763	-31.07239
1052.122	17.04263
1052.48	0
1052.839	-4.0095
1053.197	17.04025
1053.555	74.16781
1053.914	30.07361
1054.272	19.04618
1054.63	-3.0074
1054.988	-14.03365
1055.345	-38.08333
1055.703	44.10595
1056.061	29.07483
1056.419	15.03904
1056.776	32.07782
1057.134	5.01167
1057.491	40.10028
1057.848	41.10218
1058.206	-9.0214
1058.563	13.02886
1058.92	11.02554
1059.277	51.12571
1059.634	-9.02141
1059.991	25.06014
1060.348	-10.02286
1060.704	-41.09935
1061.061	79.18239
1061.418	4.00978
1061.774	20.04962
1062.131	-12.03204
1062.487	1.00236
1062.843	13.03261
1063.199	-2.00502
1063.555	6.01401
1063.911	25.06339
1064.267	24.05032
1064.623	-9.02209
1064.979	46.10901
1065.335	42.10049
1065.691	33.0793
1066.046	2.00444
1066.402	18.04113
1066.757	-1.00255
1067.112	-12.02977
1067.468	-58.13972
1067.823	8.01937
1068.178	23.05588
1068.533	23.056
1068.888	24.0576
1069.243	16.03971
1069.598	-4.00981
1069.952	-39.08936
1070.307	14.03486
1070.662	26.06197
1071.016	-57.13044
1071.371	-14.03224
1071.725	7.01687
1072.079	25.06037
1072.434	-1.00245
1072.788	2.0048
1073.142	23.05682
1073.496	10.02389
1073.85	-9.0211
1074.203	17.04147
1074.557	15.04009
1074.911	19.04559
1075.265	-12.02822
1075.618	25.06128
1075.971	19.04543
1076.325	12.03068
1076.678	-24.05566
1077.031	-19.04357
1077.385	-23.0514
1077.738	-13.0297
1078.091	-46.10656
1078.444	27.06293
1078.796	-17.0422
1079.149	26.0649
1079.502	1.00238
1079.855	8.0188
1080.207	55.13527
1080.56	-15.03917
1080.912	8.01961
1081.264	0
1081.617	16.03921
1081.969	23.05825
1082.321	-20.04943
1082.673	-24.05555
1083.025	-6.01438
1083.377	-182.40986
1083.728	3.00706
1084.08	23.05765
1084.432	-23.05619
1084.783	62.14482
1085.135	-12.03039
1085.486	-50.11661
1085.838	24.05934
1086.189	18.04392
1086.54	-6.01447
1086.891	-35.08978
1087.242	-4.00983
1087.593	21.05136
1087.944	-31.07126
1088.295	0
1088.646	22.05356
1088.996	-27.06594
1089.347	-15.03722
1089.698	-6.01432
1090.048	34.08848
1090.398	4.00935
1090.749	34.08153
1091.099	-24.0611
1091.449	2.00502
1091.799	-11.02782
1092.149	-34.08413
1092.499	-35.08665
1092.849	-4.01026
1093.199	26.06539
1093.548	-11.02671
1093.898	23.05778
1094.248	33.08497
1094.597	-26.06719
1094.947	23.06158
1095.296	6.01492
1095.645	35.09119
1095.994	-4.0097
1096.343	7.01774
1096.692	-55.14691
1097.041	-34.09322
1097.39	24.06043
1097.739	51.13242
1098.088	61.16299
1098.437	-11.02917
1098.785	43.11596
1099.134	35.09309
1099.482	13.03593
1099.83	33.08689
1100.179	-25.06598
1100.527	40.10637
1100.875	12.0319
1101.223	-10.02679
1101.571	10.02778
1101.919	-44.11669
1102.267	10.0283
1102.615	8.02571
1102.962	17.05469
1103.31	5.01607
1103.658	18.05793
