Data from N2 R8 sample 7_Subt2__0__17-30-58-909.txt Node

Date: Fri Aug 29 17:30:58 PDT 2025
User: uwsun
Spectrometer: HDX01956
Trigger mode: 0
Integration Time (sec): 5.000000E-1
Scans to average: 1
Nonlinearity correction enabled: true
Boxcar width: 0
Storing dark spectrum: false
XAxis mode: Wavelengths
Number of Pixels in Spectrum: 2068
>>>>>Begin Spectral Data<<<<<
194.03	401.05235
194.578	440.31052
195.127	408.20063
195.676	428.26028
196.225	470.14506
196.773	520.30273
197.321	715.68576
197.87	975.97331
198.418	980.9496
198.966	976.95781
199.513	958.81757
200.061	911.78406
200.609	996.0477
201.156	891.45944
201.704	900.75461
202.251	930.92028
202.798	945.89948
203.345	991.86524
203.892	989.89332
204.438	987.7788
204.985	975.71778
205.532	1007.02267
206.078	1029.89057
206.624	1045.90372
207.17	1009.73998
207.716	1030.85602
208.262	972.38254
208.808	1034.88127
209.354	982.79546
209.899	1093.06624
210.445	1010.87832
210.99	992.78465
211.535	1049.82069
212.08	1011.74714
212.625	1042.95997
213.17	1076.03846
213.715	956.56151
214.259	1025.77047
214.804	1055.95201
215.348	1045.75552
215.892	1087.91569
216.436	1115.87662
216.98	1050.69659
217.524	976.73431
218.068	1045.98436
218.612	1068.01836
219.155	970.72095
219.698	990.77741
220.242	906.76632
220.785	928.65732
221.328	875.71266
221.871	918.82528
222.414	952.83509
222.956	821.55232
223.499	922.57477
224.041	875.58857
224.583	917.50635
225.126	921.53562
225.668	859.63379
226.21	850.68757
226.751	843.41133
227.293	867.53579
227.835	830.59653
228.376	939.65763
228.918	908.79784
229.459	893.72819
230	893.64267
230.541	898.59125
231.082	893.67801
231.622	945.65439
232.163	861.6257
232.704	918.75761
233.244	891.72021
233.784	886.70033
234.324	865.43643
234.864	795.41088
235.404	873.61625
235.944	886.62773
236.484	971.86059
237.023	908.64153
237.563	827.48376
238.102	951.70417
238.641	1010.94055
239.18	880.57301
239.719	960.84876
240.258	920.56461
240.797	949.71887
241.335	917.73163
241.874	837.1967
242.412	917.68354
242.95	876.6053
243.488	967.64877
244.026	955.64572
244.564	921.39852
245.102	891.5123
245.64	967.76931
246.177	917.54734
246.715	943.72444
247.252	940.62797
247.789	1001.33907
248.326	941.70003
248.863	936.51935
249.4	967.63552
249.936	958.43037
250.473	949.65533
251.009	986.66281
251.546	987.58946
252.082	986.57933
252.618	951.56327
253.154	906.65289
253.69	887.50711
254.226	957.71231
254.761	934.56035
255.297	906.47378
255.832	938.66575
256.367	940.66156
256.903	950.5318
257.438	947.66919
257.972	1008.63028
258.507	901.54086
259.042	947.50759
259.576	950.47924
260.111	976.67086
260.645	988.5512
261.179	965.663
261.713	973.57743
262.247	958.63732
262.781	985.47222
263.315	998.80829
263.849	967.81376
264.382	1054.74908
264.915	982.68475
265.449	986.76026
265.982	1048.7162
266.515	1034.84523
267.048	959.45909
267.58	1006.58779
268.113	1020.56111
268.646	1010.83565
269.178	966.56209
269.71	1032.6038
270.243	1087.76207
270.775	1044.95511
271.307	1050.84309
271.838	1096.87401
272.37	1062.89631
272.902	1096.75932
273.433	1090.65802
273.965	1089.90329
274.496	1065.93341
275.027	1008.83848
275.558	1058.84943
276.089	1069.87605
276.62	1120.06144
277.15	1035.87027
277.681	1042.59683
278.211	1090.92448
278.741	980.53592
279.272	1072.71673
279.802	1077.94438
280.332	1034.74216
280.861	1131.91396
281.391	1042.6647
281.921	1103.88853
282.45	1123.00272
282.98	1111.09322
283.509	1042.6477
284.038	1154.79653
284.567	1133.84521
285.096	1112.89233
285.625	1110.73468
286.153	1086.77672
286.682	1113.74996
287.21	1076.82496
287.739	1103.81418
288.267	1175.94916
288.795	1165.17923
289.323	1169.84377
289.851	1145.83785
290.378	1186.77406
290.906	1139.89022
291.433	1165.01089
291.961	1137.73148
292.488	1182.02367
293.015	1110.78593
293.542	1119.97533
294.069	1172.96282
294.596	1220.0513
295.122	1191.90991
295.649	1177.71043
296.175	1288.06127
296.702	1271.0425
297.228	1315.09469
297.754	1200.75966
298.28	1246.82096
298.806	1263.98495
299.332	1222.72459
299.857	1333.87506
300.383	1273.15421
300.908	1183.89916
301.433	1309.04023
301.958	1317.93561
302.483	1213.00697
303.008	1346.14261
303.533	1290.24122
304.058	1352.01017
304.582	1284.92061
305.107	1376.30268
305.631	1392.94475
306.155	1356.93846
306.679	1320.91119
307.203	1359.9289
307.727	1352.98932
308.251	1345.0992
308.775	1394.9921
309.298	1347.97648
309.822	1476.27302
310.345	1456.04862
310.868	1505.10316
311.391	1445.15953
311.914	1500.23658
312.437	1509.97557
312.96	1441.99044
313.482	1503.04996
314.005	1476.20964
314.527	1462.33402
315.049	1574.32158
315.571	1552.84651
316.093	1575.21627
316.615	1582.11841
317.137	1642.83559
317.659	1651.20736
318.18	1642.17
318.702	1623.00841
319.223	1649.64947
319.744	1715.91728
320.265	1666.12403
320.786	1691.19253
321.307	1713.23802
321.828	1671.89792
322.348	1753.04537
322.869	1763.02737
323.389	1892.04774
323.909	1838.97797
324.43	1833.17423
324.95	1781.90936
325.47	1827.15133
325.989	1835.9954
326.509	1947.7616
327.029	1911.82343
327.548	1949.80761
328.067	1997.05357
328.587	2048.22491
329.106	2007.83836
329.625	2124.51097
330.144	1981.8533
330.662	2068.85511
331.181	2101.9009
331.7	2142.89327
332.218	2226.588
332.736	2221.86693
333.255	2232.81475
333.773	2211.86832
334.291	2290.11607
334.808	2319.59061
335.326	2317.63275
335.844	2360.66566
336.361	2367.00216
336.879	2431.63708
337.396	2454.75685
337.913	2615.5138
338.43	2507.4348
338.947	2603.62231
339.464	2605.1714
339.981	2537.55414
340.497	2694.71756
341.014	2678.61226
341.53	2739.23542
342.046	2663.59099
342.562	2727.67205
343.078	2805.34463
343.594	2792.39911
344.11	2843.34083
344.626	2875.55078
345.141	2907.08073
345.657	3027.03791
346.172	2932.27413
346.687	2904.04818
347.202	2939.91531
347.717	3154.06109
348.232	3134.26526
348.747	3106.87426
349.261	3031.61792
349.776	3168.8897
350.29	3198.99791
350.805	3301.04576
351.319	3326.71986
351.833	3242.57493
352.347	3263.72444
352.861	3339.61393
353.374	3456.54799
353.888	3413.72558
354.401	3455.45658
354.915	3450.27598
355.428	3537.66167
355.941	3603.31776
356.454	3681.20235
356.967	3556.4242
357.48	3631.25977
357.993	3698.47164
358.505	3647.41047
359.018	3881.27582
359.53	3918.13396
360.042	3899.87001
360.554	3850.20535
361.066	3767.21913
361.578	3827.78413
362.09	3878.05704
362.602	3900.72213
363.113	3953.84733
363.625	3951.71408
364.136	4099.56928
364.647	4085.60702
365.158	4254.60207
365.669	4274.68011
366.18	4190.64733
366.691	4268.3874
367.201	4233.61843
367.712	4239.413
368.222	4294.38173
368.733	4387.14808
369.243	4335.18288
369.753	4625.203
370.263	4626.25987
370.773	4626.32359
371.282	4787.1141
371.792	4659.94652
372.301	4945.01769
372.811	5081.16838
373.32	5027.76572
373.829	5189.86453
374.338	5423.87549
374.847	5437.88082
375.356	5541.93001
375.865	5830.26459
376.373	6201.64878
376.882	6459.77996
377.39	6455.9495
377.898	6598.3849
378.407	6807.32144
378.915	7159.5956
379.423	7511.53938
379.93	7622.5424
380.438	8054.59151
380.946	8493.64053
381.453	8779.94149
381.96	9017.87998
382.468	9525.9381
382.975	10413.16824
383.482	10882.26801
383.989	10826.23784
384.495	11316.58415
385.002	11607.84784
385.509	12449.9176
386.015	13145.07922
386.521	13854.6234
387.028	14344.8258
387.534	14826.90842
388.04	15606.87136
388.546	15553.68042
389.051	16257.82194
389.557	17770.1529
390.063	19442.86928
390.568	20384.93021
391.073	20427.37129
391.578	21553.37691
392.084	21726.30137
392.589	21824.61773
393.093	23524.73048
393.598	25999.39348
394.103	28953.97755
394.607	31659.23597
395.112	33718.65916
395.616	35588.64036
396.12	38784.32135
396.624	42206.54633
397.128	42569.16062
397.632	41169.10633
398.136	39172.79427
398.639	36273.96993
399.143	32503.66402
399.646	28888.45294
400.15	25083.82847
400.653	20124.16724
401.156	13866.23708
401.659	5169.95759
402.162	1054.15589
402.664	0
403.167	0
403.67	0
404.172	0
404.674	0
405.176	0
405.678	0
406.18	0
406.682	0
407.184	0
407.686	0
408.187	0
408.688	0
409.19	0
409.691	0
410.192	0
410.693	0
411.194	435.30976
411.694	4082.94878
412.195	8864.71461
412.696	12089.80453
413.196	12760.96929
413.696	12863.67595
414.196	13703.56671
414.696	17261.84252
415.196	21764.24417
415.696	29583.19008
416.196	36460.31858
416.695	40057.39798
417.195	41392.74103
417.694	42311.08144
418.194	43882.52025
418.693	44704.85811
419.192	45402.14938
419.691	45678.73777
420.19	46397.77183
420.688	47237.71801
421.187	46863.12011
421.685	44536.65855
422.184	40412.21734
422.682	35223.74518
423.18	29660.95114
423.678	26410.54533
424.176	24526.93489
424.674	22921.6676
425.172	22101.78893
425.669	21061.75073
426.167	19556.21691
426.664	17653.07229
427.161	16325.61922
427.659	15150.95201
428.156	14143.09914
428.652	13079.95633
429.149	12725.80498
429.646	12163.83261
430.143	11643.54624
430.639	10925.23331
431.135	10116.93776
431.632	9632.3503
432.128	8980.51816
432.624	8404.46286
433.12	7930.49227
433.616	7720.42417
434.111	7218.01096
434.607	7117.23299
435.103	7111.38292
435.598	6820.48784
436.093	6606.3365
436.588	6376.90822
437.083	6013.34758
437.578	5642.99099
438.073	5332.86212
438.568	5333.91924
439.062	5133.77052
439.557	4968.91158
440.051	4843.85959
440.546	4504.93729
441.04	4499.09585
441.534	4456.32939
442.028	4332.28659
442.522	4244.32592
443.015	4181.15142
443.509	4119.54425
444.002	4048.58717
444.496	3835.39592
444.989	3897.73652
445.482	3832.84016
445.975	3717.57041
446.468	3819.42047
446.961	3633.53538
447.454	3626.74036
447.947	3462.95464
448.439	3421.16508
448.931	3422.86458
449.424	3438.35977
449.916	3435.21589
450.408	3337.98702
450.9	3242.31687
451.392	3170.54962
451.884	3102.30517
452.375	2952.61694
452.867	2953.41076
453.358	2970.33768
453.849	2906.21367
454.341	2924.40588
454.832	2846.31395
455.323	2797.76802
455.814	2827.60384
456.304	2786.64999
456.795	2758.65442
457.285	2736.65271
457.776	2703.78822
458.266	2624.88977
458.756	2638.99444
459.247	2488.9721
459.737	2415.01514
460.226	2448.84056
460.716	2298.12082
461.206	2383.1594
461.695	2430.35627
462.185	2300.16731
462.674	2264.12836
463.163	2273.01549
463.653	2213.88036
464.142	2111.32898
464.63	2069.43659
465.119	2074.23188
465.608	2092.24074
466.096	2005.13573
466.585	2074.33955
467.073	2038.47928
467.561	1925.50065
468.05	1899.40962
468.538	1928.6132
469.026	1898.5311
469.513	1795.15319
470.001	1757.36062
470.489	1796.50105
470.976	1731.45437
471.463	1668.69609
471.951	1683.74616
472.438	1607.5108
472.925	1471.45062
473.412	1620.72156
473.899	1499.48148
474.385	1520.69086
474.872	1475.5136
475.359	1473.65936
475.845	1414.23249
476.331	1383.37089
476.817	1405.67759
477.303	1297.48759
477.789	1330.61364
478.275	1217.60603
478.761	1273.60272
479.247	1205.40126
479.732	1143.57413
480.218	1151.71775
480.703	1154.61451
481.188	1149.29194
481.673	1117.4111
482.158	996.15527
482.643	1102.6734
483.128	1002.31609
483.612	1004.38628
484.097	1066.5667
484.581	1075.46738
485.066	951.42543
485.55	867.15568
486.034	904.17537
486.518	866.2737
487.002	804.27735
487.486	832.31972
487.969	814.30069
488.453	850.42658
488.936	762.12356
489.42	858.21114
489.903	774.33837
490.386	757.74581
490.869	714.04738
491.352	758.28771
491.835	752.02466
492.318	770.16039
492.8	689.95949
493.283	705.26508
493.765	646.13374
494.247	719.18021
494.73	662.02046
495.212	678.17945
495.694	629.04531
496.175	541.93341
496.657	640.09675
497.139	658.77439
497.62	521.9099
498.102	521.96952
498.583	544.02704
499.064	521.85252
499.545	581.971
500.026	518.86017
500.507	457.80861
500.988	499.94934
501.469	461.88813
501.949	515.9755
502.43	407.74605
502.91	391.6154
503.39	461.90222
503.87	467.83794
504.35	478.87203
504.83	407.6864
505.31	439.82664
505.79	413.77041
506.269	426.77871
506.749	342.61692
507.228	444.80588
507.707	391.67595
508.187	486.90325
508.666	367.71689
509.145	368.67982
509.623	414.76328
510.102	383.74033
510.581	451.8601
511.059	371.74396
511.538	405.84441
512.016	424.80173
512.494	456.87407
512.972	398.75661
513.45	361.66138
513.928	382.74035
514.406	327.63117
514.884	336.70507
515.361	373.7172
515.839	396.71472
516.316	365.70757
516.793	371.76562
517.27	372.73269
517.747	359.75051
518.224	354.66345
518.701	344.61831
519.178	333.67177
519.654	422.80693
520.131	299.61095
520.607	385.77846
521.083	354.65395
521.56	365.69911
522.036	363.64325
522.512	396.79648
522.987	318.6163
523.463	389.74725
523.939	399.79604
524.414	367.69105
524.89	366.70832
525.365	326.60403
525.84	318.61748
526.315	334.66094
526.79	395.71784
527.265	375.69362
527.74	366.73003
528.215	354.68345
528.689	360.64641
529.164	383.6727
529.638	389.82438
530.112	373.71513
530.587	342.59043
531.061	389.76239
531.534	409.80955
532.008	419.81459
532.482	453.83457
532.956	400.83306
533.429	402.79588
533.903	396.71143
534.376	472.82799
534.849	433.81093
535.322	483.91174
535.795	486.95498
536.268	409.80121
536.741	447.87068
537.213	465.86356
537.686	492.95766
538.158	494.87115
538.631	466.91913
539.103	432.77612
539.575	535.86909
540.047	512.88735
540.519	605.12988
540.991	550.07091
541.463	602.1401
541.934	567.01279
542.406	540.01498
542.877	581.01755
543.348	619.16636
543.82	571.10897
544.291	634.14588
544.762	635.15792
545.233	654.26776
545.703	624.04983
546.174	686.20915
546.645	694.24626
547.115	726.31521
547.585	711.22558
548.056	697.25967
548.526	768.32304
548.996	817.43952
549.466	856.52687
549.935	855.4432
550.405	880.34116
550.875	867.46193
551.344	859.48063
551.814	947.50845
552.283	915.37699
552.752	816.3537
553.221	853.28176
553.69	991.47856
554.159	921.5819
554.628	947.4305
555.096	916.64425
555.565	916.40537
556.033	892.49403
556.502	837.47561
556.97	873.37272
557.438	827.4367
557.906	838.46469
558.374	750.2892
558.842	726.31855
559.31	705.19777
559.777	659.23215
560.245	653.19743
560.712	691.23418
561.18	607.04368
561.647	633.09954
562.114	616.09683
562.581	679.31098
563.048	688.2304
563.514	648.24893
563.981	601.09026
564.448	673.16981
564.914	622.14707
565.381	656.17063
565.847	629.16725
566.313	598.11044
566.779	678.18941
567.245	634.17275
567.711	643.21761
568.176	543.97837
568.642	606.21599
569.108	594.16992
569.573	654.21766
570.038	609.00587
570.504	557.99642
570.969	585.18162
571.434	615.05409
571.899	581.10535
572.363	572.03886
572.828	606.10186
573.293	617.11708
573.757	605.09976
574.222	597.04673
574.686	544.9719
575.15	580.09782
575.614	591.07317
576.078	599.11258
576.542	557.01438
577.006	606.07564
577.469	657.28906
577.933	557.99077
578.396	581.10535
578.86	530.01034
579.323	537.03041
579.786	545.93981
580.249	484.89684
580.712	554.0956
581.175	529.06001
581.637	515.96883
582.1	498.8929
582.563	537.93193
583.025	448.8994
583.487	508.8231
583.95	453.79527
584.412	505.86058
584.874	464.93152
585.336	459.89916
585.797	492.86626
586.259	497.96578
586.721	452.8777
587.182	501.96752
587.643	479.89666
588.105	484.94522
588.566	472.81669
589.027	440.88008
589.488	446.8454
589.949	516.02556
590.41	444.70515
590.87	512.9601
591.331	469.83677
591.791	423.81413
592.252	426.80906
592.712	437.87874
593.172	455.84793
593.632	500.90017
594.092	423.7879
594.552	459.81554
595.011	412.78933
595.471	491.90233
595.931	444.82148
596.39	445.88658
596.849	436.84663
597.308	514.91117
597.768	430.91703
598.227	475.94987
598.685	503.95323
599.144	458.88935
599.603	407.812
600.062	402.70293
600.52	446.8227
600.978	481.9436
601.437	494.93183
601.895	448.78422
602.353	444.81983
602.811	498.90485
603.269	572.10643
603.727	494.97436
604.184	463.85856
604.642	468.95126
605.099	516.97858
605.557	543.07908
606.014	488.85562
606.471	516.04989
606.928	543.92787
607.385	576.11843
607.842	769.33922
608.299	800.41794
608.755	691.30294
609.212	693.18876
609.668	648.11406
610.125	747.39909
610.581	748.38959
611.037	782.37878
611.493	717.3342
611.949	616.18942
612.405	572.91437
612.861	650.22939
613.316	566.10055
613.772	661.20726
614.227	662.24358
614.683	701.18005
615.138	697.28792
615.593	687.26498
616.048	759.35801
616.503	747.4549
616.958	696.39495
617.412	739.37794
617.867	706.22504
618.321	772.23406
618.776	744.29319
619.23	803.46867
619.684	799.40846
620.138	908.61235
620.592	820.56139
621.046	926.65969
621.5	913.70474
621.954	889.53981
622.407	942.58751
622.861	994.8275
623.314	1004.71344
623.768	1028.78837
624.221	1004.44179
624.674	1066.81767
625.127	1089.88437
625.58	1137.89723
626.033	1190.88515
626.485	1192.06695
626.938	1271.15658
627.39	1325.15502
627.843	1394.21457
628.295	1402.22359
628.747	1532.43296
629.199	1491.26231
629.651	1542.30404
630.103	1667.43319
630.555	1853.29222
631.006	1876.67629
631.458	1908.71945
631.909	1996.69056
632.361	2223.84551
632.812	2282.81771
633.263	2360.55433
633.714	2548.55656
634.165	2582.16195
634.616	2745.08249
635.067	2846.74602
635.518	2989.12181
635.968	3117.21971
636.419	3298.56242
636.869	3315.07707
637.319	3569.82311
637.769	3623.60706
638.219	3904.9371
638.669	3969.87797
639.119	4193.95278
639.569	4281.82202
640.019	4549.40748
640.468	4689.10254
640.918	4996.45148
641.367	5075.92096
641.816	5327.77233
642.265	5432.93529
642.714	5684.81888
643.163	5840.71612
643.612	5947.93042
644.061	6086.15342
644.51	6248.52362
644.958	6436.29522
645.406	6518.76587
645.855	6633.91687
646.303	6828.62653
646.751	6930.47338
647.199	7147.52116
647.647	7132.57092
648.095	7260.58931
648.543	7420.25402
648.99	7423.84463
649.438	7531.83037
649.885	7579.09836
650.333	7485.14818
650.78	7555.96124
651.227	7599.01793
651.674	7553.70462
652.121	7540.00062
652.568	7541.9893
653.015	7590.2401
653.461	7529.88513
653.908	7530.79979
654.354	7434.88111
654.801	7264.72643
655.247	7385.4924
655.693	7281.36484
656.139	7222.845
656.585	7230.85326
657.031	7079.65876
657.477	7150.32951
657.922	7193.63102
658.368	7234.02811
658.813	7129.69347
659.259	7152.84804
659.704	7177.69665
660.149	7215.70962
660.594	7126.79448
661.039	7046.5669
661.484	7088.84171
661.929	7093.72034
662.373	7219.16846
662.818	7201.07035
663.262	7150.88413
663.707	7340.22924
664.151	7351.02002
664.595	7415.96218
665.039	7511.17588
665.483	7575.32522
665.927	7660.96406
666.371	7645.8612
666.814	7805.11292
667.258	7821.06642
667.701	8014.93124
668.145	8103.51229
668.588	8195.52504
669.031	8149.31107
669.474	8325.57995
669.917	8347.36914
670.36	8458.82948
670.803	8632.95723
671.245	8515.51036
671.688	8486.81038
672.13	8529.63322
672.573	8649.14612
673.015	8695.02858
673.457	8561.63012
673.899	8761.14814
674.341	8742.10957
674.783	8636.94367
675.225	8584.95466
675.666	8615.9201
676.108	8649.76509
676.549	8621.89965
676.991	8552.64234
677.432	8572.54444
677.873	8394.54729
678.314	8374.62014
678.755	8235.54563
679.196	8159.25803
679.637	8119.4702
680.078	7988.19087
680.518	7805.04553
680.959	7807.15796
681.399	7617.23741
681.839	7625.14434
682.28	7435.14668
682.72	7308.71667
683.16	7108.15472
683.6	7009.64914
684.039	6979.21617
684.479	6821.06763
684.919	6651.68231
685.358	6786.3175
685.798	6619.59471
686.237	6516.03462
686.676	6428.79152
687.115	6264.90347
687.554	6179.99936
687.993	6210.54853
688.432	5969.82257
688.871	5915.7918
689.309	5864.16469
689.748	5846.35082
690.186	5820.19914
690.625	5686.11455
691.063	5536.35673
691.501	5556.58435
691.939	5444.70624
692.377	5436.53913
692.815	5340.43775
693.253	5282.52684
693.69	5145.96929
694.128	5130.6515
694.565	5125.5485
695.003	5061.07536
695.44	5001.50501
695.877	4900.5119
696.314	4910.97395
696.751	4749.45364
697.188	4729.49705
697.625	4797.47611
698.061	4610.87754
698.498	4623.94878
698.934	4429.01084
699.371	4447.82294
699.807	4352.91687
700.243	4239.09455
700.679	4123.73538
701.115	4265.94053
701.551	4146.99273
701.987	4017.74422
702.422	4109.05966
702.858	4078.09981
703.294	3992.80045
703.729	3975.34369
704.164	3952.22884
704.599	3801.77153
705.035	3863.76691
705.47	3760.36853
705.904	3778.06601
706.339	3756.08251
706.774	3721.1255
707.209	3720.01885
707.643	3659.31992
708.078	3680.40801
708.512	3629.60686
708.946	3711.29509
709.38	3616.24232
709.814	3624.00663
710.248	3562.4518
710.682	3490.29607
711.116	3496.30264
711.549	3468.88684
711.983	3442.12226
712.416	3428.28145
712.85	3446.63508
713.283	3402.28718
713.716	3492.68975
714.149	3381.34693
714.582	3403.95777
715.015	3417.67784
715.448	3356.72921
715.881	3238.85676
716.313	3275.24635
716.746	3318.26463
717.178	3336.39985
717.61	3333.77459
718.043	3276.65755
718.475	3291.46426
718.907	3350.76752
719.339	3255.0386
719.77	3238.31615
720.202	3260.75637
720.634	3234.48661
721.065	3270.31924
721.497	3292.53749
721.928	3274.54481
722.359	3153.42968
722.79	3212.38343
723.221	3315.72284
723.652	3277.90953
724.083	3221.01747
724.514	3226.13224
724.945	3305.25662
725.375	3207.18322
725.806	3279.67047
726.236	3250.85471
726.666	3170.32435
727.096	3251.54982
727.526	3233.78411
727.956	3234.05772
728.386	3283.57004
728.816	3245.7546
729.246	3259.47349
729.675	3301.55481
730.105	3322.56272
730.534	3294.23019
730.964	3342.75223
731.393	3396.62431
731.822	3376.81877
732.251	3389.76847
732.68	3316.27797
733.109	3348.56183
733.537	3351.42102
733.966	3383.61015
734.395	3461.10674
734.823	3521.9494
735.251	3409.39442
735.68	3497.66131
736.108	3431.741
736.536	3483.24161
736.964	3460.13602
737.392	3512.64462
737.82	3539.34301
738.247	3621.30656
738.675	3521.32327
739.102	3421.64198
739.53	3533.76231
739.957	3537.84247
740.384	3587.53103
740.811	3603.72257
741.238	3619.43399
741.665	3588.08832
742.092	3608.2912
742.519	3532.54959
742.945	3609.32105
743.372	3624.53546
743.798	3658.81467
744.225	3569.26427
744.651	3645.63087
745.077	3663.57827
745.503	3648.42581
745.929	3651.30304
746.355	3716.55482
746.781	3591.55223
747.207	3578.16147
747.632	3630.41152
748.058	3635.59131
748.483	3698.00777
748.908	3774.51713
749.334	3688.45878
749.759	3664.17517
750.184	3720.22261
750.609	3772.4381
751.033	3749.17365
751.458	3788.80677
751.883	3694.5245
752.307	3657.16378
752.732	3616.59056
753.156	3646.5072
753.58	3766.19541
754.005	3737.69418
754.429	3738.12497
754.853	3671.51983
755.277	3685.19294
755.7	3730.51662
756.124	3653.53606
756.548	3595.22682
756.971	3737.39862
757.394	3752.80237
757.818	3692.80647
758.241	3658.70382
758.664	3585.68459
759.087	3611.8241
759.51	3599.57527
759.933	3657.30948
760.356	3658.78618
760.778	3546.4969
761.201	3568.42008
761.623	3661.37752
762.046	3526.26258
762.468	3552.33959
762.89	3562.5261
763.312	3546.4503
763.734	3413.37765
764.156	3511.53505
764.578	3512.05808
765	3436.46662
765.421	3456.74263
765.843	3430.9993
766.264	3469.3951
766.686	3412.67859
767.107	3328.4353
767.528	3330.71332
767.949	3405.76643
768.37	3253.53139
768.791	3275.4351
769.212	3211.68568
769.632	3209.1905
770.053	3240.0382
770.473	3202.4742
770.894	3135.6777
771.314	3137.36771
771.734	3038.21339
772.154	3044.84524
772.575	3024.185
772.994	3022.05941
773.414	3041.40237
773.834	2990.65601
774.254	3009.5184
774.673	2895.48305
775.093	2861.57284
775.512	2765.52975
775.931	2812.72215
776.351	2835.59068
776.77	2775.48259
777.189	2770.32209
777.607	2699.73921
778.026	2767.59774
778.445	2606.57981
778.864	2669.76006
779.282	2638.36299
779.701	2594.62502
780.119	2491.5978
780.537	2566.55143
780.955	2545.66499
781.373	2452.46021
781.791	2427.94604
782.209	2564.11078
782.627	2462.83687
783.045	2316.02701
783.462	2307.5712
783.88	2304.63848
784.297	2263.45995
784.715	2228.54785
785.132	2217.23455
785.549	2191.38633
785.966	2150.38929
786.383	2146.27293
786.8	2114.98256
787.217	2053.03894
787.633	2017.25447
788.05	2067.06189
788.466	2116.05521
788.883	1987.33673
789.299	1945.03809
789.715	1906.05017
790.131	1885.135
790.547	1863.13647
790.963	1798.0511
791.379	1810.14171
791.795	1801.70999
792.21	1816.81606
792.626	1716.79282
793.041	1763.99449
793.457	1783.0182
793.872	1711.75159
794.287	1684.78266
794.702	1654.8835
795.117	1599.85591
795.532	1559.84504
795.947	1610.7495
796.362	1585.69577
796.776	1622.66183
797.191	1476.66543
797.605	1484.52627
798.02	1426.58646
798.434	1462.33665
798.848	1414.61232
799.262	1365.57574
799.676	1373.53319
800.09	1390.58052
800.504	1319.4477
800.918	1295.27649
801.331	1282.65057
801.745	1240.18675
802.158	1184.3544
802.572	1246.35231
802.985	1182.25609
803.398	1189.22643
803.811	1223.4988
804.224	1110.23351
804.637	1024.99199
805.05	1071.99347
805.462	1099.18156
805.875	987.1411
806.288	1007.99549
806.7	982.05588
807.112	974.85604
807.525	955.96973
807.937	866.82394
808.349	949.99491
808.761	893.85987
809.173	862.7758
809.584	894.87224
809.996	799.68825
810.408	792.78084
810.819	837.67369
811.231	825.84485
811.642	939.86232
812.053	966.89858
812.464	977.91528
812.875	991.11161
813.286	829.84467
813.697	852.68762
814.108	733.5676
814.519	685.33396
814.929	737.65409
815.34	674.44721
815.75	612.40169
816.16	641.42907
816.571	621.45553
816.981	604.2778
817.391	543.19237
817.801	535.21313
818.211	573.233
818.62	461.0256
819.03	510.14583
819.44	522.25441
819.849	511.18298
820.259	502.18435
820.668	420.96582
821.077	422.9801
821.486	407.91815
821.895	451.03437
822.304	424.05312
822.713	414.9139
823.122	368.86854
823.531	379.84522
823.939	398.91012
824.348	358.82361
824.756	362.85869
825.164	392.92911
825.573	329.78659
825.981	382.89318
826.389	385.912
826.797	344.81852
827.205	302.66112
827.612	332.77965
828.02	274.61779
828.428	292.71398
828.835	306.77229
829.243	340.76845
829.65	277.66229
830.057	290.67466
830.464	265.62197
830.871	273.62847
831.278	264.61466
831.685	256.54977
832.092	262.61841
832.499	239.50452
832.905	254.62154
833.312	268.58719
833.718	257.61824
834.124	179.40022
834.531	245.59785
834.937	199.49878
835.343	224.52462
835.749	220.49888
836.155	196.50159
836.561	195.46822
836.966	219.52043
837.372	181.45122
837.777	168.41066
838.183	217.46793
838.588	190.46098
838.993	194.46112
839.399	96.23336
839.804	128.30823
840.209	146.36615
840.613	160.34924
841.018	185.45834
841.423	135.34191
841.828	154.38315
842.232	182.44124
842.637	150.34816
843.041	160.40299
843.445	117.29062
843.849	156.37963
844.253	179.4162
844.657	117.29168
845.061	147.32813
845.465	106.25399
845.869	157.35827
846.272	102.24655
846.676	140.3338
847.079	120.30192
847.483	130.32038
847.886	157.3754
848.289	117.30919
848.692	141.35202
849.095	88.21038
849.498	195.48258
849.901	129.29212
850.304	127.29984
850.707	122.30772
851.109	124.31031
851.512	117.28456
851.914	44.11118
852.316	113.28314
852.718	21.05456
853.121	97.2361
853.523	87.20237
853.925	84.21814
854.326	64.15987
854.728	106.27033
855.13	49.12657
855.531	106.25109
855.933	70.1678
856.334	21.05271
856.736	53.11894
857.137	70.16248
857.538	62.15577
857.939	36.08931
858.34	98.23715
858.741	38.09966
859.142	74.17732
859.542	73.19208
859.943	62.15398
860.343	32.07962
860.744	21.05161
861.144	34.08333
861.544	30.07249
861.945	57.14529
862.345	72.17568
862.745	62.15398
863.145	83.19756
863.544	49.12402
863.944	33.07837
864.344	58.1441
864.743	98.24143
865.143	63.16166
865.542	9.02108
865.941	48.11903
866.34	97.2307
866.74	50.13433
867.139	48.11515
867.537	72.18297
867.936	45.10859
868.335	50.12738
868.734	35.08978
869.132	31.07242
869.531	44.10672
869.929	28.06422
870.327	-15.03646
870.726	93.23042
871.124	62.14482
871.522	74.18792
871.92	81.19892
872.318	54.1321
872.715	79.1948
873.113	2.00492
873.511	61.15185
873.908	-18.04603
874.306	15.03759
874.703	68.1698
875.1	66.16856
875.497	46.11052
875.894	20.04933
876.291	33.08134
876.688	29.07514
877.085	78.1864
877.482	71.17726
877.878	34.08218
878.275	61.15483
878.671	85.18825
879.068	53.12804
879.464	41.09938
879.86	13.031
880.256	69.16989
880.652	41.10454
881.048	82.20223
881.444	44.10499
881.84	60.15237
882.236	49.12335
882.631	39.09603
883.027	53.12842
883.422	20.05145
883.817	40.10079
884.213	56.14367
884.608	-2.00496
885.003	48.11589
885.398	44.11035
885.793	62.15544
886.188	6.01505
886.582	78.19927
886.977	32.0763
887.371	44.1115
887.766	25.06251
888.16	39.09762
888.554	71.17507
888.949	69.17283
889.343	54.13195
889.737	1.00269
890.131	27.06807
890.525	37.09491
890.918	33.08337
891.312	25.06017
891.706	53.13908
892.099	19.04865
892.492	37.08016
892.886	38.09327
893.279	57.14514
893.672	22.05632
894.065	47.11785
894.458	39.09836
894.851	58.14204
895.244	9.02317
895.637	3.0073
896.029	8.01973
896.422	45.11015
896.814	41.10218
897.206	-30.0726
897.599	114.27888
897.991	13.03168
898.383	-8.01913
898.775	24.05451
899.167	14.03291
899.559	68.17171
899.951	65.15293
900.342	25.0639
900.734	-21.05281
901.125	83.21669
901.517	18.04448
901.908	41.09856
902.299	28.06878
902.69	39.09229
903.082	32.07782
903.473	-9.02181
903.863	28.07176
904.254	-19.04474
904.645	61.15152
905.036	-12.02941
905.426	23.05299
905.817	27.06658
906.207	-35.08481
906.597	22.05177
906.987	52.13481
907.378	34.08628
907.768	52.13749
908.158	27.06616
908.547	-11.02873
908.937	61.15631
909.327	25.06103
909.717	83.20962
910.106	-9.02187
910.495	65.16193
910.885	37.09398
911.274	9.02267
911.663	45.11438
912.052	26.06448
912.441	7.01794
912.83	21.04852
913.219	26.06835
913.608	42.10309
913.997	5.01264
914.385	9.02168
914.774	39.09521
915.162	23.05512
915.55	36.08738
915.939	1.00255
916.327	-5.01261
916.715	7.01798
917.103	55.13532
917.491	53.13112
917.878	21.05194
918.266	20.05215
918.654	33.08459
919.041	1.00263
919.429	-11.02628
919.816	36.09152
920.203	13.03176
920.591	23.05734
920.978	17.0419
921.365	7.01851
921.752	34.08135
922.139	52.11293
922.525	-15.03648
922.912	32.07834
923.299	37.09221
923.685	28.07334
924.072	16.03717
924.458	-2.005
924.844	6.01497
925.231	15.03517
925.617	15.0384
926.003	32.08207
926.389	29.07345
926.774	37.09401
927.16	36.08967
927.546	-10.0258
927.931	41.10251
928.317	3.00698
928.702	5.01194
929.088	2.00478
929.473	22.05626
929.858	20.04864
930.243	10.02419
930.628	21.05138
931.013	-8.02004
931.398	17.03937
931.783	37.09765
932.167	32.07851
932.552	36.09045
932.937	21.05241
933.321	6.01518
933.705	31.07843
934.09	75.18874
934.474	65.154
934.858	22.05735
935.242	-19.04465
935.626	7.01806
936.009	21.05613
936.393	31.07916
936.777	63.16098
937.16	25.06534
937.544	33.07803
937.927	-17.04365
938.311	29.07109
938.694	53.14011
939.077	0
939.46	35.08621
939.843	54.11262
940.226	32.08236
940.609	-3.00696
940.991	21.05374
941.374	15.03691
941.757	37.09154
942.139	2.00454
942.522	58.13691
942.904	30.07241
943.286	33.08412
943.668	47.12182
944.05	4.00994
944.432	36.08908
944.814	47.11585
945.196	-36.08915
945.578	-13.03128
945.959	3.0071
946.341	46.11303
946.722	35.08241
947.104	32.07677
947.485	16.03749
947.866	-1.00254
948.247	-1.00255
948.628	19.04663
949.009	43.11026
949.39	11.02758
949.771	36.08399
950.152	9.02226
950.532	-51.12779
950.913	66.15875
951.293	25.06781
951.674	-9.02201
952.054	18.04487
952.434	-5.01254
952.814	55.13076
953.194	23.06048
953.574	69.16939
953.954	3.00719
954.334	-17.04289
954.714	-13.03206
955.093	42.10343
955.473	-8.02022
955.853	56.14482
956.232	32.08796
956.611	17.04104
956.99	29.07316
957.37	9.0231
957.749	22.05278
958.128	15.03803
958.506	6.01568
958.885	47.1187
959.264	-2.00495
959.643	59.13404
960.021	-16.04013
960.4	4.00915
960.778	58.14268
961.156	-2.00506
961.535	-7.0165
961.913	19.04474
962.291	3.00776
962.669	13.03315
963.047	34.08702
963.424	8.02057
963.802	15.03712
964.18	21.05341
964.557	14.03248
964.935	55.13021
965.312	17.04452
965.69	29.0729
966.067	45.1097
966.444	38.09386
966.821	63.16205
967.198	49.11891
967.575	61.1497
967.952	21.04977
968.329	28.06842
968.705	-3.00651
969.082	-2.00518
969.458	-15.03643
969.835	40.09756
970.211	20.0516
970.587	38.09482
970.963	63.16126
971.339	-21.0555
971.715	4.01007
972.091	34.08398
972.467	43.10739
972.843	7.01751
973.219	52.12484
973.594	-7.01849
973.97	46.10959
974.345	24.05773
974.721	58.14025
975.096	28.06804
975.471	-8.01919
975.846	-1.00243
976.221	2.00512
976.596	-4.00969
976.971	56.13811
977.346	10.02347
977.72	21.05377
978.095	52.13434
978.469	3.00723
978.844	30.0757
979.218	-23.0559
979.593	43.10317
979.967	26.06363
980.341	31.07165
980.715	70.17574
981.089	30.07537
981.463	-1.00232
981.837	-14.03462
982.21	67.15542
982.584	-11.02687
982.957	-27.06836
983.331	-8.01913
983.704	34.08379
984.078	33.08158
984.451	46.11499
984.824	-12.02956
985.197	-10.02456
985.57	24.06047
985.943	59.14548
986.316	88.21471
986.688	34.08225
987.061	43.10093
987.434	3.00788
987.806	41.09961
988.179	-18.04303
988.551	28.07131
988.923	33.08152
989.295	24.06026
989.667	-20.04842
990.039	2.00499
990.411	-11.02563
990.783	64.14696
991.155	-41.10021
991.527	97.2368
991.898	30.07502
992.27	-7.0175
992.641	35.08805
993.012	21.0497
993.384	3.00722
993.755	17.04359
994.126	16.03873
994.497	-1.00248
994.868	7.01622
995.239	21.05117
995.61	4.01015
995.98	-2.00491
996.351	-3.0075
996.722	-10.02347
997.092	26.06185
997.462	-19.04498
997.833	44.10443
998.203	67.16192
998.573	-1.00251
998.943	-12.02848
999.313	27.06498
999.683	-23.05596
1000.053	10.02319
1000.423	38.09255
1000.792	13.0339
1001.162	0
1001.531	11.02731
1001.901	14.03512
1002.27	14.03153
1002.639	24.0616
1003.009	23.05498
1003.378	25.0642
1003.747	38.08998
1004.116	8.01929
1004.485	12.02889
1004.853	41.10403
1005.222	42.10605
1005.591	16.03824
1005.959	-3.00683
1006.328	5.01135
1006.696	12.02915
1007.064	18.04553
1007.433	42.10511
1007.801	74.18082
1008.169	37.09365
1008.537	29.06449
1008.905	-15.03539
1009.273	34.08422
1009.64	11.02643
1010.008	23.0551
1010.375	62.1502
1010.743	73.16779
1011.11	-17.04074
1011.478	15.03735
1011.845	46.10825
1012.212	-1.00229
1012.579	29.07146
1012.946	43.10247
1013.313	51.12134
1013.68	60.13457
1014.047	-28.06771
1014.414	-10.02389
1014.78	12.03002
1015.147	51.1233
1015.513	17.04121
1015.88	26.06675
1016.246	37.09154
1016.612	4.00924
1016.978	-8.01981
1017.344	2.00499
1017.71	62.15082
1018.076	16.03797
1018.442	50.12859
1018.808	16.04023
1019.174	1.00253
1019.539	98.22341
1019.905	-9.02146
1020.27	-56.14085
1020.636	54.12934
1021.001	55.13151
1021.366	-18.04377
1021.731	24.06198
1022.096	-17.04338
1022.461	0
1022.826	-4.0096
1023.191	3.00793
1023.556	35.08225
1023.92	40.09851
1024.285	6.01476
1024.649	23.05663
1025.014	66.16295
1025.378	26.06563
1025.742	-4.01003
1026.107	20.0455
1026.471	42.09818
1026.835	19.04735
1027.199	-8.01946
1027.562	10.02342
1027.926	16.03936
1028.29	40.10136
1028.654	17.03936
1029.017	21.05188
1029.381	13.03126
1029.744	7.01798
1030.107	31.07359
1030.471	15.03614
1030.834	19.04348
1031.197	23.05567
1031.56	33.07809
1031.923	12.03122
1032.286	39.09176
1032.648	50.11954
1033.011	-33.07697
1033.374	36.08481
1033.736	16.04229
1034.099	35.08551
1034.461	-25.06397
1034.823	19.04756
1035.185	18.04555
1035.548	10.02451
1035.91	16.03856
1036.272	-13.02995
1036.634	48.11742
1036.995	13.03076
1037.357	2.00491
1037.719	13.03182
1038.08	3.00718
1038.442	49.11627
1038.803	23.05548
1039.165	-3.00764
1039.526	-25.06124
1039.887	29.06964
1040.248	3.00745
1040.609	43.10634
1040.97	0
1041.331	38.09636
1041.692	29.06794
1042.053	41.09349
1042.413	20.04686
1042.774	22.05376
1043.134	10.02398
1043.495	23.05807
1043.855	10.02443
1044.215	18.04492
1044.576	-38.09234
1044.936	26.05987
1045.296	55.13707
1045.656	20.04933
1046.016	32.07747
1046.375	-19.04666
1046.735	2.00458
1047.095	11.02593
1047.454	35.07437
1047.814	-1.00243
1048.173	7.01685
1048.533	-32.07448
1048.892	-42.10252
1049.251	56.14034
1049.61	4.00993
1049.969	1.00238
1050.328	29.06313
1050.687	25.06108
1051.046	35.08541
1051.405	-10.02513
1051.763	2.00464
1052.122	-38.09623
1052.48	15.037
1052.839	-58.13924
1053.197	3.00712
1053.555	53.1207
1053.914	11.02708
1054.272	53.12799
1054.63	13.03199
1054.988	-46.11123
1055.345	9.01954
1055.703	18.04356
1056.061	14.03622
1056.419	37.09594
1056.776	29.07056
1057.134	-1.00234
1057.491	6.01513
1057.848	24.06
1058.206	-14.03332
1058.563	-15.0335
1058.92	28.06478
1059.277	55.13547
1059.634	-18.04288
1059.991	60.14339
1060.348	3.00684
1060.704	-55.13362
1061.061	43.09998
1061.418	22.0536
1061.774	1.00249
1062.131	-12.03204
1062.487	-36.08554
1062.843	19.04761
1063.199	18.045
1063.555	-27.06347
1063.911	26.06591
1064.267	29.06074
1064.623	-29.07143
1064.979	39.09254
1065.335	22.05284
1065.691	5.01208
1066.046	18.03982
1066.402	5.01146
1066.757	22.05577
1067.112	28.06895
1067.468	-30.07189
1067.823	68.16282
1068.178	47.11367
1068.533	-1.00245
1068.888	46.10993
1069.243	-6.01495
1069.598	26.06342
1069.952	-40.09167
1070.307	7.01745
1070.662	-5.01199
1071.016	-17.03859
1071.371	4.00918
1071.725	43.10294
1072.079	4.0097
1072.434	3.00735
1072.788	30.07167
1073.142	12.0297
1073.496	-10.02398
1073.85	43.09979
1074.203	15.03661
1074.557	23.06139
1074.911	40.09559
1075.265	-14.03293
1075.618	54.13166
1075.971	26.06209
1076.325	7.01791
1076.678	-1.00231
1077.031	0
1077.385	47.10353
1077.738	-7.01597
1078.091	-42.09722
1078.444	27.06293
1078.796	-9.02231
1079.149	9.02253
1079.502	-5.01193
1079.855	16.03753
1080.207	18.04457
1080.56	-2.00521
1080.912	32.07811
1081.264	-1.00243
1081.617	26.0636
1081.969	2.00508
1082.321	7.01722
1082.673	-17.03929
1083.025	-1.00239
1083.377	-15.03262
1083.728	13.03053
1084.08	13.03264
1084.432	19.04606
1084.783	16.03771
1085.135	40.10035
1085.486	-40.0931
1085.838	11.02726
1086.189	7.01711
1086.54	50.11931
1086.891	30.07608
1087.242	31.07568
1087.593	20.04893
1087.944	32.07263
1088.295	19.04343
1088.646	4.00977
1088.996	-48.11768
1089.347	26.06403
1089.698	-35.08401
1090.048	45.11688
1090.398	21.04895
1090.749	17.0409
1091.099	-33.08414
1091.449	-16.0403
1091.799	35.08779
1092.149	-49.12158
1092.499	9.0221
1092.849	8.02047
1093.199	32.0804
1093.548	4.00969
1093.898	19.04776
1094.248	26.06703
1094.597	-2.00515
1094.947	31.08289
1095.296	-5.01246
1095.645	35.09119
1095.994	3.00726
1096.343	33.08322
1096.692	27.07114
1097.041	-11.03005
1097.39	-8.02026
1097.739	54.14014
1098.088	50.13384
1098.437	-25.06645
1098.785	32.08645
1099.134	9.02404
1099.482	13.03593
1099.83	8.02115
1100.179	-14.03688
1100.527	21.05602
1100.875	-4.01066
1101.223	22.05864
1101.571	-10.02787
1101.919	-8.02109
1102.267	20.05651
1102.615	5.01607
1102.962	23.07394
1103.31	6.01928
1103.658	21.06756
