Data from N2 R8 sample 8_Subt2__0__17-32-10-907.txt Node

Date: Fri Aug 29 17:32:10 PDT 2025
User: uwsun
Spectrometer: HDX01956
Trigger mode: 0
Integration Time (sec): 5.000000E-1
Scans to average: 1
Nonlinearity correction enabled: true
Boxcar width: 0
Storing dark spectrum: false
XAxis mode: Wavelengths
Number of Pixels in Spectrum: 2068
>>>>>Begin Spectral Data<<<<<
194.03	144.39518
194.578	143.44419
195.127	141.43145
195.676	139.42678
196.225	161.41556
196.773	129.34638
197.321	235.60611
197.87	337.78196
198.418	321.73688
198.966	291.67631
199.513	253.56286
200.061	280.63054
200.609	340.8031
201.156	276.5303
201.704	283.63299
202.251	281.66492
202.798	311.71679
203.345	311.68355
203.892	294.65772
204.438	304.64412
204.985	284.59122
205.532	302.70589
206.078	341.73529
206.624	301.65211
207.17	366.73987
207.716	346.73311
208.262	300.5179
208.808	242.52911
209.354	313.66942
209.899	368.81985
210.445	307.67107
210.99	339.71247
211.535	421.85281
212.08	325.66467
212.625	369.8093
213.17	296.6682
213.715	241.47299
214.259	326.66838
214.804	350.76198
215.348	324.65196
215.892	315.66757
216.436	411.82493
216.98	383.73608
217.524	333.69091
218.068	351.77955
218.612	341.75986
219.155	336.6948
219.698	316.66604
220.242	331.73392
220.785	285.59397
221.328	296.65919
221.871	350.78847
222.414	325.72122
222.956	286.61208
223.499	292.58378
224.041	316.65579
224.583	323.61896
225.126	291.56978
225.668	262.57114
226.21	289.64934
226.751	229.44838
227.293	271.55499
227.835	237.52136
228.376	319.65477
228.918	316.71276
229.459	237.53098
230	321.67583
230.541	269.55514
231.082	291.6283
231.622	282.58026
232.163	291.62668
232.704	286.63165
233.244	285.63062
233.784	339.73694
234.324	231.45122
234.864	226.46085
235.404	276.58761
235.944	285.60321
236.484	324.71825
237.023	270.56809
237.563	269.55239
238.102	325.67672
238.641	290.65412
239.18	257.53371
239.719	290.64878
240.258	231.46643
240.797	307.64749
241.335	332.71727
241.874	297.49729
242.412	319.67428
242.95	263.55689
243.488	289.58328
244.026	292.59272
244.564	293.52893
245.102	284.56173
245.64	308.65773
246.177	300.59171
246.715	376.78657
247.252	300.6084
247.789	354.57605
248.326	286.6036
248.863	271.52283
249.4	333.66066
249.936	269.48609
250.473	316.64378
251.009	249.50463
251.546	310.59563
252.082	359.67831
252.618	299.58128
253.154	303.63765
253.69	236.47204
254.226	281.59084
254.761	301.59075
255.297	288.55042
255.832	305.63112
256.367	303.62502
256.903	306.58397
257.438	351.71557
257.972	286.55747
258.507	252.50662
259.042	317.5963
259.576	285.53056
260.111	358.71507
260.645	307.57778
261.179	320.64688
261.713	306.58993
262.247	348.69284
262.781	281.51012
263.315	298.63665
263.849	314.68419
264.382	351.69604
264.915	307.62245
265.449	283.5974
265.982	320.63116
266.515	318.6729
267.048	296.53995
267.58	348.65414
268.113	264.49525
268.646	271.58537
269.178	283.5465
269.71	293.55441
270.243	351.68758
270.775	307.67986
271.307	354.7353
271.838	393.79937
272.37	345.73051
272.902	291.57463
273.433	300.56446
273.965	331.69443
274.496	325.7014
275.027	288.62142
275.558	283.59609
276.089	280.59353
276.62	382.83411
277.15	367.77675
277.681	333.61808
278.211	392.81858
278.741	254.48261
279.272	347.67106
279.802	403.8533
280.332	348.69639
280.861	302.62646
281.391	295.57241
281.921	341.70372
282.45	326.7019
282.98	329.7395
283.509	323.61716
284.038	313.60763
284.567	347.69036
285.096	367.75057
285.625	316.60862
286.153	332.65821
286.682	325.62821
287.21	330.67322
287.739	292.5892
288.267	323.66238
288.795	427.94516
289.323	319.62726
289.851	419.81187
290.378	323.60998
290.906	342.69294
291.433	345.72636
291.961	336.63438
292.488	360.7531
293.015	331.65086
293.542	343.7285
294.069	345.70909
294.596	404.83129
295.122	376.74336
295.649	372.6762
296.175	374.75535
296.702	401.80449
297.228	375.75893
297.754	419.76263
298.28	370.68762
298.806	361.71621
299.332	378.67734
299.857	409.74555
300.383	417.8702
300.908	309.61992
301.433	384.76095
301.958	393.74219
302.483	354.72579
303.008	399.80824
303.533	416.89064
304.058	422.80576
304.582	337.64923
305.107	362.77471
305.631	458.83215
306.155	363.68183
306.679	403.75064
307.203	439.80512
307.727	390.74393
308.251	424.84022
308.775	374.70683
309.298	376.71722
309.822	425.85815
310.345	439.81892
310.868	456.85254
311.391	466.90359
311.914	434.85722
312.437	471.83426
312.96	455.82985
313.482	474.86517
314.005	453.88866
314.527	420.87082
315.049	455.90186
315.571	470.78214
316.093	490.92881
316.615	477.87439
317.137	446.73033
317.659	508.93851
318.18	484.88969
318.702	447.78555
319.223	457.68904
319.744	526.85902
320.265	508.90849
320.786	476.87454
321.307	525.96338
321.828	542.88121
322.348	513.87658
322.869	524.88552
323.389	551.58576
323.909	574.92962
324.43	565.98367
324.95	558.89146
325.47	534.9309
325.989	588.955
326.509	530.79323
327.029	562.85544
327.548	573.86157
328.067	589.95959
328.587	585.00308
329.106	601.90319
329.625	680.23045
330.144	548.84255
330.662	579.87846
331.181	601.91952
331.7	684.01554
332.218	598.81515
332.736	675.99509
333.255	634.92911
333.773	636.94926
334.291	732.14997
334.808	650.87463
335.326	660.89928
335.844	683.93648
336.361	699.0685
336.879	648.89213
337.396	725.01581
337.913	728.94637
338.43	762.94116
338.947	675.92669
339.464	747.84184
339.981	725.95111
340.497	779.07445
341.014	825.08043
341.53	696.83563
342.046	742.99091
342.562	813.09556
343.078	829.99865
343.594	841.02699
344.11	796.97361
344.626	857.10898
345.141	805.89583
345.657	861.94163
346.172	858.01322
346.687	766.85317
347.202	841.86531
347.717	922.01723
348.232	900.07647
348.747	928.93728
349.261	861.77842
349.776	894.93354
350.29	884.97416
350.805	994.09071
351.319	937.92565
351.833	876.81343
352.347	940.91569
352.861	963.89956
353.374	1042.93965
353.888	1026.99966
354.401	1013.88454
354.915	896.75012
355.428	981.97536
355.941	1024.86478
356.454	1071.85137
356.967	1023.90008
357.48	1032.84916
357.993	1060.9753
358.505	1017.91385
359.018	1121.96051
359.53	1115.89958
360.042	1138.76868
360.554	1121.918
361.066	1048.8727
361.578	1090.6919
362.09	1035.82138
362.602	1128.6885
363.113	1096.76075
363.625	1080.68784
364.136	1161.66703
364.647	1158.68388
365.158	1213.73815
365.669	1256.79722
366.18	1242.75134
366.691	1201.61119
367.201	1250.74791
367.712	1233.62199
368.222	1187.61327
368.733	1170.48458
369.243	1268.49596
369.753	1322.58263
370.263	1349.62557
370.773	1356.6724
371.282	1317.54643
371.792	1288.38195
372.301	1394.47963
372.811	1421.63511
373.32	1325.17289
373.829	1381.29233
374.338	1509.11918
374.847	1462.12913
375.356	1556.09789
375.865	1602.80026
376.373	1681.8159
376.882	1776.98634
377.39	1809.8063
377.898	1698.73593
378.407	1861.45497
378.915	2026.27459
379.423	2036.30037
379.93	2098.15992
380.438	2191.06772
380.946	2292.93286
381.453	2357.86408
381.96	2363.82527
382.468	2430.82394
382.975	2826.76504
383.482	2918.92202
383.989	2944.83309
384.495	3040.18772
385.002	2973.76868
385.509	3293.08149
386.015	3559.76834
386.521	3714.07424
387.028	3828.20893
387.534	3914.38158
388.04	4221.05639
388.546	3977.39315
389.051	4024.54396
389.557	4430.22992
390.063	5396.90968
390.568	5624.12003
391.073	5374.99928
391.578	5530.45952
392.084	5598.48745
392.589	5269.64009
393.093	5530.87372
393.598	6433.79862
394.103	7251.28415
394.607	8154.513
395.112	8704.27138
395.616	9275.24839
396.12	9687.15709
396.624	10590.33062
397.128	11589.62432
397.632	13117.38502
398.136	14333.01212
398.639	13520.88446
399.143	13919.66182
399.646	16135.61888
400.15	18086.45414
400.653	18497.63791
401.156	13234.64175
401.659	5169.95759
402.162	1054.15589
402.664	0
403.167	0
403.67	0
404.172	0
404.674	0
405.176	0
405.678	0
406.18	0
406.682	0
407.184	0
407.686	0
408.187	0
408.688	0
409.19	0
409.691	0
410.192	0
410.693	0
411.194	435.30976
411.694	4082.94878
412.195	8864.71461
412.696	12089.80453
413.196	12760.96929
413.696	12863.67595
414.196	13703.56671
414.696	17261.84252
415.196	21764.24417
415.696	29583.19008
416.196	35193.15342
416.695	25153.36373
417.195	19442.58986
417.694	18454.81106
418.194	17990.0524
418.693	16018.04481
419.192	15605.16121
419.691	15285.63892
420.19	15202.53295
420.688	14906.7549
421.187	14723.51794
421.685	14035.8338
422.184	12862.05959
422.682	11193.28022
423.18	9141.67715
423.678	7840.13073
424.176	7251.93668
424.674	6896.86638
425.172	6694.01789
425.669	6167.00785
426.167	6245.4811
426.664	5404.7434
427.161	4922.95739
427.659	4651.32472
428.156	4277.68694
428.652	3938.66969
429.149	3688.33453
429.646	3627.23831
430.143	3545.78897
430.639	3187.65786
431.135	3070.61563
431.632	2884.66221
432.128	2601.83111
432.624	2415.02543
433.12	2131.05562
433.616	2223.02614
434.111	1903.29709
434.607	1945.37595
435.103	2018.29531
435.598	1924.38053
436.093	1901.66872
436.588	1872.71576
437.083	1689.89292
437.578	1575.03848
438.073	1453.207
438.568	1489.32056
439.062	1365.12677
439.557	1351.37551
440.051	1266.32238
440.546	1168.35485
441.04	1178.47406
441.534	1225.62578
442.028	1202.56434
442.522	1099.55634
443.015	1069.43201
443.509	1085.64466
444.002	1031.63659
444.496	1009.47625
444.989	1028.67117
445.482	997.69476
445.975	936.5206
446.468	973.47981
446.961	978.48912
447.454	924.57358
447.947	804.58305
448.439	874.6879
448.931	789.53292
449.424	867.76612
449.916	837.69372
450.408	848.58491
450.9	737.63759
451.392	704.68237
451.884	713.59348
452.375	627.61443
452.867	721.60721
453.358	657.54919
453.849	660.49848
454.341	651.56002
454.832	652.51737
455.323	644.65092
455.814	645.60419
456.304	720.66209
456.795	615.58925
457.285	657.6144
457.776	642.64294
458.266	597.62975
458.756	594.65983
459.247	567.61492
459.737	436.50162
460.226	517.53238
460.716	463.5458
461.206	492.58926
461.695	502.65286
462.185	472.5665
462.674	591.66437
463.163	470.52418
463.653	474.48818
464.142	406.52858
464.63	460.6153
465.119	379.47616
465.608	401.50242
466.096	452.52633
466.585	508.64095
467.073	440.60302
467.561	430.59776
468.05	436.58161
468.538	365.54231
469.026	370.53155
469.513	343.41734
470.001	325.44225
470.489	338.48708
470.976	398.55395
471.463	389.60871
471.951	410.64962
472.438	316.4699
472.925	280.41863
473.412	311.50677
473.899	333.49474
474.385	275.4554
474.872	294.45104
475.359	267.44166
475.845	222.30432
476.331	264.38802
476.817	276.46707
477.303	241.38805
477.789	204.34934
478.275	178.31794
478.761	244.41897
479.247	240.38085
479.732	142.25981
480.218	186.35944
480.703	200.36612
481.188	217.33239
481.673	157.2656
482.158	126.19442
482.643	197.38061
483.128	135.22987
483.612	149.26332
484.097	162.3048
484.581	198.34855
485.066	116.21814
485.55	90.15147
486.034	121.19981
486.518	105.1909
487.002	101.19316
487.486	84.16217
487.969	67.13013
488.453	121.24387
488.936	78.13939
489.42	115.20111
489.903	119.24194
490.386	102.12894
490.869	72.12674
491.352	115.22965
491.835	100.16572
492.318	54.0991
492.8	90.14965
493.283	66.13807
493.765	43.08754
494.247	81.15687
494.73	54.09835
495.212	42.08549
495.694	-9.01762
496.175	-75.15074
496.657	40.07971
497.139	96.13666
497.62	-36.07214
498.102	-46.09768
498.583	-9.01932
499.064	-11.02069
499.545	-10.01944
500.026	-17.03242
500.507	17.03354
500.988	15.0319
501.469	-33.07113
501.949	-22.04715
502.43	-27.05492
502.91	-49.087
503.39	-3.00652
503.87	-45.09141
504.35	2.00409
504.83	-52.0987
505.31	-21.04402
505.79	-78.16325
506.269	0
506.749	-74.14774
507.228	-63.12914
507.707	-48.09271
508.187	-11.02298
508.666	-73.15749
509.145	-83.17067
509.623	-34.06974
510.102	-21.04453
510.581	-11.02333
511.059	-59.13007
511.538	-11.02505
512.016	9.01875
512.494	30.06343
512.972	-7.01462
513.45	-70.14222
513.928	-29.06173
514.406	-91.19328
514.884	-42.09548
515.361	-39.08244
515.839	8.01588
516.316	-38.08076
516.793	-10.0224
517.27	-11.02362
517.747	-37.08413
518.224	-34.06984
518.701	-17.0334
519.178	-44.09645
519.654	-38.08076
520.131	-49.10802
520.607	29.06342
521.083	-38.0771
521.56	-15.03137
522.036	-50.09815
522.512	9.01972
522.987	-73.15471
523.463	-13.0274
523.939	-9.01966
524.414	17.03477
524.89	-20.04229
525.365	-4.00802
525.84	-60.12702
526.315	-43.09261
526.79	2.004
527.265	18.03627
527.74	-24.05221
528.215	-24.05054
528.689	-14.02756
529.164	29.05568
529.638	22.05036
530.112	-49.10353
530.587	-2.00377
531.061	19.0405
531.534	11.0238
532.008	34.07217
532.482	35.07126
532.956	-15.03412
533.429	45.09654
533.903	39.07651
534.376	38.07428
534.849	49.10049
535.322	61.12708
535.795	62.13401
536.268	61.12934
536.741	85.17983
537.213	116.23417
537.686	15.03251
538.158	40.07893
538.631	109.23303
539.103	121.23478
539.575	110.20014
540.047	136.25928
540.519	161.3342
540.991	181.38394
541.463	168.35239
541.934	150.29724
542.406	146.30151
542.877	199.3841
543.348	197.41021
543.82	212.44763
544.291	241.47992
544.762	192.38991
545.233	214.45899
545.703	225.42032
546.174	264.51728
546.645	210.42452
547.115	305.61246
547.585	282.54235
548.056	289.57738
548.526	333.6409
548.996	384.75383
549.466	413.82167
549.935	391.74385
550.405	426.73745
550.875	451.84715
551.344	441.84551
551.814	467.84656
552.283	465.79495
552.752	515.926
553.221	463.77792
553.69	572.96198
554.159	509.9712
554.628	513.87611
555.096	557.091
555.565	578.97579
556.033	590.0689
556.502	579.08871
556.97	578.98693
557.438	601.10577
557.906	650.19162
558.374	645.13939
558.842	624.16227
559.31	639.10471
559.777	593.12659
560.245	652.1959
560.712	646.16702
561.18	658.11622
561.647	701.1961
562.114	650.14735
562.581	740.40813
563.048	777.35818
563.514	742.39825
563.981	718.26437
564.448	804.3499
564.914	789.39514
565.381	826.41036
565.847	793.41242
566.313	854.48646
566.779	863.44177
567.245	864.50788
567.711	809.47074
568.176	810.35926
568.642	795.52653
569.108	832.54825
569.573	885.55476
570.038	910.38051
570.504	830.38003
570.969	876.65287
571.434	838.35213
571.899	870.54072
572.363	912.51599
572.828	903.52035
573.293	873.47926
573.757	885.49642
574.222	847.38945
574.686	858.40873
575.15	872.53467
575.614	919.53227
576.078	790.39872
576.542	849.43382
577.006	845.40852
577.469	884.64276
577.933	800.33293
578.396	810.45654
578.86	788.40965
579.323	779.40892
579.786	774.25277
580.249	696.22043
580.712	765.43921
581.175	723.38473
581.637	761.34412
582.1	705.19583
582.563	735.20789
583.025	666.26831
583.487	604.95237
583.95	589.99735
584.412	650.06338
584.874	653.25225
585.336	600.13465
585.797	616.04818
586.259	598.13251
586.721	577.08548
587.182	622.16485
587.643	542.99884
588.105	502.97619
588.566	573.96497
589.027	540.05339
589.488	483.90727
589.949	590.15276
590.41	553.851
590.87	561.03771
591.331	558.97276
591.791	536.00201
592.252	470.88307
592.712	544.06523
593.172	487.90038
593.632	496.89389
594.092	497.90877
594.552	466.82647
595.011	453.8593
595.471	517.94392
595.931	489.89459
596.39	489.96427
596.849	501.95778
597.308	503.89421
597.768	418.89376
598.227	471.94274
598.685	515.97311
599.144	462.89626
599.603	532.02891
600.062	443.76628
600.52	459.84393
600.978	528.02262
601.437	502.94506
601.895	539.92104
602.353	489.89278
602.811	498.90485
603.269	517.01298
603.727	533.03996
604.184	451.83881
604.642	545.08659
605.099	448.86371
605.557	491.98914
606.014	500.8739
606.471	505.03003
606.928	514.88514
607.385	532.04366
607.842	607.10173
608.299	615.14179
608.755	567.10119
609.212	597.05002
609.668	460.83153
610.125	635.22178
610.581	627.19941
611.037	644.17585
611.493	554.07205
611.949	524.03374
612.405	514.83518
612.861	555.07374
613.316	519.02026
613.772	498.94813
614.227	544.05116
614.683	597.03302
615.138	488.94987
615.593	548.04371
616.048	518.98525
616.503	504.03754
616.958	505.05616
617.412	499.98677
617.867	461.85272
618.321	553.9399
618.776	568.03262
619.23	505.99396
619.684	560.048
620.138	559.08149
620.592	564.13992
621.046	562.10055
621.5	528.07874
621.954	595.11007
622.407	577.06791
622.861	588.19014
623.314	599.13248
623.768	589.14236
624.221	591.95853
624.674	610.16655
625.127	624.21181
625.58	703.31134
626.033	695.25605
626.485	695.3631
626.938	715.39446
627.39	695.32909
627.843	791.47217
628.295	766.43509
628.747	801.5366
629.199	828.50269
629.651	816.48462
630.103	871.5805
630.555	877.45642
631.006	1012.83093
631.458	991.81514
631.909	1036.83267
632.361	1034.8585
632.812	1028.82696
633.263	1124.80041
633.714	1257.92903
634.165	1283.28339
634.616	1261.20382
635.067	1378.1505
635.518	1441.42325
635.968	1494.97983
636.419	1504.20777
636.869	1680.64778
637.319	1701.55904
637.769	1779.49874
638.219	1824.79291
638.669	1872.80931
639.119	2036.02495
639.569	2154.0361
640.019	2245.89773
640.468	2307.7629
640.918	2548.1977
641.367	2543.83724
641.816	2572.83024
642.265	2764.0159
642.714	2970.01799
643.163	3056.97871
643.612	3158.19742
644.061	3210.49074
644.51	3320.8748
644.958	3543.60125
645.406	3666.08163
645.855	3781.22356
646.303	3973.83144
646.751	4080.58332
647.199	4226.52025
647.647	4374.51503
648.095	4551.39495
648.543	4789.60565
648.99	4898.48938
649.438	5090.29263
649.885	5254.57266
650.333	5454.98474
650.78	5543.22918
651.227	5841.14038
651.674	5955.66086
652.121	6181.01568
652.568	6513.90703
653.015	6756.15956
653.461	6905.74508
653.908	7084.65956
654.354	7379.86248
654.801	7539.82844
655.247	7857.79979
655.693	8270.81042
656.139	8601.86095
656.585	8923.34622
657.031	9366.17295
657.477	9668.97137
657.922	10085.09354
658.368	10583.58056
658.813	11080.744
659.259	11539.70493
659.704	12060.65576
660.149	12609.97318
660.594	13068.84985
661.039	13757.55113
661.484	14369.96253
661.929	14991.01985
662.373	15804.73537
662.818	16340.79446
663.262	17260.10957
663.707	17799.3889
664.151	18626.93572
664.595	19431.1358
665.039	20464.57239
665.483	21383.02345
665.927	22143.383
666.371	23131.37337
666.814	23986.64073
667.258	25034.85434
667.701	25886.80794
668.145	26889.3943
668.588	27708.2578
669.031	28692.29644
669.474	29704.24786
669.917	30820.70277
670.36	31448.92732
670.803	32593.29472
671.245	33136.25244
671.688	33736.26424
672.13	34210.56539
672.573	35153.49067
673.015	35839.84533
673.457	36351.21912
673.899	36913.24728
674.341	37789.30829
674.783	37966.84899
675.225	38176.17329
675.666	38738.14891
676.108	39103.6427
676.549	39283.90395
676.991	39469.58386
677.432	39621.40118
677.873	39334.69224
678.314	39243.44243
678.755	39054.56545
679.196	38639.98025
679.637	38577.49793
680.078	38223.20307
680.518	37753.43762
680.959	37574.65066
681.399	37082.2406
681.839	36695.4178
682.28	36424.08721
682.72	35821.30898
683.16	35431.005
683.6	34853.51854
684.039	34226.5973
684.479	33876.32625
684.919	33631.20435
685.358	33382.46548
685.798	33006.56227
686.237	32492.22911
686.676	31737.80803
687.115	31691.16828
687.554	31320.3466
687.993	30916.57873
688.432	30466.36323
688.871	29681.10259
689.309	29520.22472
689.748	29357.09405
690.186	29205.6202
690.625	28741.71719
691.063	28517.52857
691.501	28011.6281
691.939	28108.62563
692.377	27671.76049
692.815	27163.83952
693.253	27030.92863
693.69	26681.70738
694.128	26163.34201
694.565	25869.7623
695.003	25890.27055
695.44	25384.54661
695.877	24820.89464
696.314	24593.88359
696.751	24218.96122
697.188	24125.49793
697.625	23673.9547
698.061	23347.03011
698.498	23214.80143
698.934	22865.90636
699.371	22316.64734
699.807	22290.07841
700.243	21883.674
700.679	21662.20962
701.115	21506.7903
701.551	20959.92822
701.987	20861.83052
702.422	20381.47412
702.858	20414.84095
703.294	20334.10365
703.729	19728.42486
704.164	19471.37125
704.599	19185.56894
705.035	19004.00888
705.47	18880.10616
705.904	18805.26699
706.339	18539.71333
706.774	18265.00877
707.209	17952.40386
707.643	17918.93001
708.078	17754.52711
708.512	17546.31312
708.946	17508.85975
709.38	17127.53989
709.814	17001.86458
710.248	16897.16483
710.682	16834.01886
711.116	16626.60382
711.549	16467.98315
711.983	16090.26307
712.416	16057.40684
712.85	15868.31719
713.283	15860.30164
713.716	15423.63249
714.149	15273.14504
714.582	15035.91624
715.015	15037.98506
715.448	14703.8173
715.881	14503.29595
716.313	14434.63248
716.746	14434.56752
717.178	14327.29907
717.61	14251.81966
718.043	14131.08453
718.475	13918.77045
718.907	13789.12432
719.339	13581.02573
719.77	13333.59268
720.202	13298.54323
720.634	13194.27987
721.065	13100.91314
721.497	12906.2189
721.928	12799.51363
722.359	12734.28804
722.79	12720.26172
723.221	12662.38575
723.652	12383.50003
724.083	12129.17994
724.514	12106.89249
724.945	11888.5114
725.375	11977.10022
725.806	11820.7299
726.236	11630.64538
726.666	11554.7536
727.096	11464.11427
727.526	11521.19298
727.956	11413.32105
728.386	11293.32651
728.816	10895.59796
729.246	10856.58785
729.675	10906.73634
730.105	10802.33292
730.534	10609.78185
730.964	10752.06758
731.393	10503.2482
731.822	10458.05191
732.251	10368.78165
732.68	10497.35607
733.109	10343.74952
733.537	10110.0667
733.966	10123.07459
734.395	10110.1325
734.823	9907.56246
735.251	9760.11197
735.68	9738.06302
736.108	9606.76891
736.536	9595.70856
736.964	9348.13945
737.392	9322.16722
737.82	9349.1667
738.247	9389.2489
738.675	9208.88241
739.102	9115.78755
739.53	8877.46697
739.957	8799.39668
740.384	8843.3297
740.811	8864.43802
741.238	8640.01417
741.665	8603.82358
742.092	8492.76615
742.519	8338.71974
742.945	8313.58168
743.372	8331.71758
743.798	8246.81396
744.225	8079.32592
744.651	7964.48853
745.077	7942.44204
745.503	7998.37593
745.929	7897.22774
746.355	7817.36427
746.781	7647.25791
747.207	7537.91793
747.632	7441.08413
748.058	7476.23908
748.483	7518.82822
748.908	7370.18576
749.334	7299.10202
749.759	7215.848
750.184	7065.88121
750.609	6998.07971
751.033	7209.86906
751.458	7014.5555
751.883	6986.13546
752.307	6809.80605
752.732	6816.18907
753.156	6764.12386
753.58	6706.8764
754.005	6589.36321
754.429	6567.82155
754.853	6447.20898
755.277	6316.92612
755.7	6386.24097
756.124	6241.28649
756.548	6156.98237
756.971	6112.21944
757.394	6058.66784
757.818	5993.6852
758.241	6021.55328
758.664	5869.58434
759.087	5848.69403
759.51	5848.47915
759.933	5676.29439
760.356	5706.79612
760.778	5608.49928
761.201	5537.45793
761.623	5463.4792
762.046	5403.344
762.468	5405.43531
762.89	5279.71444
763.312	5235.65021
763.734	5141.5877
764.156	5075.82664
764.578	4962.35903
765	4972.78994
765.421	4943.12636
765.843	4785.50601
766.264	4753.84055
766.686	4677.19249
767.107	4564.95969
767.528	4509.3092
767.949	4446.41206
768.37	4382.15479
768.791	4433.02071
769.212	4156.43576
769.632	4292.80193
770.053	4312.77631
770.473	4230.15791
770.894	4239.38646
771.314	4091.09393
771.734	3948.97143
772.154	3939.70904
772.575	3986.92092
772.994	3898.81485
773.414	3911.20532
773.834	3824.53232
774.254	3774.38926
774.673	3710.37637
775.093	3561.52634
775.512	3494.50871
775.931	3527.71625
776.351	3568.54951
776.77	3433.46453
777.189	3420.28324
777.607	3437.78385
778.026	3277.6206
778.445	3152.6543
778.864	3285.83444
779.282	3158.39633
779.701	3150.7109
780.119	3076.72294
780.537	3113.63706
780.955	3002.77133
781.373	2949.57442
781.791	2993.98761
782.209	2980.14145
782.627	2827.97705
783.045	2853.12652
783.462	2866.77547
783.88	2753.83117
784.297	2750.65016
784.715	2686.76073
785.132	2714.40763
785.549	2624.58079
785.966	2596.60562
786.383	2596.47233
786.8	2533.13842
787.217	2512.2399
787.633	2399.4799
788.05	2534.26305
788.466	2430.19204
788.883	2438.62183
789.299	2446.30396
789.715	2352.31694
790.131	2346.43674
790.547	2317.44682
790.963	2303.40536
791.379	2318.51227
791.795	2246.95789
792.21	2233.06607
792.626	2126.08301
793.041	2155.29166
793.457	2133.28567
793.872	2088.01755
794.287	2038.05313
794.702	2157.28527
795.117	1980.20193
795.532	1949.21818
795.947	2010.0797
796.362	2015.0474
796.776	2001.95409
797.191	1885.06076
797.605	1763.78402
798.02	1840.99839
798.434	1856.64887
798.848	1787.00253
799.262	1769.01659
799.676	1764.94619
800.09	1694.91387
800.504	1626.79319
800.918	1623.61603
801.331	1618.09689
801.745	1590.55593
802.158	1567.84403
802.572	1618.78374
802.985	1582.7343
803.398	1567.66779
803.811	1534.91728
804.224	1515.76994
804.637	1409.49325
805.05	1406.40293
805.462	1431.62492
805.875	1327.67264
806.288	1252.3396
806.7	1359.61161
807.112	1325.31258
807.525	1302.47739
807.937	1224.37572
808.349	1277.4911
808.761	1239.38276
809.173	1244.34397
809.584	1187.32499
809.996	1128.21179
810.408	1114.3387
810.819	1067.0199
811.231	1061.25605
811.642	1083.07513
812.053	1086.07341
812.464	1129.13344
812.875	1114.31111
813.286	1057.23978
813.697	1023.94628
814.108	1047.08681
814.519	922.6957
814.929	931.00498
815.34	876.79982
815.75	924.9844
816.16	836.78919
816.571	851.90534
816.981	794.61069
817.391	828.71027
817.801	754.63441
818.211	772.59094
818.62	723.5222
819.03	706.52314
819.44	725.67561
819.849	710.57945
820.259	710.60811
820.668	641.40668
821.077	593.32849
821.486	628.35064
821.895	624.38224
822.304	630.50677
822.713	517.1147
823.122	514.17652
823.531	521.12575
823.939	490.09767
824.348	505.12553
824.756	514.18123
825.164	536.23284
825.573	470.09114
825.981	491.12132
826.389	468.08863
826.797	448.04244
827.205	399.85554
827.612	408.94385
828.02	370.81782
828.428	385.925
828.835	395.98095
829.243	386.86421
829.65	324.76769
830.057	337.7767
830.464	300.69929
830.871	355.80381
831.278	299.69134
831.685	309.656
832.092	350.81196
832.499	261.5483
832.905	336.80961
833.312	292.63653
833.718	283.67741
834.124	267.58611
834.531	261.63499
834.937	250.62082
835.343	255.59359
835.749	307.68383
836.155	267.67473
836.561	231.55085
836.966	249.5883
837.372	243.59893
837.777	201.4883
838.183	197.42663
838.588	210.50758
838.993	207.49078
839.399	190.4537
839.804	186.44296
840.209	183.45587
840.613	135.29623
841.018	224.55099
841.423	179.44979
841.828	169.41932
842.232	195.47159
842.637	147.3414
843.041	153.38584
843.445	165.40625
843.849	116.2844
844.253	123.28916
844.657	90.22547
845.061	118.26498
845.465	178.42065
845.869	172.39131
846.272	89.21565
846.676	115.27551
847.079	105.26489
847.483	132.32518
847.886	152.3638
848.289	112.29623
848.692	118.29583
849.095	136.32215
849.498	130.32556
849.901	81.18521
850.304	152.35712
850.707	109.27557
851.109	119.29806
851.512	95.23201
851.914	61.15367
852.316	108.27085
852.718	38.09844
853.121	98.23849
853.523	88.20466
853.925	65.16935
854.326	38.09537
854.728	95.24274
855.13	90.23082
855.531	67.1599
855.933	77.18433
856.334	64.15941
856.736	11.0249
857.137	49.11421
857.538	75.18799
857.939	60.1482
858.34	98.23715
858.741	69.18002
859.142	61.14653
859.542	46.12159
859.943	66.16379
860.343	48.11908
860.744	65.15845
861.144	58.14152
861.544	29.07009
861.945	37.09464
862.345	53.12977
862.745	69.17114
863.145	82.19521
863.544	115.28763
863.944	70.16504
864.344	69.17108
864.743	126.3088
865.143	61.15658
865.542	79.18253
865.941	14.03493
866.34	100.2377
866.74	57.15296
867.139	34.08178
867.537	68.17293
867.936	48.11576
868.335	22.05632
868.734	70.17846
869.132	34.07939
869.531	80.19272
869.929	21.04823
870.327	55.13192
870.726	74.18398
871.124	53.12401
871.522	52.13257
871.92	53.13083
872.318	51.12483
872.715	54.13377
873.113	17.04173
873.511	66.16415
873.908	8.02037
874.306	34.0849
874.703	35.08792
875.1	68.1736
875.497	27.0651
875.894	37.09097
876.291	60.14716
876.688	17.04414
877.085	47.11299
877.482	30.07546
877.878	59.14194
878.275	33.08417
878.671	57.12697
879.068	53.12804
879.464	44.1066
879.86	13.031
880.256	53.13088
880.652	11.0282
881.048	55.13632
881.444	8.01922
881.84	9.02306
882.236	37.09334
882.631	50.12286
883.027	78.18811
883.422	-14.03623
883.817	12.03039
884.213	47.12077
884.608	16.03952
885.003	29.07027
885.398	24.06041
885.793	12.03036
886.188	-34.08588
886.582	63.16138
886.977	20.0478
887.371	58.14661
887.766	-10.02516
888.16	64.15947
888.554	36.08934
888.949	45.1132
889.343	41.10043
889.737	-31.08376
890.131	37.09311
890.525	30.07705
890.918	40.10093
891.312	40.09599
891.706	61.15985
892.099	50.12733
892.492	29.06294
892.886	1.00247
893.279	9.02311
893.672	52.13243
894.065	48.12034
894.458	31.07829
894.851	43.1056
895.244	33.08459
895.637	20.04849
896.029	24.05902
896.422	23.05653
896.814	30.07491
897.206	30.07178
897.599	89.21873
897.991	28.06804
898.383	10.02383
898.775	21.04773
899.167	-16.03783
899.559	36.09142
899.951	15.03563
900.342	62.15745
900.734	9.02251
901.125	54.14168
901.517	34.08376
901.908	27.06508
902.299	24.059
902.69	16.03803
903.082	25.06087
903.473	-1.00242
903.863	17.04365
904.254	15.03508
904.645	46.11458
905.036	-29.0713
905.426	63.144
905.817	35.08618
906.207	-14.03379
906.597	-12.02843
906.987	26.0677
907.378	23.05848
907.768	2.00533
908.158	64.15575
908.547	-1.00261
908.937	37.09521
909.327	34.08287
909.717	57.14462
910.106	9.0218
910.495	21.05273
910.885	25.06363
911.274	20.05029
911.663	56.14206
912.052	41.1014
912.441	19.0486
912.83	37.08522
913.219	11.02899
913.608	-8.01982
913.997	-9.02281
914.385	40.09581
914.774	51.12423
915.162	-24.05803
915.55	28.06806
915.939	8.02035
916.327	33.08266
916.715	-19.04903
917.103	41.10114
917.491	58.14336
917.878	9.02231
918.266	7.01829
918.654	24.06162
919.041	-30.0794
919.429	-42.10095
919.816	34.08647
920.203	-18.04423
920.591	26.06478
920.978	31.07622
921.365	30.079
921.752	-5.01205
922.139	-20.0441
922.525	5.01212
922.912	45.1099
923.299	-6.01507
923.685	25.06551
924.072	-14.03271
924.458	5.01249
924.844	-10.02503
925.231	-27.06382
925.617	1.00257
926.003	-13.0336
926.389	22.05579
926.774	14.03572
927.16	62.1537
927.546	-16.04132
927.931	1.00252
928.317	19.04406
928.702	43.10192
929.088	4.00955
929.473	32.0817
929.858	-52.12815
930.243	-3.00727
930.628	14.0343
931.013	8.01998
931.398	65.14911
931.783	54.14211
932.167	-11.0272
932.552	53.13275
932.937	24.05987
933.321	16.0404
933.705	-12.03059
934.09	65.16387
934.474	4.00959
934.858	31.08068
935.242	-17.03993
935.626	5.0129
936.009	0
936.393	34.08677
936.777	-6.01552
937.16	53.13785
937.544	47.11084
937.927	0
938.311	73.17748
938.694	66.1741
939.077	-28.06804
939.46	46.11307
939.843	14.02946
940.226	-13.03372
940.609	-13.03023
940.991	20.05119
941.374	-8.01977
941.757	13.0323
942.139	1.00227
942.522	6.01431
942.904	-4.00972
943.286	41.10436
943.668	33.08574
944.05	-24.05993
944.432	13.0323
944.814	30.07418
945.196	-13.03206
945.578	-67.16284
945.959	12.02834
946.341	36.08862
946.722	-12.02851
947.104	2.00483
947.485	41.0956
947.866	-5.01272
948.247	2.00509
948.628	27.06616
949.009	24.06175
949.39	32.07994
949.771	41.09556
950.152	19.0469
950.532	-22.05484
950.913	14.03401
951.293	7.01904
951.674	15.03652
952.054	-21.05271
952.434	-9.02258
952.814	-16.03856
953.194	37.09706
953.574	67.16454
953.954	-36.08692
954.334	-2.00503
954.714	-17.04195
955.093	70.1715
955.473	10.02519
955.853	42.10888
956.232	20.05508
956.611	-2.00485
956.99	-9.02286
957.37	-15.03866
957.749	37.08851
958.128	-1.00254
958.506	12.03133
958.885	-5.01274
959.264	10.02469
959.643	45.10252
960.021	5.01249
960.4	11.02513
960.778	26.06434
961.156	-15.03805
961.535	23.0539
961.913	15.03535
962.291	-10.02592
962.669	4.01022
963.047	32.08193
963.424	31.07938
963.802	-21.05232
964.18	48.12151
964.557	-11.02565
964.935	-8.01917
965.312	10.02622
965.69	44.11031
966.067	44.10728
966.444	39.09631
966.821	62.15951
967.198	14.0342
967.575	37.0912
967.952	47.11084
968.329	16.03918
968.705	10.02163
969.082	51.13077
969.458	-62.1519
969.835	0
970.211	-9.02334
970.587	8.02007
970.963	14.03614
971.339	33.08642
971.715	21.05271
972.091	-3.00746
972.467	30.0751
972.843	30.07472
973.219	33.07951
973.594	-9.02378
973.97	52.12375
974.345	-25.06069
974.721	22.05356
975.096	-1.00244
975.471	12.02868
975.846	17.0411
976.221	3.00768
976.596	25.06021
976.971	1.00249
977.346	-6.01412
977.72	14.03589
978.095	14.03641
978.469	12.02885
978.844	51.1282
979.218	-28.06811
979.593	9.02173
979.967	15.03678
980.341	8.01858
980.715	-9.02292
981.089	35.08786
981.463	-22.05125
981.837	-11.02718
982.21	20.04683
982.584	2.00487
982.957	14.03519
983.331	22.05229
983.704	-6.0149
984.078	17.04215
984.451	42.10507
984.824	4.00983
985.197	5.01225
985.57	22.05545
985.943	1.00249
986.316	49.12043
986.688	41.09905
987.061	47.11023
987.434	11.02886
987.806	4.00979
988.179	8.01903
988.551	15.03829
988.923	-6.01493
989.295	32.08023
989.667	-41.09965
990.039	-1.00249
990.411	-7.0163
990.783	-23.05373
991.155	-18.0438
991.527	61.14992
991.898	12.03011
992.27	-18.04508
992.641	-1.00253
993.012	23.05441
993.384	20.04798
993.755	-12.03093
994.126	10.02424
994.497	-21.05222
994.868	0
995.239	-10.02451
995.61	-13.03308
995.98	-31.07644
996.351	-44.11083
996.722	-12.02817
997.092	-28.0673
997.462	-48.11427
997.833	-11.02638
998.203	48.11642
998.573	7.01757
998.943	-10.02372
999.313	-25.06076
999.683	-6.01455
1000.053	12.02782
1000.423	-13.03196
1000.792	-15.03931
1001.162	8.01984
1001.531	-12.02992
1001.901	-26.0657
1002.27	-18.0408
1002.639	9.02316
1003.009	-14.0337
1003.378	2.00516
1003.747	-8.01911
1004.116	-30.07287
1004.485	-11.02659
1004.853	4.01022
1005.222	20.0507
1005.591	55.13046
1005.959	-38.08715
1006.328	-25.05712
1006.696	-10.02439
1007.064	-5.0127
1007.433	-16.04046
1007.801	35.08615
1008.169	-24.0614
1008.537	2.00447
1008.905	-12.02829
1009.273	18.04472
1009.64	-16.03865
1010.008	24.05749
1010.375	81.19553
1010.743	17.03951
1011.11	3.00716
1011.478	7.01746
1011.845	7.0166
1012.212	-37.08522
1012.579	12.02966
1012.946	13.03116
1013.313	32.07642
1013.68	27.06097
1014.047	-24.05799
1014.414	-35.08401
1014.78	-21.05285
1015.147	40.09691
1015.513	17.04121
1015.88	47.12022
1016.246	21.05211
1016.612	68.15508
1016.978	-3.00742
1017.344	-17.04252
1017.71	26.06368
1018.076	70.1644
1018.442	39.10049
1018.808	-11.02779
1019.174	-6.0152
1019.539	25.05783
1019.905	6.01427
1020.27	-36.09022
1020.636	10.02415
1021.001	31.07447
1021.366	-33.08047
1021.731	18.04653
1022.096	-35.08959
1022.461	0
1022.826	-5.01201
1023.191	40.10509
1023.556	38.08925
1023.92	41.10095
1024.285	28.0686
1024.649	0
1025.014	-4.01
1025.378	30.07567
1025.742	17.04246
1026.107	7.01597
1026.471	10.02352
1026.835	32.07956
1027.199	-44.10776
1027.562	33.07694
1027.926	2.00493
1028.29	23.05846
1028.654	-14.03261
1029.017	30.07399
1029.381	-30.07273
1029.744	23.05892
1030.107	26.06178
1030.471	-25.06069
1030.834	24.05487
1031.197	9.02184
1031.56	16.03799
1031.923	-3.00782
1032.286	27.06367
1032.648	25.06005
1033.011	-15.03486
1033.374	10.02368
1033.736	0
1034.099	4.00983
1034.461	0
1034.823	21.05254
1035.185	38.09582
1035.548	-4.00983
1035.91	-6.01452
1036.272	1.0023
1036.634	58.14162
1036.995	13.03076
1037.357	4.00981
1037.719	19.04645
1038.08	36.08567
1038.442	-5.01199
1038.803	6.01452
1039.165	-33.08447
1039.526	25.06067
1039.887	-6.0145
1040.248	-5.01244
1040.609	5.01245
1040.97	-34.08435
1041.331	53.13404
1041.692	3.00706
1042.053	10.02294
1042.413	6.0141
1042.774	42.10225
1043.134	49.11663
1043.495	-15.03813
1043.855	4.00978
1044.215	13.03247
1044.576	-11.02659
1044.936	36.08273
1045.296	41.10244
1045.656	4.00989
1046.016	24.05819
1046.375	-2.0049
1046.735	-23.05289
1047.095	13.03063
1047.454	28.05959
1047.814	-2.00485
1048.173	44.10519
1048.533	-9.02085
1048.892	-53.12963
1049.251	14.03535
1049.61	-56.1405
1049.969	20.04739
1050.328	4.00875
1050.687	-14.03445
1051.046	7.01717
1051.405	21.05249
1051.763	-19.04427
1052.122	4.01005
1052.48	-28.06961
1052.839	-54.12954
1053.197	-10.0238
1053.555	39.08907
1053.914	31.07605
1054.272	10.02434
1054.63	-23.05696
1054.988	25.05964
1055.345	-3.00653
1055.703	50.12027
1056.061	4.01037
1056.419	-39.10244
1056.776	38.0923
1057.134	13.0303
1057.491	33.08284
1057.848	2.00502
1058.206	13.03078
1058.563	-20.04471
1058.92	3.00698
1059.277	27.06685
1059.634	14.03315
1059.991	5.01207
1060.348	4.00912
1060.704	-8.01926
1061.061	22.05137
1061.418	23.05602
1061.774	-25.06253
1062.131	-32.08571
1062.487	-31.07359
1062.843	5.01256
1063.199	2.00501
1063.555	-15.03518
1063.911	28.07095
1064.267	4.00842
1064.623	-22.05412
1064.979	27.06422
1065.335	17.04087
1065.691	29.06974
1066.046	-32.07153
1066.402	-31.07154
1066.757	-13.03316
1067.112	42.10316
1067.468	-23.05504
1067.823	19.04592
1068.178	-11.02689
1068.533	44.10672
1068.888	37.08857
1069.243	6.01492
1069.598	8.01958
1069.952	-50.11481
1070.307	-36.09045
1070.662	4.00957
1071.016	-41.09352
1071.371	-9.0207
1071.725	21.05048
1072.079	25.06037
1072.434	-30.07393
1072.788	14.03355
1073.142	56.1375
1073.496	-22.05288
1073.85	26.06054
1074.203	8.01955
1074.557	11.02942
1074.911	62.14754
1075.265	-21.04947
1075.618	30.07347
1075.971	-2.0048
1076.325	8.02047
1076.678	-41.09541
1077.031	-30.06894
1077.385	14.03105
1077.738	-10.02283
1078.091	-32.07392
1078.444	18.04203
1078.796	12.02963
1079.149	22.05496
1079.502	-40.09607
1079.855	-17.04014
1080.207	30.07413
1080.56	-10.02609
1080.912	-19.04682
1081.264	16.03875
1081.617	14.03432
1081.969	-19.04848
1082.321	-11.02714
1082.673	-22.0509
1083.025	22.05243
1083.377	-16.03481
1083.728	8.0188
1084.08	-6.01512
1084.432	8.01943
1084.783	-6.0142
1085.135	-28.07111
1085.486	-58.13547
1085.838	2.00497
1086.189	-11.02698
1086.54	12.02884
1086.891	-7.01787
1087.242	42.10232
1087.593	72.17443
1087.944	24.05456
1088.295	17.03887
1088.646	-4.00979
1088.996	-25.06103
1089.347	15.03701
1089.698	-23.05508
1090.048	23.05996
1090.398	-6.01406
1090.749	9.02168
1091.099	-19.04833
1091.449	2.00502
1091.799	15.03776
1092.149	-72.1794
1092.499	31.07582
1092.849	-5.01282
1093.199	1.00253
1093.548	-14.03402
1093.898	21.05277
1094.248	41.10543
1094.597	-23.05941
1094.947	26.06957
1095.296	37.0915
1095.645	26.06784
1095.994	25.06028
1096.343	5.01267
1096.692	-30.0798
1097.041	-36.09874
1097.39	11.02776
1097.739	8.02093
1098.088	38.10192
1098.437	-35.09318
1098.785	25.06761
1099.134	17.04535
1099.482	34.09366
1099.83	44.11564
1100.179	-48.12717
1100.527	6.01605
1100.875	-5.01333
1101.223	22.05864
1101.571	1.00278
1101.919	-53.14077
1102.267	24.06778
1102.615	0
1102.962	10.0322
1103.31	-3.00965
1103.658	7.02256
