Data from N2 R8 sample 7_Subt2__2__17-31-00-909.txt Node

Date: Fri Aug 29 17:31:00 PDT 2025
User: uwsun
Spectrometer: HDX01956
Trigger mode: 0
Integration Time (sec): 5.000000E-1
Scans to average: 1
Nonlinearity correction enabled: true
Boxcar width: 0
Storing dark spectrum: false
XAxis mode: Wavelengths
Number of Pixels in Spectrum: 2068
>>>>>Begin Spectral Data<<<<<
194.03	432.12791
194.578	423.26277
195.127	421.23667
195.676	435.27965
196.225	427.04844
196.773	511.28222
197.321	710.67558
197.87	985.98903
198.418	1043.04335
198.966	945.90906
199.513	927.77188
200.061	890.75149
200.609	995.0461
201.156	925.50101
201.704	868.70494
202.251	959.96739
202.798	914.85017
203.345	969.83357
203.892	953.84009
204.438	970.75566
204.985	919.64247
205.532	998.00869
206.078	1019.87684
206.624	991.82971
207.17	994.72086
207.716	963.76463
208.262	1022.43131
208.808	929.73467
209.354	1005.827
209.899	1124.10902
210.445	1015.88531
210.99	971.75614
211.535	1067.84326
212.08	1050.79605
212.625	1067.99483
213.17	1053.00589
213.715	931.53113
214.259	1006.7463
214.804	1029.91609
215.348	1046.75673
215.892	1053.87199
216.436	1066.81767
216.98	1061.70915
217.524	960.71285
218.068	1013.9384
218.612	1022.95424
219.155	937.67644
219.698	1012.8068
220.242	944.82399
220.785	920.64637
221.328	891.73745
221.871	907.80798
222.414	938.81411
222.956	833.57044
223.499	876.51442
224.041	909.63624
224.583	917.50635
225.126	901.51039
225.668	926.73289
226.21	865.7114
226.751	845.41392
227.293	870.53992
227.835	889.68603
228.376	940.65897
228.918	920.81654
229.459	867.68819
230	865.60221
230.541	906.60214
231.082	893.67801
231.622	916.61567
232.163	836.58805
232.704	874.69096
233.244	863.67721
233.784	936.7749
234.324	809.36386
234.864	845.48044
235.404	903.65944
235.944	869.60323
236.484	988.88549
237.023	874.59359
237.563	856.52451
238.102	907.64347
238.641	935.82854
239.18	902.60332
239.719	931.80527
240.258	946.59773
240.797	929.6911
241.335	945.77242
241.874	884.24566
242.412	937.71172
242.95	924.67307
243.488	909.57371
244.026	888.5572
244.564	927.40517
245.102	965.60571
245.64	935.72439
246.177	859.47198
246.715	970.76189
247.252	921.60298
247.789	926.26889
248.326	841.55767
248.863	894.46804
249.4	999.67524
249.936	942.41315
250.473	920.61683
251.009	913.56979
251.546	934.5263
252.082	979.57119
252.618	972.58862
253.154	951.71552
253.69	963.60325
254.226	940.68915
254.761	935.5616
255.297	916.48594
255.832	948.67921
256.367	966.69613
256.903	923.49944
257.438	983.7166
257.972	1011.63378
258.507	1010.67764
259.042	946.50642
259.576	896.41675
260.111	1015.71976
260.645	1006.57139
261.179	966.66429
261.713	977.58217
262.247	1002.69263
262.781	942.42588
263.315	962.75882
263.849	1013.87879
264.382	1023.7119
264.915	988.69237
265.449	973.7428
265.982	1084.75768
266.515	1006.80805
267.048	1083.58844
267.58	1005.58666
268.113	991.52949
268.646	1024.85457
269.178	1040.64735
269.71	1074.64904
270.243	1047.71599
270.775	1022.92417
271.307	1015.79775
271.838	1087.86303
272.37	1045.87401
272.902	1065.72432
273.433	1011.57329
273.965	1079.89069
274.496	1028.88354
275.027	1069.9201
275.558	1073.86837
276.089	1047.84787
276.62	1087.01696
277.15	1083.93341
277.681	1080.63689
278.211	1126.96971
278.741	1027.5881
279.272	1062.70546
279.802	1092.96403
280.332	1094.81374
280.861	1095.87079
281.391	1032.65333
281.921	1130.92102
282.45	1124.00399
282.98	1074.04156
283.509	1112.72376
284.038	1137.77865
284.567	1110.81918
285.096	1115.89593
285.625	1097.72071
286.153	1084.77442
286.682	1167.80688
287.21	1123.88093
287.739	1161.87945
288.267	1121.88676
288.795	1226.25944
289.323	1102.771
289.851	1185.88094
290.378	1187.77503
290.906	1107.85302
291.433	1146.9891
291.961	1203.79697
292.488	1172.01181
293.015	1160.84052
293.542	1163.02864
294.069	1097.87422
294.596	1195.02264
295.122	1195.9142
295.649	1183.71604
296.175	1205.97399
296.702	1209.97728
297.228	1273.05149
297.754	1291.84181
298.28	1207.78459
298.806	1241.96249
299.332	1234.73509
299.857	1305.85152
300.383	1289.17206
300.908	1167.8818
301.433	1186.91421
301.958	1292.913
302.483	1280.07963
303.008	1309.10516
303.533	1381.34304
304.058	1387.04104
304.582	1302.93725
305.107	1304.22413
305.631	1346.90727
306.155	1307.89628
306.679	1368.95213
307.203	1388.95263
307.727	1393.02389
308.251	1401.15209
308.775	1377.97796
309.298	1359.98697
309.822	1388.19122
310.345	1422.02163
310.868	1413.03064
311.391	1433.1491
311.914	1488.22646
312.437	1469.94816
312.96	1428.98047
313.482	1469.02496
314.005	1446.18366
314.527	1479.35007
315.049	1606.34654
315.571	1519.82803
316.093	1588.22571
316.615	1554.0994
317.137	1613.82219
317.659	1639.19964
318.18	1659.18057
318.702	1646.02115
319.223	1680.65998
319.744	1608.86777
320.265	1652.11585
320.786	1658.17273
321.307	1765.26755
321.828	1734.92521
322.348	1768.05207
322.869	1781.03507
323.389	1786.05296
323.909	1788.95989
324.43	1920.20969
324.95	1796.9147
325.47	1838.15606
325.989	1836.99575
326.509	1935.75953
327.029	1958.83306
327.548	1982.8134
328.067	2013.05749
328.587	2067.23008
329.106	1974.83282
329.625	2048.48401
330.144	2063.86609
330.662	2090.85767
331.181	2146.90561
331.7	2077.8862
332.218	2175.59037
332.736	2220.8669
333.255	2223.81464
333.773	2181.8669
334.291	2349.11933
334.808	2290.59345
335.326	2379.62606
335.844	2372.66438
336.361	2373.0021
336.879	2469.63125
337.396	2399.76282
337.913	2489.54185
338.43	2575.41829
338.947	2507.64139
339.464	2629.16356
339.981	2602.5395
340.497	2644.72872
341.014	2650.61914
341.53	2645.26665
342.046	2663.59099
342.562	2696.6798
343.078	2864.32349
343.594	2751.41248
344.11	2855.33648
344.626	2945.52673
345.141	2839.10859
345.657	2967.06454
346.172	2914.28119
346.687	2949.0288
347.202	2966.90302
347.717	3101.08583
348.232	3076.29051
348.747	3043.9045
349.261	3001.63297
349.776	3124.91128
350.29	3198.99791
350.805	3309.04176
351.319	3305.73099
351.833	3179.60828
352.347	3233.74009
352.861	3302.63383
353.374	3306.62981
353.888	3443.70933
354.401	3450.45937
354.915	3458.27147
355.428	3491.68703
355.941	3560.34211
356.454	3657.21598
356.967	3554.42532
357.48	3624.26374
357.993	3633.50839
358.505	3652.40764
359.018	3818.31151
359.53	3885.15247
360.042	3808.92024
360.554	3806.23024
361.066	3789.20666
361.578	3788.80554
362.09	3880.05592
362.602	3872.73719
363.113	3945.85167
363.625	4083.64552
364.136	4060.58878
364.647	4060.61965
365.158	4146.65489
365.669	4240.69673
366.18	4183.65079
366.691	4167.43298
367.201	4185.64186
367.712	4210.4261
368.222	4304.37743
368.733	4332.16804
369.243	4412.15498
369.753	4640.19847
370.263	4715.23277
370.773	4697.30041
371.282	4734.12638
371.792	4679.94277
372.301	4982.01392
372.811	5077.16888
373.32	4982.75979
373.829	5083.85222
374.338	5398.8652
374.847	5529.924
375.356	5757.05888
375.865	5870.30695
376.373	6294.77673
376.882	6354.64383
377.39	6573.13492
377.898	6604.3959
378.407	6932.62539
378.915	7250.86811
379.423	7496.48981
379.93	7661.68705
380.438	7911.98629
380.946	8520.78204
381.453	8706.52193
381.96	9087.32896
382.468	9597.48404
382.975	10362.72771
383.482	10814.61264
383.989	10934.26862
384.495	11175.09924
385.002	11710.02578
385.509	12465.10457
386.015	13148.1198
386.521	13795.81412
387.028	14225.13532
387.534	14835.02524
388.04	15442.48726
388.546	15545.56233
389.051	16278.11492
389.557	17773.19494
390.063	19382.08847
390.568	19969.91568
391.073	20429.39457
391.578	21357.28725
392.084	21603.05759
392.589	22031.57227
393.093	23399.68856
393.598	25980.23935
394.103	28579.32437
394.607	31154.67213
395.112	33765.38454
395.616	35891.68018
396.12	38633.11728
396.624	42497.94402
397.128	42587.53717
397.632	41181.39556
398.136	39172.79427
398.639	36273.96993
399.143	32503.66402
399.646	28888.45294
400.15	25083.82847
400.653	20124.16724
401.156	13866.23708
401.659	5169.95759
402.162	1054.15589
402.664	0
403.167	0
403.67	0
404.172	0
404.674	0
405.176	0
405.678	0
406.18	0
406.682	0
407.184	0
407.686	0
408.187	0
408.688	0
409.19	0
409.691	0
410.192	0
410.693	0
411.194	435.30976
411.694	4082.94878
412.195	8864.71461
412.696	12089.80453
413.196	12760.96929
413.696	12863.67595
414.196	13703.56671
414.696	17261.84252
415.196	21764.24417
415.696	29583.19008
416.196	36460.31858
416.695	40057.39798
417.195	41392.74103
417.694	42311.08144
418.194	43882.52025
418.693	44704.85811
419.192	45402.14938
419.691	45678.73777
420.19	46397.77183
420.688	47201.82258
421.187	47041.73412
421.685	44445.48456
422.184	40764.94881
422.682	35800.08004
423.18	29774.95446
423.678	26135.33279
424.176	24371.55572
424.674	23007.5312
425.172	22089.65338
425.669	20885.56022
426.167	19572.4369
426.664	17807.29349
427.161	16407.81304
427.659	15112.4097
428.156	14003.2024
428.652	13316.88666
429.149	12658.0034
429.646	12311.50312
430.143	11474.85034
430.639	10944.40771
431.135	10181.4318
431.632	9743.12764
432.128	9035.83411
432.624	8464.74261
433.12	7954.59643
433.616	7850.95308
434.111	7330.36703
434.607	7185.42492
435.103	7120.4086
435.598	6997.93859
436.093	6770.645
436.588	6229.69645
437.083	6082.42296
437.578	5819.11666
438.073	5367.87294
438.568	5397.93385
439.062	5110.76506
439.557	5026.91048
440.051	4862.85851
440.546	4468.94629
441.04	4426.11924
441.534	4453.33055
442.028	4402.25918
442.522	4290.30646
443.015	4232.13136
443.509	4158.52533
444.002	3990.61678
444.496	3907.35999
444.989	3749.81738
445.482	3816.84898
445.975	3815.51832
446.468	3798.43125
446.961	3676.51219
447.454	3565.77447
447.947	3477.94612
448.439	3490.12597
448.931	3393.88104
449.424	3406.37768
449.916	3327.2766
450.408	3250.03684
450.9	3220.32898
451.392	3088.59241
451.884	3157.2752
452.375	2952.61694
452.867	3027.37206
453.358	2979.33294
453.849	2998.16418
454.341	2940.39764
454.832	2887.29271
455.323	2814.76041
455.814	2781.62543
456.304	2797.6449
456.795	2800.63507
457.285	2831.60868
457.776	2755.76587
458.266	2649.88004
458.756	2640.9937
459.247	2431.99032
459.737	2480.99466
460.226	2426.84814
460.716	2360.10576
461.206	2294.17998
461.695	2313.37862
462.185	2333.1599
462.674	2275.12598
463.163	2257.01941
463.653	2222.87796
464.142	2156.3246
464.63	2106.4352
465.119	2115.22734
465.608	2005.24799
466.096	2038.13214
466.585	2049.34097
467.073	1922.47491
467.561	1981.50419
468.05	1941.41161
468.538	1951.61586
469.026	1813.51961
469.513	1803.15331
470.001	1825.36804
470.489	1825.50557
470.976	1761.4598
471.463	1662.69394
471.951	1634.72727
472.438	1587.50436
472.925	1530.47317
473.412	1558.69459
473.899	1480.47385
474.385	1529.69527
474.872	1467.51009
475.359	1465.65515
475.845	1478.25199
476.331	1385.37177
476.817	1285.59899
477.303	1305.49244
477.789	1255.56228
478.275	1228.61476
478.761	1295.61836
479.247	1228.41624
479.732	1190.61466
480.218	1119.68578
480.703	1175.63317
481.188	1133.28148
481.673	1095.39359
482.158	1001.15897
482.643	1129.70094
483.128	1040.349
483.612	1058.43603
484.097	1015.51456
484.581	940.33845
485.066	925.39711
485.55	871.1595
486.034	925.19431
486.518	854.26058
487.002	819.29568
487.486	829.31608
487.969	800.28334
488.453	861.44077
488.936	807.17387
489.42	819.17011
489.903	793.3644
490.386	768.75319
490.869	714.04738
491.352	782.32001
491.835	722.9943
492.318	732.11548
492.8	748.02118
493.283	664.20389
493.765	708.22267
494.247	724.18679
494.73	620.96861
495.212	681.18375
495.694	611.02035
496.175	595.01045
496.657	644.10244
497.139	635.75357
497.62	525.91593
498.102	552.01772
498.583	572.07262
499.064	520.85112
499.545	530.8981
500.026	488.81704
500.507	500.87482
500.988	523.9892
501.469	444.85887
501.949	501.95222
502.43	447.81112
502.91	418.65278
503.39	512.98995
503.87	459.82528
504.35	509.92132
504.83	474.78489
505.31	459.86006
505.79	420.78211
506.269	411.75414
506.749	347.62514
507.228	357.6623
507.707	407.70062
508.187	453.84882
508.666	382.74353
509.145	320.59824
509.623	333.6264
510.102	417.79949
510.581	413.79489
511.059	397.79131
511.538	427.88593
512.016	387.73839
512.494	402.7806
512.972	330.63773
513.45	294.54773
513.928	394.76142
514.406	352.67535
514.884	377.78394
515.361	406.77445
515.839	364.66233
516.316	396.76198
516.793	419.85536
517.27	393.77023
517.747	331.69627
518.224	339.63769
518.701	339.6101
519.178	303.61547
519.654	329.64327
520.131	295.60332
520.607	314.64523
521.083	330.61328
521.56	325.62852
522.036	317.56845
522.512	349.70955
522.987	326.6306
523.463	337.65547
523.939	353.71179
524.414	365.68762
524.89	375.72417
525.365	348.64126
525.84	295.57597
526.315	287.57419
526.79	362.66338
527.265	395.72697
527.74	345.6915
528.215	380.72908
528.689	295.53854
529.164	374.65844
529.638	389.82438
530.112	366.70289
530.587	309.53814
531.061	357.70496
531.534	407.80596
532.008	389.76167
532.482	397.74166
532.956	339.71561
533.429	393.7797
533.903	434.7721
534.376	416.74046
534.849	376.71409
535.322	446.84953
535.795	432.85968
536.268	463.89542
536.741	451.87764
537.213	490.90434
537.686	461.90393
538.158	478.84644
538.631	510.99553
539.103	447.79998
539.575	517.84408
540.047	499.86779
540.519	524.99958
540.991	607.16613
541.463	511.99062
541.934	550.9882
542.406	545.02314
542.877	527.93738
543.348	567.08181
543.82	596.15073
544.291	616.11838
544.762	591.08951
545.233	612.19808
545.703	606.02446
546.174	664.177
546.645	629.14812
547.115	674.23695
547.585	723.24234
548.056	702.26712
548.526	779.33811
548.996	761.3602
549.466	851.51988
549.935	789.35533
550.405	823.27517
550.875	835.42004
551.344	867.49128
551.814	848.38839
552.283	821.26983
552.752	886.44194
553.221	874.30518
553.69	986.47328
554.159	886.53582
554.628	912.39179
555.096	971.71872
555.565	864.34559
556.033	923.53307
556.502	808.43512
556.97	801.28531
557.438	808.41065
557.906	796.40645
558.374	703.22337
558.842	676.24312
559.31	674.15455
559.777	621.17186
560.245	657.20357
560.712	644.16399
561.18	669.13156
561.647	603.05561
562.114	646.14146
562.581	653.26853
563.048	635.1509
563.514	628.21611
563.981	593.0779
564.448	631.10881
564.914	627.15486
565.381	611.10281
565.847	659.21393
566.313	628.15758
566.779	564.01858
567.245	630.1665
567.711	598.14466
568.176	561.00463
568.642	571.15488
569.108	548.09081
569.573	636.18936
570.038	609.00587
570.504	570.01475
570.969	609.22343
571.434	585.0106
571.899	535.02904
572.363	602.08515
572.828	615.11571
573.293	582.06296
573.757	550.01352
574.222	564.99881
574.686	614.07576
575.15	550.04855
575.614	578.05297
576.078	542.02075
576.542	545.99707
577.006	620.09656
577.469	601.19456
577.933	575.01653
578.396	580.10371
578.86	566.0697
579.323	515.99504
579.786	547.94276
580.249	534.97719
580.712	522.03992
581.175	512.0299
581.637	502.94738
582.1	509.91004
582.563	496.8701
583.025	494.98123
583.487	451.74245
583.95	438.77195
584.412	509.86647
584.874	513.01651
585.336	502.97341
585.797	448.79785
586.259	494.96064
586.721	411.80589
587.182	529.01307
587.643	456.85845
588.105	469.91918
588.566	446.77702
589.027	470.93355
589.488	398.76325
589.949	457.92234
590.41	464.7327
590.87	445.84824
591.331	486.8633
591.791	445.85195
592.252	381.73153
592.712	412.83324
593.172	449.838
593.632	511.91739
594.092	434.80618
594.552	462.82023
595.011	439.83558
595.471	497.91198
595.931	480.88011
596.39	491.96776
596.849	454.8778
597.308	439.79336
597.768	445.94593
598.227	500.99407
598.685	513.96981
599.144	447.87027
599.603	464.91347
600.062	384.67463
600.52	410.76311
600.978	468.92091
601.437	467.88672
601.895	440.77183
602.353	511.92777
602.811	500.90802
603.269	479.94855
603.727	497.97959
604.184	443.82557
604.642	495.99995
605.099	483.92337
605.557	459.93148
606.014	515.89658
606.471	566.13874
606.928	543.92787
607.385	631.20941
607.842	692.22929
608.299	810.43199
608.755	690.30137
609.212	648.12476
609.668	659.1297
610.125	750.40368
610.581	789.45101
611.037	696.25434
611.493	667.25637
611.949	639.22713
612.405	581.92639
612.861	691.29401
613.316	653.24381
613.772	677.23156
614.227	643.21345
614.683	733.22334
615.138	661.23224
615.593	694.27565
616.048	690.25621
616.503	814.56045
616.958	729.45008
617.412	738.37642
617.867	725.25177
618.321	784.24903
618.776	789.35533
619.23	768.41691
619.684	827.44731
620.138	847.52751
620.592	862.62482
621.046	940.6788
621.5	896.67995
621.954	927.58969
622.407	1040.70683
622.861	979.80661
623.314	1038.75555
623.768	1031.79219
624.221	1077.51223
624.674	1016.75535
625.127	1121.92356
625.58	1169.93385
626.033	1247.9439
626.485	1244.12808
626.938	1332.22378
627.39	1394.22463
627.843	1416.23578
628.295	1505.31879
628.747	1504.40705
629.199	1599.35109
629.651	1629.37264
630.103	1733.48038
630.555	1800.26608
631.006	1937.71317
631.458	2047.79751
631.909	2184.77427
632.361	2155.81859
632.812	2301.82356
633.263	2407.56155
633.714	2573.55761
634.165	2652.17458
634.616	2774.08438
635.067	3032.7247
635.518	3052.11731
635.968	3253.17664
636.419	3403.52922
636.869	3541.0175
637.319	3650.79388
637.769	3804.53138
638.219	4114.84171
638.669	4148.79392
639.119	4422.83621
639.569	4518.69652
640.019	4763.28677
640.468	4873.99761
640.918	5044.4243
641.367	5284.80843
641.816	5438.71629
642.265	5660.82434
642.714	5835.75337
643.163	6024.64688
643.612	6187.84354
644.061	6300.11168
644.51	6508.47503
644.958	6730.28309
645.406	6799.73591
645.855	7002.89592
646.303	7053.64385
646.751	7147.51308
647.199	7303.56883
647.647	7477.68968
648.095	7561.71769
648.543	7573.35777
648.99	7679.96147
649.438	7666.89985
649.885	7863.24395
650.333	7825.45747
650.78	7689.02574
651.227	7800.12438
651.674	7721.80602
652.121	7664.05669
652.568	7864.1614
653.015	7915.39849
653.461	7713.97894
653.908	7787.94738
654.354	7584.94305
654.801	7640.87995
655.247	7569.5909
655.693	7516.40678
656.139	7463.91413
656.585	7517.94124
657.031	7319.71609
657.477	7390.42764
657.922	7549.76493
658.368	7310.04215
658.813	7431.7799
659.259	7424.91471
659.704	7395.76029
660.149	7373.75636
660.594	7417.86692
661.039	7317.6358
661.484	7290.8778
661.929	7360.78425
662.373	7340.18674
662.818	7274.08127
663.262	7469.96359
663.707	7554.28264
664.151	7629.11549
664.595	7651.05611
665.039	7781.2893
665.483	7747.39199
665.927	7891.10771
666.371	7897.02762
666.814	8089.32175
667.258	8185.36128
667.701	8103.02224
668.145	8272.65548
668.588	8304.62693
669.031	8430.61279
669.474	8553.84242
669.917	8482.54654
670.36	8652.05882
670.803	8779.16123
671.245	8745.88814
671.688	8806.22887
672.13	8684.86275
672.573	8865.43012
673.015	8996.49528
673.457	8944.27739
673.899	8926.39934
674.341	8997.50751
674.783	8806.18528
675.225	8933.44258
675.666	8840.24094
676.108	8860.12141
676.549	8819.18546
676.991	8743.9386
677.432	8725.81737
677.873	8609.82506
678.314	8532.8054
678.755	8484.80542
679.196	8341.4543
679.637	8294.62625
680.078	8151.3318
680.518	8032.21418
680.959	7864.19351
681.399	7799.32069
681.839	7752.20497
682.28	7624.2105
682.72	7511.79468
683.16	7341.18224
683.6	7265.69979
684.039	7038.23085
684.479	7036.06026
684.919	6935.67656
685.358	7061.29376
685.798	6746.56374
686.237	6550.02721
686.676	6533.77092
687.115	6489.84636
687.554	6405.93178
687.993	6330.51981
688.432	6154.75754
688.871	6134.71346
689.309	6006.10403
689.748	5927.32297
690.186	5934.14842
690.625	5779.07093
691.063	5766.24189
691.501	5684.51777
691.939	5607.61864
692.377	5502.50364
692.815	5567.31694
693.253	5396.4642
693.69	5357.85633
694.128	5296.55837
694.565	5186.51418
695.003	5118.04299
695.44	5000.50558
695.877	5023.4421
696.314	4909.97452
696.751	4908.36339
697.188	4852.42733
697.625	4790.48008
698.061	4690.83341
698.498	4645.93674
698.934	4598.92017
699.371	4499.79504
699.807	4447.86718
700.243	4430.99786
700.679	4375.60578
701.115	4375.88439
701.551	4291.92162
701.987	4309.59803
702.422	4186.02344
702.858	4143.06998
703.294	4141.72935
703.729	4066.30594
704.164	4035.19401
704.599	3958.70242
705.035	3890.7551
705.47	3965.29268
705.904	3830.04592
706.339	3942.00824
706.774	3761.11109
707.209	3774.99818
707.643	3765.28526
708.078	3712.39815
708.512	3726.58027
708.946	3729.28913
709.38	3744.20043
709.814	3562.0269
710.248	3632.43314
710.682	3673.24371
711.116	3533.2931
711.549	3552.87342
711.983	3477.11298
712.416	3561.24755
712.85	3428.63813
713.283	3541.25312
713.716	3590.66947
714.149	3480.32536
714.582	3473.93787
715.015	3424.67675
715.448	3456.71524
715.881	3368.82409
716.313	3298.24237
716.746	3369.25469
717.178	3297.40598
717.61	3360.77184
718.043	3397.64302
718.475	3282.46545
718.907	3355.76699
719.339	3273.03498
719.77	3274.31089
720.202	3324.75134
720.634	3353.47089
721.065	3391.29742
721.497	3274.53958
721.928	3303.5414
722.359	3274.41704
722.79	3261.37735
723.221	3307.72359
723.652	3303.90831
724.083	3233.0152
724.514	3211.13469
724.945	3266.26324
725.375	3211.18262
725.806	3353.66253
726.236	3241.85501
726.666	3323.30272
727.096	3269.54797
727.526	3396.7703
727.956	3261.05257
728.386	3390.55543
728.816	3306.75031
729.246	3346.46144
729.675	3297.55529
730.105	3357.55787
730.534	3395.20977
730.964	3434.74055
731.393	3433.61831
731.822	3355.82092
732.251	3386.76883
732.68	3438.25263
733.109	3418.55068
733.537	3443.40346
733.966	3432.60223
734.395	3479.10186
734.823	3452.97008
735.251	3483.37844
735.68	3465.6672
736.108	3523.72534
736.536	3531.22891
736.964	3448.13914
737.392	3480.6508
737.82	3530.34533
738.247	3519.33459
738.675	3597.3026
739.102	3560.61505
739.53	3536.76174
739.957	3473.85291
740.384	3635.51858
740.811	3633.7156
741.238	3715.40563
741.665	3526.10713
742.092	3602.29295
742.519	3558.5436
742.945	3586.3276
743.372	3613.53832
743.798	3638.81926
744.225	3627.24717
744.651	3611.63935
745.077	3713.5642
745.503	3599.43943
745.929	3611.31499
746.355	3656.57173
746.781	3691.52537
747.207	3562.16624
747.632	3569.42805
748.058	3652.58685
748.483	3747.98927
748.908	3703.53881
749.334	3731.44563
749.759	3670.17319
750.184	3611.25749
750.609	3651.47509
751.033	3745.17508
751.458	3743.82494
751.883	3784.49678
752.307	3730.13887
752.732	3611.59181
753.156	3705.49025
753.58	3763.19648
754.005	3715.70029
754.429	3705.13661
754.853	3655.52431
755.277	3621.21349
755.7	3732.51601
756.124	3719.51712
756.548	3708.19071
756.971	3753.39341
757.394	3639.83041
757.818	3717.80013
758.241	3625.71186
758.664	3589.68368
759.087	3588.83227
759.51	3725.54081
759.933	3632.31705
760.356	3731.76766
760.778	3639.47288
761.201	3602.41103
761.623	3489.42297
762.046	3591.24433
762.468	3653.31071
762.89	3558.52705
763.312	3522.45607
763.734	3400.38026
764.156	3438.54977
764.578	3451.07523
765	3444.46502
765.421	3395.75144
765.843	3468.9951
766.264	3427.40412
766.686	3336.68862
767.107	3255.44542
767.528	3279.71803
767.949	3293.77798
768.37	3237.53297
768.791	3213.44232
769.212	3160.68755
769.632	3207.1908
770.053	3160.03575
770.473	3143.47853
770.894	3127.67777
771.314	3031.37299
771.734	3004.21512
772.154	2976.83844
772.575	3043.18379
772.994	2955.06394
773.414	2982.40258
773.834	2925.65034
774.254	2828.50441
774.673	2909.48417
775.093	2834.56916
775.512	2765.52975
775.931	2820.72373
776.351	2781.58169
776.77	2683.46512
777.189	2736.31762
777.607	2693.73747
778.026	2602.55628
778.445	2571.56854
778.864	2654.75525
779.282	2512.3298
779.701	2601.62733
780.119	2510.60543
780.537	2452.509
780.955	2425.61364
781.373	2379.42942
781.791	2379.93344
782.209	2398.06858
782.627	2335.76555
783.045	2369.04517
783.462	2362.60114
783.88	2227.59057
784.297	2292.47604
784.715	2196.52717
785.132	2168.20799
785.549	2103.32986
785.966	2102.35715
786.383	2162.28256
786.8	2100.97519
787.217	1987.99796
787.633	2012.25077
788.05	2040.04539
788.466	1998.98571
788.883	1975.32697
789.299	1885.9942
789.715	1934.07143
790.131	1878.12913
790.547	1886.15612
790.963	1819.06988
791.379	1863.19003
791.795	1868.75692
792.21	1708.7291
792.626	1733.80753
793.041	1726.95996
793.457	1683.92448
793.872	1689.73254
794.287	1622.72472
794.702	1610.83842
795.117	1585.84085
795.532	1568.85512
795.947	1609.74851
796.362	1570.68074
796.776	1568.61069
797.191	1510.70375
797.605	1428.46667
798.02	1433.59464
798.434	1456.33092
798.848	1421.62076
799.262	1318.51515
799.676	1381.54296
800.09	1326.50013
800.504	1343.47765
800.918	1237.20684
801.331	1320.70624
801.745	1224.16735
802.158	1246.4425
802.572	1236.33904
802.985	1227.3169
803.398	1182.21708
803.811	1171.42036
804.224	1157.30328
804.637	1046.0228
805.05	1059.97693
805.462	1067.13361
805.875	945.0681
806.288	946.90106
806.7	970.03607
807.112	967.84579
807.525	950.9616
807.937	910.89823
808.349	919.9445
808.761	925.91293
809.173	893.82696
809.584	903.88736
809.996	868.80656
810.408	800.7959
810.819	828.65911
811.231	824.84299
811.642	849.71886
812.053	953.87871
812.464	986.92886
812.875	935.01618
813.286	859.89962
813.697	789.58561
814.108	722.54771
814.519	703.36323
814.929	653.49059
815.34	638.38041
815.75	662.50114
816.16	668.48103
816.571	643.50068
816.981	624.31441
817.391	564.23309
817.801	514.1704
818.211	575.23678
818.62	527.1567
819.03	528.18196
819.44	523.25658
819.849	520.2017
820.259	543.27106
820.668	439.00358
821.077	415.96518
821.486	482.06864
821.895	479.09255
822.304	456.12616
822.713	445.97595
823.122	418.97694
823.531	384.85549
823.939	359.8274
824.348	373.85554
824.756	378.89387
825.164	371.88291
825.573	328.78435
825.981	357.83883
826.389	338.80795
826.797	366.86717
827.205	321.69989
827.612	352.82338
828.02	291.65383
828.428	284.69545
828.835	294.7436
829.243	308.70067
829.65	279.66682
830.057	227.53467
830.464	277.64861
830.871	330.75102
831.278	266.61907
831.685	260.55788
832.092	251.59371
832.499	227.48046
832.905	249.60987
833.312	199.44236
833.718	248.59761
834.124	182.40667
834.531	209.51343
834.937	230.57325
835.343	255.59359
835.749	246.55489
836.155	215.54837
836.561	188.45201
836.966	214.50904
837.372	215.53266
837.777	176.42957
838.183	195.42248
838.588	193.46799
838.993	175.41748
839.399	168.40285
839.804	94.22781
840.209	164.40995
840.613	122.26844
841.018	143.35701
841.423	93.2373
841.828	114.28569
842.232	167.40601
842.637	159.36839
843.041	108.27455
843.445	112.27845
843.849	121.29638
844.253	141.33031
844.657	75.1884
845.061	113.25401
845.465	97.23283
845.869	79.18311
846.272	79.19178
846.676	120.28721
847.079	96.24258
847.483	172.42059
847.886	126.30307
848.289	116.3066
848.692	110.27617
849.095	70.16792
849.498	154.38398
849.901	76.17396
850.304	130.30674
850.707	103.26068
851.109	117.29316
851.512	89.2176
851.914	44.11118
852.316	100.25115
852.718	38.09844
853.121	47.11547
853.523	70.16338
853.925	54.14095
854.326	77.19189
854.728	103.26282
855.13	60.15469
855.531	63.15047
855.933	94.2243
856.334	53.13227
856.736	41.09224
857.137	71.16476
857.538	35.08836
857.939	45.11145
858.34	76.18467
858.741	57.14901
859.142	71.17023
859.542	62.16344
859.943	46.11458
860.343	45.1117
860.744	50.12222
861.144	63.15357
861.544	6.01456
861.945	68.17299
862.345	76.1853
862.745	74.18338
863.145	67.15996
863.544	69.17401
863.944	83.1952
864.344	62.15392
864.743	109.26798
865.143	20.05171
865.542	47.10929
865.941	72.17777
866.34	74.17678
866.74	78.20858
867.139	-24.05836
867.537	70.17795
867.936	26.06297
868.335	68.17269
868.734	48.12285
869.132	62.14396
869.531	98.23527
869.929	5.01152
870.327	52.12479
870.726	88.21823
871.124	62.14482
871.522	54.13762
871.92	29.0719
872.318	42.10297
872.715	60.14847
873.113	18.04418
873.511	14.03515
873.908	-11.0281
874.306	90.22245
874.703	33.08293
875.1	63.16098
875.497	59.1414
875.894	-17.04221
876.291	48.11799
876.688	47.1214
877.085	58.13914
877.482	61.15257
877.878	7.01701
878.275	39.09937
878.671	80.17736
879.068	53.12804
879.464	43.10419
879.86	28.06658
880.256	82.20142
880.652	17.04353
881.048	62.15347
881.444	53.12625
881.84	38.09688
882.236	69.17308
882.631	28.06908
883.027	18.0439
883.422	29.07449
883.817	10.02533
884.213	11.02844
884.608	17.04198
885.003	1.00244
885.398	44.11035
885.793	49.12313
886.188	0
886.582	73.18666
886.977	51.12116
887.371	17.04329
887.766	4.01004
888.16	35.08767
888.554	37.09181
888.949	23.05809
889.343	62.15128
889.737	3.00806
890.131	25.06305
890.525	57.1457
890.918	9.02284
891.312	19.04578
891.706	61.15985
892.099	48.12228
892.492	22.04782
892.886	55.13457
893.279	0
893.672	12.03078
894.065	21.0529
894.458	49.12335
894.851	78.19031
895.244	17.0437
895.637	24.05814
896.029	33.08101
896.422	25.06142
896.814	20.05003
897.206	-29.07016
897.599	54.13357
897.991	30.07287
898.383	7.01669
898.775	16.0364
899.167	0
899.559	50.12666
899.951	59.13897
900.342	40.10198
900.734	-12.03013
901.125	49.12867
901.517	-5.01241
901.908	77.18384
902.299	7.01726
902.69	39.09229
903.082	41.09953
903.473	-34.08277
903.863	22.05644
904.254	-10.0235
904.645	53.13184
905.036	-33.08119
905.426	89.20236
905.817	10.02474
906.207	-60.14607
906.597	1.00236
906.987	34.08842
907.378	16.04073
907.768	28.07433
908.158	20.04907
908.547	-8.02088
908.937	9.02327
909.327	46.11186
909.717	64.16218
910.106	9.0218
910.495	51.12737
910.885	69.17426
911.274	37.09274
911.663	51.12949
912.052	-3.00748
912.441	21.0537
912.83	31.07148
913.219	36.09448
913.608	46.11282
913.997	16.04037
914.385	39.09343
914.774	18.04412
915.162	17.04079
915.55	29.07048
915.939	-13.03319
916.327	23.05771
916.715	9.02311
917.103	15.03718
917.491	35.08688
917.878	2.00496
918.266	24.06254
918.654	25.06417
919.041	-8.0211
919.429	-19.04547
919.816	14.03573
920.203	-9.02208
920.591	31.07717
920.978	30.07377
921.365	1.00265
921.752	42.10033
922.139	-4.00879
922.525	15.03628
922.912	54.13166
923.299	41.1021
923.685	-31.08201
924.072	59.13589
924.458	46.11408
924.844	14.03488
925.231	6.01409
925.617	-16.04118
926.003	26.06675
926.389	2.00509
926.774	19.04843
927.16	41.10203
927.546	13.0334
927.931	46.11491
928.317	2.00465
928.702	56.13239
929.088	-5.01196
929.473	11.02819
929.858	-44.10828
930.243	-9.02185
930.628	14.0343
931.013	16.03991
931.398	48.11049
931.783	61.16034
932.167	42.10286
932.552	41.10292
932.937	43.10689
933.321	-7.01775
933.705	8.02032
934.09	49.12388
934.474	15.03588
934.858	28.07291
935.242	3.00702
935.626	-16.04144
936.009	27.0721
936.393	19.04862
936.777	-3.00775
937.16	24.06273
937.544	32.07568
937.927	-10.02565
938.311	56.13659
938.694	50.13225
939.077	1.00242
939.46	36.08866
939.843	53.11056
940.226	21.05415
940.609	-17.03956
940.991	31.07918
941.374	-6.01482
941.757	21.05211
942.139	-26.05932
942.522	12.02858
942.904	6.01455
943.286	69.17476
943.668	24.06245
944.05	24.05941
944.432	20.04963
944.814	13.03224
945.196	17.04169
945.578	-35.08455
945.959	17.04011
946.341	71.17366
946.722	26.06133
947.104	-11.0266
947.485	25.05847
947.866	38.09595
948.247	-18.04597
948.628	34.08321
949.009	22.05662
949.39	18.04508
949.771	37.0863
950.152	-3.00744
950.532	-36.08996
950.913	55.13257
951.293	-17.04642
951.674	3.00732
952.054	46.11408
952.434	51.12659
952.814	8.01919
953.194	49.12827
953.574	47.11585
953.954	39.09283
954.334	36.08996
954.714	-15.037
955.093	23.05684
955.473	-24.06082
955.853	27.07018
956.232	44.12071
956.611	23.05546
956.99	30.07567
957.37	18.04613
957.749	-5.01206
958.128	28.07083
958.506	21.05475
958.885	58.14619
959.264	-6.01486
959.643	57.12955
960.021	-7.01753
960.4	27.06149
960.778	59.14511
961.156	2.00506
961.535	27.06323
961.913	25.0588
962.291	13.03357
962.669	8.02042
963.047	9.02313
963.424	13.03339
963.802	36.08875
964.18	37.09385
964.557	-7.01631
964.935	40.09497
965.312	9.0236
965.69	87.21642
966.067	6.01473
966.444	14.03473
966.821	15.03891
967.198	38.09241
967.575	66.16182
967.952	67.15739
968.329	43.10478
968.705	66.14107
969.082	26.06696
969.458	-25.06083
969.835	32.07817
970.211	41.10539
970.587	27.06751
970.963	54.13844
971.339	34.08902
971.715	40.10006
972.091	-25.06242
972.467	47.1173
972.843	2.00501
973.219	59.14146
973.594	15.03947
973.97	41.09778
974.345	6.01448
974.721	52.12588
975.096	29.07046
975.471	52.12332
975.846	32.07715
976.221	4.01024
976.596	-26.06323
976.971	11.02735
977.346	35.08174
977.72	34.08686
978.095	15.039
978.469	50.11935
978.844	47.11823
979.218	-11.02667
979.593	12.02896
979.967	39.09521
980.341	33.07625
980.715	37.09345
981.089	-15.03799
981.463	-18.0419
981.837	1.00247
982.21	60.13938
982.584	22.05342
982.957	4.01007
983.331	26.06175
983.704	19.04695
984.078	25.0619
984.451	84.20854
984.824	13.03188
985.197	41.09976
985.57	33.08302
985.943	41.10143
986.316	40.09847
986.688	6.01459
987.061	12.02834
987.434	37.09663
987.806	24.05849
988.179	14.03327
988.551	51.12935
988.923	5.01242
989.295	38.09516
989.667	-37.08986
990.039	-3.00748
990.411	6.01393
990.783	43.09915
991.155	-32.07808
991.527	44.10848
991.898	24.06008
992.27	-27.06773
992.641	51.12793
993.012	35.0826
993.384	18.0432
993.755	-2.00515
994.126	9.02182
994.497	-19.04723
994.868	-8.01859
995.239	12.02929
995.61	24.06067
995.98	28.06829
996.351	-14.03507
996.722	-8.01877
997.092	-49.11824
997.462	-19.04498
997.833	56.1326
998.203	5.01222
998.573	-15.03779
998.943	1.00237
999.313	7.01691
999.683	7.01694
1000.053	-6.01396
1000.423	-7.01719
1000.792	4.01045
1001.162	0
1001.531	0
1001.901	23.05761
1002.27	8.01804
1002.639	8.02059
1003.009	-10.02405
1003.378	33.08462
1003.747	4.00953
1004.116	-28.06799
1004.485	27.06481
1004.853	15.03823
1005.222	40.10104
1005.591	11.02631
1005.959	-33.07561
1006.328	10.02269
1006.696	-1.00243
1007.064	39.09829
1007.433	22.05525
1007.801	56.1373
1008.169	27.06846
1008.537	-17.03817
1008.905	-1.00235
1009.273	29.0719
1009.64	-19.04592
1010.008	-11.02652
1010.375	93.22399
1010.743	74.17006
1011.11	-3.00717
1011.478	22.05472
1011.845	26.06142
1012.212	29.06591
1012.579	25.06165
1012.946	18.0431
1013.313	27.06454
1013.68	5.01134
1014.047	-31.075
1014.414	-13.03107
1014.78	21.05245
1015.147	44.10652
1015.513	18.04362
1015.88	39.0999
1016.246	62.15268
1016.612	26.0598
1016.978	14.03453
1017.344	26.06452
1017.71	39.09528
1018.076	2.00476
1018.442	56.14387
1018.808	11.02768
1019.174	-14.03552
1019.539	87.19877
1019.905	-9.02146
1020.27	-26.06504
1020.636	25.06021
1021.001	27.06491
1021.366	-1.00242
1021.731	55.14128
1022.096	-13.03315
1022.461	14.03335
1022.826	21.05018
1023.191	16.04221
1023.556	19.04479
1023.92	20.04943
1024.285	42.10263
1024.649	45.11035
1025.014	75.18487
1025.378	-1.00254
1025.742	17.04246
1026.107	51.1153
1026.471	40.09354
1026.835	26.06471
1027.199	-29.07082
1027.562	-3.00704
1027.926	32.07849
1028.29	-11.02813
1028.654	-4.0093
1029.017	34.08379
1029.381	-16.03869
1029.744	-2.00515
1030.107	63.14863
1030.471	8.0193
1030.834	43.09793
1031.197	23.05567
1031.56	-7.01669
1031.923	33.08554
1032.286	13.03074
1032.648	23.05527
1033.011	-4.00928
1033.374	38.08949
1033.736	21.05546
1034.099	7.01719
1034.461	-33.08456
1034.823	-4.01005
1035.185	11.02787
1035.548	27.06596
1035.91	1.00242
1036.272	-2.0046
1036.634	18.04428
1036.995	10.02368
1037.357	4.00981
1037.719	5.01226
1038.08	6.01436
1038.442	-19.04568
1038.803	19.04587
1039.165	15.03807
1039.526	13.03162
1039.887	13.03131
1040.248	-33.08251
1040.609	34.08422
1040.97	-10.0247
1041.331	16.04073
1041.692	20.04694
1042.053	-1.0023
1042.413	23.05386
1042.774	51.12395
1043.134	86.20324
1043.495	21.05304
1043.855	24.05847
1044.215	-12.03011
1044.576	-46.11194
1044.936	8.01849
1045.296	20.05016
1045.656	10.02471
1046.016	58.13972
1046.375	-24.059
1046.735	-39.08997
1047.095	-19.04505
1047.454	26.05536
1047.814	-28.06827
1048.173	39.09333
1048.533	16.03689
1048.892	-21.05106
1049.251	35.08805
1049.61	7.01736
1049.969	8.019
1050.328	-4.00877
1050.687	10.0245
1051.046	6.01472
1051.405	14.03504
1051.763	-13.03025
1052.122	8.02009
1052.48	-7.01734
1052.839	12.02843
1053.197	5.01186
1053.555	83.18788
1053.914	9.02217
1054.272	24.05827
1054.63	-36.08937
1054.988	-25.06021
1055.345	6.01304
1055.703	47.11311
1056.061	4.01037
1056.419	13.03385
1056.776	45.10916
1057.134	-14.0328
1057.491	33.08284
1057.848	23.05751
1058.206	16.03786
1058.563	5.01112
1058.92	32.07398
1059.277	5.01243
1059.634	-6.01426
1059.991	65.15519
1060.348	5.0114
1060.704	-40.09691
1061.061	16.0374
1061.418	12.02929
1061.774	44.10868
1062.131	-6.016
1062.487	-12.02838
1062.843	42.1048
1063.199	19.04749
1063.555	-13.03048
1063.911	59.14869
1064.267	41.08564
1064.623	-9.02209
1064.979	61.14413
1065.335	29.06956
1065.691	55.13161
1066.046	36.07935
1066.402	13.02974
1066.757	14.03554
1067.112	31.0763
1067.468	-17.04063
1067.823	29.06995
1068.178	24.0583
1068.533	24.05843
1068.888	27.06476
1069.243	15.03723
1069.598	16.0391
1069.952	-11.02506
1070.307	21.05222
1070.662	-9.02159
1071.016	-66.15131
1071.371	-25.05769
1071.725	39.09343
1072.079	8.01938
1072.434	-12.02948
1072.788	44.10483
1073.142	45.11072
1073.496	15.0358
1073.85	-8.01875
1074.203	38.09234
1074.557	10.02675
1074.911	39.09322
1075.265	13.03042
1075.618	80.1941
1075.971	52.12356
1076.325	24.06123
1076.678	-1.00231
1077.031	-17.03897
1077.385	-18.04019
1077.738	0
1078.091	-41.09488
1078.444	15.03504
1078.796	8.01977
1079.149	25.06242
1079.502	-48.11546
1079.855	21.04922
1080.207	16.03963
1080.56	-7.01826
1080.912	32.07811
1081.264	8.0194
1081.617	-3.00738
1081.969	3.00763
1082.321	5.0123
1082.673	-63.14695
1083.025	-4.00958
1083.377	25.05391
1083.728	52.12117
1084.08	11.02763
1084.432	-17.04149
1084.783	59.13789
1085.135	-9.02278
1085.486	-36.08372
1085.838	12.02974
1086.189	-38.09368
1086.54	25.05994
1086.891	-24.06144
1087.242	8.01961
1087.593	34.08296
1087.944	0
1088.295	18.04115
1088.646	8.01953
1088.996	-42.10286
1089.347	21.05176
1089.698	-19.04547
1090.048	48.12461
1090.398	19.0443
1090.749	23.05527
1091.099	-14.03558
1091.449	46.11458
1091.799	-3.00758
1092.149	-32.07915
1092.499	-2.00492
1092.849	-4.01026
1093.199	67.16727
1093.548	-30.07312
1093.898	-19.04809
1094.248	67.1715
1094.597	-26.06719
1094.947	5.01343
1095.296	8.01989
1095.645	30.07823
1095.994	14.03383
1096.343	-3.00761
1096.692	-27.07178
1097.041	-20.05471
1097.39	18.04537
1097.739	-11.02887
1098.088	47.12587
1098.437	-31.08247
1098.785	4.01086
1099.134	36.09573
1099.482	21.05797
1099.83	22.05803
1100.179	-7.01842
1100.527	7.01872
1100.875	-7.01867
1101.223	-19.05099
1101.571	-24.06703
1101.919	-37.09801
1102.267	27.07621
1102.615	0
1102.962	15.04827
1103.31	-7.02252
1103.658	9.02899
