Data from N3 R4 sample 5_Subt2__5__12-06-48-236.txt Node

Date: Thu Sep 18 12:06:48 PDT 2025
User: uwsun
Spectrometer: HDX01956
Trigger mode: 0
Integration Time (sec): 5.000000E-1
Scans to average: 1
Nonlinearity correction enabled: true
Boxcar width: 0
Storing dark spectrum: false
XAxis mode: Wavelengths
Number of Pixels in Spectrum: 2068
>>>>>Begin Spectral Data<<<<<
194.03	120.34226
194.578	144.46033
195.127	141.44439
195.676	139.43981
196.225	177.45876
196.773	189.51262
197.321	243.65457
197.87	345.85026
198.418	347.86147
198.966	362.91748
199.513	371.90489
200.061	336.82428
200.609	367.93031
201.156	304.64356
201.704	316.77035
202.251	360.92114
202.798	342.85509
203.345	374.88749
203.892	365.88594
204.438	348.79293
204.985	411.9268
205.532	344.8728
206.078	366.85645
206.624	406.97155
207.17	432.95761
207.716	354.83551
208.262	310.59247
208.808	410.98187
209.354	387.91567
209.899	377.90854
210.445	355.85489
210.99	326.76974
211.535	369.83313
212.08	387.85592
212.625	342.82313
213.17	398.96872
213.715	362.79278
214.259	426.94078
214.804	352.82886
215.348	387.85306
215.892	434.9972
216.436	372.80952
216.98	324.6841
217.524	408.92698
218.068	420.00475
218.612	366.89386
219.155	377.85084
219.698	308.70889
220.242	352.83272
220.785	369.82803
221.328	312.74468
221.871	391.95045
222.414	345.81822
222.956	342.78367
223.499	304.65257
224.041	330.7221
224.583	299.60568
225.126	324.68049
225.668	333.77635
226.21	359.87008
226.751	361.76539
227.293	298.64906
227.835	357.83622
228.376	288.63181
228.918	317.75936
229.459	321.77099
230	339.78038
230.541	347.76106
231.082	402.92665
231.622	302.65665
232.163	305.70857
232.704	380.90589
233.244	327.77942
233.784	363.83728
234.324	372.79508
234.864	321.69455
235.404	330.74342
235.944	346.77723
236.484	352.84012
237.023	315.71297
237.563	383.84389
238.102	349.78766
238.641	335.80705
239.18	342.76761
239.719	334.80205
240.258	362.77203
240.797	354.80693
241.335	289.67882
241.874	386.7063
242.412	357.82869
242.95	373.85828
243.488	256.55783
244.026	383.84496
244.564	327.64239
245.102	389.8341
245.64	330.75436
246.177	314.66851
246.715	355.81394
247.252	359.77377
247.789	447.76211
248.326	407.92714
248.863	384.79903
249.4	410.87401
249.936	422.82726
250.473	390.87424
251.009	334.73116
251.546	389.82186
252.082	315.65123
252.618	395.83381
253.154	376.86052
253.69	339.72565
254.226	380.86443
254.761	374.79554
255.297	379.78213
255.832	347.78922
256.367	392.8715
256.903	436.90722
257.438	375.83423
257.972	361.76372
258.507	332.72863
259.042	397.81339
259.576	438.90733
260.111	367.80017
260.645	395.80344
261.179	404.89407
261.713	400.84492
262.247	375.81137
262.781	386.76778
263.315	358.82789
263.849	398.94551
264.382	391.84888
264.915	409.91437
265.449	406.93736
265.982	382.82175
266.515	427.9872
267.048	399.79567
267.58	374.76263
268.113	381.77884
268.646	344.8053
269.178	361.76672
269.71	445.91956
270.243	393.86266
270.775	406.98929
271.307	372.84007
271.838	417.92687
272.37	381.88718
272.902	386.82678
273.433	387.81226
273.965	391.90077
274.496	368.86922
275.027	422.99247
275.558	429.9871
276.089	446.04634
276.62	362.87125
277.15	435.00358
277.681	429.86225
278.211	357.83098
278.741	422.88044
279.272	378.82153
279.802	398.9386
280.332	411.91657
280.861	394.89192
281.391	377.81326
281.921	385.87279
282.45	372.87866
282.98	402.9956
283.509	408.87654
284.038	415.89522
284.567	438.95757
285.096	434.99162
285.625	399.84705
286.153	498.10417
286.682	443.95438
287.21	384.86752
287.739	431.95758
288.267	399.92212
288.795	416.02759
289.323	415.92051
289.851	473.03668
290.378	405.85079
290.906	426.9847
291.433	413.9749
291.961	428.92029
292.488	418.98001
293.015	445.98704
293.542	442.07153
294.069	497.14643
294.596	416.96044
295.122	475.06292
295.649	455.92758
296.175	423.96008
296.702	472.07894
297.228	445.00384
297.754	468.98117
298.28	511.08666
298.806	450.01659
299.332	512.05688
299.857	482.01754
300.383	477.12072
300.908	475.09212
301.433	478.09487
301.958	481.02409
302.483	423.99114
303.008	538.23695
303.533	480.15815
304.058	521.11902
304.582	467.03081
305.107	447.09602
305.631	486.02196
306.155	488.0568
306.679	540.16911
307.203	532.13753
307.727	496.09197
308.251	502.15223
308.775	555.24377
309.298	531.18308
309.822	484.13564
310.345	647.39483
310.868	550.22168
311.391	555.25854
311.914	535.24106
312.437	561.17349
312.96	595.27657
313.482	490.07062
314.005	551.26764
314.527	510.23526
315.049	584.35727
315.571	574.17926
316.093	598.3537
316.615	554.22191
317.137	594.17266
317.659	585.29603
318.18	568.23976
318.702	660.39034
319.223	585.07573
319.744	635.28748
320.265	597.32978
320.786	636.44506
321.307	599.35239
321.828	679.36616
322.348	611.307
322.869	665.42633
323.389	704.20929
323.909	667.36416
324.43	706.50362
324.95	658.35271
325.47	672.50411
325.989	668.42569
326.509	731.44529
327.029	715.44992
327.548	744.48442
328.067	713.54646
328.587	741.65695
329.106	718.43115
329.625	743.72808
330.144	767.56895
330.662	821.67801
331.181	800.65165
331.7	758.55087
332.218	772.46058
332.736	782.60652
333.255	813.67064
333.773	802.65504
334.291	876.90061
334.808	830.61796
335.326	862.65977
335.844	861.75032
336.361	929.06114
336.879	852.73711
337.396	952.97362
337.913	882.74874
338.43	923.76253
338.947	932.8978
339.464	949.7119
339.981	933.88221
340.497	946.98294
341.014	975.01029
341.53	938.7856
342.046	974.06953
342.562	994.09382
343.078	983.94607
343.594	1015.01544
344.11	1052.09147
344.626	1048.21732
345.141	1022.94108
345.657	1039.94048
346.172	1089.16567
346.687	994.9061
347.202	1132.09086
347.717	1159.236
348.232	1098.26175
348.747	1100.07395
349.261	1133.99805
349.776	1242.3436
350.29	1196.42877
350.805	1167.34464
351.319	1181.19842
351.833	1153.13981
352.347	1222.29792
352.861	1203.25603
353.374	1202.16778
353.888	1262.45311
354.401	1177.13922
354.915	1241.20494
355.428	1266.51542
355.941	1260.30733
356.454	1296.2222
356.967	1237.28035
357.48	1301.27997
357.993	1305.52552
358.505	1316.5041
359.018	1419.66239
359.53	1369.58957
360.042	1391.35001
360.554	1393.62873
361.066	1342.5402
361.578	1426.34817
362.09	1420.56647
362.602	1419.36803
363.113	1412.52623
363.625	1456.46116
364.136	1475.37554
364.647	1486.63355
365.158	1502.58706
365.669	1522.69353
366.18	1465.58217
366.691	1479.37137
367.201	1544.72986
367.712	1555.58818
368.222	1559.61179
368.733	1563.42726
369.243	1630.5784
369.753	1619.66926
370.263	1699.9187
370.773	1621.86454
371.282	1670.84817
371.792	1756.81291
372.301	1857.05467
372.811	1844.40916
373.32	1846.62785
373.829	1912.9976
374.338	1957.79152
374.847	2033.99327
375.356	2060.0976
375.865	2130.74
376.373	2253.0398
376.882	2304.59383
377.39	2284.3317
377.898	2286.42465
378.407	2452.10095
378.915	2596.95271
379.423	2620.25717
379.93	2722.27467
380.438	2869.47352
380.946	2942.29327
381.453	3095.47567
381.96	3257.43221
382.468	3431.30201
382.975	3680.51446
383.482	3638.93164
383.989	3853.81689
384.495	3947.07965
385.002	4171.30344
385.509	4374.03028
386.015	4766.82168
386.521	4880.4085
387.028	4989.32913
387.534	5205.81985
388.04	5453.48156
388.546	5574.8232
389.051	5774.71107
389.557	6292.8282
390.063	6813.60315
390.568	7146.96464
391.073	7166.55847
391.578	7526.13317
392.084	7766.92831
392.589	8019.96588
393.093	8646.96371
393.598	9463.39507
394.103	10283.62479
394.607	11298.47456
395.112	12131.51356
395.616	12903.31587
396.12	13925.62322
396.624	15384.42182
397.128	16684.90078
397.632	18442.98347
398.136	20067.60869
398.639	21374.63777
399.143	23877.38091
399.646	26686.53563
400.15	29728.80456
400.653	32893.58399
401.156	36949.20601
401.659	43207.25613
402.162	52773.34003
402.664	60793.02175
403.167	63977.72923
403.67	63769.22307
404.172	63919.58413
404.674	63858.43483
405.176	63738.15102
405.678	63977.72923
406.18	64011.81569
406.682	63863.44694
407.184	63926.60148
407.686	63841.39382
408.187	64025.8516
408.688	63892.51763
409.19	63833.37461
409.691	63977.72923
410.192	63945.6488
410.693	63713.09355
411.194	63812.32447
411.694	62456.89808
412.195	58066.43453
412.696	52173.02151
413.196	48677.08148
413.696	46955.01872
414.196	47394.82607
414.696	46588.83033
415.196	44379.02649
415.696	40699.0961
416.196	33062.73467
416.695	25459.20002
417.195	21778.92444
417.694	20600.74647
418.194	19367.09838
418.693	18106.37348
419.192	17481.8237
419.691	17131.91705
420.19	16852.89813
420.688	16311.36874
421.187	15521.40605
421.685	14674.89353
422.184	13316.50701
422.682	11491.96489
423.18	9773.17
423.678	8686.90965
424.176	8150.23697
424.674	7602.71653
425.172	7271.82343
425.669	6904.02875
426.167	6437.74556
426.664	5850.79077
427.161	5465.05793
427.659	4979.7159
428.156	4763.9573
428.652	4429.32835
429.149	4245.12706
429.646	4102.61127
430.143	3813.22313
430.639	3683.19085
431.135	3404.63386
431.632	3269.07379
432.128	3064.39928
432.624	2928.85409
433.12	2815.1
433.616	2667.88612
434.111	2595.28693
434.607	2514.30681
435.103	2438.64175
435.598	2523.62288
436.093	2341.10402
436.588	2214.89726
437.083	2155.85203
437.578	2035.93367
438.073	1865.15159
438.568	1933.13101
439.062	1822.49553
439.557	1698.72362
440.051	1703.58331
440.546	1641.57025
441.04	1588.71887
441.534	1531.82997
442.028	1593.73397
442.522	1544.66963
443.015	1407.17528
443.509	1445.60461
444.002	1417.59139
444.496	1428.22663
444.989	1359.49238
445.482	1370.57081
445.975	1373.36056
446.468	1347.1436
446.961	1340.14508
447.454	1242.12351
447.947	1220.26733
448.439	1295.44448
448.931	1325.28363
449.424	1328.60477
449.916	1279.406
450.408	1246.17919
450.9	1204.29156
451.392	1209.42804
451.884	1209.14565
452.375	1135.24586
452.867	1096.94815
453.358	1066.9543
453.849	1082.81742
454.341	1113.981
454.832	1076.83183
455.323	1141.27137
455.814	1061.9417
456.304	1001.88502
456.795	1002.85697
457.285	991.76239
457.776	1023.88046
458.266	1013.95891
458.756	905.78397
459.247	945.87336
459.737	984.96028
460.226	991.837
460.716	937.85921
461.206	852.72454
461.695	912.89064
462.185	848.70315
462.674	860.64877
463.163	901.674
463.653	903.57736
464.142	824.70276
464.63	840.72811
465.119	801.58684
465.608	868.70814
466.096	755.3974
466.585	764.49476
467.073	744.51601
467.561	725.5117
468.05	738.46494
468.538	796.6676
469.026	735.50884
469.513	696.26523
470.001	725.4401
470.489	716.4807
470.976	751.51192
471.463	685.50081
471.951	709.54169
472.438	668.37638
472.925	651.35062
473.412	623.34304
473.899	613.24564
474.385	608.3283
474.872	597.23954
475.359	645.40537
475.845	684.22008
476.331	545.03673
476.817	586.27748
477.303	598.23693
477.789	513.1089
478.275	525.18368
478.761	504.08779
479.247	591.16973
479.732	515.17055
480.218	496.1932
480.703	478.07909
481.188	504.98755
481.673	446.94413
482.158	442.87753
482.643	499.16702
483.128	522.10214
483.612	522.12815
484.097	432.96399
484.581	430.91942
485.066	446.00795
485.55	447.90837
486.034	466.92259
486.518	461.01415
487.002	340.77971
487.486	389.88186
487.969	341.78153
488.453	347.81407
488.936	419.87244
489.42	420.85837
489.903	390.90723
490.386	273.53757
490.869	439.88479
491.352	330.7501
491.835	346.66224
492.318	319.67753
492.8	380.73119
493.283	319.77316
493.765	337.78042
494.247	321.70671
494.73	345.71741
495.212	289.65227
495.694	313.69979
496.175	312.71178
496.657	312.70058
497.139	335.53425
497.62	305.69736
498.102	299.70915
498.583	260.61202
499.064	307.64863
499.545	265.5778
500.026	282.60848
500.507	277.60857
500.988	301.71664
501.469	244.58508
501.949	264.62482
502.43	269.62099
502.91	305.61303
503.39	247.58877
503.87	279.63021
504.35	267.59745
504.83	318.6567
505.31	233.54132
505.79	185.42539
506.269	189.42153
506.749	242.53157
507.228	242.54832
507.707	284.60385
508.187	246.56553
508.666	256.60964
509.145	219.4951
509.623	233.52589
510.102	211.49447
510.581	248.57559
511.059	246.5966
511.538	198.49619
512.016	267.61319
512.494	200.46659
512.972	229.5295
513.45	170.38738
513.928	238.55806
514.406	231.54726
514.884	242.60228
515.361	200.46493
515.839	233.51772
516.316	259.60481
516.793	214.52367
517.27	221.51405
517.747	205.51122
518.224	210.46865
518.701	219.46758
519.178	245.59116
519.654	181.41786
520.131	155.37642
520.607	168.40117
521.083	182.40163
521.56	180.41365
522.036	173.36745
522.512	248.58991
522.987	242.56212
523.463	203.46715
523.939	255.60924
524.414	236.52036
524.89	189.43928
525.365	198.43438
525.84	193.45158
526.315	216.50708
526.79	185.40646
527.265	245.54506
527.74	169.401
528.215	142.32541
528.689	155.33281
529.164	225.46517
529.638	168.41645
530.112	157.36173
530.587	194.40333
531.061	179.42293
531.534	156.36852
532.008	226.53179
532.482	202.4508
532.956	169.42176
533.429	225.53305
533.903	174.37207
534.376	175.37753
534.849	172.38624
535.322	163.37646
535.795	139.33008
536.268	208.48887
536.741	149.34713
537.213	205.45721
537.686	191.4553
538.158	217.47796
538.631	177.41869
539.103	172.37973
539.575	178.35702
540.047	118.25418
540.519	233.53768
540.991	156.37308
541.463	202.47218
541.934	184.4052
542.406	188.44049
542.877	177.39003
543.348	216.50589
543.82	207.48889
544.291	213.48232
544.762	209.48326
545.233	245.59986
545.703	217.46773
546.174	195.44031
546.645	229.53644
547.115	283.65435
547.585	257.5682
548.056	280.66089
548.526	262.59845
548.996	258.59359
549.466	295.68534
549.935	296.6761
550.405	274.5765
550.875	279.63535
551.344	261.59869
551.814	304.66381
552.283	342.70435
552.752	366.8083
553.221	337.70389
553.69	377.8
554.159	372.87424
554.628	407.86102
555.096	378.90767
555.565	376.77925
556.033	432.95881
556.502	361.82238
556.97	397.82479
557.438	331.73728
557.906	394.87085
558.374	369.80555
558.842	411.91998
559.31	366.77039
559.777	393.90212
560.245	344.74574
560.712	332.72034
561.18	408.84065
561.647	421.86607
562.114	491.02864
562.581	510.14864
563.048	497.03894
563.514	539.23358
563.981	537.11279
564.448	598.20489
564.914	623.28555
565.381	608.23743
565.847	642.32333
566.313	608.25708
566.779	636.26395
567.245	636.3039
567.711	709.48485
568.176	708.37915
568.642	726.60439
569.108	789.67365
569.573	760.51358
570.038	826.44063
570.504	862.63196
570.969	853.80007
571.434	926.69116
571.899	903.79001
572.363	942.78022
572.828	986.84901
573.293	978.83038
573.757	1084.00691
574.222	1004.81827
574.686	1088.99173
575.15	1041.03559
575.614	1187.19006
576.078	1036.96772
576.542	1088.96878
577.006	1039.88419
577.469	1071.13276
577.933	1119.00887
578.396	1033.98718
578.86	1120.09019
579.323	1113.14297
579.786	1029.78117
580.249	1115.08851
580.712	1009.01
581.175	1011.04653
581.637	994.84302
582.1	1037.7998
582.563	955.64222
583.025	966.94752
583.487	960.58905
583.95	865.53859
584.412	924.58158
584.874	852.76696
585.336	820.65895
585.797	830.51625
586.259	821.63409
586.721	741.50681
587.182	807.58385
587.643	741.45346
588.105	736.50988
588.566	704.26425
589.027	726.55562
589.488	681.37019
589.949	622.34919
590.41	653.12238
590.87	627.27355
591.331	688.30901
591.791	576.19827
592.252	602.25355
592.712	577.24481
593.172	598.21428
593.632	619.2201
594.092	530.06814
594.552	595.14578
595.011	493.03148
595.471	566.15338
595.931	550.11971
596.39	459.01734
596.849	448.96535
597.308	438.86025
597.768	457.09405
598.227	454.0077
598.685	468.98117
599.144	453.98806
599.603	424.92188
600.062	438.85092
600.52	446.93133
600.978	442.96795
601.437	435.91622
601.895	444.87697
602.353	414.84457
602.811	458.95215
603.269	416.92216
603.727	487.07235
604.184	489.01857
604.642	478.08128
605.099	457.9858
605.557	446.00344
606.014	441.87575
606.471	405.95195
606.928	466.95195
607.385	518.18664
607.842	444.94154
608.299	449.97021
608.755	468.044
609.212	477.97508
609.668	489.00728
610.125	495.09182
610.581	494.05797
611.037	448.92514
611.493	439.9482
611.949	487.08892
612.405	505.92947
612.861	470.99232
613.316	439.97495
613.772	417.88719
614.227	523.14357
614.683	430.83976
615.138	427.92899
615.593	432.92849
616.048	474.99418
616.503	429.96737
616.958	464.0721
617.412	484.05213
617.867	441.91007
618.321	456.85929
618.776	412.84088
619.23	432.93687
619.684	435.89487
620.138	385.82232
620.592	394.89337
621.046	472.02252
621.5	401.90019
621.954	370.76442
622.407	364.75303
622.861	369.84128
623.314	403.84696
623.768	431.94247
624.221	345.63397
624.674	378.81629
625.127	358.78138
625.58	352.74125
626.033	398.8064
626.485	309.70167
626.938	374.83425
627.39	392.85449
627.843	325.70771
628.295	343.74405
628.747	342.76887
629.199	318.68438
629.651	308.66913
630.103	289.63066
630.555	287.57339
631.006	306.6744
631.458	314.69956
631.909	227.48928
632.361	225.50016
632.812	291.6404
633.263	303.62193
633.714	323.64261
634.165	239.55087
634.616	220.50172
635.067	284.59386
635.518	276.62407
635.968	253.47309
636.419	265.55204
636.869	263.59553
637.319	226.50519
637.769	268.5748
638.219	232.52652
638.669	206.47358
639.119	188.43652
639.569	200.46457
640.019	254.56168
640.468	258.55264
640.918	238.5421
641.367	220.4743
641.816	202.434
642.265	234.52502
642.714	194.43098
643.163	205.45835
643.612	227.53654
644.061	254.51888
644.51	217.47997
644.958	244.51632
645.406	195.45179
645.855	169.39977
646.303	236.52384
646.751	223.49736
647.199	225.4908
647.647	181.40853
648.095	186.41149
648.543	213.41567
648.99	198.46101
649.438	222.49441
649.885	210.50662
650.333	246.45534
650.78	236.54861
651.227	242.56922
651.674	228.50061
652.121	208.49382
652.568	236.5564
653.015	166.40033
653.461	158.36672
653.908	172.38417
654.354	193.44538
654.801	186.42333
655.247	184.38612
655.693	192.48479
656.139	203.46846
656.585	163.37945
657.031	164.37582
657.477	231.48464
657.922	146.32435
658.368	181.43212
658.813	155.3437
659.259	214.50101
659.704	233.53125
660.149	170.38127
660.594	160.37034
661.039	214.47007
661.484	197.45153
661.929	184.41708
662.373	152.37266
662.818	171.41153
663.262	154.36365
663.707	184.45478
664.151	144.34333
664.595	133.31534
665.039	166.40124
665.483	161.39947
665.927	180.40984
666.371	189.43111
666.814	202.46364
667.258	198.46192
667.701	240.48895
668.145	215.51623
668.588	231.55064
669.031	188.4284
669.474	165.38532
669.917	182.38614
670.36	209.50393
670.803	233.54089
671.245	135.26984
671.688	198.46591
672.13	138.30543
672.573	183.4484
673.015	152.35768
673.457	181.38142
673.899	187.43823
674.341	163.38214
674.783	156.36437
675.225	146.35104
675.666	180.42768
676.108	169.35441
676.549	184.41488
676.991	215.45327
677.432	182.34867
677.873	175.38724
678.314	223.50989
678.755	212.50409
679.196	187.41327
679.637	153.35659
680.078	185.41807
680.518	185.41056
680.959	172.39716
681.399	174.41788
681.839	174.4096
682.28	197.4732
682.72	203.44694
683.16	236.56482
683.6	222.48415
684.039	193.38326
684.479	193.46077
684.919	198.44954
685.358	166.40124
685.798	161.40776
686.237	171.39525
686.676	196.42691
687.115	197.44754
687.554	208.47914
687.993	183.39072
688.432	231.50389
688.871	234.51292
689.309	258.58955
689.748	212.42188
690.186	192.43274
690.625	207.46759
691.063	169.39062
691.501	251.59257
691.939	230.55571
692.377	205.47816
692.815	258.60141
693.253	235.5343
693.69	230.48009
694.128	203.47442
694.565	195.4448
695.003	221.54271
695.44	239.54053
695.877	203.4593
696.314	209.42046
696.751	273.58464
697.188	268.58893
697.625	200.42915
698.061	193.44503
698.498	137.31502
698.934	170.39286
699.371	134.3072
699.807	230.51838
700.243	224.51722
700.679	186.39859
701.115	225.50119
701.551	174.38992
701.987	170.35769
702.422	219.50054
702.858	197.4519
703.294	237.51763
703.729	226.52537
704.164	117.27258
704.599	277.5832
705.035	229.48935
705.47	168.39425
705.904	199.442
706.339	227.49663
706.774	199.44714
707.209	246.54422
707.643	198.45483
708.078	234.54268
708.512	167.4051
708.946	196.44536
709.38	253.57056
709.814	215.46422
710.248	227.53051
710.682	207.47674
711.116	225.52397
711.549	155.38332
711.983	217.47837
712.416	259.58266
712.85	192.45689
713.283	215.48487
713.716	188.44789
714.149	189.41961
714.582	240.51141
715.015	180.42472
715.448	238.57156
715.881	214.43657
716.313	212.47273
716.746	210.47524
717.178	206.47415
717.61	220.53535
718.043	182.4321
718.475	212.49185
718.907	227.54027
719.339	188.40862
719.77	234.53343
720.202	183.44057
720.634	233.54495
721.065	188.42459
721.497	174.41008
721.928	150.35435
722.359	180.42175
722.79	203.46491
723.221	209.49572
723.652	206.50092
724.083	186.40014
724.514	201.44087
724.945	181.40636
725.375	190.4256
725.806	153.36388
726.236	213.52016
726.666	179.40468
727.096	211.49234
727.526	223.54904
727.956	170.37343
728.386	215.50227
728.816	170.41972
729.246	206.48643
729.675	138.32549
730.105	198.46265
730.534	146.32799
730.964	177.42371
731.393	189.44292
731.822	220.53635
732.251	177.43177
732.68	142.31664
733.109	199.46945
733.537	208.48601
733.966	181.43427
734.395	232.50789
734.823	235.48955
735.251	192.44069
735.68	194.45686
736.108	142.34258
736.536	184.41148
736.964	151.3365
737.392	169.40564
737.82	224.50671
738.247	192.43628
738.675	187.41897
739.102	152.36532
739.53	186.45955
739.957	224.55302
740.384	121.28168
740.811	121.29132
741.238	209.48902
741.665	168.37942
742.092	102.22717
742.519	154.36872
742.945	199.46234
743.372	177.42225
743.798	169.41564
744.225	158.35859
744.651	142.34258
745.077	162.38817
745.503	121.28235
745.929	162.37749
746.355	157.36649
746.781	103.24553
747.207	190.43138
747.632	189.44984
748.058	198.4775
748.483	145.32045
748.908	126.30398
749.334	172.4071
749.759	174.39762
750.184	149.34631
750.609	140.33047
751.033	186.41304
751.458	186.39394
751.883	156.36852
752.307	140.31735
752.732	163.40177
753.156	143.33905
753.58	161.36324
754.005	124.30063
754.429	195.44121
754.853	150.3601
755.277	186.42196
755.7	171.40684
756.124	131.31479
756.548	108.247
756.971	190.44221
757.394	105.26043
757.818	129.32218
758.241	166.40547
758.664	143.34819
759.087	184.39584
759.51	100.23916
759.933	130.304
760.356	159.39537
760.778	130.30841
761.201	139.32282
761.623	112.25718
762.046	124.27868
762.468	193.43899
762.89	114.26857
763.312	188.43945
763.734	118.27518
764.156	108.25849
764.578	147.32039
765	126.29627
765.421	78.19449
765.843	99.25172
766.264	84.19281
766.686	108.25898
767.107	90.21179
767.528	111.27702
767.949	120.29421
768.37	180.42702
768.791	90.20898
769.212	91.22332
769.632	103.23391
770.053	49.12534
770.473	59.13859
770.894	54.12949
771.314	117.26538
771.734	107.24062
772.154	75.18616
772.575	118.26128
772.994	86.18836
773.414	68.15696
773.834	60.14563
774.254	108.25434
774.673	123.29051
775.093	129.30987
775.512	88.2111
775.931	156.37963
776.351	134.32206
776.77	100.23806
777.189	125.28559
777.607	88.21815
778.026	124.29769
778.445	105.25843
778.864	61.15042
779.282	100.22972
779.701	63.15386
780.119	64.15825
780.537	82.19783
780.955	71.17424
781.373	97.2315
781.791	98.21518
782.209	65.14185
782.627	78.1999
783.045	68.14962
783.462	100.24699
783.88	71.17912
784.297	49.12034
784.715	63.15848
785.132	48.11243
785.549	59.14339
785.966	70.17111
786.383	68.1635
786.8	132.29276
787.217	100.231
787.633	85.20782
788.05	56.12612
788.466	114.25389
788.883	100.24898
789.299	16.03715
789.715	105.24694
790.131	108.25869
790.547	75.18098
790.963	59.14194
791.379	94.22978
791.795	80.17373
792.21	89.19883
792.626	71.1613
793.041	54.12915
793.457	89.21061
793.872	69.15523
794.287	102.23834
794.702	47.11054
795.117	88.21231
795.532	82.2006
795.947	48.11031
796.362	62.13986
796.776	80.1764
797.191	76.18023
797.605	73.16793
798.02	79.18521
798.434	123.26057
798.848	91.21934
799.262	60.14437
799.676	100.23431
800.09	63.14989
800.504	71.16542
800.918	54.11967
801.331	27.06739
801.745	90.19695
802.158	49.1177
802.572	91.21209
802.985	85.19546
803.398	109.24773
803.811	39.09532
804.224	43.10239
804.637	69.15936
805.05	19.04245
805.462	91.21343
805.875	40.10136
806.288	70.16421
806.7	-9.02192
807.112	38.08446
807.525	57.13364
807.937	66.15815
808.349	87.20803
808.761	58.13861
809.173	61.14352
809.584	61.14469
809.996	67.15806
810.408	31.07893
810.819	35.07997
811.231	74.19204
811.642	139.32995
812.053	151.35055
812.464	123.2774
812.875	119.293
813.286	104.25988
813.697	49.10748
814.108	80.18679
814.519	159.33698
814.929	91.22232
815.34	77.17748
815.75	81.20032
816.16	32.07633
816.571	93.23151
816.981	75.16769
817.391	31.0718
817.801	58.13988
818.211	88.20029
818.62	73.17008
819.03	56.13204
819.44	63.15609
819.849	14.03396
820.259	54.1321
820.668	59.14076
821.077	103.2476
821.486	91.20674
821.895	63.14753
822.304	44.11292
822.713	70.15816
823.122	83.19847
823.531	36.08117
823.939	95.22272
824.348	80.18525
824.756	63.15116
825.164	108.25829
825.573	19.0464
825.981	68.1612
826.389	89.21395
826.797	118.28759
827.205	108.23784
827.612	55.13006
828.02	46.10351
828.428	84.20526
828.835	62.15906
829.243	82.1855
829.65	74.17853
830.057	79.18275
830.464	105.24761
830.871	86.19795
831.278	50.11661
831.685	67.14225
832.092	31.07265
832.499	93.19451
832.905	76.18357
833.312	63.13475
833.718	109.26133
834.124	97.21159
834.531	53.12751
834.937	104.25649
835.343	82.18754
835.749	102.22283
836.155	49.12424
836.561	56.13291
836.966	15.03543
837.372	45.1101
837.777	56.13506
838.183	67.14138
838.588	65.15643
838.993	98.22791
839.399	42.09968
839.804	80.18737
840.209	97.23971
840.613	39.0832
841.018	49.11909
841.423	84.20717
841.828	79.19301
842.232	43.10085
842.637	138.31142
843.041	39.09737
843.445	23.05548
843.849	73.17435
844.253	86.19439
844.657	73.17802
845.061	122.26686
845.465	40.09328
845.869	102.22519
846.272	67.15763
846.676	19.04364
847.079	58.14352
847.483	93.2211
847.886	89.20465
848.289	75.1958
848.692	69.16675
849.095	51.11723
849.498	77.18426
849.901	34.07434
850.304	91.20707
850.707	26.06401
851.109	78.18818
851.512	70.16562
851.914	65.15898
852.316	89.21833
852.718	114.28919
853.121	59.13914
853.523	16.03589
853.925	68.17299
854.326	43.10462
854.728	51.12719
855.13	61.15345
855.531	73.16753
855.933	92.20821
856.334	100.24035
856.736	104.22316
857.137	62.13951
857.538	73.17775
857.939	104.24901
858.34	65.15018
858.741	37.09334
859.142	67.15326
859.542	58.14901
859.943	77.18327
860.343	42.10118
860.744	112.25965
861.144	88.20716
861.544	73.17068
861.945	48.1179
862.345	35.08215
862.745	92.22036
863.145	80.17876
863.544	112.27082
863.944	67.15141
864.344	46.10854
864.743	120.28227
865.143	67.16727
865.542	32.07044
865.941	110.26036
866.34	50.11343
866.74	76.19689
867.139	77.17904
867.537	60.14541
867.936	92.21219
868.335	80.19469
868.734	62.15291
869.132	97.21106
869.531	59.13507
869.929	55.12074
870.327	87.19893
870.726	74.17481
871.124	100.21985
871.522	42.10294
871.92	95.2236
872.318	58.13505
872.715	59.138
873.113	21.04918
873.511	56.13368
873.908	41.10181
874.306	123.29332
874.703	34.08128
875.1	17.04153
875.497	53.12143
875.894	92.21961
876.291	99.2321
876.688	69.17146
877.085	85.19295
877.482	67.16088
877.878	108.25077
878.275	50.12286
878.671	26.05374
879.068	57.13191
879.464	50.11605
879.86	89.20039
880.256	84.19458
880.652	35.08602
881.048	75.17584
881.444	45.10124
881.84	26.06386
882.236	79.18998
882.631	127.29716
883.027	52.12031
883.422	12.02958
883.817	35.08573
884.213	44.10908
884.608	98.23465
885.003	45.10335
885.398	70.16831
885.793	39.094
886.188	51.12176
886.582	88.21383
886.977	37.08382
887.371	43.10408
887.766	9.02187
888.16	35.08273
888.554	92.21523
888.949	73.17555
889.343	68.15808
889.737	54.14057
890.131	67.16137
890.525	69.17083
890.918	67.16168
891.312	42.09548
891.706	73.1837
892.099	69.16795
892.492	79.16025
892.886	72.16811
893.279	18.04433
893.672	83.20399
894.065	79.18962
894.458	55.13156
894.851	84.19489
895.244	37.09124
895.637	70.1619
896.029	113.2642
896.422	68.1569
896.814	23.05508
897.206	98.2253
897.599	112.26273
897.991	62.1447
898.383	40.09108
898.775	125.2692
899.167	89.20072
899.559	43.10392
899.951	43.0963
900.342	41.09953
900.734	48.11768
901.125	45.1132
901.517	52.12294
901.908	53.11982
902.299	55.1296
902.69	111.25064
903.082	90.20766
903.473	60.14009
903.863	-12.02965
904.254	106.23617
904.645	97.22661
905.036	74.17515
905.426	76.16273
905.817	37.08681
906.207	2.00456
906.597	108.24202
906.987	33.08197
907.378	77.18777
907.768	22.05668
908.158	60.13987
908.547	57.14406
908.937	4.00984
909.327	41.09552
909.717	52.12479
910.106	32.07363
910.495	17.04056
910.885	80.19461
911.274	54.12949
911.663	49.11855
912.052	69.16088
912.441	68.16746
912.83	19.04166
913.219	56.14065
913.608	56.13224
913.997	64.15569
914.385	110.24904
914.774	47.10967
915.162	100.22926
915.55	48.11053
915.939	53.12987
916.327	-1.0024
916.715	79.19623
917.103	57.13201
917.491	48.1137
917.878	97.22635
918.266	58.14415
918.654	72.17809
919.041	59.15055
919.429	47.10634
919.816	44.10732
920.203	64.15025
920.591	94.22275
920.978	123.28509
921.365	103.25957
921.752	63.14115
922.139	80.16454
922.525	49.11349
922.912	86.19906
923.299	70.16697
923.685	-3.00755
924.072	44.09454
924.458	62.14811
924.844	27.06456
925.231	60.13202
925.617	42.10431
926.003	86.20952
926.389	14.0342
926.774	28.06829
927.16	45.10727
927.546	93.23101
927.931	66.1567
928.317	64.1394
928.702	74.16597
929.088	112.25708
929.473	56.13832
929.858	81.19072
930.243	69.16019
930.628	74.17414
931.013	37.08854
931.398	50.10784
931.783	22.05551
932.167	96.22608
932.552	57.13666
932.937	58.13718
933.321	65.15797
933.705	-6.01452
934.09	32.0763
934.474	90.20086
934.858	78.19463
935.242	30.06657
935.626	68.16814
936.009	81.20937
936.393	63.15638
936.777	98.24134
937.16	67.16915
937.544	59.13045
937.927	53.13026
938.311	68.15746
938.694	101.25644
939.077	32.07372
939.46	47.10816
939.843	36.06967
940.226	58.14225
940.609	116.2547
940.991	35.08541
941.374	46.10884
941.757	51.12027
942.139	90.19237
942.522	51.11455
942.904	56.129
943.286	39.09518
943.668	114.28477
944.05	64.15119
944.432	34.08048
944.814	78.1814
945.196	41.09703
945.578	81.187
945.959	53.11743
946.341	55.12672
946.722	40.08946
947.104	48.11009
947.485	87.19235
947.866	39.09564
948.247	63.15426
948.628	-1.00231
949.009	18.04467
949.39	12.0287
949.771	54.11687
950.152	60.14136
950.532	66.16038
950.913	99.22628
951.293	45.11884
951.674	109.24994
952.054	101.24326
952.434	45.10768
952.814	43.09686
953.194	32.07985
953.574	65.15239
953.954	28.06321
954.334	98.23509
954.714	56.13162
955.093	102.23815
955.473	80.19366
955.853	44.10999
956.232	60.15859
956.611	58.1311
956.99	58.14067
957.37	66.16019
957.749	82.18285
958.128	50.12204
958.506	25.06296
958.885	62.14953
959.264	79.1876
959.643	131.28212
960.021	87.20739
960.4	63.13574
960.778	34.07929
961.156	33.07942
961.535	62.13625
961.913	109.24271
962.291	89.22156
962.669	68.16623
963.047	51.12608
963.424	125.30754
963.802	40.0949
964.18	31.07432
964.557	83.18029
964.935	93.2088
965.312	90.22588
965.69	12.02878
966.067	5.01163
966.444	32.07436
966.821	105.25853
967.198	57.1306
967.575	91.21126
967.952	100.22234
968.329	86.2008
968.705	115.23306
969.082	78.1947
969.458	101.23364
969.835	80.18561
970.211	64.1597
970.587	75.17899
970.963	27.06631
971.339	35.08887
971.715	68.163
972.091	77.18081
972.467	43.10148
972.843	118.28145
973.219	69.15625
973.594	25.06339
973.97	55.1215
974.345	76.17431
974.721	53.12085
975.096	69.16101
975.471	98.21925
975.846	49.11186
976.221	33.08104
976.596	109.25224
976.971	98.23205
977.346	79.17306
977.72	38.09282
978.095	73.1808
978.469	80.18075
978.844	61.14603
979.218	75.17446
979.593	67.15234
979.967	19.04373
980.341	103.22535
980.715	64.15511
981.089	58.13914
981.463	57.12487
981.837	67.15874
982.21	21.04558
982.584	55.12789
982.957	87.20882
983.331	22.0492
983.704	91.21593
984.078	71.16691
984.451	43.10093
984.824	47.11071
985.197	0
985.57	31.07364
985.943	32.07454
986.316	83.1907
986.688	85.19452
987.061	81.18118
987.434	104.26251
987.806	33.0757
988.179	45.1012
988.551	90.21672
988.923	20.04721
989.295	59.14043
989.667	76.17605
990.039	80.19228
990.411	14.03047
990.783	69.14873
991.155	70.16145
991.527	34.07879
991.898	46.11081
992.27	53.12722
992.641	95.22525
993.012	37.08105
993.384	13.02973
993.755	80.19643
994.126	92.21236
994.497	13.03085
994.868	57.12313
995.239	14.03262
995.61	33.08017
995.98	29.06767
996.351	63.15064
996.722	106.23539
997.092	41.09368
997.462	33.07503
997.833	48.10774
998.203	50.11417
998.573	74.17698
998.943	98.21898
999.313	46.10639
999.683	27.06261
1000.053	75.15958
1000.423	40.09251
1000.792	26.06436
1001.162	11.02596
1001.531	43.10207
1001.901	29.06926
1002.27	22.04604
1002.639	27.06606
1003.009	51.11568
1003.378	49.12083
1003.747	73.16288
1004.116	19.04369
1004.485	68.15483
1004.853	59.14119
1005.222	-34.082
1005.591	45.10186
1005.959	101.21583
1006.328	81.17347
1006.696	27.06233
1007.064	49.11712
1007.433	56.13296
1007.801	50.11537
1008.169	16.0386
1008.537	124.25665
1008.905	44.09889
1009.273	56.13132
1009.64	70.16158
1010.008	75.1697
1010.375	55.12516
1010.743	76.16068
1011.11	126.28701
1011.478	107.25331
1011.845	54.12042
1012.212	47.10287
1012.579	55.1296
1012.946	56.1256
1013.313	20.04532
1013.68	54.11472
1014.047	47.10717
1014.414	40.0903
1014.78	74.17651
1015.147	74.16808
1015.513	44.1016
1015.88	56.13633
1016.246	66.15343
1016.612	109.23252
1016.978	107.25037
1017.344	59.13995
1017.71	68.15696
1018.076	58.12885
1018.442	81.20003
1018.808	102.24497
1019.174	9.02169
1019.539	6.01267
1019.905	62.14031
1020.27	27.06402
1020.636	75.16845
1021.001	50.11495
1021.366	33.07652
1021.731	88.2195
1022.096	64.15639
1022.461	61.13813
1022.826	86.19582
1023.191	63.15899
1023.556	82.18111
1023.92	32.07483
1024.285	32.07413
1024.649	50.11651
1025.014	34.07992
1025.378	55.13362
1025.742	31.07336
1026.107	91.19345
1026.471	96.21017
1026.835	73.17275
1027.199	50.1155
1027.562	55.12038
1027.926	51.11854
1028.29	39.0951
1028.654	86.18621
1029.017	75.17639
1029.381	37.08512
1029.744	67.16387
1030.107	88.19729
1030.471	74.16972
1030.834	35.0747
1031.197	86.19637
1031.56	60.13407
1031.923	55.13702
1032.286	91.20221
1032.648	56.12581
1033.011	139.3036
1033.374	71.15659
1033.736	13.03321
1034.099	22.05169
1034.461	91.22116
1034.823	79.18868
1035.185	69.16436
1035.548	100.23201
1035.91	65.14803
1036.272	97.20962
1036.634	88.20442
1036.995	80.17677
1037.357	37.08695
1037.719	39.09118
1038.08	117.26441
1038.442	25.05687
1038.803	53.11938
1039.165	36.08695
1039.526	54.12489
1039.887	57.13002
1040.248	118.28037
1040.609	39.0914
1040.97	72.16712
1041.331	63.15403
1041.692	90.2031
1042.053	99.21083
1042.413	73.16025
1042.774	69.16044
1043.134	60.13413
1043.495	84.2012
1043.855	112.26006
1044.215	29.06881
1044.576	91.20808
1044.936	140.29781
1045.296	79.18789
1045.656	52.12065
1046.016	48.11009
1046.375	42.09764
1046.735	104.22672
1047.095	45.1007
1047.454	102.19938
1047.814	67.1537
1048.173	78.17408
1048.533	51.1113
1048.892	64.14731
1049.251	46.10989
1049.61	30.07115
1049.969	86.19137
1050.328	95.19341
1050.687	36.08343
1051.046	54.12514
1051.405	34.08044
1051.763	81.17871
1052.122	42.10041
1052.48	84.19667
1052.839	128.28838
1053.197	22.04965
1053.555	51.1079
1053.914	42.0981
1054.272	7.01593
1054.63	34.0801
1054.988	37.08515
1055.345	49.0984
1055.703	64.1472
1056.061	81.20179
1056.419	119.29796
1056.776	10.02294
1057.134	63.13585
1057.491	92.21936
1057.848	59.13957
1058.206	26.05759
1058.563	41.08572
1058.92	103.2224
1059.277	30.07115
1059.634	23.05109
1059.991	90.20501
1060.348	83.17821
1060.704	108.24948
1061.061	99.2122
1061.418	25.05841
1061.774	55.13
1062.131	41.10642
1062.487	59.13045
1062.843	49.11703
1063.199	46.10985
1063.555	53.11831
1063.911	42.10122
1064.267	104.19866
1064.623	89.208
1064.979	13.02843
1065.335	57.1286
1065.691	40.09023
1066.046	68.14087
1066.402	42.09028
1066.757	51.12362
1067.112	86.19953
1067.468	41.09409
1067.823	3.0068
1068.178	41.09424
1068.533	61.14105
1068.888	84.18917
1069.243	55.12995
1069.598	29.06717
1069.952	104.22595
1070.307	52.12408
1070.662	109.24793
1071.016	84.18079
1071.371	98.21146
1071.725	88.19737
1072.079	32.07404
1072.434	41.09594
1072.788	20.04506
1073.142	99.23129
1073.496	71.15967
1073.85	114.24789
1074.203	71.16431
1074.557	56.14538
1074.911	119.26508
1075.265	99.21687
1075.618	91.21118
1075.971	93.20905
1076.325	95.23201
1076.678	83.17975
1077.031	7.01486
1077.385	95.19561
1077.738	60.12813
1078.091	49.1073
1078.444	38.08309
1078.796	68.16039
1079.149	35.08388
1079.502	83.18757
1079.855	79.17496
1080.207	68.15914
1080.56	65.16234
1080.912	98.22548
1081.264	58.13398
1081.617	90.20923
1081.969	61.14848
1082.321	35.08167
1082.673	93.20407
1083.025	11.02493
1083.377	65.14515
1083.728	124.26975
1084.08	33.07864
1084.432	27.06224
1084.783	24.0527
1085.135	38.09206
1085.486	56.12281
1085.838	89.20923
1086.189	97.22546
1086.54	38.08642
1086.891	103.25295
1087.242	87.20524
1087.593	12.02767
1087.944	118.2532
1088.295	67.14386
1088.646	87.20461
1088.996	20.0467
1089.347	16.03756
1089.698	77.17515
1090.048	20.04989
1090.398	63.13772
1090.749	53.11977
1091.099	39.09567
1091.449	57.13661
1091.799	84.20028
1092.149	8.01915
1092.499	10.02354
1092.849	49.11989
1093.199	25.05976
1093.548	58.13473
1093.898	58.13829
1094.248	24.05889
1094.597	90.22245
1094.947	58.14943
1095.296	53.12615
1095.645	47.11709
1095.994	66.15101
1096.343	57.13806
1096.692	61.15696
1097.041	66.17521
1097.39	14.03369
1097.739	56.13979
1098.088	16.04126
1098.437	50.12868
1098.785	7.01819
1099.134	9.02279
1099.482	67.17849
1099.83	52.13168
1100.179	62.15873
1100.527	24.06099
1100.875	11.02848
1101.223	70.18009
1101.571	0
1101.919	88.22561
1102.267	39.10769
1102.615	6.01926
1102.962	-6.01926
1103.31	12.0385
1103.658	-4.01283
