Data from N3 R4 sample 8_Subt2__0__12-08-48-230.txt Node

Date: Thu Sep 18 12:08:48 PDT 2025
User: uwsun
Spectrometer: HDX01956
Trigger mode: 0
Integration Time (sec): 5.000000E-1
Scans to average: 1
Nonlinearity correction enabled: true
Boxcar width: 0
Storing dark spectrum: false
XAxis mode: Wavelengths
Number of Pixels in Spectrum: 2068
>>>>>Begin Spectral Data<<<<<
194.03	79.2267
194.578	79.2545
195.127	80.25404
195.676	92.29278
196.225	94.24712
196.773	111.30486
197.321	176.47929
197.87	259.64844
198.418	288.72272
198.966	288.73955
199.513	297.73442
200.061	228.57053
200.609	249.64444
201.156	278.59187
201.704	250.61697
202.251	258.67199
202.798	266.67424
203.345	322.77177
203.892	275.67878
204.438	266.61615
204.985	269.6242
205.532	253.6523
206.078	255.6097
206.624	326.79205
207.17	299.68117
207.716	283.67715
208.262	304.58184
208.808	316.77035
209.354	313.75121
209.899	282.69184
210.445	261.63973
210.99	302.7164
211.535	306.69978
212.08	335.74897
212.625	248.60754
213.17	328.80882
213.715	338.74398
214.259	303.68637
214.804	316.74931
215.348	317.70902
215.892	352.82209
216.436	280.62124
216.98	293.62285
217.524	293.68123
218.068	342.83216
218.612	278.69009
219.155	261.60301
219.698	298.68724
220.242	269.64661
220.785	292.66562
221.328	239.57843
221.871	278.69009
222.414	280.6724
222.956	197.46455
223.499	261.56546
224.041	226.5054
224.583	247.5063
225.126	288.60969
225.668	270.63729
226.21	263.64893
226.751	307.65858
227.293	215.47654
227.835	250.59786
228.376	207.46186
228.918	265.6411
229.459	265.64327
230	276.64336
230.541	268.59759
231.082	264.62531
231.622	231.50987
232.163	221.52195
232.704	274.66649
233.244	239.5793
233.784	235.55587
234.324	298.64713
234.864	270.59058
235.404	283.64368
235.944	270.61598
236.484	287.69353
237.023	216.49875
237.563	261.5898
238.102	249.57346
238.641	253.61898
239.18	253.57825
239.719	295.71366
240.258	260.56678
240.797	250.58184
241.335	234.55554
241.874	256.4838
242.412	308.72189
242.95	290.67838
243.488	229.50185
244.026	249.56475
244.564	298.58942
245.102	281.61658
245.64	241.56079
246.177	269.57831
246.715	311.71936
247.252	265.5827
247.789	279.49721
248.326	243.5719
248.863	290.61607
249.4	285.62404
249.936	323.64801
250.473	329.74677
251.009	260.57807
251.546	312.67031
252.082	262.5481
252.618	272.58967
253.154	260.60893
253.69	267.58043
254.226	306.70653
254.761	320.68868
255.297	269.56885
255.832	298.68451
256.367	286.64984
256.903	318.67908
257.438	331.74308
257.972	313.66913
258.507	253.56449
259.042	291.61052
259.576	318.67643
260.111	250.55861
260.645	289.60203
261.179	295.66771
261.713	326.69979
262.247	240.53427
262.781	336.67611
263.315	238.56351
263.849	283.68721
264.382	305.67431
264.915	312.71149
265.449	267.63351
265.982	281.61762
266.515	314.74227
267.048	292.59678
267.58	261.54589
268.113	291.60701
268.646	254.60511
269.178	216.47327
269.71	353.7445
270.243	394.86467
270.775	324.80161
271.307	262.60496
271.838	298.67875
272.37	287.68069
272.902	290.63405
273.433	337.71513
273.965	321.74985
274.496	281.67493
275.027	380.90103
275.558	297.70142
276.089	343.82256
276.62	257.63087
277.15	286.6808
277.681	274.57041
278.211	300.70617
278.741	284.61069
279.272	336.73678
279.802	289.69599
280.332	311.70793
280.861	271.62884
281.391	332.7231
281.921	256.59557
282.45	327.77913
282.98	310.78071
283.509	368.79742
284.038	304.6714
284.567	327.73169
285.096	344.80025
285.625	287.62417
286.153	365.83317
286.682	351.77113
287.21	280.646
287.739	328.74435
288.267	328.76875
288.795	326.8204
289.323	315.71326
289.851	344.7759
290.378	318.68085
290.906	321.7575
291.433	361.86077
291.961	331.72659
292.488	357.847
293.015	333.75585
293.542	409.99976
294.069	374.88544
294.596	358.8361
295.122	376.86017
295.649	379.786
296.175	294.68477
296.702	380.88642
297.228	329.76129
297.754	360.77276
298.28	377.8265
298.806	343.79336
299.332	400.84788
299.857	417.89452
300.383	369.88691
300.908	357.84177
301.433	374.87619
301.958	397.86227
302.483	323.77166
303.008	427.00304
303.533	370.91303
304.058	336.75167
304.582	371.83696
305.107	351.87775
305.631	419.89571
306.155	380.84342
306.679	390.87281
307.203	371.82225
307.727	383.86473
308.251	412.96443
308.775	464.05892
309.298	380.87456
309.822	379.90921
310.345	434.97964
310.868	444.00749
311.391	450.04175
311.914	442.04379
312.437	458.98139
312.96	416.92829
313.482	385.86144
314.005	423.99966
314.527	407.00439
315.049	469.11429
315.571	458.96699
316.093	464.07846
316.615	388.88691
317.137	463.94346
317.659	486.09851
318.18	405.91588
318.702	533.15368
319.223	462.87701
319.744	462.975
320.265	455.04272
320.786	535.24008
321.307	488.12631
321.828	486.02062
322.348	475.04544
322.869	520.14968
323.389	844.39645
323.909	512.08336
324.43	470.0515
324.95	507.07721
325.47	545.25132
325.989	589.27833
326.509	578.18322
327.029	577.20648
327.548	564.1717
328.067	589.31086
328.587	606.39238
329.106	562.16027
329.625	595.42381
330.144	608.28795
330.662	602.29077
331.181	637.36268
331.7	564.20398
332.218	607.19416
332.736	624.32707
333.255	658.39886
333.773	630.34972
334.291	687.55
334.808	656.33103
335.326	661.33355
335.844	704.48183
336.361	738.7033
336.879	735.538
337.396	726.58036
337.913	747.5273
338.43	745.48332
338.947	732.5577
339.464	725.38188
339.981	740.55837
340.497	742.62477
341.014	724.57733
341.53	770.52499
342.046	800.76507
342.562	819.79234
343.078	795.64242
343.594	793.65656
344.11	839.75119
344.626	809.80164
345.141	887.73945
345.657	860.67652
346.172	855.79327
346.687	847.68122
347.202	875.71992
347.717	865.78637
348.232	901.93872
348.747	867.72816
349.261	942.74296
349.776	934.89499
350.29	906.96156
350.805	953.00778
351.319	946.86358
351.833	950.85222
352.347	958.91814
352.861	1049.04066
353.374	954.82928
353.888	1037.12212
354.401	976.86435
354.915	1024.92135
355.428	1002.11162
355.941	1000.95076
356.454	988.83279
356.967	980.92252
357.48	1044.95223
357.993	1041.13988
358.505	1048.12203
359.018	1157.30859
359.53	1121.24693
360.042	1132.0442
360.554	1149.29576
361.066	1090.18819
361.578	1178.07051
362.09	1109.16071
362.602	1160.07055
363.113	1184.24038
363.625	1177.13707
364.136	1176.05088
364.647	1196.2763
365.158	1194.22215
365.669	1190.28449
366.18	1231.29967
366.691	1233.11197
367.201	1229.34771
367.712	1278.28553
368.222	1284.3092
368.733	1325.19701
369.243	1350.30302
369.753	1355.39357
370.263	1365.54955
370.773	1293.4762
371.282	1406.56414
371.792	1440.50844
372.301	1381.56565
372.811	1437.92199
373.32	1556.41001
373.829	1497.62119
374.338	1616.543
374.847	1610.66664
375.356	1636.76318
375.865	1751.5313
376.373	1776.75642
376.882	1816.21934
377.39	1810.00984
377.898	1895.15859
378.407	2032.92302
378.915	2140.82513
379.423	2115.06763
379.93	2224.12381
380.438	2285.30629
380.946	2418.20466
381.453	2478.3828
381.96	2635.40245
382.468	2806.34468
382.975	3007.60246
383.482	3045.06941
383.989	3113.91887
384.495	3160.29762
385.002	3330.66162
385.509	3570.35659
386.015	3835.3248
386.521	3994.87794
387.028	4184.77044
387.534	4296.3273
388.04	4507.0088
388.546	4493.41298
389.051	4721.26204
389.557	5121.36027
390.063	5556.95485
390.568	5714.29929
391.073	5838.71423
391.578	6076.24238
392.084	6304.69879
392.589	6454.3843
393.093	7051.91074
393.598	7600.86413
394.103	8358.59459
394.607	9170.81671
395.112	9895.4564
395.616	10425.04258
396.12	11244.47488
396.624	12558.34016
397.128	13507.60719
397.632	14988.50097
398.136	16360.08475
398.639	17276.24617
399.143	19292.83233
399.646	21907.11109
400.15	24192.70618
400.653	26989.37074
401.156	30331.85217
401.659	35248.63467
402.162	42850.27979
402.664	56628.58518
403.167	62923.57333
403.67	63769.22307
404.172	63919.58413
404.674	63858.43483
405.176	63738.15102
405.678	63977.72923
406.18	64011.81569
406.682	63863.44694
407.184	63926.60148
407.686	63841.39382
408.187	64025.8516
408.688	63892.51763
409.19	63833.37461
409.691	63977.72923
410.192	63945.6488
410.693	59254.29245
411.194	53727.43656
411.694	50617.64174
412.195	46782.11515
412.696	42406.26635
413.196	39199.60662
413.696	38451.5713
414.196	38914.52359
414.696	38225.27992
415.196	36290.58723
415.696	32929.15304
416.196	26587.54501
416.695	20625.8635
417.195	17521.77263
417.694	16692.87917
418.194	15861.27984
418.693	14645.79712
419.192	14261.94746
419.691	14031.20645
420.19	13719.25846
420.688	13260.61549
421.187	12638.23217
421.685	11979.06703
422.184	10903.87898
422.682	9326.07964
423.18	8079.19847
423.678	7146.66448
424.176	6563.6358
424.674	6242.54785
425.172	5878.01281
425.669	5609.44146
426.167	5202.26235
426.664	4713.38413
427.161	4417.63788
427.659	4073.19194
428.156	3797.47098
428.652	3615.64398
429.149	3452.41496
429.646	3354.90412
430.143	3119.38158
430.639	3025.31667
431.135	2813.63218
431.632	2699.103
432.128	2515.32857
432.624	2389.67358
433.12	2211.96467
433.616	2212.79026
434.111	2161.12263
434.607	2109.12908
435.103	2023.52619
435.598	2084.52564
436.093	1931.8933
436.588	1786.65937
437.083	1748.61439
437.578	1654.65681
438.073	1574.86466
438.568	1543.76662
439.062	1447.21562
439.557	1440.47444
440.051	1359.26728
440.546	1323.25852
441.04	1337.43968
441.534	1277.50748
442.028	1266.35888
442.522	1264.34474
443.015	1193.95857
443.509	1179.26711
444.002	1205.31943
444.496	1124.90565
444.989	1098.14377
445.482	1147.2686
445.975	1114.04526
446.468	1102.87525
446.961	1086.8628
447.454	1076.92137
447.947	1038.01492
448.439	1106.18278
448.931	1036.92201
449.424	1067.21986
449.916	1060.09961
450.408	1003.86574
450.9	984.97296
451.392	904.9431
451.884	940.78422
452.375	888.85885
452.867	924.71469
453.358	912.73603
453.849	904.59113
454.341	914.70955
454.832	827.50125
455.323	928.93921
455.814	829.60492
456.304	857.67027
456.795	807.56748
457.285	829.5354
457.776	822.58642
458.266	753.54584
458.756	697.44039
459.247	810.65588
459.737	834.71883
460.226	861.64712
460.716	748.54902
461.206	747.54798
461.695	719.55419
462.185	699.45163
462.674	747.47076
463.163	735.42132
463.653	733.33702
464.142	698.48271
464.63	666.42326
465.119	660.35013
465.608	708.44518
466.096	609.16773
466.585	631.27294
467.073	589.24194
467.561	609.30215
468.05	592.21466
468.538	630.36772
469.026	573.21873
469.513	583.08979
470.001	635.28748
470.489	568.21306
470.976	594.23852
471.463	542.22281
471.951	551.23783
472.438	522.11034
472.925	492.0564
473.412	495.09592
473.899	487.01755
474.385	498.11287
474.872	519.09604
475.359	495.1123
475.845	462.87231
476.331	453.88237
476.817	513.13536
477.303	469.99954
477.789	448.98356
478.275	443.01517
478.761	412.90835
479.247	457.9342
479.732	385.89966
480.218	434.05604
480.703	382.88092
481.188	408.81759
481.673	381.81801
482.158	418.83453
482.643	425.00803
483.128	427.92189
483.612	429.94721
484.097	368.83206
484.581	396.85296
485.066	384.88059
485.55	385.79344
486.034	333.6798
486.518	421.93576
487.002	285.6608
487.486	310.71406
487.969	280.6496
488.453	299.70805
488.936	314.66909
489.42	382.78744
489.903	288.68346
490.386	227.45183
490.869	353.72554
491.352	262.60375
491.835	325.6252
492.318	269.57757
492.8	346.67121
493.283	279.68131
493.765	268.62913
494.247	324.71287
494.73	316.66135
495.212	269.60961
495.694	297.66621
496.175	240.55549
496.657	286.64563
497.139	249.40686
497.62	228.52939
498.102	246.58942
498.583	167.40023
499.064	288.61102
499.545	237.51982
500.026	260.56366
500.507	203.45294
500.988	276.66028
501.469	222.53456
501.949	228.54338
502.43	214.49944
502.91	317.63538
503.39	240.57286
503.87	254.57667
504.35	232.52288
504.83	251.52613
505.31	234.54353
505.79	207.47388
506.269	210.46633
506.749	211.4665
507.228	234.53106
507.707	223.48046
508.187	231.53264
508.666	228.54588
509.145	224.50589
509.623	217.49138
510.102	230.53699
510.581	252.58441
511.059	198.48453
511.538	257.63716
512.016	248.57172
512.494	235.54445
512.972	275.63004
513.45	218.49194
513.928	218.51317
514.406	221.52458
514.884	256.63549
515.361	256.58852
515.839	279.614
516.316	298.69053
516.793	239.58213
517.27	223.5185
517.747	236.58521
518.224	235.52173
518.701	212.45332
519.178	262.63014
519.654	237.54103
520.131	263.6257
520.607	217.5133
521.083	211.4628
521.56	210.47969
522.036	218.45848
522.512	249.59217
522.987	247.57316
523.463	182.42059
523.939	231.55443
524.414	216.47826
524.89	197.45715
525.365	219.47832
525.84	193.45158
526.315	177.41869
526.79	256.55404
527.265	220.49199
527.74	197.46491
528.215	175.39837
528.689	160.34317
529.164	192.39988
529.638	146.36338
530.112	143.3304
530.587	196.40731
531.061	170.40237
531.534	182.42777
532.008	225.52954
532.482	196.43796
532.956	169.42176
533.429	240.56693
533.903	191.40692
534.376	176.3796
534.849	189.42293
535.322	200.4585
535.795	157.37153
536.268	213.50013
536.741	138.3222
537.213	173.3884
537.686	162.38832
538.158	234.51357
538.631	172.40726
539.103	189.41577
539.575	178.35702
540.047	204.4313
540.519	200.46457
540.991	195.46287
541.463	188.44066
541.934	155.34341
542.406	198.46301
542.877	199.43648
543.348	220.51485
543.82	204.48209
544.291	261.58523
544.762	227.523
545.233	244.59752
545.703	225.48414
546.174	231.51775
546.645	254.59208
547.115	223.52177
547.585	245.54303
548.056	258.61157
548.526	287.65225
548.996	271.62187
549.466	297.68971
549.935	279.63946
550.405	306.63929
550.875	320.72266
551.344	281.64197
551.814	332.72065
552.283	371.75909
552.752	337.74878
553.221	358.74427
553.69	400.84455
554.159	406.94779
554.628	434.91271
555.096	418.99606
555.565	382.79062
556.033	399.89166
556.502	423.95151
556.97	435.89608
557.438	432.94206
557.906	415.91324
558.374	467.9983
558.842	476.04918
559.31	440.91106
559.777	472.06422
560.245	482.0122
560.712	491.02728
561.18	559.11094
561.647	500.00849
562.114	575.18264
562.581	585.29764
563.048	649.31171
563.514	661.47613
563.981	624.26831
564.448	637.27212
564.914	683.39062
565.381	742.46467
565.847	721.4601
566.313	704.42466
566.779	754.45777
567.245	726.45851
567.711	827.68724
568.176	809.53854
568.642	843.81775
569.108	876.82323
569.573	904.74076
570.038	943.5948
570.504	989.81511
570.969	944.95268
571.434	1027.82847
571.899	972.89607
572.363	1053.9367
572.828	1046.93292
573.293	1122.02506
573.757	1128.06588
574.222	1084.92378
574.686	1132.04835
575.15	1117.14556
575.614	1167.16373
576.078	1124.0884
576.542	1106.99231
577.006	1144.01887
577.469	1180.29122
577.933	1166.06851
578.396	1102.0838
578.86	1128.10103
579.323	1165.21555
579.786	1090.85675
580.249	1139.12106
580.712	1074.10766
581.175	999.0277
581.637	1006.85977
582.1	975.71957
582.563	989.6855
583.025	954.92857
583.487	978.61093
583.95	905.59331
584.412	962.63011
584.874	894.83683
585.336	932.83769
585.797	891.60295
586.259	873.71679
586.721	809.61988
587.182	838.6328
587.643	811.56478
588.105	809.63257
588.566	826.4376
589.027	880.82345
589.488	813.58665
589.949	873.79325
590.41	809.33357
590.87	870.67038
591.331	865.57595
591.791	825.62227
592.252	866.69861
592.712	850.72755
593.172	898.70024
593.632	891.64554
594.092	902.66465
594.552	889.59281
595.011	864.66123
595.471	942.75769
595.931	1028.86844
596.39	999.96766
596.849	1012.91554
597.308	968.6642
597.768	1060.24468
598.227	1049.04163
598.685	1119.00784
599.144	1166.15707
599.603	1138.09676
600.062	1205.91831
600.52	1290.19192
600.978	1288.31642
601.437	1386.31324
601.895	1515.25582
602.353	1405.22902
602.811	1624.51355
603.269	1613.68983
603.727	1718.82234
604.184	1682.59682
604.642	1851.03308
605.099	1870.83445
605.557	1980.08215
606.014	1952.56036
606.471	2002.24689
606.928	2211.80502
607.385	2254.40334
607.842	2249.95907
608.299	2388.1001
608.755	2358.27258
609.212	2469.89166
609.668	2549.96283
610.125	2637.32937
610.581	2694.18292
611.037	2670.93666
611.493	2671.153
611.949	2726.41205
612.405	2898.45254
612.861	2777.07999
613.316	2854.32308
613.772	2881.06149
614.227	2907.3474
614.683	2901.64125
615.138	2958.1949
615.593	2865.13373
616.048	2988.04768
616.503	2933.40367
616.958	2869.5978
617.412	2896.26849
617.867	2916.92738
618.321	2855.50986
618.776	2843.84141
619.23	2743.17508
619.684	2804.90817
620.138	2742.04173
620.592	2667.36241
621.046	2683.21719
621.5	2573.29478
621.954	2481.83194
622.407	2504.83575
622.861	2453.30639
623.314	2403.92775
623.768	2408.14558
624.221	2347.30026
624.674	2231.9692
625.127	2136.9548
625.58	2152.8025
626.033	2123.67515
626.485	2000.00577
626.938	2076.03262
627.39	2051.93564
627.843	2012.84956
628.295	1871.76225
628.747	1875.90628
629.199	1850.69723
629.651	1751.65396
630.103	1718.63008
630.555	1722.32891
631.006	1639.61263
631.458	1597.61831
631.909	1556.40861
632.361	1514.46956
632.812	1551.51713
633.263	1549.3015
633.714	1458.14859
634.165	1410.48797
634.616	1391.42075
635.067	1467.27416
635.518	1368.40356
635.968	1373.87482
636.419	1438.22428
636.869	1298.31789
637.319	1360.32882
637.769	1288.15692
638.219	1307.31675
638.669	1197.20199
639.119	1280.32536
639.569	1241.28434
640.019	1291.2365
640.468	1245.09979
640.918	1209.20976
641.367	1194.0367
641.816	1202.02744
642.265	1250.217
642.714	1169.06904
643.163	1258.20027
643.612	1176.26186
644.061	1192.92178
644.51	1137.02986
644.958	1260.07661
645.406	1237.26903
645.855	1149.19558
646.303	1214.14514
646.751	1196.1285
647.199	1206.08364
647.647	1173.10832
648.095	1155.03678
648.543	1201.80258
648.99	1152.17227
649.438	1113.01844
649.885	1159.28599
650.333	1206.70826
650.78	1167.20866
651.227	1134.19755
651.674	1127.00472
652.121	1088.13819
652.568	1082.12538
653.015	1068.12825
653.461	1038.98584
653.908	1098.98189
654.354	1018.95969
654.801	1002.90119
655.247	1012.73639
655.693	979.11476
656.139	927.82739
656.585	993.92932
657.031	892.74228
657.477	980.71629
657.922	946.75037
658.368	916.87447
658.813	910.6987
659.259	892.80724
659.704	940.83443
660.149	854.64355
660.594	859.70902
661.039	920.7191
661.484	857.70109
661.929	854.66953
662.373	802.72451
662.818	796.68447
663.262	834.70576
663.707	807.76161
664.151	807.67542
664.595	770.59747
665.039	778.65926
665.483	768.6895
665.927	805.59849
666.371	776.55766
666.814	780.58009
667.258	785.61667
667.701	787.40316
668.145	790.68559
668.588	776.65284
669.031	736.48882
669.474	719.49321
669.917	734.36826
670.36	778.67
670.803	818.67602
671.245	700.21525
671.688	811.677
672.13	748.4427
672.573	761.66045
673.015	750.55593
673.457	752.38456
673.899	717.50294
674.341	655.38493
674.783	693.44491
675.225	741.57653
675.666	740.56519
676.108	712.31274
676.549	683.38053
676.991	660.25382
677.432	697.16883
677.873	624.24929
678.314	682.41282
678.755	681.47009
679.196	638.275
679.637	611.29291
680.078	633.29745
680.518	577.17397
680.959	648.35187
681.399	598.31744
681.839	607.3057
682.28	560.24958
682.72	544.10998
683.16	623.37802
683.6	593.18959
684.039	535.97778
684.479	577.27351
684.919	562.17948
685.358	518.16621
685.798	510.20837
686.237	474.0273
686.676	529.06881
687.115	489.04296
687.554	563.20262
687.993	500.99407
688.432	517.05742
688.871	505.0417
689.309	519.12142
689.748	492.91531
690.186	468.99503
690.625	529.11426
691.063	435.95202
691.501	514.14916
691.939	461.06283
692.377	457.0108
692.815	510.12754
693.253	456.99017
693.69	462.91467
694.128	441.98224
694.565	412.89846
695.003	421.99532
695.44	415.90481
695.877	430.92777
696.314	359.69727
696.751	441.91007
697.188	417.88757
697.625	425.8676
698.061	412.90835
698.498	397.8652
698.934	382.84539
699.371	351.76951
699.807	425.91954
700.243	344.77527
700.679	333.69091
701.115	410.87818
701.551	343.74183
701.987	333.67548
702.422	376.83212
702.858	384.84769
703.294	435.91018
703.729	361.81673
704.164	351.77988
704.599	403.82494
705.035	371.76837
705.47	323.73494
705.904	312.67666
706.339	349.74382
706.774	324.70928
707.209	359.77543
707.643	330.73794
708.078	330.75071
708.512	311.7339
708.946	268.60006
709.38	349.77157
709.814	300.63593
710.248	351.80025
710.682	355.79335
711.116	356.80755
711.549	257.62362
711.983	324.69819
712.416	345.76241
712.85	328.76003
713.283	331.72873
713.716	304.70806
714.149	236.51883
714.582	316.66223
715.015	242.56411
715.448	289.68728
715.881	333.66097
716.313	310.6772
716.746	303.67268
717.178	310.69866
717.61	327.77972
718.043	279.64997
718.475	283.64732
718.907	323.75452
719.339	263.56249
719.77	306.68739
720.202	275.65047
720.634	318.73131
721.065	274.60793
721.497	313.71766
721.928	265.612
722.359	225.52253
722.79	303.67995
723.221	249.58602
723.652	283.67819
724.083	306.64127
724.514	366.7748
724.945	285.62615
725.375	277.60934
725.806	255.59453
726.236	305.73201
726.666	295.65111
727.096	271.62486
727.526	304.73723
727.956	295.63093
728.386	299.68694
728.816	318.76364
729.246	322.74317
729.675	221.51283
730.105	268.61758
730.534	301.65462
730.964	242.5721
731.393	309.70707
731.822	344.81915
732.251	289.69019
732.68	279.60446
733.109	290.67199
733.537	311.71193
733.966	322.75174
734.395	324.69549
734.823	287.59095
735.251	265.59933
735.68	283.65487
736.108	248.58628
736.536	312.67926
736.964	258.56218
737.392	289.67776
737.82	309.68686
738.247	302.67088
738.675	340.7377
739.102	276.64766
739.53	333.80041
739.957	305.74174
740.384	314.70304
740.811	293.68231
741.238	330.75375
741.665	360.78109
742.092	275.59045
742.519	309.71786
742.945	366.82214
743.372	302.70312
743.798	292.70175
744.225	363.78944
744.651	299.69984
745.077	341.78905
745.503	317.71107
745.929	379.84522
746.355	296.67202
746.781	309.70735
747.207	377.82336
747.632	347.8007
748.058	363.84794
748.483	413.86147
748.908	347.80198
749.334	361.82305
749.759	366.80391
750.184	407.89752
750.609	325.73949
751.033	371.79208
751.458	346.70714
751.883	398.89584
752.307	363.78541
752.732	390.92081
753.156	389.87827
753.58	364.78707
754.005	320.74708
754.429	419.90462
754.853	349.80596
755.277	372.81193
755.7	364.83373
756.124	349.80371
756.548	332.72495
756.971	410.91264
757.394	305.72867
757.818	368.87897
758.241	384.89961
758.664	365.8516
759.087	394.80925
759.51	359.81584
759.933	350.78298
760.356	413.97905
760.778	341.77589
761.201	375.83008
761.623	353.77128
762.046	367.78354
762.468	380.8315
762.89	355.79695
763.312	444.98544
763.734	363.80553
764.156	372.84521
764.578	333.69708
765	358.80352
765.421	299.71543
765.843	393.94672
766.264	331.722
766.686	347.79401
767.107	372.82704
767.528	379.89952
767.949	313.73977
768.37	349.80083
768.791	306.68005
769.212	315.74074
769.632	312.6784
770.053	286.70087
770.473	307.68609
770.894	275.63156
771.314	300.65508
771.734	306.65997
772.154	284.67786
772.575	292.62303
772.994	282.59203
773.414	298.65622
773.834	244.57168
774.254	282.64153
774.673	344.77749
775.093	305.70801
775.512	276.63829
775.931	287.68122
776.351	331.76561
776.77	303.69306
777.189	234.52286
777.607	276.66053
778.026	273.63674
778.445	279.66453
778.864	214.51276
779.282	223.49962
779.701	230.54415
780.119	214.51452
780.537	199.46945
780.955	273.64475
781.373	232.53932
781.791	260.55138
782.209	203.43004
782.627	219.54732
783.045	240.50897
783.462	225.54291
783.88	223.54721
784.297	207.49343
784.715	247.60071
785.132	201.45663
785.549	202.47773
785.966	180.43097
786.383	197.46203
786.8	209.45609
787.217	258.57719
787.633	214.51061
788.05	218.47463
788.466	223.48541
788.883	189.46293
789.299	148.33466
789.715	224.51455
790.131	176.41608
790.547	169.40054
790.963	179.4208
791.379	167.40267
791.795	112.24157
792.21	179.39245
792.626	140.3136
793.041	138.32473
793.457	169.39373
793.872	133.29529
794.287	170.39192
794.702	108.25097
795.117	150.35764
795.532	154.37167
795.947	162.36378
796.362	124.27616
796.776	153.33219
797.191	142.33245
797.605	133.30228
798.02	111.25861
798.434	152.31996
798.848	150.3575
799.262	103.24582
799.676	156.36151
800.09	132.30989
800.504	120.27687
800.918	140.30468
801.331	74.18311
801.745	73.16032
802.158	99.23555
802.572	157.36116
802.985	136.30953
803.398	114.25883
803.811	71.17249
804.224	101.23781
804.637	112.25646
805.05	126.27526
805.462	94.22034
805.875	61.154
806.288	105.24463
806.7	53.1276
807.112	103.22583
807.525	51.11971
807.937	78.18647
808.349	58.13946
808.761	132.31098
809.173	93.21744
809.584	112.26304
809.996	41.09721
810.408	90.22677
810.819	75.16998
811.231	127.32656
811.642	152.3599
812.053	140.32572
812.464	124.2796
812.875	150.36721
813.286	107.26723
813.697	87.1893
814.108	95.22116
814.519	130.27726
814.929	121.29396
815.34	35.08135
815.75	115.28263
816.16	55.13061
816.571	106.26325
816.981	67.15005
817.391	84.1925
817.801	94.22515
818.211	85.19358
818.62	60.14015
819.03	99.23147
819.44	34.08469
819.849	50.12045
820.259	2.00494
820.668	61.14547
821.077	88.21215
821.486	50.11454
821.895	95.22107
822.304	74.18892
822.713	102.22896
823.122	72.17253
823.531	45.10128
823.939	95.22272
824.348	78.18069
824.756	103.24525
825.164	68.16387
825.573	41.09972
825.981	90.21245
826.389	122.29144
826.797	94.23012
827.205	109.23999
827.612	89.20907
828.02	30.06773
828.428	57.13998
828.835	84.21468
829.243	87.19661
829.65	101.24243
830.057	58.13473
830.464	101.23836
830.871	84.19343
831.278	51.11891
831.685	91.19219
832.092	53.12367
832.499	104.21699
832.905	51.12376
833.312	20.04317
833.718	101.24252
834.124	111.24142
834.531	120.28502
834.937	106.26133
835.343	74.16951
835.749	83.18205
836.155	54.13679
836.561	54.12821
836.966	60.14048
837.372	100.24217
837.777	58.13983
838.183	55.11636
838.588	87.20851
838.993	77.17982
839.399	65.15358
839.804	38.08973
840.209	75.18609
840.613	59.12532
841.018	45.10945
841.423	55.13637
841.828	89.21703
842.232	93.21599
842.637	105.23854
843.041	30.07502
843.445	28.06748
843.849	75.17906
844.253	90.20326
844.657	71.1732
845.061	130.28388
845.465	55.12789
845.869	65.14461
846.272	80.18774
846.676	26.05963
847.079	91.22381
847.483	64.15301
847.886	94.21593
848.289	59.15445
848.692	31.07546
849.095	91.20749
849.498	99.23591
849.901	77.16683
850.304	51.11699
850.707	14.03454
851.109	68.16437
851.512	58.13755
851.914	66.1614
852.316	56.13821
852.718	79.20165
853.121	84.19713
853.523	38.08484
853.925	38.09718
854.326	97.23362
854.728	51.12719
855.13	59.14847
855.531	51.11756
855.933	73.16585
856.334	36.08758
856.736	80.17255
857.137	89.19916
857.538	89.21606
857.939	105.25136
858.34	39.09058
858.741	38.09585
859.142	24.05538
859.542	46.11843
859.943	87.20668
860.343	44.10595
860.744	59.13822
861.144	89.20947
861.544	65.15221
861.945	20.04938
862.345	75.17467
862.745	37.08955
863.145	61.13684
863.544	98.2376
863.944	105.23545
864.344	105.24492
864.743	94.22223
865.143	102.25304
865.542	68.14855
865.941	66.15755
866.34	40.09093
866.74	86.22241
867.139	94.21784
867.537	40.09731
867.936	97.22349
868.335	27.06636
868.734	54.13338
869.132	30.0662
869.531	28.0645
869.929	52.11423
870.327	81.18544
870.726	60.14213
871.124	72.15922
871.522	36.08833
871.92	82.19349
872.318	42.0981
872.715	72.16798
873.113	41.09564
873.511	32.07674
873.908	51.12641
874.306	85.20418
874.703	63.14978
875.1	11.0269
875.497	43.09872
875.894	60.1441
876.291	64.15107
876.688	37.09248
877.085	53.12109
877.482	94.22455
877.878	81.18909
878.275	49.12043
878.671	20.0414
879.068	90.20691
879.464	74.17094
879.86	26.0593
880.256	52.12122
880.652	46.11282
881.048	65.15269
881.444	29.06546
881.84	73.17775
882.236	77.18524
882.631	96.22599
883.027	90.20666
883.422	24.05904
883.817	45.11002
884.213	92.22606
884.608	110.26277
885.003	50.11472
885.398	59.14216
885.793	48.1155
886.188	4.00964
886.582	61.14898
886.977	131.29109
887.371	49.11846
887.766	18.04366
888.16	31.07333
888.554	65.15287
888.949	52.12555
889.343	77.17869
889.737	48.12508
890.131	51.12321
890.525	56.13898
890.918	13.03169
891.312	26.0593
891.706	30.07608
892.099	77.18714
892.492	35.07171
892.886	11.02599
893.279	40.09811
893.672	43.10646
894.065	49.11829
894.458	42.10072
894.851	58.13526
895.244	61.14975
895.637	72.16646
896.029	54.12772
896.422	47.1089
896.814	37.08837
897.206	77.17777
897.599	102.23974
897.991	43.10073
898.383	85.19178
898.775	129.27758
899.167	83.18742
899.559	69.16594
899.951	73.16248
900.342	50.12118
900.734	103.24995
901.125	72.18025
901.517	58.13696
901.908	79.17766
902.299	67.15751
902.69	83.18849
903.082	97.22349
903.473	74.1723
903.863	41.10032
904.254	104.23181
904.645	75.17597
905.036	90.21236
905.426	88.18793
905.817	39.09147
906.207	-23.0527
906.597	92.20685
906.987	57.14097
907.378	66.16128
907.768	71.18136
908.158	52.12141
908.547	82.20632
908.937	30.07344
909.327	85.19632
909.717	15.03625
910.106	64.14631
910.495	35.08321
910.885	68.16579
911.274	62.14845
911.663	26.06318
912.052	80.18613
912.441	59.14554
912.83	75.16249
913.219	43.10825
913.608	91.21343
913.997	75.18207
914.385	105.23796
914.774	47.10967
915.162	100.22926
915.55	70.16048
915.939	35.08605
916.327	32.07639
916.715	56.13969
917.103	32.07448
917.491	58.13712
917.878	84.19651
918.266	19.04756
918.654	108.26538
919.041	61.15559
919.429	37.08389
919.816	77.18665
920.203	33.07794
920.591	73.17369
920.978	56.13152
921.365	55.1398
921.752	28.06319
922.139	117.23863
922.525	46.1066
922.912	44.10269
923.299	23.05535
923.685	5.01256
924.072	27.05822
924.458	66.15755
924.844	62.14726
925.231	77.16882
925.617	61.15097
926.003	57.13962
926.389	34.08274
926.774	78.18847
927.16	74.17542
927.546	88.21879
927.931	39.09308
928.317	122.26246
928.702	41.09258
929.088	132.30177
929.473	62.15297
929.858	81.19072
930.243	81.1876
930.628	57.13458
931.013	68.16176
931.398	79.16933
931.783	40.10061
932.167	95.22377
932.552	72.17213
932.937	44.10435
933.321	52.12669
933.705	5.01208
934.09	52.12351
934.474	42.09466
934.858	81.20201
935.242	31.06877
935.626	64.15836
936.009	50.12993
936.393	101.24896
936.777	103.25342
937.16	73.1841
937.544	34.07557
937.927	79.19322
938.311	85.19616
938.694	109.27636
939.077	66.15101
939.46	41.09447
939.843	85.16256
940.226	25.06169
940.609	135.29524
940.991	4.00982
941.374	23.05466
941.757	99.23129
942.139	84.17978
942.522	15.03394
942.904	52.11988
943.286	39.09518
943.668	92.23073
944.05	78.18376
944.432	21.04983
944.814	69.16076
945.196	80.18789
945.578	78.18018
945.959	55.12181
946.341	58.13356
946.722	76.1687
947.104	83.18902
947.485	90.19886
947.866	63.1538
948.247	106.25747
948.628	30.06897
949.009	36.08905
949.39	31.07387
949.771	20.0436
950.152	71.16691
950.532	81.19627
950.913	79.1813
951.293	26.06888
951.674	78.17997
952.054	119.28563
952.434	83.19718
952.814	79.17664
953.194	39.09719
953.574	86.2008
953.954	29.06546
954.334	83.19968
954.714	33.07791
955.093	81.1899
955.473	147.35136
955.853	52.1298
956.232	60.15859
956.611	54.12216
956.99	70.16939
957.37	20.04896
957.749	32.0721
958.128	89.21565
958.506	56.14024
958.885	38.09206
959.264	58.13829
959.643	93.20192
960.021	69.16505
960.4	40.08661
960.778	39.09086
961.156	52.1247
961.535	63.13842
961.913	74.16597
962.291	96.23868
962.669	34.08364
963.047	58.1432
963.424	76.18868
963.802	46.10901
964.18	33.07909
964.557	72.15676
964.935	51.11549
965.312	47.11887
965.69	41.09778
966.067	24.05562
966.444	9.02101
966.821	60.14896
967.198	25.05765
967.575	77.17925
967.952	73.16322
968.329	69.16164
968.705	107.21725
969.082	30.07554
969.458	64.14914
969.835	71.16502
970.211	65.16216
970.587	83.19778
970.963	27.06631
971.339	37.09391
971.715	82.19604
972.091	25.0593
972.467	40.09446
972.843	67.16137
973.219	87.19629
973.594	20.05075
973.97	48.10619
974.345	55.12667
974.721	12.02759
975.096	49.11479
975.471	44.09954
975.846	22.0505
976.221	45.11027
976.596	113.26129
976.971	108.25523
977.346	76.16659
977.72	41.10009
978.095	44.10955
978.469	69.15625
978.844	23.05546
979.218	79.18362
979.593	62.14111
979.967	4.00923
980.341	91.1996
980.715	96.23126
981.089	44.10583
981.463	47.10318
981.837	63.14938
982.21	63.1355
982.584	50.11638
982.957	70.16856
983.331	51.11337
983.704	80.19023
984.078	37.08756
984.451	28.06592
984.824	60.14097
985.197	44.10079
985.57	35.08308
985.943	35.08148
986.316	34.07889
986.688	73.16746
987.061	71.15914
987.434	94.23769
987.806	43.09844
988.179	44.09897
988.551	45.10929
988.923	79.18434
989.295	74.17563
989.667	43.10026
990.039	115.27456
990.411	33.07153
990.783	76.16357
991.155	56.12952
991.527	66.15198
991.898	45.10842
992.27	69.16512
992.641	67.15972
993.012	8.01763
993.384	24.05476
993.755	72.17705
994.126	86.19874
994.497	9.02137
994.868	39.08457
995.239	76.17494
995.61	51.12349
995.98	60.13915
996.351	34.08175
996.722	106.23539
997.092	20.04589
997.462	43.09757
997.833	60.13435
998.203	29.0665
998.573	61.14625
998.943	87.19484
999.313	68.15658
999.683	80.18355
1000.053	25.05377
1000.423	60.13822
1000.792	10.02483
1001.162	22.05181
1001.531	75.17694
1001.901	43.10243
1002.27	-2.00421
1002.639	15.03678
1003.009	65.14701
1003.378	34.08407
1003.747	58.12982
1004.116	59.13458
1004.485	70.15932
1004.853	9.02174
1005.222	-13.03123
1005.591	107.23914
1005.959	23.04998
1006.328	106.22578
1006.696	39.08982
1007.064	16.03849
1007.433	30.07158
1007.801	16.03717
1008.169	33.07936
1008.537	74.15488
1008.905	54.12111
1009.273	60.14059
1009.64	37.08597
1010.008	60.13617
1010.375	44.10035
1010.743	44.09368
1011.11	88.20199
1011.478	111.26257
1011.845	73.16214
1012.212	93.20158
1012.579	59.13892
1012.946	43.0967
1013.313	71.15921
1013.68	80.16899
1014.047	43.09813
1014.414	32.07236
1014.78	96.22801
1015.147	25.05735
1015.513	45.10389
1015.88	67.16277
1016.246	65.15114
1016.612	57.12297
1016.978	73.17195
1017.344	79.18666
1017.71	92.21134
1018.076	66.14638
1018.442	72.17809
1018.808	76.18343
1019.174	51.12195
1019.539	40.08383
1019.905	41.09318
1020.27	36.08521
1020.636	44.09946
1021.001	102.23206
1021.366	41.09492
1021.731	85.21214
1022.096	8.01975
1022.461	57.12918
1022.826	102.23149
1023.191	83.20872
1023.556	59.13094
1023.92	48.1119
1024.285	56.12911
1024.649	53.12343
1025.014	67.15647
1025.378	72.17436
1025.742	49.11555
1026.107	59.1263
1026.471	109.23797
1026.835	72.17042
1027.199	12.02793
1027.562	94.20405
1027.926	58.13462
1028.29	59.14334
1028.654	82.1777
1029.017	63.14851
1029.381	87.19813
1029.744	34.08367
1030.107	102.22801
1030.471	112.25491
1030.834	49.10426
1031.197	54.1241
1031.56	81.18021
1031.923	43.10736
1032.286	104.23047
1032.648	19.04301
1033.011	129.28235
1033.374	67.14789
1033.736	46.11682
1034.099	71.16522
1034.461	26.06396
1034.823	58.13908
1035.185	44.10531
1035.548	63.14724
1035.91	83.18834
1036.272	122.26223
1036.634	86.19985
1036.995	36.08028
1037.357	46.10791
1037.719	77.17869
1038.08	116.2622
1038.442	51.1154
1038.803	24.05438
1039.165	4.00972
1039.526	89.20441
1039.887	69.15701
1040.248	87.20795
1040.609	53.12387
1040.97	47.10963
1041.331	82.19978
1041.692	65.14743
1042.053	86.18366
1042.413	113.24597
1042.774	87.20157
1043.134	80.1781
1043.495	41.09901
1043.855	74.17312
1044.215	52.12284
1044.576	62.1426
1044.936	67.14479
1045.296	88.20893
1045.656	46.10685
1046.016	110.24914
1046.375	6.01405
1046.735	113.24587
1047.095	93.20605
1047.454	109.21271
1047.814	46.10597
1048.173	32.0721
1048.533	100.21596
1048.892	59.13594
1049.251	32.07665
1049.61	60.14147
1049.969	60.13424
1050.328	78.15942
1050.687	65.14977
1051.046	22.05131
1051.405	10.02377
1051.763	57.12639
1052.122	20.04802
1052.48	67.15739
1052.839	105.23767
1053.197	61.13656
1053.555	57.12043
1053.914	20.04692
1054.272	50.11279
1054.63	81.18909
1054.988	66.15101
1055.345	50.10038
1055.703	81.18566
1056.061	71.1772
1056.419	104.2611
1056.776	16.03665
1057.134	15.03268
1057.491	82.19589
1057.848	86.20237
1058.206	4.0089
1058.563	27.05662
1058.92	72.15649
1059.277	53.12513
1059.634	45.09949
1059.991	107.24289
1060.348	55.11881
1060.704	104.24044
1061.061	31.06742
1061.418	32.07466
1061.774	57.13468
1062.131	29.07543
1062.487	64.14135
1062.843	77.18292
1063.199	70.16639
1063.555	104.2297
1063.911	91.21726
1064.267	47.09102
1064.623	100.23321
1064.979	39.08482
1065.335	105.23458
1065.691	20.0453
1066.046	92.18956
1066.402	19.04104
1066.757	109.26133
1067.112	24.05637
1067.468	80.18215
1067.823	17.03842
1068.178	38.0874
1068.533	40.09288
1068.888	51.11563
1069.243	62.1463
1069.598	54.12445
1069.952	88.19184
1070.307	90.21319
1070.662	86.19653
1071.016	76.16385
1071.371	102.21991
1071.725	51.11525
1072.079	74.16979
1072.434	81.18804
1072.788	-5.01132
1073.142	102.23815
1073.496	59.13301
1073.85	47.10366
1074.203	96.22106
1074.557	86.2221
1074.911	56.12637
1075.265	88.19322
1075.618	61.1424
1075.971	65.14695
1076.325	54.13289
1076.678	16.03515
1077.031	-7.0149
1077.385	110.22574
1077.738	63.13445
1078.091	39.08558
1078.444	82.17762
1078.796	74.17434
1079.149	84.19944
1079.502	69.15638
1079.855	63.13999
1080.207	69.16145
1080.56	65.16234
1080.912	28.06532
1081.264	57.1317
1081.617	47.11019
1081.969	70.17009
1082.321	36.08399
1082.673	91.19977
1083.025	77.17216
1083.377	290.61742
1083.728	51.11267
1084.08	35.08337
1084.432	64.14643
1084.783	24.0527
1085.135	49.11846
1085.486	62.13579
1085.838	60.14185
1086.189	92.21405
1086.54	30.06834
1086.891	94.23123
1087.242	104.24454
1087.593	24.0552
1087.944	105.22594
1088.295	70.1502
1088.646	97.22768
1088.996	87.20045
1089.347	6.01411
1089.698	60.13695
1090.048	19.0474
1090.398	60.13124
1090.749	32.07263
1091.099	53.12968
1091.449	37.08901
1091.799	72.17206
1092.149	49.11636
1092.499	57.13296
1092.849	49.11989
1093.199	79.18688
1093.548	81.1873
1093.898	37.08857
1094.248	45.10998
1094.597	30.07497
1094.947	40.10337
1095.296	61.14497
1095.645	48.11956
1095.994	58.13292
1096.343	68.16437
1096.692	79.20264
1097.041	68.18046
1097.39	37.08864
1097.739	64.15952
1098.088	70.17883
1098.437	27.06977
1098.785	3.0078
1099.134	-17.04324
1099.482	71.18902
1099.83	91.22884
1100.179	39.10025
1100.527	5.01275
1100.875	50.12859
1101.223	60.15463
1101.571	-3.00806
1101.919	78.20032
1102.267	29.08021
1102.615	1.00321
1102.962	10.03205
1103.31	8.02568
1103.658	-1.00321
