Data from N3 R4 sample 4_Subt2__1__12-20-47-714.txt Node

Date: Thu Sep 18 12:20:47 PDT 2025
User: uwsun
Spectrometer: HDX01956
Trigger mode: 0
Integration Time (sec): 5.000000E-1
Scans to average: 1
Nonlinearity correction enabled: true
Boxcar width: 0
Storing dark spectrum: false
XAxis mode: Wavelengths
Number of Pixels in Spectrum: 2068
>>>>>Begin Spectral Data<<<<<
194.03	77.22103
194.578	81.26088
195.127	88.27917
195.676	87.27703
196.225	102.26779
196.773	108.29676
197.321	155.42353
197.87	212.53528
198.418	256.64613
198.966	278.71513
199.513	266.66151
200.061	221.55372
200.609	238.61715
201.156	282.59986
201.704	217.53879
202.251	238.62203
202.798	251.63792
203.345	276.66733
203.892	270.66706
204.438	224.52319
204.985	261.6066
205.532	225.58294
206.078	219.52723
206.624	290.70935
207.17	350.78911
207.716	251.60426
208.262	295.56585
208.808	313.76346
209.354	260.63031
209.899	265.65218
210.445	239.58821
210.99	292.69402
211.535	300.68689
212.08	240.5471
212.625	250.61221
213.17	280.69657
213.715	312.6905
214.259	271.61788
214.804	244.58663
215.348	269.60763
215.892	307.72334
216.436	222.49851
216.98	281.59891
217.524	272.63503
218.068	299.7334
218.612	302.74637
219.155	280.64445
219.698	237.55322
220.242	243.587
220.785	278.63551
221.328	258.62217
221.871	282.69951
222.414	235.56918
222.956	226.52993
223.499	237.5161
224.041	206.46258
224.583	218.44979
225.126	229.49105
225.668	286.67295
226.21	258.63718
226.751	224.48914
227.293	201.44681
227.835	243.5819
228.376	246.54445
228.918	234.56942
229.459	208.51032
230	245.57459
230.541	249.55741
231.082	222.5301
231.622	203.45069
232.163	217.5129
232.704	249.60852
233.244	228.55378
233.784	239.5649
234.324	290.63083
234.864	224.49473
235.404	192.44475
235.944	206.47604
236.484	290.70038
237.023	258.59074
237.563	276.62179
238.102	302.68814
238.641	221.54391
239.18	264.60205
239.719	209.51381
240.258	271.58938
240.797	256.5951
241.335	230.54647
241.874	260.49088
242.412	294.69097
242.95	277.64962
243.488	203.44732
244.026	249.56475
244.564	308.60777
245.102	302.65972
245.64	238.55414
246.177	219.47589
246.715	260.6075
247.252	259.57023
247.789	334.58677
248.326	243.5719
248.863	247.52965
249.4	270.59307
249.936	291.58812
250.473	312.71063
251.009	246.54854
251.546	268.58125
252.082	223.47054
252.618	287.62019
253.154	256.60003
253.69	206.45364
254.226	257.59919
254.761	242.52956
255.297	303.63597
255.832	251.58198
256.367	239.54823
256.903	305.65316
257.438	271.61589
257.972	267.57648
258.507	260.57927
259.042	292.61248
259.576	350.73931
260.111	260.57975
260.645	241.50741
261.179	287.65066
261.713	328.70378
262.247	218.48751
262.781	285.58023
263.315	259.61074
263.849	267.65031
264.382	254.56754
264.915	244.56407
265.449	231.5519
265.982	300.65674
266.515	320.75558
267.048	262.53911
267.58	277.57729
268.113	284.59333
268.646	240.57329
269.178	223.48788
269.71	314.66793
270.243	327.72777
270.775	306.75958
271.307	213.49662
271.838	286.653
272.37	249.5949
272.902	274.6011
273.433	311.66371
273.965	266.62809
274.496	242.58558
275.027	300.72234
275.558	358.83544
276.089	272.66113
276.62	246.6051
277.15	293.69653
277.681	281.58407
278.211	276.65271
278.741	317.6768
279.272	312.68762
279.802	291.70054
280.332	324.73557
280.861	317.72887
281.391	306.67016
281.921	296.68318
282.45	280.67317
282.98	286.72337
283.509	344.74924
284.038	329.7228
284.567	321.71915
285.096	285.67073
285.625	282.61395
286.153	345.7907
286.682	319.70555
287.21	256.59345
287.739	286.65458
288.267	332.77752
288.795	314.79191
289.323	306.69415
289.851	342.77171
290.378	301.64682
290.906	293.69519
291.433	318.76451
291.961	298.6587
292.488	327.78032
293.015	322.73252
293.542	420.02229
294.069	336.80133
294.596	301.71086
295.122	378.8644
295.649	283.5995
296.175	362.83181
296.702	379.88426
297.228	333.76993
297.754	311.67464
298.28	393.85867
298.806	312.72611
299.332	346.74207
299.857	335.73134
300.383	321.77859
300.908	345.81538
301.433	358.84134
301.958	370.80825
302.483	308.73794
303.008	365.86964
303.533	307.76636
304.058	338.75583
304.582	370.83488
305.107	321.8071
305.631	350.75939
306.155	365.81266
306.679	385.86251
307.203	348.77498
307.727	385.86889
308.251	379.89294
308.775	423.97524
309.298	366.8447
309.822	373.89584
310.345	431.97347
310.868	397.9113
311.391	436.01207
311.914	349.84076
312.437	376.81997
312.96	432.9608
313.482	386.8635
314.005	373.89006
314.527	393.97456
315.049	421.00925
315.571	433.91922
316.093	425.99738
316.615	372.85308
317.137	434.8902
317.659	447.01821
318.18	421.94895
318.702	521.13055
319.223	421.80716
319.744	462.975
320.265	440.01131
320.786	470.10317
321.307	417.97785
321.828	450.95426
322.348	484.06328
322.869	450.00915
323.389	466.85228
323.909	459.98417
324.43	457.02509
324.95	481.02764
325.47	518.19565
325.989	503.11134
326.509	522.0819
327.029	523.10643
327.548	493.04013
328.067	539.21182
328.587	578.33538
329.106	526.09458
329.625	546.3186
330.144	566.20983
330.662	591.27015
331.181	601.29555
331.7	556.18893
332.218	580.14819
332.736	598.27888
333.255	557.20982
333.773	572.2406
334.291	641.45966
334.808	649.3189
335.326	612.24841
335.844	646.3769
336.361	681.58942
336.879	653.39093
337.396	698.52835
337.913	679.40942
338.43	668.35356
338.947	716.5289
339.464	699.34062
339.981	672.43609
340.497	694.5349
341.014	728.58471
341.53	718.4391
342.046	761.69262
342.562	751.66691
343.078	763.5875
343.594	793.65656
344.11	806.69451
344.626	769.72664
345.141	794.59091
345.657	795.57347
346.172	813.72085
346.687	784.5788
347.202	827.64376
347.717	855.76964
348.232	869.88263
348.747	854.70733
349.261	844.59938
349.776	880.80723
350.29	848.85855
350.805	880.88502
351.319	857.72322
351.833	900.77535
352.347	890.80974
352.861	916.83902
353.374	901.7495
353.888	1028.10793
354.401	899.74893
354.915	964.83518
355.428	992.09507
355.941	947.87036
356.454	944.77011
356.967	936.85507
357.48	929.78598
357.993	974.03195
358.505	928.93152
359.018	1071.17901
359.53	1039.12145
360.042	998.86422
360.554	1125.26012
361.066	1059.14094
361.578	1070.93417
362.09	1048.07098
362.602	1085.97478
363.113	1096.11771
363.625	1090.02205
364.136	1132.99783
364.647	1131.18601
365.158	1118.11927
365.669	1127.19585
366.18	1193.24925
366.691	1124.98161
367.201	1107.17612
367.712	1182.16511
368.222	1211.21786
368.733	1169.01996
369.243	1275.21794
369.753	1214.2217
370.263	1352.53322
370.773	1252.42101
371.282	1319.45734
371.792	1296.34152
372.301	1351.52826
372.811	1402.87319
373.32	1374.23837
373.829	1372.47938
374.338	1444.38194
374.847	1436.48969
375.356	1516.64156
375.865	1619.43273
376.373	1682.6796
376.882	1690.091
377.39	1778.98257
377.898	1736.01545
378.407	1833.79303
378.915	1966.73831
379.423	1980.98634
379.93	2087.05177
380.438	2125.21876
380.946	2251.13833
381.453	2333.32481
381.96	2442.34455
382.468	2620.3146
382.975	2718.56426
383.482	2844.07767
383.989	2916.89641
384.495	3043.3062
385.002	3027.7302
385.509	3413.39362
386.015	3647.40874
386.521	3774.9707
387.028	3937.88656
387.534	3977.49129
388.04	4152.1856
388.546	4257.54052
389.051	4390.44687
389.557	4716.58949
390.063	5126.18256
390.568	5307.51299
391.073	5477.87894
391.578	5730.39836
392.084	5893.83617
392.589	6010.48783
393.093	6545.94545
393.598	7201.71693
394.103	7724.08045
394.607	8464.75212
395.112	9146.80633
395.616	9728.03116
396.12	10476.36125
396.624	11548.72918
397.128	12654.72625
397.632	13837.41971
398.136	15003.98505
398.639	15914.78042
399.143	17879.38535
399.646	20197.58442
400.15	22343.98415
400.653	24723.71608
401.156	27912.2253
401.659	32544.37938
402.162	39512.90375
402.664	51923.03043
403.167	62402.07279
403.67	63769.22307
404.172	63919.58413
404.674	63858.43483
405.176	63738.15102
405.678	63977.72923
406.18	64011.81569
406.682	63863.44694
407.184	63926.60148
407.686	63841.39382
408.187	64025.8516
408.688	63892.51763
409.19	63833.37461
409.691	63977.72923
410.192	63533.86708
410.693	55412.9195
411.194	49785.45901
411.694	47303.14398
412.195	43888.40928
412.696	39543.99792
413.196	36708.18756
413.696	35770.09271
414.196	36233.82534
414.696	35567.03013
415.196	33790.13931
415.696	31114.01191
416.196	25240.29794
416.695	19301.36175
417.195	16603.94419
417.694	15799.80506
418.194	14773.1842
418.693	13794.47566
419.192	13389.98767
419.691	13144.37293
420.19	12819.81488
420.688	12540.87138
421.187	12012.24135
421.685	11201.19619
422.184	10260.56275
422.682	8739.91947
423.18	7439.78502
423.678	6546.6505
424.176	6200.71432
424.674	5924.64847
425.172	5557.16376
425.669	5210.65815
426.167	4821.47716
426.664	4500.50338
427.161	4133.78423
427.659	3873.27426
428.156	3653.5327
428.652	3323.69538
429.149	3234.45042
429.646	3145.94893
430.143	3036.3852
430.639	2714.29846
431.135	2629.58901
431.632	2471.06221
432.128	2370.27747
432.624	2248.59216
433.12	2130.92777
433.616	2084.7383
434.111	2005.03024
434.607	1892.98437
435.103	1895.46654
435.598	1846.41807
436.093	1698.71601
436.588	1741.62621
437.083	1605.50035
437.578	1543.55413
438.073	1483.75985
438.568	1439.64752
439.062	1386.15935
439.557	1341.36384
440.051	1221.11245
440.546	1269.19705
441.04	1202.26682
441.534	1192.38674
442.028	1195.26508
442.522	1139.17747
443.015	1064.80842
443.509	1121.18517
444.002	1048.09217
444.496	1127.90922
444.989	1021.02925
445.482	1032.09527
445.975	1061.97482
446.468	1047.80764
446.961	1063.83438
447.454	914.69946
447.947	977.92518
448.439	976.98567
448.931	959.81285
449.424	1011.12921
449.916	1007.01897
450.408	925.75358
450.9	913.86034
451.392	888.91523
451.884	855.65612
452.375	862.81471
452.867	836.58497
453.358	858.65442
453.849	895.57894
454.341	836.59344
454.832	823.49549
455.323	852.81012
455.814	823.59556
456.304	774.53793
456.795	792.54378
457.285	730.38503
457.776	760.48833
458.266	753.54584
458.756	677.40526
459.247	737.53131
459.737	779.62513
460.226	797.54802
460.716	726.51078
461.206	713.48863
461.695	636.39891
462.185	688.43225
462.674	641.29315
463.163	709.37947
463.653	674.24751
464.142	630.35785
464.63	651.39567
465.119	588.22219
465.608	622.29411
466.096	590.1364
466.585	535.10271
467.073	573.21239
467.561	588.26288
468.05	552.14266
468.538	541.19643
469.026	521.12046
469.513	525.99687
470.001	539.11645
470.489	566.2093
470.976	540.13922
471.463	509.15596
471.951	503.14093
472.438	503.07426
472.925	434.94522
473.412	479.06396
473.899	491.02502
474.385	462.03993
474.872	448.96246
475.359	499.12039
475.845	406.77709
476.331	393.77642
476.817	406.9202
477.303	425.91443
477.789	381.84828
478.275	361.8426
478.761	326.73171
479.247	428.88067
479.732	368.86282
480.218	393.96566
480.703	368.85101
481.188	373.7535
481.673	385.82588
482.158	406.81283
482.643	364.8754
483.128	403.87455
483.612	383.85379
484.097	343.77949
484.581	346.75327
485.066	369.84874
485.55	329.68658
486.034	339.69111
486.518	368.82697
487.002	302.69786
487.486	275.63787
487.969	273.63424
488.453	286.67897
488.936	286.61314
489.42	317.663
489.903	261.62262
490.386	199.39868
490.869	312.6472
491.352	221.51344
491.835	251.49145
492.318	272.58363
492.8	289.56827
493.283	272.66508
493.765	266.62468
494.247	262.58397
494.73	224.47836
495.212	208.47722
495.694	259.58552
496.175	259.5972
496.657	272.61578
497.139	287.46398
497.62	231.53604
498.102	236.56654
498.583	184.43954
499.064	277.5891
499.545	254.55511
500.026	275.59426
500.507	229.5082
500.988	237.57121
501.469	194.46962
501.949	238.56613
502.43	230.53509
502.91	307.61676
503.39	200.48104
503.87	237.53994
504.35	205.46459
504.83	183.38936
505.31	198.46319
505.79	187.42982
506.269	148.33289
506.749	203.44957
507.228	176.40413
507.707	237.50908
508.187	244.56116
508.666	224.53672
509.145	184.41895
509.623	210.47621
510.102	264.61224
510.581	285.65661
511.059	253.61277
511.538	241.59924
512.016	284.65
512.494	223.51788
512.972	275.63004
513.45	248.5562
513.928	276.64234
514.406	267.62813
514.884	280.69201
515.361	246.56666
515.839	318.69409
516.316	312.72096
516.793	270.65381
517.27	283.65019
517.747	284.69803
518.224	276.60752
518.701	297.62338
519.178	288.68925
519.654	307.69091
520.131	274.65049
520.607	231.54493
521.083	273.59095
521.56	237.53841
522.036	265.55155
522.512	279.65968
522.987	275.63459
523.463	235.53733
523.939	312.73726
524.414	243.535
524.89	269.61531
525.365	214.4679
525.84	233.54089
526.315	203.47777
526.79	254.54994
527.265	255.56613
527.74	174.41247
528.215	155.35427
528.689	154.33073
529.164	195.40586
529.638	175.43325
530.112	187.42827
530.587	185.38539
531.061	206.48417
531.534	153.36164
532.008	229.53854
532.482	213.47427
532.956	97.24524
533.429	223.52851
533.903	178.38029
534.376	196.42093
534.849	184.41216
535.322	199.4563
535.795	168.39671
536.268	216.50688
536.741	123.28803
537.213	195.43581
537.686	173.41382
538.158	183.40595
538.631	192.45285
539.103	178.39248
539.575	189.37812
540.047	183.38869
540.519	174.40625
540.991	186.44228
541.463	179.42031
541.934	170.37547
542.406	218.50777
542.877	225.4908
543.348	188.44273
543.82	176.41818
544.291	231.52116
544.762	208.48105
545.233	247.60453
545.703	196.42437
546.174	225.50493
546.645	187.44166
547.115	240.55967
547.585	229.50926
548.056	273.64525
548.526	240.55063
548.996	264.60666
549.466	242.56811
549.935	278.6373
550.405	301.62954
550.875	277.63105
551.344	273.6247
551.814	261.57511
552.283	284.59254
552.752	306.68428
553.221	306.64354
553.69	345.73722
554.159	354.83486
554.628	363.77534
555.096	365.87863
555.565	294.62049
556.033	407.90803
556.502	308.70917
556.97	338.71146
557.438	323.72065
557.906	340.75999
558.374	368.80354
558.842	380.85603
559.31	417.86789
559.777	391.89789
560.245	358.77377
560.712	393.84159
561.18	389.80493
561.647	413.85114
562.114	400.85639
562.581	449.0236
563.048	446.94454
563.514	532.21924
563.981	534.10731
564.448	526.07708
564.914	575.19911
565.381	579.18607
565.847	620.28422
566.313	644.32092
566.779	624.24352
567.245	640.31093
567.711	657.39158
568.176	709.38078
568.642	728.60814
569.108	698.50972
569.573	792.5657
570.038	836.45429
570.504	802.54037
570.969	758.63262
571.434	855.58916
571.899	852.70883
572.363	914.739
572.828	957.8073
573.293	951.79157
573.757	1004.89668
574.222	954.74942
574.686	1012.88763
575.15	971.93123
575.614	1043.99398
576.078	976.88052
576.542	995.8426
577.006	979.80211
577.469	964.96834
577.933	993.84071
578.396	919.81584
578.86	962.86591
579.323	928.86656
579.786	930.65151
580.249	963.87184
580.712	845.74815
581.175	825.74171
581.637	835.60885
582.1	838.53012
582.563	805.43902
583.025	782.64257
583.487	856.45703
583.95	695.28998
584.412	749.34146
584.874	757.60293
585.336	700.45468
585.797	758.4096
586.259	749.51549
586.721	651.35062
587.182	727.45347
587.643	647.2969
588.105	611.2884
588.566	645.1756
589.027	658.43039
589.488	595.22055
589.949	585.2788
590.41	636.09805
590.87	648.30998
591.331	674.28668
591.791	551.15254
592.252	605.25897
592.712	578.2467
593.172	561.14862
593.632	643.26036
594.092	589.17121
594.552	646.22896
595.011	517.07605
595.471	642.28597
595.931	651.29531
596.39	581.25559
596.849	537.13313
597.308	614.15437
597.768	646.49145
598.227	610.31076
598.685	623.25966
599.144	693.43276
599.603	661.36285
600.062	639.18055
600.52	712.39748
600.978	746.52697
601.437	680.35341
601.895	792.43576
602.353	758.42427
602.811	834.58732
603.269	835.6874
603.727	848.72739
604.184	955.78594
604.642	902.86575
605.099	926.79513
605.557	971.95179
606.014	971.69026
606.471	975.0318
606.928	986.77654
607.385	1108.23762
607.842	1104.00257
608.299	1170.13663
608.755	1112.15176
609.212	1188.03832
609.668	1155.02729
610.125	1260.33729
610.581	1247.2407
611.037	1270.1416
611.493	1278.26454
611.949	1213.30818
612.405	1328.95014
612.861	1253.19206
613.316	1287.35283
613.772	1292.22707
614.227	1286.36216
614.683	1317.03857
615.138	1268.26526
615.593	1271.23875
616.048	1346.28271
616.503	1313.42332
616.958	1262.45426
617.412	1308.35015
617.867	1291.15904
618.321	1233.88751
618.776	1238.05587
619.23	1183.15341
619.684	1183.02485
620.138	1165.06726
620.592	1118.15826
621.046	1168.15757
621.5	1108.12264
621.954	1089.88835
622.407	1127.93492
622.861	1077.1002
623.314	1075.925
623.768	1088.04628
624.221	1033.57412
624.674	1058.95125
625.127	989.86875
625.58	1000.8055
626.033	932.65764
626.485	908.80872
626.938	901.78853
627.39	882.7211
627.843	883.69335
628.295	831.6134
628.747	900.78945
629.199	798.53856
629.651	791.54
630.103	733.44722
630.555	789.39224
631.006	756.507
631.458	745.50945
631.909	655.28029
632.361	681.3683
632.812	701.4079
633.263	688.28807
633.714	648.19034
634.165	610.29951
634.616	621.29919
635.067	606.17512
635.518	637.33213
635.968	611.04049
636.419	613.17654
636.869	569.20601
637.319	590.21763
637.769	549.10422
638.219	554.17289
638.669	527.13144
639.119	492.07137
639.569	516.12134
640.019	517.07844
640.468	462.94591
640.918	463.00448
641.367	490.99507
641.816	516.03176
642.265	510.07724
642.714	431.91019
643.163	498.04403
643.612	480.07655
644.061	481.93201
644.51	459.96379
644.958	462.93093
645.406	418.92543
645.855	424.95317
646.303	409.87509
646.751	454.96401
647.199	418.87442
647.647	400.86231
648.095	415.8741
648.543	446.82229
648.99	428.95112
649.438	341.74066
649.885	411.95362
650.333	393.70078
650.78	351.79734
651.227	387.88444
651.674	334.71696
652.121	403.92063
652.568	357.8218
653.015	337.78629
653.461	313.70412
653.908	337.72698
654.354	346.77404
654.801	340.74964
655.247	319.64945
655.693	343.84253
656.139	336.75477
656.585	325.73231
657.031	317.70405
657.477	331.67909
657.922	263.57004
658.368	284.66461
658.813	316.67715
659.259	333.76136
659.704	354.78736
660.149	228.50524
660.594	291.65598
661.039	338.72304
661.484	307.68808
661.929	327.71962
662.373	236.56955
662.818	245.58132
663.262	263.60787
663.707	249.60806
664.151	282.6545
664.595	272.62754
665.039	248.59014
665.483	219.5376
665.927	272.60776
666.371	263.59093
666.814	291.65598
667.258	294.67289
667.701	258.52346
668.145	253.60307
668.588	267.63204
669.031	222.50239
669.474	222.51261
669.917	285.59106
670.36	257.61401
670.803	277.63742
671.245	177.35034
671.688	201.4727
672.13	229.4972
672.573	237.57488
673.015	240.55505
673.457	249.51686
673.899	243.56321
674.341	225.52108
674.783	202.46754
675.225	249.58693
675.666	213.50286
676.108	250.51488
676.549	221.49453
676.991	232.48728
677.432	230.43552
677.873	125.27949
678.314	184.42402
678.755	244.5766
679.196	188.41539
679.637	217.49937
680.078	235.52564
680.518	170.37845
680.959	189.43494
681.399	163.39228
681.839	157.37081
682.28	223.533
682.72	216.47426
683.16	186.44941
683.6	221.48208
684.039	155.31053
684.479	215.51113
684.919	214.48429
685.358	147.35659
685.798	140.3559
686.237	146.33914
686.676	154.33842
687.115	239.53833
687.554	203.46808
687.993	192.40914
688.432	190.41806
688.871	186.41183
689.309	193.4468
689.748	190.38003
690.186	156.35419
690.625	189.4285
691.063	153.35477
691.501	202.48142
691.939	215.52094
692.377	160.3765
692.815	237.55474
693.253	153.35364
693.69	203.42627
694.128	146.34503
694.565	173.39637
695.003	185.45733
695.44	177.40537
695.877	167.38062
696.314	204.41088
696.751	132.2913
697.188	186.41578
697.625	120.26193
698.061	149.34659
698.498	136.31279
698.934	192.44175
699.371	152.34721
699.807	212.47957
700.243	131.30808
700.679	179.38417
701.115	185.41551
701.551	164.36827
701.987	132.28006
702.422	170.39239
702.858	202.4629
703.294	228.49893
703.729	166.39047
704.164	108.25206
704.599	185.39739
705.035	158.34283
705.47	126.29811
705.904	122.27531
706.339	192.42317
706.774	166.37552
707.209	195.43599
707.643	207.47464
708.078	165.38789
708.512	119.29127
708.946	111.25657
709.38	145.33422
709.814	172.3748
710.248	196.46085
710.682	183.42348
711.116	151.35678
711.549	96.23998
711.983	87.19701
712.416	200.45537
712.85	123.29658
713.283	157.35827
713.716	129.31081
714.149	123.27683
714.582	160.34687
715.015	138.32827
715.448	165.40175
715.881	148.30646
716.313	141.31903
716.746	152.34805
717.178	161.37391
717.61	185.45314
718.043	154.3676
718.475	201.46735
718.907	159.38338
719.339	131.28818
719.77	172.397
720.202	148.35868
720.634	214.50238
721.065	159.36122
721.497	143.33905
721.928	132.31291
722.359	137.3237
722.79	127.2953
723.221	137.32946
723.652	102.25285
724.083	140.30416
724.514	178.39231
724.945	137.31036
725.375	178.39971
725.806	158.37541
726.236	182.44703
726.666	174.39377
727.096	187.4384
727.526	172.42746
727.956	182.39877
728.386	173.40749
728.816	157.38855
729.246	189.44777
729.675	112.2655
730.105	158.37208
730.534	190.42297
730.964	152.3656
731.393	148.34962
731.822	180.44212
732.251	156.38204
732.68	171.37902
733.109	149.35491
733.537	205.47928
733.966	225.53531
734.395	170.37704
734.823	128.273
735.251	131.30436
735.68	178.42049
736.108	167.40099
736.536	195.43509
736.964	140.3127
737.392	161.38703
737.82	177.40423
738.247	185.42097
738.675	159.35829
739.102	163.39094
739.53	197.48575
739.957	177.44077
740.384	142.3292
740.811	141.33818
741.238	190.44622
741.665	204.45734
742.092	112.24892
742.519	169.40348
742.945	227.52446
743.372	201.4773
743.798	201.49141
744.225	221.49514
744.651	142.34258
745.077	154.36957
745.503	185.42624
745.929	244.55936
746.355	176.40931
746.781	190.44535
747.207	164.37432
747.632	236.55662
748.058	235.56275
748.483	179.39278
748.908	167.39977
749.334	227.53155
749.759	236.53255
750.184	223.51071
750.609	187.43737
751.033	198.43859
751.458	267.55546
751.883	221.51547
752.307	211.47137
752.732	220.53655
753.156	215.50266
753.58	253.56006
754.005	176.42252
754.429	218.49093
754.853	245.57751
755.277	242.54274
755.7	250.58574
756.124	208.49249
756.548	188.42303
756.971	213.49349
757.394	196.47803
757.818	179.44299
758.241	213.5157
758.664	213.51182
759.087	225.47977
759.51	224.52298
759.933	212.48776
760.356	213.52442
760.778	252.58372
761.201	240.54622
761.623	190.42946
762.046	212.46783
762.468	272.60876
762.89	212.48991
763.312	254.58602
763.734	226.51581
764.156	260.60416
764.578	204.43924
765	205.47458
765.421	211.51336
765.843	182.45593
766.264	182.40953
766.686	202.4757
767.107	230.52642
767.528	252.61275
767.949	225.54086
768.37	206.48625
768.791	184.41928
769.212	158.38291
769.632	143.32211
770.053	165.41342
770.473	198.45246
770.894	183.42802
771.314	193.43099
771.734	195.43059
772.154	186.45229
772.575	236.50966
772.994	206.43973
773.414	165.37348
773.834	157.37411
774.254	193.44698
774.673	245.56492
775.093	210.49665
775.512	187.44012
775.931	190.45942
776.351	230.54268
776.77	194.45348
777.189	182.41104
777.607	183.44574
778.026	190.4504
778.445	181.43922
778.864	135.32834
779.282	148.33671
779.701	131.31587
780.119	145.35319
780.537	183.43305
780.955	147.35565
781.373	174.40912
781.791	184.39669
782.209	171.36478
782.627	130.33013
783.045	142.30759
783.462	196.47553
783.88	135.33667
784.297	128.30974
784.715	149.36902
785.132	135.3108
785.549	116.27891
785.966	127.30715
786.383	155.36651
786.8	167.36768
787.217	160.36519
787.633	136.32935
788.05	91.20347
788.466	158.34867
788.883	163.40118
789.299	84.19242
789.715	160.37225
790.131	147.34948
790.547	106.25428
790.963	134.31778
791.379	126.30617
791.795	109.23525
792.21	119.2642
792.626	158.35261
793.041	153.35898
793.457	122.28686
793.872	61.13746
794.287	96.22458
794.702	80.18693
795.117	103.24779
795.532	89.21744
795.947	97.22073
796.362	89.19965
796.776	149.32378
797.191	111.26146
797.605	89.20408
798.02	106.2472
798.434	114.24198
798.848	128.30636
799.262	83.19884
799.676	185.42624
800.09	103.24318
800.504	91.21118
800.918	71.15678
801.331	34.08475
801.745	69.15166
802.158	96.22854
802.572	114.2645
802.985	79.18188
803.398	99.22546
803.811	102.24636
804.224	92.217
804.637	132.30104
805.05	80.17647
805.462	93.21804
805.875	72.18142
806.288	92.21489
806.7	27.06533
807.112	44.09767
807.525	43.10109
807.937	35.08436
808.349	27.0653
808.761	78.18569
809.173	101.23577
809.584	73.17275
809.996	14.03337
810.408	41.10421
810.819	64.14537
811.231	113.29127
811.642	117.27891
812.053	139.32345
812.464	80.18201
812.875	87.21547
813.286	113.28191
813.697	53.11615
814.108	62.14527
814.519	70.15124
814.929	103.25108
815.34	16.03733
815.75	83.20519
816.16	50.11885
816.571	62.15521
816.981	26.05872
817.391	46.10622
817.801	78.1874
818.211	52.11921
818.62	107.24762
819.03	102.23834
819.44	30.07478
819.849	17.04121
820.259	49.11998
820.668	71.16899
821.077	54.13102
821.486	28.06442
821.895	63.14753
822.304	37.09508
822.713	70.15816
823.122	26.06285
823.531	78.17436
823.939	70.16492
824.348	55.12799
824.756	58.1393
825.164	56.13526
825.573	62.1502
825.981	99.23328
826.389	64.15458
826.797	115.28043
827.205	56.12467
827.612	109.25505
828.02	-13.02961
828.428	46.1132
828.835	50.12855
829.243	62.14083
829.65	88.21175
830.057	52.12094
830.464	78.18491
830.871	108.2475
831.278	90.20823
831.685	40.08542
832.092	26.06099
832.499	79.16575
832.905	36.08761
833.312	34.07318
833.718	103.24723
834.124	66.14492
834.531	47.1132
834.937	83.20549
835.343	69.15822
835.749	79.17343
836.155	54.13679
836.561	57.13525
836.966	51.11962
837.372	51.12465
837.777	79.1897
838.183	111.23196
838.588	42.10152
838.993	92.21421
839.399	50.11848
839.804	66.15501
840.209	87.21539
840.613	64.13579
841.018	45.10945
841.423	70.17308
841.828	90.21943
842.232	46.10783
842.637	112.25409
843.041	18.04511
843.445	39.09379
843.849	34.08181
844.253	60.13634
844.657	47.11517
845.061	111.24337
845.465	71.16457
845.869	95.21004
846.272	31.07345
846.676	15.03448
847.079	44.10916
847.483	85.20239
847.886	88.20239
848.289	38.09983
848.692	37.08996
849.095	57.13086
849.498	62.14879
849.901	57.12402
850.304	110.24935
850.707	52.1274
851.109	99.2379
851.512	97.2283
851.914	51.12506
852.316	78.19173
852.718	73.18653
853.121	30.07115
853.523	38.08484
853.925	72.18304
854.326	47.11427
854.728	61.15185
855.13	78.19562
855.531	71.163
855.933	16.03677
856.334	35.08516
856.736	65.14065
857.137	105.23419
857.538	58.14162
857.939	61.14725
858.34	51.11816
858.741	67.16812
859.142	50.11477
859.542	52.13374
859.943	49.11726
860.343	23.05561
860.744	50.11734
861.144	111.26013
861.544	46.10812
861.945	64.15674
862.345	36.08448
862.745	58.13983
863.145	27.06099
863.544	65.15857
863.944	99.22227
864.344	36.08511
864.743	89.21061
865.143	97.24085
865.542	39.08572
865.941	78.18576
866.34	65.14701
866.74	3.00787
867.139	100.23146
867.537	56.13582
867.936	78.1804
868.335	37.09077
868.734	62.15291
869.132	53.1164
869.531	69.15765
869.929	55.12074
870.327	54.1243
870.726	42.09983
871.124	37.08242
871.522	45.11023
871.92	80.18884
872.318	55.12814
872.715	31.07291
873.113	61.14173
873.511	37.08864
873.908	40.09934
874.306	110.26298
874.703	36.08603
875.1	53.12862
875.497	78.17782
875.894	83.19847
876.291	54.12772
876.688	60.14934
877.085	65.14815
877.482	89.21281
877.878	92.2143
878.275	51.12529
878.671	52.10686
879.068	93.21368
879.464	108.2478
879.86	65.14707
880.256	52.12122
880.652	47.11525
881.048	62.14573
881.444	62.139
881.84	33.08095
882.236	70.16863
882.631	81.19124
883.027	70.16138
883.422	44.10784
883.817	56.13664
884.213	39.09677
884.608	98.23465
885.003	69.15771
885.398	47.1135
885.793	60.14405
886.188	31.0743
886.582	45.11023
886.977	76.17081
887.371	60.14476
887.766	65.15626
888.16	11.02612
888.554	53.12494
888.949	58.13988
889.343	49.11434
889.737	43.11215
890.131	51.12321
890.525	64.1586
890.918	36.08738
891.312	79.17824
891.706	37.09371
892.099	57.13905
892.492	97.19595
892.886	79.1842
893.279	31.07616
893.672	37.09171
894.065	102.24376
894.458	31.07449
894.851	78.18119
895.244	17.04207
895.637	106.2434
896.029	68.16039
896.422	75.17281
896.814	49.11676
897.206	82.18912
897.599	84.19813
897.991	75.1746
898.383	40.09108
898.775	107.23133
899.167	60.13612
899.559	8.01946
899.951	76.16905
900.342	46.11157
900.734	43.10552
901.125	47.11819
901.517	87.20429
901.908	70.15771
902.299	49.1156
902.69	47.10751
903.082	80.18495
903.473	69.16082
903.863	8.01969
904.254	90.20119
904.645	66.15513
905.036	77.18215
905.426	78.16694
905.817	21.04943
906.207	-15.03431
906.597	64.14472
906.987	31.07703
907.378	94.2285
907.768	54.13835
908.158	61.14217
908.547	45.11397
908.937	28.06857
909.327	66.15301
909.717	5.01211
910.106	28.06448
910.495	73.17228
910.885	69.1682
911.274	73.17442
911.663	15.03652
912.052	44.1031
912.441	72.17718
912.83	85.18377
913.219	57.14313
913.608	94.22034
913.997	27.06614
914.385	89.20236
914.774	59.13735
915.162	72.16599
915.55	82.18754
915.939	61.14925
916.327	20.04785
916.715	100.24744
917.103	57.13201
917.491	39.09254
917.878	24.05681
918.266	36.08983
918.654	84.20732
919.041	61.15559
919.429	52.11754
919.816	55.13387
920.203	60.14097
920.591	82.19476
920.978	98.22827
921.365	60.15237
921.752	3.0068
922.139	106.21674
922.525	41.09511
922.912	36.08415
923.299	55.13156
923.685	9.02259
924.072	22.04749
924.458	64.15283
924.844	41.09778
925.231	16.03553
925.617	28.06972
926.003	13.0321
926.389	27.06579
926.774	30.07314
927.16	31.0741
927.546	35.08786
927.931	69.16373
928.317	73.1587
928.702	86.19241
929.088	114.26156
929.473	81.19914
929.858	64.15119
930.243	89.2058
930.628	85.19959
931.013	33.07903
931.398	69.14822
931.783	28.07058
932.167	94.22146
932.552	87.20739
932.937	79.18608
933.321	49.11945
933.705	15.03617
934.09	34.08104
934.474	59.13252
934.858	46.11545
935.242	13.02895
935.626	72.1779
936.009	60.15565
936.393	82.20283
936.777	39.09709
937.16	69.17414
937.544	59.13045
937.927	72.17633
938.311	88.20296
938.694	105.26641
939.077	39.08972
939.46	40.09218
939.843	39.07542
940.226	-6.01489
940.609	107.23539
940.991	15.03674
941.374	63.14857
941.757	96.22441
942.139	71.15238
942.522	71.15881
942.904	94.2149
943.286	72.17463
943.668	66.1663
944.05	63.14886
944.432	41.09691
944.814	24.05641
945.196	41.09703
945.578	52.12074
945.959	40.08886
946.341	80.18341
946.722	99.2187
947.104	60.13728
947.485	77.1706
947.866	51.12479
948.247	84.20488
948.628	20.04607
949.009	35.08659
949.39	95.2236
949.771	28.06094
950.152	54.12737
950.532	91.22009
950.913	99.22628
951.293	51.13455
951.674	56.12977
952.054	65.15762
952.434	63.15024
952.814	22.04977
953.194	23.05749
953.574	81.18931
953.954	-7.01592
954.334	78.18783
954.714	23.05441
955.093	65.15287
955.473	58.14099
955.853	85.21091
956.232	27.07176
956.611	53.11992
956.99	98.2359
957.37	18.04408
957.749	11.02489
958.128	39.09539
958.506	17.04287
958.885	36.08725
959.264	110.25965
959.643	67.14628
960.021	72.17213
960.4	57.12297
960.778	68.15752
961.156	8.01934
961.535	44.09706
961.913	104.23181
962.291	65.16252
962.669	72.17587
963.047	50.12363
963.424	86.21311
963.802	36.08547
964.18	29.06956
964.557	65.14173
964.935	72.16235
965.312	58.1464
965.69	70.16601
966.067	35.08093
966.444	10.02334
966.821	53.13175
967.198	43.0988
967.575	71.16548
967.952	87.19396
968.329	63.14776
968.705	116.23503
969.082	80.19962
969.458	55.12839
969.835	65.15126
970.211	73.18186
970.587	51.12228
970.963	12.02955
971.339	47.11908
971.715	74.17718
972.091	99.23147
972.467	31.07333
972.843	94.22524
973.219	80.18075
973.594	35.08858
973.97	41.09084
974.345	49.11299
974.721	65.14785
975.096	76.1771
975.471	77.17302
975.846	55.12541
976.221	58.14178
976.596	111.25677
976.971	113.26679
977.346	62.13631
977.72	76.18433
978.095	34.08481
978.469	42.09563
978.844	80.19082
979.218	113.26088
979.593	54.1231
979.967	4.00923
980.341	59.13028
980.715	83.20044
981.089	17.0411
981.463	29.0639
981.837	50.11885
982.21	61.13126
982.584	75.1737
982.957	68.16381
983.331	22.0492
983.704	130.30615
984.078	50.11803
984.451	46.10791
984.824	65.15257
985.197	23.05291
985.57	53.12537
985.943	33.07685
986.316	-9.02106
986.688	41.09466
987.061	79.17678
987.434	112.2823
987.806	24.05515
988.179	35.07887
988.551	107.25683
988.923	14.03309
989.295	11.02642
989.667	41.09564
990.039	114.27223
990.411	56.12079
990.783	79.16992
991.155	17.03962
991.527	53.12236
991.898	93.22204
992.27	53.12722
992.641	74.17617
993.012	-17.03767
993.384	55.1247
993.755	40.09894
994.126	81.18737
994.497	22.05211
994.868	22.04788
995.239	60.13855
995.61	23.05598
995.98	29.06767
996.351	52.1246
996.722	70.15661
997.092	75.17018
997.462	17.03878
997.833	44.09885
998.203	17.03908
998.573	41.09867
998.943	89.19924
999.313	103.23552
999.683	64.14731
1000.053	25.05377
1000.423	41.09481
1000.792	14.03473
1001.162	13.03067
1001.531	96.22555
1001.901	61.1448
1002.27	30.06268
1002.639	14.03434
1003.009	71.16039
1003.378	47.11594
1003.747	85.18919
1004.116	22.05056
1004.485	59.13458
1004.853	57.13645
1005.222	58.13744
1005.591	97.21724
1005.959	90.19278
1006.328	42.09071
1006.696	48.11035
1007.064	96.2274
1007.433	31.07396
1007.801	20.04642
1008.169	44.10559
1008.537	100.20809
1008.905	46.10334
1009.273	30.07071
1009.64	63.14562
1010.008	61.13842
1010.375	68.15433
1010.743	51.10842
1011.11	119.27145
1011.478	109.25794
1011.845	94.20787
1012.212	106.22912
1012.579	44.1039
1012.946	60.13446
1013.313	81.18126
1013.68	75.1586
1014.047	12.02756
1014.414	55.12379
1014.78	49.11744
1015.147	73.16585
1015.513	85.19467
1015.88	31.07582
1016.246	39.09115
1016.612	82.17595
1016.978	101.23661
1017.344	80.18899
1017.71	77.17741
1018.076	22.04924
1018.442	99.24367
1018.808	112.26847
1019.174	44.10535
1019.539	40.08383
1019.905	58.13137
1020.27	30.07109
1020.636	47.10617
1021.001	62.1422
1021.366	23.05344
1021.731	110.27328
1022.096	17.0419
1022.461	56.12694
1022.826	86.19582
1023.191	43.10891
1023.556	36.08028
1023.92	70.16248
1024.285	46.10626
1024.649	94.21714
1025.014	45.10554
1025.378	63.15283
1025.742	55.12955
1026.107	83.17675
1026.471	84.18436
1026.835	89.20996
1027.199	38.08799
1027.562	24.05288
1027.926	37.08624
1028.29	58.14094
1028.654	70.15208
1029.017	72.16943
1029.381	78.17796
1029.744	30.07388
1030.107	98.21925
1030.471	79.181
1030.834	42.0895
1031.197	50.115
1031.56	25.05627
1031.923	52.12961
1032.286	95.21092
1032.648	29.06551
1033.011	113.24817
1033.374	82.18043
1033.736	7.0179
1034.099	21.04935
1034.461	69.16839
1034.823	57.13671
1035.185	42.10056
1035.548	95.22063
1035.91	101.22834
1036.272	77.16711
1036.634	98.22719
1036.995	90.19845
1037.357	80.18642
1037.719	85.19694
1038.08	139.31271
1038.442	17.03873
1038.803	44.09929
1039.165	57.13713
1039.526	66.15228
1039.887	33.07564
1040.248	66.15839
1040.609	41.09605
1040.97	58.135
1041.331	78.19017
1041.692	92.20753
1042.053	60.12886
1042.413	58.12773
1042.774	100.2311
1043.134	42.09424
1043.495	85.20356
1043.855	102.23731
1044.215	57.13452
1044.576	64.14714
1044.936	58.12558
1045.296	71.16912
1045.656	80.18458
1046.016	69.15758
1046.375	40.09303
1046.735	73.16019
1047.095	109.24069
1047.454	81.15912
1047.814	68.15596
1048.173	17.03842
1048.533	109.23495
1048.892	64.14731
1049.251	27.06473
1049.61	73.17168
1049.969	92.20447
1050.328	68.13929
1050.687	19.04418
1051.046	44.10217
1051.405	25.05925
1051.763	69.15262
1052.122	57.13588
1052.48	40.09446
1052.839	135.30371
1053.197	34.07654
1053.555	37.07852
1053.914	65.15114
1054.272	-6.01369
1054.63	54.12673
1054.988	70.16003
1055.345	29.0585
1055.703	75.17212
1056.061	68.1698
1056.419	85.21413
1056.776	11.02522
1057.134	6.0131
1057.491	71.16997
1057.848	58.13723
1058.206	28.062
1058.563	25.05245
1058.92	88.19062
1059.277	80.18789
1059.634	35.07755
1059.991	68.15558
1060.348	65.14011
1060.704	103.23817
1061.061	59.12756
1061.418	46.10702
1061.774	58.13702
1062.131	85.21895
1062.487	46.10198
1062.843	41.09808
1063.199	9.02164
1063.555	87.19284
1063.911	17.04116
1064.267	63.12154
1064.623	63.14799
1064.979	-16.03521
1065.335	65.14641
1065.691	20.0453
1066.046	62.12861
1066.402	22.04749
1066.757	43.10439
1067.112	37.08668
1067.468	24.05527
1067.823	23.05191
1068.178	34.07826
1068.533	73.1684
1068.888	59.13355
1069.243	26.06178
1069.598	45.10389
1069.952	66.14455
1070.307	13.03125
1070.662	71.16274
1071.016	94.20188
1071.371	85.18392
1071.725	77.17309
1072.079	82.18784
1072.434	34.07967
1072.788	57.12745
1073.142	67.15751
1073.496	13.02958
1073.85	86.18812
1074.203	64.14831
1074.557	86.2221
1074.911	53.11968
1075.265	128.27868
1075.618	71.16542
1075.971	66.14918
1076.325	58.14262
1076.678	69.14988
1077.031	21.04443
1077.385	44.09164
1077.738	34.07302
1078.091	70.1526
1078.444	19.04171
1078.796	105.24588
1079.149	75.17838
1079.502	103.23182
1079.855	64.14218
1080.207	51.11976
1080.56	43.10782
1080.912	23.05371
1081.264	106.24252
1081.617	20.04714
1081.969	46.11228
1082.321	43.10018
1082.673	61.13476
1083.025	34.0767
1083.377	30.06748
1083.728	55.1214
1084.08	28.06679
1084.432	40.09196
1084.783	79.17145
1085.135	84.20174
1085.486	49.10761
1085.838	85.19998
1086.189	36.08468
1086.54	83.18703
1086.891	52.12891
1087.242	107.25145
1087.593	42.09625
1087.944	92.19852
1088.295	78.16708
1088.646	94.22077
1088.996	41.09533
1089.347	26.06092
1089.698	50.11435
1090.048	30.0747
1090.398	14.03092
1090.749	38.08614
1091.099	66.1611
1091.449	75.17913
1091.799	46.11048
1092.149	13.03109
1092.499	79.18347
1092.849	28.06878
1093.199	66.15652
1093.548	83.19185
1093.898	42.10045
1094.248	28.06865
1094.597	62.15403
1094.947	28.07251
1095.296	53.12615
1095.645	46.11462
1095.994	62.14197
1096.343	81.19531
1096.692	72.18491
1097.041	76.20142
1097.39	67.1596
1097.739	44.11007
1098.088	71.18136
1098.437	47.12102
1098.785	-1.0026
1099.134	-2.00507
1099.482	70.18639
1099.83	51.12917
1100.179	74.18905
1100.527	-13.03325
1100.875	46.11839
1101.223	71.18263
1101.571	-8.02151
1101.919	65.16731
1102.267	51.14056
1102.615	4.01285
1102.962	8.02564
1103.31	5.01606
1103.658	-7.02246
