Data from N3 R4 sample 7_Subt2__1__12-08-25-731.txt Node

Date: Thu Sep 18 12:08:25 PDT 2025
User: uwsun
Spectrometer: HDX01956
Trigger mode: 0
Integration Time (sec): 5.000000E-1
Scans to average: 1
Nonlinearity correction enabled: true
Boxcar width: 0
Storing dark spectrum: false
XAxis mode: Wavelengths
Number of Pixels in Spectrum: 2068
>>>>>Begin Spectral Data<<<<<
194.03	101.28889
194.578	116.37207
195.127	102.32303
195.676	124.39307
196.225	104.27295
196.773	115.31565
197.321	204.55303
197.87	298.7408
198.418	320.79837
198.966	321.81952
199.513	358.8753
200.061	315.77578
200.609	280.72077
201.156	267.56981
201.704	303.74045
202.251	308.79531
202.798	321.80565
203.345	371.88088
203.892	299.73475
204.438	358.81407
204.985	283.65487
205.532	317.80817
206.078	301.71334
206.624	344.83295
207.17	365.8204
207.716	350.82671
208.262	374.70371
208.808	343.83194
209.354	361.85846
209.899	390.93754
210.445	354.85264
210.99	356.83567
211.535	354.80171
212.08	346.7718
212.625	320.7734
213.17	346.85037
213.715	327.72143
214.259	392.87186
214.804	291.69337
215.348	356.78984
215.892	399.92322
216.436	289.64001
216.98	304.64469
217.524	389.88722
218.068	343.83443
218.612	415.002
219.155	335.76255
219.698	318.73044
220.242	292.69882
220.785	356.801
221.328	329.78269
221.871	334.82059
222.414	308.73569
222.956	309.71275
223.499	293.63045
224.041	277.61292
224.583	309.6245
225.126	317.66682
225.668	291.68405
226.21	270.66534
226.751	309.66258
227.293	319.6917
227.835	258.61605
228.376	293.6421
228.918	280.67547
229.459	327.7845
230	328.75672
230.541	293.64994
231.082	326.76287
231.622	247.54335
232.163	266.62273
232.704	353.84589
233.244	285.6848
233.784	289.67644
234.324	372.79508
234.864	310.67233
235.404	319.72026
235.944	305.6909
236.484	322.77295
237.023	306.69387
237.563	349.77447
238.102	374.83976
238.641	261.6376
239.18	253.57825
239.719	313.75463
240.258	304.6565
240.797	347.79209
241.335	273.64325
241.874	383.70134
242.412	368.85236
242.95	287.67176
243.488	257.55989
244.026	371.82054
244.564	361.70349
245.102	339.73474
245.64	275.6356
246.177	292.62465
246.715	377.86055
247.252	318.69144
247.789	325.5723
248.326	329.76129
248.863	337.70858
249.4	287.62815
249.936	354.70511
250.473	380.85358
251.009	317.69644
251.546	398.83922
252.082	306.6339
252.618	337.72043
253.154	353.81163
253.69	302.65163
254.226	369.84128
254.761	300.64842
255.297	339.70587
255.832	316.72323
256.367	360.80568
256.903	388.81598
257.438	357.79716
257.972	348.73831
258.507	334.73271
259.042	322.67092
259.576	364.76652
260.111	325.71492
260.645	374.76436
261.179	312.70374
261.713	363.77299
262.247	310.68006
262.781	345.69278
263.315	299.69957
263.849	362.86596
264.382	358.7827
264.915	366.82551
265.449	309.7272
265.982	383.82372
266.515	369.86296
267.048	382.76478
267.58	327.67392
268.113	324.67089
268.646	288.68161
269.178	325.69569
269.71	366.76972
270.243	390.85661
270.775	371.90994
271.307	296.67882
271.838	403.89836
272.37	382.88933
272.902	366.78733
273.433	392.82185
273.965	329.76733
274.496	359.84944
275.027	356.84804
275.558	383.88937
276.089	407.96409
276.62	288.70289
277.15	366.85779
277.681	351.71817
278.211	325.76128
278.741	387.8137
279.272	356.77734
279.802	349.83089
280.332	389.87147
280.861	396.89608
281.391	375.80929
281.921	357.81393
282.45	374.88304
282.98	372.92638
283.509	462.98099
284.038	415.89522
284.567	392.86535
285.096	420.96235
285.625	371.79242
286.153	439.98709
286.682	390.84977
287.21	350.7962
287.739	397.88829
288.267	368.85573
288.795	353.88402
289.323	386.86137
289.851	412.91633
290.378	367.77743
290.906	369.86262
291.433	416.98141
291.961	437.93782
292.488	389.9172
293.015	388.87083
293.542	451.09155
294.069	424.99407
294.596	388.9008
295.122	437.98742
295.649	380.78789
296.175	420.95385
296.702	421.97411
297.228	420.95424
297.754	440.92817
298.28	398.86867
298.806	432.98149
299.332	459.96039
299.857	499.04958
300.383	446.05407
300.908	437.0122
301.433	462.06155
301.958	433.93324
302.483	394.92845
303.008	462.07803
303.533	434.05604
304.058	469.01839
304.582	446.9907
305.107	436.07117
305.631	469.99173
306.155	440.96438
306.679	449.9926
307.203	449.97892
307.727	466.03225
308.251	480.10649
308.775	491.11457
309.298	477.07441
309.822	469.1036
310.345	509.12931
310.868	458.03638
311.391	489.12347
311.914	499.16565
312.437	550.15324
312.96	565.21993
313.482	469.02919
314.005	518.19944
314.527	444.08845
315.049	555.29715
315.571	489.02354
316.093	558.27328
316.615	481.07681
317.137	522.04764
317.659	543.21334
318.18	540.18552
318.702	559.20335
319.223	508.95354
319.744	600.22611
320.265	534.20473
320.786	561.29375
321.307	568.2904
321.828	561.15898
322.348	586.2602
322.869	617.33691
323.389	671.16263
323.909	573.19652
324.43	624.35238
324.95	642.32452
325.47	654.46919
325.989	687.46027
326.509	653.31437
327.029	663.36025
327.548	623.2775
328.067	734.58495
328.587	730.63603
329.106	605.23718
329.625	646.53095
330.144	689.43402
330.662	722.50844
331.181	750.56562
331.7	725.49431
332.218	697.34257
332.736	780.60312
333.255	749.56111
333.773	731.53232
334.291	783.73222
334.808	745.48126
335.326	755.49071
335.844	821.68407
336.361	811.84474
336.879	863.75519
337.396	845.7933
337.913	846.69132
338.43	859.66546
338.947	894.83601
339.464	894.63506
339.981	837.72541
340.497	840.80162
341.014	911.9066
341.53	868.68014
342.046	972.06617
342.562	939.00154
343.078	954.90133
343.594	939.89866
344.11	1002.01491
344.626	975.09537
345.141	958.84755
345.657	991.87253
346.172	977.99445
346.687	1004.92069
347.202	1145.10813
347.717	1015.02477
348.232	1051.1875
348.747	1039.98919
349.261	1005.83069
349.776	1108.15825
350.29	1098.27889
350.805	1117.26967
351.319	1126.12414
351.833	1069.02467
352.347	1102.13236
352.861	1142.17327
353.374	1132.07738
353.888	1189.35073
354.401	1154.10943
354.915	1183.13285
355.428	1200.42039
355.941	1206.23792
356.454	1230.14547
356.967	1177.20174
357.48	1230.19487
357.993	1244.44199
358.505	1167.29966
359.018	1311.52395
359.53	1412.64341
360.042	1318.26971
360.554	1280.48114
361.066	1257.42782
361.578	1311.22601
362.09	1270.38147
362.602	1367.31295
363.113	1321.41762
363.625	1384.38397
364.136	1401.30229
364.647	1376.50672
365.158	1441.52132
365.669	1412.56869
366.18	1459.57552
366.691	1464.35702
367.201	1411.57909
367.712	1458.48968
368.222	1479.53044
368.733	1417.29165
369.243	1553.50921
369.753	1483.53464
370.263	1614.83381
370.773	1512.74586
371.282	1594.7725
371.792	1630.7015
372.301	1664.87997
372.811	1713.26765
373.32	1740.55596
373.829	1743.86145
374.338	1836.71381
374.847	1859.87618
375.356	1846.94717
375.865	2050.7048
376.373	2065.94888
376.882	2193.52519
377.39	2126.24373
377.898	2128.33144
378.407	2309.05419
378.915	2501.9374
379.423	2533.23698
379.93	2622.25758
380.438	2643.43565
380.946	2878.29146
381.453	2927.47334
381.96	3075.44625
382.468	3235.33707
382.975	3505.55822
383.482	3656.92522
383.989	3663.86779
384.495	3778.14648
385.002	3946.41739
385.509	4226.10377
386.015	4512.96576
386.521	4741.48734
387.028	4847.40971
387.534	5005.92911
388.04	5246.59533
388.546	5334.94383
389.051	5576.80016
389.557	5832.99561
390.063	6336.66001
390.568	6694.97037
391.073	6853.5109
391.578	7223.05915
392.084	7241.68697
392.589	7649.66392
393.093	8155.41533
393.598	8989.42138
394.103	9725.02623
394.607	10876.70336
395.112	11475.17196
395.616	12191.93937
396.12	13272.53686
396.624	14636.28602
397.128	15729.49172
397.632	17676.20347
398.136	19007.99862
398.639	20148.12158
399.143	22460.84513
399.646	25339.33876
400.15	28226.42543
400.653	31123.81826
401.156	35020.79386
401.659	40784.56366
402.162	49714.7329
402.664	60444.28272
403.167	63834.19938
403.67	63769.22307
404.172	63919.58413
404.674	63858.43483
405.176	63738.15102
405.678	63977.72923
406.18	64011.81569
406.682	63863.44694
407.184	63926.60148
407.686	63841.39382
408.187	64025.8516
408.688	63892.51763
409.19	63833.37461
409.691	63977.72923
410.192	63945.6488
410.693	63713.09355
411.194	61812.64244
411.694	58989.72371
412.195	54266.99858
412.696	49452.08086
413.196	46133.72304
413.696	44954.62913
414.196	45420.719
414.696	44632.77814
415.196	42353.90111
415.696	38414.11551
416.196	31487.00814
416.695	24160.95587
417.195	20734.88547
417.694	19898.7727
418.194	18512.51149
418.693	17411.64585
419.192	16835.09593
419.691	16400.43929
420.19	15947.83654
420.688	15512.97502
421.187	14836.45941
421.685	14080.67898
422.184	12799.91612
422.682	11040.82125
423.18	9281.99233
423.678	8253.35054
424.176	7832.96568
424.674	7329.58605
425.172	6841.77588
425.669	6456.09824
426.167	6092.84281
426.664	5628.88926
427.161	5122.24269
427.659	4687.88031
428.156	4428.14725
428.652	4197.43862
429.149	3986.24366
429.646	3880.71575
430.143	3769.23903
430.639	3378.27381
431.135	3299.64742
431.632	3083.1021
432.128	3005.40028
432.624	2794.82752
433.12	2661.08742
433.616	2627.88291
434.111	2480.25607
434.607	2403.26969
435.103	2303.61666
435.598	2318.59296
436.093	2171.03138
436.588	2106.85004
437.083	1978.76403
437.578	1954.88433
438.073	1804.09709
438.568	1834.05014
439.062	1668.39406
439.557	1627.66059
440.051	1548.45304
440.546	1510.4521
441.04	1538.66756
441.534	1507.80192
442.028	1480.6148
442.522	1400.51104
443.015	1403.17156
443.509	1437.59536
444.002	1378.54433
444.496	1289.0891
444.989	1266.3751
445.482	1350.54551
445.975	1306.28461
446.468	1317.11335
446.961	1292.09574
447.454	1259.14298
447.947	1227.27645
448.439	1214.33624
448.931	1253.20006
449.424	1160.36408
449.916	1208.31138
450.408	1138.04571
450.9	1100.14566
451.392	1150.34051
451.884	1065.96077
452.375	1069.14744
452.867	1071.91585
453.358	1065.95295
453.849	1079.81383
454.341	1106.97205
454.832	1014.75466
455.323	1057.14466
455.814	927.75311
456.304	973.84473
456.795	951.78457
457.285	977.7437
457.776	969.80504
458.266	920.81824
458.756	886.75423
459.247	909.817
459.737	939.89001
460.226	940.76433
460.716	852.72376
461.206	830.68839
461.695	851.78801
462.185	826.66729
462.674	862.65182
463.163	798.52016
463.653	877.54228
464.142	773.61546
464.63	794.65023
465.119	768.53308
465.608	793.5878
466.096	738.37165
466.585	731.44124
467.073	735.5007
467.561	759.57077
468.05	728.44842
468.538	716.52626
469.026	717.4778
469.513	700.27123
470.001	703.40348
470.489	707.465
470.976	669.37196
471.463	623.3826
471.951	660.44993
472.438	599.2531
472.925	618.29148
473.412	602.30353
473.899	642.29606
474.385	554.22395
474.872	534.12407
475.359	561.24382
475.845	572.0494
476.331	521.99844
476.817	556.21968
477.303	510.07535
477.789	484.05258
478.275	507.14722
478.761	453.99015
479.247	475.96703
479.732	486.111
480.218	520.24535
480.703	432.98626
481.188	492.96677
481.673	466.98215
482.158	428.85251
482.643	450.06231
483.128	465.99574
483.612	538.15882
484.097	405.90879
484.581	432.92329
485.066	452.02029
485.55	394.81035
486.034	385.77667
486.518	454.00018
487.002	344.78825
487.486	306.70541
487.969	347.79432
488.453	316.74584
488.936	367.77301
489.42	378.77989
489.903	341.80093
490.386	279.54861
490.869	346.71227
491.352	287.65806
491.835	345.66048
492.318	333.7051
492.8	341.6623
493.283	326.78908
493.765	311.72393
494.247	277.61548
494.73	313.65551
495.212	274.62031
495.694	274.61753
496.175	292.66885
496.657	320.71736
497.139	287.46398
497.62	268.61733
498.102	265.63264
498.583	221.52418
499.064	285.60506
499.545	251.5489
500.026	270.58408
500.507	243.5377
500.988	308.73232
501.469	243.58279
501.949	282.66509
502.43	267.61662
502.91	312.62608
503.39	235.56146
503.87	232.52908
504.35	247.55498
504.83	266.55573
505.31	211.49234
505.79	203.4651
506.269	189.42153
506.749	262.57308
507.228	270.60827
507.707	297.62971
508.187	248.5699
508.666	244.5824
509.145	216.48862
509.623	252.56656
510.102	257.59683
510.581	262.6064
511.059	237.57575
511.538	232.57781
512.016	239.55196
512.494	240.55549
512.972	203.47181
513.45	195.4421
513.928	208.49059
514.406	225.53366
514.884	205.51363
515.361	254.58415
515.839	231.51349
516.316	236.55359
516.793	228.55648
517.27	217.50515
517.747	207.51602
518.224	192.43008
518.701	224.47774
519.178	224.54264
519.654	186.42897
520.131	177.42807
520.607	147.35243
521.083	199.43758
521.56	201.45996
522.036	186.39394
522.512	236.56266
522.987	229.53329
523.463	173.4005
523.939	234.56131
524.414	226.49935
524.89	242.55656
525.365	213.46581
525.84	242.56078
526.315	194.45739
526.79	227.49432
527.265	229.51116
527.74	169.401
528.215	137.31427
528.689	191.40692
529.164	175.36586
529.638	139.3464
530.112	175.40176
530.587	217.44883
531.061	159.37713
531.534	217.50654
532.008	184.43651
532.482	174.39057
532.956	169.42176
533.429	267.6274
533.903	221.46776
534.376	191.41063
534.849	161.36235
535.322	209.47827
535.795	118.28135
536.268	178.42081
536.741	143.33355
537.213	160.36017
537.686	176.42075
538.158	187.41448
538.631	212.49808
539.103	171.3776
539.575	142.28719
540.047	185.39276
540.519	206.47794
540.991	181.4308
541.463	176.4135
541.934	151.33483
542.406	187.43823
542.877	224.48872
543.348	172.40631
543.82	185.4388
544.291	240.54047
544.762	195.45215
545.233	227.55765
545.703	175.38061
546.174	237.53055
546.645	231.54091
547.115	231.53964
547.585	207.46244
548.056	255.60481
548.526	257.58762
548.996	241.55636
549.466	246.57705
549.935	319.72525
550.405	257.54276
550.875	276.6289
551.344	253.58127
551.814	267.58759
552.283	338.69674
552.752	303.67799
553.221	317.66506
553.69	377.8
554.159	322.76413
554.628	356.76154
555.096	319.77461
555.565	305.64215
556.033	375.84218
556.502	285.65923
556.97	308.6526
557.438	313.69979
557.906	328.73498
558.374	365.7975
558.842	325.74039
559.31	341.72172
559.777	341.79093
560.245	319.69524
560.712	340.73644
561.18	386.79926
561.647	310.65368
562.114	353.76345
562.581	420.96505
563.048	385.82624
563.514	478.10713
563.981	422.89841
564.448	456.9501
564.914	385.83799
565.381	473.99362
565.847	485.03441
566.313	452.96854
566.779	492.01006
567.245	474.00675
567.711	530.15328
568.176	507.03412
568.642	541.24114
569.108	558.24255
569.573	522.09636
570.038	600.10807
570.504	625.251
570.969	578.29246
571.434	640.2524
571.899	669.3979
572.363	675.3581
572.828	744.47755
573.293	742.46878
573.757	699.41807
574.222	730.41332
574.686	775.52954
575.15	768.59898
575.614	816.64483
576.078	768.55292
576.542	793.54171
577.006	787.51768
577.469	808.70765
577.933	789.5361
578.396	725.49699
578.86	790.59454
579.323	800.65608
579.786	763.41294
580.249	774.5715
580.712	708.50919
581.175	688.49567
581.637	700.39199
582.1	711.33941
582.563	664.22958
583.025	660.42319
583.487	739.29703
583.95	647.21505
584.412	708.28123
584.874	636.38193
585.336	674.40867
585.797	674.27922
586.259	667.37463
586.721	641.33281
587.182	651.32417
587.643	665.32751
588.105	604.27557
588.566	611.12308
589.027	657.42852
589.488	663.33943
589.949	678.4533
590.41	669.14504
590.87	701.40013
591.331	714.35001
591.791	680.3823
592.252	670.37432
592.712	721.50801
593.172	767.49816
593.632	845.57832
594.092	742.42358
594.552	752.39426
595.011	725.4401
595.471	812.56335
595.931	852.61692
596.39	822.68574
596.849	855.67977
597.308	882.55069
597.768	929.02283
598.227	984.94578
598.685	980.82152
599.144	1004.9327
599.603	1059.99055
600.062	1109.813
600.52	1107.97333
600.978	1135.11983
601.437	1190.09061
601.895	1333.09113
602.353	1295.11764
602.811	1382.28649
603.269	1390.45631
603.727	1416.51665
604.184	1435.37153
604.642	1562.76043
605.099	1659.66716
605.557	1669.82611
606.014	1742.43898
606.471	1774.05476
606.928	1915.66496
607.385	1929.18306
607.842	2024.85275
608.299	2042.94487
608.755	2044.10739
609.212	2112.77798
609.668	2177.85576
610.125	2236.18976
610.581	2276.07082
611.037	2276.85649
611.493	2233.02936
611.949	2309.28164
612.405	2312.45369
612.861	2310.98759
613.316	2447.24349
613.772	2426.00497
614.227	2430.25656
614.683	2448.63912
615.138	2445.12808
615.593	2444.07381
616.048	2495.01345
616.503	2400.29337
616.958	2474.49652
617.412	2467.1994
617.867	2445.89284
618.321	2477.51932
618.776	2498.82234
619.23	2415.1087
619.684	2362.85265
620.138	2343.96683
620.592	2321.25285
621.046	2305.11418
621.5	2217.16293
621.954	2161.74315
622.407	2247.77378
622.861	2086.13192
623.314	2080.80852
623.768	2061.99002
624.221	2003.23017
624.674	1935.81569
625.127	1990.87537
625.58	1917.68459
626.033	1910.57529
626.485	1811.87042
626.938	1752.80486
627.39	1802.7716
627.843	1694.63069
628.295	1615.56386
628.747	1611.68356
629.199	1645.5442
629.651	1557.49192
630.103	1527.46548
630.555	1478.15339
631.006	1421.40229
631.458	1398.41584
631.909	1388.2513
632.361	1317.26379
632.812	1331.2904
633.263	1363.1361
633.714	1303.00853
634.165	1145.15746
634.616	1193.1826
635.067	1207.01014
635.518	1161.14832
635.968	1248.7716
636.419	1175.95557
636.869	1131.10508
637.319	1099.01109
637.769	1077.90689
638.219	1044.97622
638.669	978.89788
639.119	967.89565
639.569	1008.9636
640.019	979.83541
640.468	998.79547
640.918	975.88712
641.367	936.70688
641.816	936.69226
642.265	991.87527
642.714	860.64402
643.163	941.78223
643.612	888.82613
644.061	868.52602
644.51	898.70189
644.958	941.68707
645.406	902.79343
645.855	846.73501
646.303	859.65754
646.751	898.72092
647.199	853.61136
647.647	810.59087
648.095	836.59653
648.543	885.4528
648.99	831.69004
649.438	794.55647
649.885	813.73358
650.333	836.32078
650.78	743.55133
651.227	854.7656
651.674	738.4445
652.121	790.66158
652.568	747.58311
653.015	735.57797
653.461	696.44057
653.908	664.33011
654.354	688.42844
654.801	652.34156
655.247	639.20471
655.693	637.47678
656.139	692.43867
656.585	666.39377
657.031	658.35575
657.477	648.23278
657.922	639.27198
658.368	628.368
658.813	536.09214
659.259	633.35762
659.704	662.37623
660.149	581.19071
660.594	622.30502
661.039	559.13677
661.484	577.21926
661.929	586.21748
662.373	498.13984
662.818	533.19195
663.262	570.23468
663.707	558.28146
664.151	548.20261
664.595	496.09106
665.039	554.23821
665.483	523.20888
665.927	562.17844
666.371	515.09518
666.814	510.09606
667.258	519.13194
667.701	598.11761
668.145	567.26757
668.588	530.18839
669.031	496.05768
669.474	470.02944
669.917	459.91489
670.36	528.1936
670.803	555.20393
671.245	443.82229
671.688	463.03091
672.13	494.01007
672.573	480.10869
673.015	489.07271
673.457	464.91691
673.899	458.01407
674.341	412.91861
674.783	454.99799
675.225	405.92557
675.666	461.03365
676.108	425.84082
676.549	448.95541
676.991	467.92998
677.432	462.82534
677.873	430.90071
678.314	507.09077
678.755	456.03101
679.196	394.83297
679.637	385.85612
680.078	385.83443
680.518	408.86332
680.959	412.90569
681.399	380.87665
681.839	377.85223
682.28	389.90009
682.72	375.79576
683.16	390.9058
683.6	395.82978
684.039	398.75256
684.479	372.85752
684.919	370.81064
685.358	302.71115
685.798	319.78505
686.237	345.76973
686.676	357.75096
687.115	372.81502
687.554	367.81847
687.993	373.76353
688.432	348.74024
688.871	359.76613
689.309	309.69882
689.748	343.66174
690.186	275.60926
690.625	311.68757
691.063	308.69216
691.501	359.8297
691.939	306.72868
692.377	314.71663
692.815	390.88538
693.253	313.70037
693.69	343.69799
694.128	342.77738
694.565	319.70938
695.003	325.78267
695.44	345.76336
695.877	311.68815
696.314	256.50943
696.751	341.71951
697.188	366.78767
697.625	278.58646
698.061	286.64721
698.498	302.67144
698.934	263.5965
699.371	284.63142
699.807	311.68929
700.243	292.66509
700.679	286.59963
701.115	293.64345
701.551	234.51789
701.987	276.56715
702.422	291.65544
702.858	292.65702
703.294	330.70654
703.729	259.59815
704.164	260.58862
704.599	288.60489
705.035	264.55986
705.47	229.53098
705.904	255.55977
706.339	276.59757
706.774	291.64148
707.209	277.60883
707.643	268.60697
708.078	227.52717
708.512	268.63772
708.946	278.62116
709.38	287.64273
709.814	256.54788
710.248	258.59927
710.682	305.68865
711.116	251.58152
711.549	217.53052
711.983	237.52026
712.416	292.65244
712.85	243.57257
713.283	222.49994
713.716	236.55705
714.149	223.49159
714.582	263.55762
715.015	212.49711
715.448	272.64898
715.881	307.61306
716.313	264.58233
716.746	241.54194
717.178	259.58981
717.61	291.69868
718.043	232.54549
718.475	236.54493
718.907	262.61937
719.339	227.48928
719.77	234.53343
720.202	207.49608
720.634	228.53378
721.065	247.55111
721.497	259.60029
721.928	192.44986
722.359	208.48467
722.79	231.52606
723.221	228.5388
723.652	242.58447
724.083	252.53442
724.514	245.53239
724.945	210.46865
725.375	260.57399
725.806	231.54112
726.236	276.66607
726.666	244.5443
727.096	248.57446
727.526	257.62876
727.956	226.49058
728.386	274.63266
728.816	247.60116
729.246	283.65824
729.675	198.46156
730.105	235.5451
730.534	210.46555
730.964	219.52003
731.393	227.52801
731.822	269.6498
732.251	248.59693
732.68	251.54705
733.109	254.59278
733.537	262.60568
733.966	255.60317
734.395	293.63316
734.823	183.38563
735.251	233.5304
735.68	268.62201
736.108	203.48409
736.536	230.50946
736.964	274.59502
737.392	246.58178
737.82	238.53684
738.247	245.55071
738.675	237.52552
739.102	214.50826
739.53	270.65676
739.957	249.61191
740.384	241.54772
740.811	187.44457
741.238	257.59565
741.665	265.58662
742.092	149.32861
742.519	233.54944
742.945	264.60545
743.372	315.7315
743.798	217.52894
744.225	247.55042
744.651	227.53882
745.077	234.55297
745.503	228.5208
745.929	268.61142
746.355	231.53137
746.781	264.60982
747.207	282.62828
747.632	258.6059
748.058	320.75382
748.483	264.56891
748.908	254.5979
749.334	264.61369
749.759	292.65136
750.184	310.69751
750.609	221.51344
751.033	242.53112
751.458	263.54763
751.883	282.64983
752.307	232.51604
752.732	290.698
753.156	274.63316
753.58	307.67192
754.005	259.61192
754.429	293.64967
754.853	243.57301
755.277	271.60415
755.7	295.68507
756.124	273.63824
756.548	290.63887
756.971	266.60979
757.394	262.6311
757.818	296.71675
758.241	293.69867
758.664	283.67095
759.087	264.55815
759.51	265.61371
759.933	291.65892
760.356	302.73128
760.778	313.71622
761.201	296.66602
761.623	266.5919
762.046	267.58241
762.468	329.72766
762.89	283.64472
763.312	310.70722
763.734	291.65544
764.156	291.67204
764.578	288.60889
765	295.6707
765.421	239.57843
765.843	252.62328
766.264	236.52515
766.686	240.56099
767.107	251.57206
767.528	292.70468
767.949	281.66826
768.37	280.6514
768.791	244.54925
769.212	259.61571
769.632	251.55285
770.053	201.50034
770.473	245.55455
770.894	203.47293
771.314	252.55586
771.734	236.51665
772.154	242.58227
772.575	255.54845
772.994	205.43769
773.414	255.5666
773.834	216.50886
774.254	241.55282
774.673	273.62596
775.093	250.58666
775.512	239.55679
775.931	307.72587
776.351	235.55394
776.77	161.37878
777.189	231.51648
777.607	234.56452
778.026	234.54997
778.445	225.54147
778.864	180.43409
779.282	203.45669
779.701	192.45759
780.119	179.43323
780.537	204.48078
780.955	192.46058
781.373	171.40231
781.791	256.54337
782.209	174.37094
782.627	172.43352
783.045	227.48277
783.462	198.4802
783.88	175.43325
784.297	205.48886
784.715	202.49541
785.132	168.38422
785.549	154.3676
785.966	194.46325
786.383	153.36192
786.8	216.47067
787.217	205.46364
787.633	175.42068
788.05	148.32702
788.466	158.34867
788.883	141.34844
789.299	140.31709
789.715	198.45719
790.131	161.38173
790.547	155.36835
790.963	144.34083
791.379	162.39098
791.795	139.29807
792.21	140.30947
792.626	90.20368
793.041	115.27183
793.457	135.31662
793.872	115.25628
794.287	150.34719
794.702	113.26233
795.117	129.30881
795.532	147.35525
795.947	111.25187
796.362	128.28484
796.776	176.38026
797.191	128.3005
797.605	115.26232
798.02	134.31077
798.434	170.35643
798.848	154.36675
799.262	105.25049
799.676	138.32094
800.09	98.2316
800.504	154.35291
800.918	82.18066
801.331	74.18311
801.745	114.2482
802.158	70.16748
802.572	145.33435
802.985	117.26731
803.398	124.28097
803.811	43.10502
804.224	75.17748
804.637	117.26764
805.05	106.23255
805.462	111.25932
805.875	87.21862
806.288	103.24006
806.7	39.09415
807.112	61.13493
807.525	76.17752
807.937	84.20059
808.349	78.18683
808.761	120.28337
809.173	118.27453
809.584	123.28826
809.996	39.09251
810.408	48.12185
810.819	99.22327
811.231	141.36167
811.642	148.3507
812.053	132.30759
812.464	168.37539
812.875	153.37434
813.286	147.36447
813.697	73.15931
814.108	97.22572
814.519	141.3
814.929	106.25825
815.34	84.19335
815.75	97.23918
816.16	55.13061
816.571	72.17992
816.981	64.14342
817.391	78.17896
817.801	82.19686
818.211	35.08051
818.62	65.15168
819.03	124.28849
819.44	55.13647
819.849	47.11329
820.259	50.12241
820.668	64.15254
821.077	59.14302
821.486	37.08498
821.895	54.12668
822.304	50.12819
822.713	84.18925
823.122	73.17489
823.531	43.09682
823.939	102.23881
824.348	123.28238
824.756	53.12741
825.164	86.20654
825.573	43.10455
825.981	72.17055
826.389	79.19027
826.797	118.28759
827.205	88.19461
827.612	71.16737
828.02	-22.05019
828.428	46.1132
828.835	89.22725
829.243	65.14755
829.65	59.14275
830.057	59.13703
830.464	97.2291
830.871	111.25422
831.278	80.18547
831.685	82.17352
832.092	36.08429
832.499	76.15956
832.905	44.10692
833.312	49.10512
833.718	98.23545
834.124	94.20518
834.531	51.12274
834.937	88.21767
835.343	87.19877
835.749	75.16478
836.155	45.11418
836.561	91.21451
836.966	73.17048
837.372	31.07605
837.777	94.22507
838.183	86.18071
838.588	77.18489
838.993	62.14522
839.399	55.13021
839.804	53.12479
840.209	82.2032
840.613	58.12322
841.018	39.09496
841.423	63.15598
841.828	72.17613
842.232	73.17021
842.637	106.24077
843.041	33.08248
843.445	42.10095
843.849	34.08181
844.253	71.16098
844.657	71.1732
845.061	107.23479
845.465	44.10253
845.869	113.2489
846.272	3.00715
846.676	-12.02773
847.079	59.14597
847.483	64.15301
847.886	89.20465
848.289	47.12329
848.692	43.10443
849.095	17.03934
849.498	86.20544
849.901	39.08518
850.304	94.21377
850.707	36.08846
851.109	64.15482
851.512	46.10934
851.914	51.12506
852.316	92.22556
852.718	99.25181
853.121	69.1624
853.523	23.05151
853.925	58.14781
854.326	60.14552
854.728	53.13213
855.13	37.09348
855.531	85.1946
855.933	40.09148
856.334	102.24506
856.736	83.17891
857.137	93.20794
857.538	46.11257
857.939	66.15917
858.34	88.20239
858.741	45.11337
859.142	65.14875
859.542	72.18453
859.943	42.10064
860.343	53.12741
860.744	105.24376
861.144	92.21641
861.544	99.23029
861.945	16.03953
862.345	46.10774
862.745	95.22742
863.145	11.02493
863.544	52.12716
863.944	49.11114
864.344	40.09449
864.743	67.15923
865.143	82.20417
865.542	-6.01331
865.941	96.22784
866.34	82.18482
866.74	44.11462
867.139	66.1538
867.537	12.02934
867.936	79.18268
868.335	35.08589
868.734	68.16752
869.132	24.05303
869.531	38.08736
869.929	43.09464
870.327	22.05096
870.726	34.08094
871.124	67.14832
871.522	40.09807
871.92	69.16322
872.318	68.15802
872.715	43.10089
873.113	48.11181
873.511	55.13131
873.908	43.10673
874.306	82.19709
874.703	87.20588
875.1	46.11178
875.497	75.17108
875.894	76.18197
876.291	69.16272
876.688	1.00252
877.085	49.11204
877.482	55.13237
877.878	119.27571
878.275	25.06171
878.671	16.03315
879.068	56.12962
879.464	94.21628
879.86	48.10898
880.256	47.10967
880.652	36.08846
881.048	33.078
881.444	11.02492
881.84	82.19933
882.236	67.16149
882.631	105.24675
883.027	70.16138
883.422	31.07616
883.817	95.23011
884.213	79.19459
884.608	117.27912
885.003	60.13739
885.398	17.04129
885.793	74.17718
886.188	21.05043
886.582	61.14898
886.977	73.16416
887.371	32.07761
887.766	20.04849
888.16	27.06392
888.554	101.23586
888.949	83.19922
889.343	84.19466
889.737	19.04976
890.131	86.20639
890.525	113.27751
890.918	71.1712
891.312	53.12021
891.706	60.15134
892.099	85.20627
892.492	103.20779
892.886	63.14736
893.279	60.14661
893.672	72.17731
894.065	25.06062
894.458	45.10785
894.851	101.23355
895.244	4.00992
895.637	58.13446
896.029	89.20907
896.422	42.09741
896.814	64.15207
897.206	82.18912
897.599	70.16556
897.991	91.21118
898.383	54.12261
898.775	136.2922
899.167	109.24482
899.559	74.17779
899.951	77.17124
900.342	35.08506
900.734	99.24043
901.125	52.13065
901.517	68.16027
901.908	31.0704
902.299	46.10858
902.69	53.12109
903.082	109.25054
903.473	95.22028
903.863	21.05157
904.254	78.1748
904.645	46.10854
905.036	76.17982
905.426	75.16062
905.817	69.16088
906.207	3.00684
906.597	85.19138
906.987	72.17757
907.378	93.22611
907.768	76.19396
908.158	69.16057
908.547	65.16404
908.937	34.08317
909.327	77.17812
909.717	9.02178
910.106	49.11236
910.495	47.11148
910.885	78.18982
911.274	54.12949
911.663	25.06076
912.052	71.16548
912.441	75.18446
912.83	78.16889
913.219	52.13069
913.608	57.13458
913.997	102.24636
914.385	68.15527
914.774	39.09115
915.162	85.19546
915.55	86.19653
915.939	71.1734
916.327	42.10006
916.715	112.27653
917.103	52.12055
917.491	65.15346
917.878	20.04738
918.266	20.05005
918.654	106.26056
919.041	82.20838
919.429	53.11977
919.816	82.19858
920.203	63.14793
920.591	63.15018
920.978	91.21226
921.365	79.19994
921.752	18.0407
922.139	81.16656
922.525	91.209
922.912	50.11656
923.299	52.12446
923.685	28.07005
924.072	31.06679
924.458	69.16461
924.844	34.08119
925.231	47.1037
925.617	64.15831
926.003	56.1372
926.389	45.10929
926.774	55.13347
927.16	97.22892
927.546	94.23345
927.931	71.16841
928.317	84.18219
928.702	79.177
929.088	89.20523
929.473	106.2594
929.858	67.15819
930.243	119.27353
930.628	70.16485
931.013	44.10515
931.398	60.12913
931.783	69.17264
932.167	95.22377
932.552	50.12004
932.937	60.14185
933.321	58.14115
933.705	14.03376
934.09	10.02394
934.474	59.13252
934.858	36.09051
935.242	53.11704
935.626	68.16814
936.009	32.08341
936.393	135.33067
936.777	78.19279
937.16	80.2015
937.544	40.08879
937.927	97.23645
938.311	82.18935
938.694	100.25395
939.077	79.18028
939.46	44.10132
939.843	51.09834
940.226	19.04694
940.609	77.17046
940.991	23.05625
941.374	49.11587
941.757	67.15751
942.139	75.16083
942.522	58.13008
942.904	65.14947
943.286	72.17463
943.668	88.22086
944.05	68.16052
944.432	4.00952
944.814	75.17453
945.196	48.11344
945.578	48.11154
945.959	20.04462
946.341	40.09244
946.722	95.21004
947.104	76.17333
947.485	70.15532
947.866	65.15863
948.247	68.16635
948.628	10.02308
949.009	25.06196
949.39	55.13046
949.771	9.01967
950.152	81.19005
950.532	73.17715
950.913	82.18807
951.293	58.15284
951.674	63.14579
952.054	123.29501
952.434	26.06244
952.814	54.12136
953.194	18.04503
953.574	38.08956
953.954	33.07442
954.334	78.18783
954.714	37.08729
955.093	73.17141
955.473	59.14339
955.853	61.15202
956.232	21.05587
956.611	65.14671
956.99	51.12386
957.37	42.1024
957.749	17.03842
958.128	49.11962
958.506	44.11043
958.885	64.15429
959.264	53.12649
959.643	139.29884
960.021	29.0699
960.4	93.19908
960.778	63.14608
961.156	46.11043
961.535	7.01556
961.913	97.21652
962.291	62.1551
962.669	54.13235
963.047	67.16515
963.424	89.22043
963.802	56.13245
964.18	65.15483
964.557	83.18029
964.935	85.19115
965.312	71.1788
965.69	49.11667
966.067	22.051
966.444	48.11119
966.821	78.19301
967.198	44.10108
967.575	72.16778
967.952	103.22887
968.329	77.1801
968.705	156.31319
969.082	97.24129
969.458	82.1904
969.835	71.16502
970.211	66.16463
970.587	61.14597
970.963	45.11015
971.339	55.13915
971.715	60.14405
972.091	97.22688
972.467	19.04505
972.843	67.16137
973.219	56.12715
973.594	43.10868
973.97	29.06441
974.345	83.19009
974.721	49.11182
975.096	105.24328
975.471	54.12191
975.846	83.18818
976.221	9.0222
976.596	63.14712
976.971	85.20177
977.346	48.10584
977.72	51.12427
978.095	77.19057
978.469	62.1406
978.844	74.17671
979.218	70.16299
979.593	73.16578
979.967	4.00923
980.341	102.22321
980.715	51.1239
981.089	65.15572
981.463	59.12919
981.837	50.11885
982.21	86.18406
982.584	94.21689
982.957	39.09447
983.331	51.11337
983.704	83.19725
984.078	39.09226
984.451	65.15191
984.824	22.05207
985.197	25.05749
985.57	48.11366
985.943	19.04437
986.316	44.10189
986.688	90.20575
987.061	87.19436
987.434	88.22276
987.806	55.12561
988.179	58.13008
988.551	78.18825
988.923	50.11734
989.295	55.13101
989.667	74.17149
990.039	81.19465
990.411	33.07153
990.783	46.09964
991.155	-9.02108
991.527	64.14743
991.898	89.21265
992.27	55.13197
992.641	46.1101
993.012	35.07671
993.384	32.07289
993.755	50.12345
994.126	59.13708
994.497	73.17121
994.868	52.11245
995.239	47.10881
995.61	73.17602
995.98	32.07463
996.351	44.10559
996.722	55.12343
997.092	56.12756
997.462	77.17351
997.833	92.20464
998.203	52.11869
998.573	52.12489
998.943	83.18604
999.313	64.14749
999.683	46.10626
1000.053	28.06019
1000.423	11.02559
1000.792	33.08158
1001.162	40.09387
1001.531	86.20245
1001.901	60.14246
1002.27	28.05852
1002.639	41.10006
1003.009	64.14478
1003.378	40.0988
1003.747	83.18481
1004.116	67.15259
1004.485	54.1233
1004.853	-18.04371
1005.222	5.01197
1005.591	108.24133
1005.959	58.1251
1006.328	76.16294
1006.696	25.05774
1007.064	52.12422
1007.433	37.08817
1007.801	68.15633
1008.169	41.09845
1008.537	120.24859
1008.905	46.10334
1009.273	40.09409
1009.64	53.12275
1010.008	66.14961
1010.375	41.09356
1010.743	49.10421
1011.11	120.27367
1011.478	74.1763
1011.845	65.14461
1012.212	156.33358
1012.579	65.15287
1012.946	51.1145
1013.313	99.22071
1013.68	61.12939
1014.047	28.06409
1014.414	25.05661
1014.78	86.20466
1015.147	55.12541
1015.513	92.21041
1015.88	60.14596
1016.246	68.15802
1016.612	56.12084
1016.978	57.13468
1017.344	67.15868
1017.71	101.2316
1018.076	52.11567
1018.442	95.23399
1018.808	84.20243
1019.174	39.09347
1019.539	41.08591
1019.905	64.14478
1020.27	26.06166
1020.636	58.13073
1021.001	71.16254
1021.366	64.14749
1021.731	160.39387
1022.096	40.09818
1022.461	83.18711
1022.826	94.21368
1023.191	33.08373
1023.556	43.09575
1023.92	84.19443
1024.285	40.09251
1024.649	52.12113
1025.014	43.10089
1025.378	38.09261
1025.742	39.09215
1026.107	64.13685
1026.471	55.12145
1026.835	100.23541
1027.199	57.13149
1027.562	24.05288
1027.926	63.14608
1028.29	80.19359
1028.654	75.16277
1029.017	36.08531
1029.381	70.15997
1029.744	30.07388
1030.107	112.24985
1030.471	81.18551
1030.834	-1.00215
1031.197	103.23438
1031.56	24.05403
1031.923	25.06262
1032.286	122.26934
1032.648	28.06326
1033.011	89.19645
1033.374	75.16527
1033.736	58.14698
1034.099	35.08203
1034.461	38.09327
1034.823	44.10579
1035.185	68.16201
1035.548	58.13569
1035.91	43.09836
1036.272	102.22019
1036.634	106.24535
1036.995	9.02018
1037.357	98.22755
1037.719	43.10046
1038.08	95.21565
1038.442	11.02509
1038.803	5.01137
1039.165	11.02669
1039.526	53.1226
1039.887	66.15028
1040.248	91.21735
1040.609	48.11229
1040.97	58.135
1041.331	75.18296
1041.692	85.19201
1042.053	101.21499
1042.413	91.19901
1042.774	77.17876
1043.134	55.12308
1043.495	50.12054
1043.855	107.2487
1044.215	59.13919
1044.576	97.22153
1044.936	99.21248
1045.296	62.14794
1045.656	37.0861
1046.016	67.15308
1046.375	43.09994
1046.735	115.25011
1047.095	91.2017
1047.454	47.09307
1047.814	54.1242
1048.173	67.14987
1048.533	47.10266
1048.892	41.09481
1049.251	33.07903
1049.61	36.08528
1049.969	66.14748
1050.328	76.1554
1050.687	49.11326
1051.046	65.1503
1051.405	80.18759
1051.763	56.1242
1052.122	7.01685
1052.48	76.17822
1052.839	76.17305
1053.197	42.09439
1053.555	78.16405
1053.914	67.15573
1054.272	26.05894
1054.63	82.19138
1054.988	55.12612
1055.345	51.10236
1055.703	59.13583
1056.061	60.15004
1056.419	82.20669
1056.776	54.12276
1057.134	-18.03949
1057.491	81.19354
1057.848	47.11144
1058.206	21.04657
1058.563	60.12491
1058.92	71.15435
1059.277	36.08528
1059.634	2.00446
1059.991	101.22955
1060.348	26.05651
1060.704	131.30123
1061.061	58.12542
1061.418	54.12544
1061.774	32.07598
1062.131	40.10384
1062.487	45.09979
1062.843	52.12413
1063.199	49.11694
1063.555	90.19936
1063.911	40.09643
1064.267	81.15559
1064.623	91.2126
1064.979	0
1065.335	64.14419
1065.691	32.0723
1066.046	89.18351
1066.402	15.03243
1066.757	59.1428
1067.112	58.13531
1067.468	55.12586
1067.823	12.02715
1068.178	40.09196
1068.533	13.03035
1068.888	72.16255
1069.243	65.15328
1069.598	4.00931
1069.952	53.1164
1070.307	57.13588
1070.662	49.11281
1071.016	112.2396
1071.371	94.20301
1071.725	59.13312
1072.079	28.06484
1072.434	30.07035
1072.788	35.07861
1073.142	72.1691
1073.496	2.00456
1073.85	60.13197
1074.203	69.15974
1074.557	85.21956
1074.911	117.26074
1075.265	90.19753
1075.618	52.1216
1075.971	45.10215
1076.325	69.16933
1076.678	41.08959
1077.031	-26.05557
1077.385	71.14699
1077.738	26.05593
1078.091	30.06596
1078.444	34.0744
1078.796	107.25047
1079.149	74.17603
1079.502	75.16977
1079.855	67.14875
1080.207	71.16607
1080.56	24.06039
1080.912	44.10233
1081.264	83.19078
1081.617	37.08692
1081.969	55.13402
1082.321	37.0863
1082.673	88.19331
1083.025	59.13241
1083.377	303.64327
1083.728	94.20579
1084.08	15.03587
1084.432	36.08283
1084.783	44.09621
1085.135	63.15191
1085.486	54.11847
1085.838	58.13718
1086.189	82.19116
1086.54	92.20693
1086.891	53.13136
1087.242	116.27212
1087.593	60.137
1087.944	111.23854
1088.295	88.18809
1088.646	86.20229
1088.996	61.14128
1089.347	35.08186
1089.698	73.16618
1090.048	28.06974
1090.398	42.09222
1090.749	33.07488
1091.099	59.1442
1091.449	26.06268
1091.799	63.15082
1092.149	51.12106
1092.499	46.10753
1092.849	65.15857
1093.199	52.12365
1093.548	76.17591
1093.898	6.01445
1094.248	13.03196
1094.597	37.09234
1094.947	27.06994
1095.296	90.21269
1095.645	39.0973
1095.994	99.22501
1096.343	29.07061
1096.692	88.22537
1097.041	67.17784
1097.39	66.15724
1097.739	61.15213
1098.088	28.07206
1098.437	47.12102
1098.785	3.0078
1099.134	13.03289
1099.482	78.20741
1099.83	61.15422
1100.179	83.21171
1100.527	47.11895
1100.875	52.13369
1101.223	81.20799
1101.571	-1.00269
1101.919	55.14182
1102.267	55.15149
1102.615	-3.00964
1102.962	1.00321
1103.31	11.0353
1103.658	3.00961
