Data from N3 R4 sample 2_Subt2__2__12-51-11-174.txt Node

Date: Thu Sep 18 12:51:11 PDT 2025
User: uwsun
Spectrometer: HDX01956
Trigger mode: 0
Integration Time (sec): 5.000000E-1
Scans to average: 1
Nonlinearity correction enabled: true
Boxcar width: 0
Storing dark spectrum: false
XAxis mode: Wavelengths
Number of Pixels in Spectrum: 2068
>>>>>Begin Spectral Data<<<<<
194.03	177.5005
194.578	187.59469
195.127	193.60433
195.676	200.62804
196.225	219.56348
196.773	226.60928
197.321	308.82077
197.87	487.16643
198.418	510.226
198.966	485.19986
199.513	497.18137
200.061	465.11112
200.609	466.15805
201.156	480.97699
201.704	461.09105
202.251	467.17
202.798	475.15662
203.345	513.18245
203.892	469.11386
204.438	482.06642
204.985	501.10692
205.532	500.23093
206.078	490.11656
206.624	508.18972
207.17	572.229
207.716	525.19572
208.262	558.00104
208.808	536.25049
209.354	588.33481
209.899	497.16823
210.445	525.2212
210.99	541.22179
211.535	586.26236
212.08	507.09124
212.625	477.11636
213.17	549.29614
213.715	574.19887
214.259	539.16023
214.804	492.12474
215.348	526.12371
215.892	574.27981
216.436	491.03953
216.98	497.00771
217.524	515.14264
218.068	527.23548
218.612	589.37617
219.155	510.11768
219.698	533.16939
220.242	457.05694
220.785	486.06231
221.328	417.97518
221.871	523.23754
222.414	419.97947
222.956	398.9017
223.499	445.92616
224.041	425.91128
224.583	405.8005
225.126	462.94078
225.668	450.02279
226.21	468.10871
226.751	536.09115
227.293	451.95033
227.835	502.14027
228.376	499.04405
228.918	436.01845
229.459	463.07973
230	505.12181
230.541	459.9829
231.082	495.11776
231.622	407.86516
232.163	446.00508
232.704	510.18323
233.244	461.06832
233.784	471.06088
234.324	517.06841
234.864	427.90293
235.404	513.11032
235.944	414.91696
236.484	458.06868
237.023	465.01825
237.563	485.0438
238.102	498.08767
238.641	457.07323
239.18	486.05649
239.719	459.07375
240.258	519.06728
240.797	479.0622
241.335	457.036
241.874	516.91329
242.412	499.12359
242.95	516.15127
243.488	451.94198
244.026	520.11231
244.564	519.97347
245.102	543.12374
245.64	461.02391
246.177	487.99777
246.715	511.13281
247.252	482.00953
247.789	565.93285
248.326	488.09139
248.863	547.09513
249.4	511.06354
249.936	532.01416
250.473	491.07575
251.009	490.03537
251.546	536.09413
252.082	500.99083
252.618	530.08382
253.154	495.10366
253.69	519.06584
254.226	488.08376
254.761	515.05999
255.297	491.98778
255.832	503.10579
256.367	485.05543
256.903	551.11538
257.438	494.06981
257.972	526.07076
258.507	473.00527
259.042	508.01292
259.576	568.14067
260.111	530.11368
260.645	560.09455
261.179	521.12286
261.713	538.1002
262.247	470.99623
262.781	542.03727
263.315	502.12552
263.849	480.1201
264.382	536.12582
264.915	556.20329
265.449	475.07949
265.982	561.15847
266.515	549.23635
267.048	542.04328
267.58	544.06473
268.113	561.09833
268.646	468.06678
269.178	492.01324
269.71	557.12034
270.243	576.21369
270.775	567.33765
271.307	503.10347
271.838	544.17527
272.37	504.14297
272.902	526.09069
273.433	564.13575
273.965	525.175
274.496	532.21437
275.027	562.28345
275.558	573.27836
276.089	575.31555
276.62	516.2033
277.15	560.26039
277.681	554.07973
278.211	536.20138
278.741	585.17459
279.272	572.18994
279.802	558.27277
280.332	590.26501
280.861	549.20152
281.391	518.08173
281.921	546.19519
282.45	565.28228
282.98	573.37216
283.509	567.17454
284.038	616.26966
284.567	571.21131
285.096	617.35565
285.625	575.17202
286.153	623.34591
286.682	582.21453
287.21	535.16935
287.739	563.21457
288.267	582.29392
288.795	571.371
289.323	571.22342
289.851	662.39394
290.378	623.24411
290.906	587.31126
291.433	605.37261
291.961	640.31152
292.488	596.34643
293.015	607.29899
293.542	662.53931
294.069	681.51395
294.596	576.28533
295.122	617.34089
295.649	625.22328
296.175	592.29548
296.702	665.46184
297.228	643.39272
297.754	625.26313
298.28	632.30911
298.806	660.42806
299.332	673.33977
299.857	675.36558
300.383	587.35002
300.908	645.43326
301.433	624.38798
301.958	710.43747
302.483	645.44333
303.008	670.50024
303.533	658.53481
304.058	650.35785
304.582	679.43323
305.107	607.44482
305.631	686.37995
306.155	689.42893
306.679	691.44838
307.203	709.45868
307.727	701.47777
308.251	700.54368
308.775	748.61038
309.298	717.53665
309.822	711.59505
310.345	756.5921
310.868	754.60456
311.391	714.56735
311.914	703.57709
312.437	733.47564
312.96	756.5663
313.482	777.59588
314.005	739.63687
314.527	677.58873
315.049	777.73749
315.571	793.54975
316.093	805.74614
316.615	781.64155
317.137	805.51163
317.659	876.82403
318.18	797.65611
318.702	844.70678
319.223	773.35542
319.744	871.6719
320.265	805.71651
320.786	845.83916
321.307	844.81098
321.828	869.67286
322.348	892.79326
322.869	890.81712
323.389	1276.8663
323.909	934.79604
324.43	905.84486
324.95	943.81554
325.47	948.00028
325.989	957.91569
326.509	1008.86533
327.029	1020.92602
327.548	987.85951
328.067	1007.04675
328.587	1069.22795
329.106	1008.87552
329.625	1023.24643
330.144	1012.95651
330.662	1070.06342
331.181	1078.08681
331.7	1042.99638
332.218	1129.95279
332.736	1111.11361
333.255	1102.11719
333.773	1133.16493
334.291	1183.39854
334.808	1137.05587
335.326	1122.02608
335.844	1216.27324
336.361	1220.54464
336.879	1283.36191
337.396	1276.45467
337.913	1281.30554
338.43	1256.20706
338.947	1253.36613
339.464	1323.16252
339.981	1265.35875
340.497	1353.58273
341.014	1338.5375
341.53	1349.3154
342.046	1443.75761
342.562	1398.68737
343.078	1420.52767
343.594	1389.52225
344.11	1488.66418
344.626	1489.85117
345.141	1438.45924
345.657	1544.53142
346.172	1534.74135
346.687	1533.56515
347.202	1571.59233
347.717	1566.73345
348.232	1590.91992
348.747	1652.70554
349.261	1595.48318
349.776	1657.81761
350.29	1647.00674
350.805	1637.94046
351.319	1660.7337
351.833	1682.72337
352.347	1681.81475
352.861	1745.84909
353.374	1703.69128
353.888	1747.01342
354.401	1726.7149
354.915	1814.76287
355.428	1719.06261
355.941	1807.86885
356.454	1805.69048
356.967	1776.84688
357.48	1797.75501
357.993	1803.0848
358.505	1834.06331
359.018	1905.16008
359.53	1940.17454
360.042	1961.8249
360.554	1945.19064
361.066	1886.11049
361.578	1965.77559
362.09	1983.08953
362.602	2013.83955
363.113	2056.0951
363.625	1986.89743
364.136	2063.8002
364.647	2097.15337
365.158	2151.09656
365.669	2120.19516
366.18	2101.11697
366.691	2128.81985
367.201	2145.22697
367.712	2186.04242
368.222	2199.07534
368.733	2277.84907
369.243	2342.99847
369.753	2308.12334
370.263	2386.39113
370.773	2304.38574
371.282	2440.35432
371.792	2457.20686
372.301	2494.42685
372.811	2544.92759
373.32	2634.90736
373.829	2613.3307
374.338	2744.04186
374.847	2831.25128
375.356	2827.36548
375.865	3071.84443
376.373	3151.15586
376.882	3192.83236
377.39	3266.50131
377.898	3316.61642
378.407	3547.05822
378.915	3621.8099
379.423	3691.15791
379.93	3846.10106
380.438	3994.26347
380.946	4328.88231
381.453	4357.08955
381.96	4552.95111
382.468	4884.65212
382.975	5184.78953
383.482	5322.06701
383.989	5483.00867
384.495	5693.15741
385.002	5939.40188
385.509	6304.05872
386.015	6616.15359
386.521	7043.6867
387.028	7251.71458
387.534	7367.49126
388.04	7750.19024
388.546	7879.92237
389.051	8343.38075
389.557	8931.33764
390.063	9623.78754
390.568	9959.64002
391.073	10363.04293
391.578	10727.08047
392.084	10946.19945
392.589	11338.2298
393.093	12261.46302
393.598	13302.73402
394.103	14525.22887
394.607	16161.2284
395.112	17201.62653
395.616	18146.58548
396.12	19760.75761
396.624	21833.45356
397.128	23722.17129
397.632	26356.45178
398.136	28566.78779
398.639	30223.98818
399.143	33645.991
399.646	38200.65663
400.15	42084.12638
400.653	46756.44598
401.156	52461.09728
401.659	61083.8414
402.162	63028.81042
402.664	62441.93235
403.167	63977.72923
403.67	63769.22307
404.172	63919.58413
404.674	63858.43483
405.176	63738.15102
405.678	63977.72923
406.18	64011.81569
406.682	63863.44694
407.184	63926.60148
407.686	63841.39382
408.187	64025.8516
408.688	63892.51763
409.19	63833.37461
409.691	63977.72923
410.192	63945.6488
410.693	63713.09355
411.194	63812.32447
411.694	63919.58413
412.195	64038.8851
412.696	63881.49072
413.196	63630.90911
413.696	63920.58661
414.196	63600.83705
414.696	63945.45531
415.196	62449.70603
415.696	56793.08651
416.196	46138.01713
416.695	35966.89882
417.195	30984.55446
417.694	29193.00892
418.194	27535.1742
418.693	25688.23589
419.192	24904.60295
419.691	24429.29727
420.19	23725.30014
420.688	23050.97886
421.187	22111.44139
421.685	20849.70629
422.184	19010.66811
422.682	16268.45811
423.18	13954.85247
423.678	12408.76083
424.176	11494.70736
424.674	10946.32512
425.172	10382.98606
425.669	9625.78622
426.167	9104.6403
426.664	8269.33996
427.161	7609.84872
427.659	7161.98053
428.156	6737.26194
428.652	6251.38465
429.149	6038.18554
429.646	5754.73315
430.143	5458.37103
430.639	5188.4353
431.135	4916.00716
431.632	4524.55642
432.128	4382.98408
432.624	4164.64939
433.12	4006.80797
433.616	3927.59095
434.111	3692.20163
434.607	3606.28084
435.103	3503.49383
435.598	3426.48647
436.093	3255.17808
436.588	3145.99315
437.083	2904.99092
437.578	2861.17333
438.073	2734.61635
438.568	2659.49575
439.062	2581.74651
439.557	2467.15531
440.051	2356.92885
440.546	2283.95437
441.04	2317.23704
441.534	2182.40587
442.028	2275.23201
442.522	2175.16236
443.015	2067.61477
443.509	2114.18781
444.002	2022.15572
444.496	2049.65124
444.989	1957.06928
445.482	1975.17349
445.975	2028.90647
446.468	1921.58126
446.961	1961.61413
447.454	1820.64956
447.947	1852.92049
448.439	1820.00703
448.931	1857.76589
449.424	1853.19609
449.916	1740.91359
450.408	1813.71705
450.9	1682.83995
451.392	1725.06088
451.884	1643.59844
452.375	1645.8759
452.867	1565.45284
453.358	1639.58323
453.849	1617.33343
454.341	1592.49201
454.832	1511.27946
455.323	1586.83761
455.814	1496.44403
456.304	1520.50549
456.795	1452.39523
457.285	1443.27292
457.776	1442.37731
458.266	1464.53053
458.756	1351.3877
459.247	1369.44835
459.737	1426.55268
460.226	1397.33235
460.716	1302.36548
461.206	1272.32938
461.695	1236.37754
462.185	1278.31471
462.674	1212.12831
463.163	1235.10642
463.653	1233.97094
464.142	1160.21719
464.63	1196.26424
465.119	1210.1701
465.608	1164.13203
466.096	1054.80772
466.585	1110.99649
467.073	1086.04151
467.561	1094.09475
468.05	1070.96165
468.538	1030.04576
469.026	985.90922
469.513	1067.76055
470.001	1011.876
470.489	1038.99348
470.976	1052.97302
471.463	981.01456
471.951	955.96885
472.438	925.79702
472.925	897.75991
473.412	845.73568
473.899	895.7032
474.385	848.75944
474.872	824.62525
475.359	842.75862
475.845	819.41075
476.331	795.42184
476.817	809.68106
477.303	778.54517
477.789	689.43402
478.275	684.49263
478.761	697.44297
479.247	755.43777
479.732	712.55444
480.218	716.6512
480.703	686.48374
481.188	706.31597
481.673	698.39445
482.158	679.27213
482.643	664.50325
483.128	722.45846
483.612	666.39562
484.097	593.27719
484.581	607.24632
485.066	643.39568
485.55	655.26637
486.034	615.17357
486.518	623.32465
487.002	521.14926
487.486	527.15912
487.969	522.15075
488.453	512.1602
488.936	527.06915
489.42	582.14409
489.903	519.17442
490.386	468.87931
490.869	574.11932
491.352	485.0657
491.835	548.99775
492.318	473.97084
492.8	502.93763
493.283	451.06364
493.765	500.11827
494.247	467.99657
494.73	463.93745
495.212	445.97225
495.694	450.97756
496.175	418.93314
496.657	458.99748
497.139	399.62473
497.62	397.89085
498.102	415.96213
498.583	375.86288
499.064	413.85229
499.545	361.77107
500.026	411.86225
500.507	383.82266
500.988	421.97913
501.469	366.85712
501.949	397.91531
502.43	425.95053
502.91	463.8967
503.39	351.81991
503.87	374.82838
504.35	344.7575
504.83	331.68155
505.31	342.77738
505.79	279.62944
506.269	345.74456
506.749	267.5834
507.228	328.73014
507.707	385.80058
508.187	368.82528
508.666	350.81838
509.145	270.60404
509.623	348.76695
510.102	337.7702
510.581	360.81696
511.059	351.83437
511.538	326.79798
512.016	338.76517
512.494	274.62989
512.972	339.76666
513.45	279.62173
513.928	317.73178
514.406	300.70122
514.884	304.748
515.361	346.78105
515.839	333.72451
516.316	338.77699
516.793	321.76982
517.27	283.65019
517.747	301.73748
518.224	285.62615
518.701	272.57406
519.178	322.7656
519.654	250.5692
520.131	270.64149
520.607	274.64096
521.083	247.53764
521.56	212.48406
522.036	252.52601
522.512	287.67754
522.987	316.72323
523.463	272.61729
523.939	327.77045
524.414	281.61372
524.89	295.67124
525.365	264.57111
525.84	262.60472
526.315	264.61394
526.79	325.69298
527.265	309.6783
527.74	238.55719
528.215	246.55194
528.689	252.52975
529.164	228.47106
529.638	228.55896
530.112	257.58029
530.587	280.57096
531.061	253.58917
531.534	255.59079
532.008	271.63208
532.482	253.55865
532.956	219.54157
533.429	295.6894
533.903	252.52975
534.376	263.55665
534.849	215.47852
535.322	279.62944
535.795	197.46257
536.268	263.61149
536.741	215.49437
537.213	262.57744
537.686	214.50787
538.158	285.61877
538.631	234.5474
539.103	243.52849
539.575	210.41809
540.047	231.4855
540.519	259.59458
540.991	260.6094
541.463	254.58765
541.934	179.3946
542.406	253.58522
542.877	267.57722
543.348	233.54388
543.82	230.54078
544.291	312.69223
544.762	259.59291
545.233	283.68799
545.703	236.50661
546.174	254.56661
546.645	312.71895
547.115	249.57963
547.585	297.65114
548.056	307.72081
548.526	346.77691
548.996	302.68869
549.466	284.66122
549.935	313.71248
550.405	311.64901
550.875	312.70575
551.344	340.76751
551.814	303.66177
552.283	360.73842
552.752	361.79809
553.221	375.77666
553.69	446.93216
554.159	394.92195
554.628	362.77337
555.096	383.9188
555.565	392.8095
556.033	407.90803
556.502	351.80122
556.97	347.72896
557.438	389.85603
557.906	297.66977
558.374	342.75089
558.842	332.75526
559.31	313.66652
559.777	309.72126
560.245	260.57375
560.712	289.6328
561.18	289.61141
561.647	281.5963
562.114	343.74341
562.581	373.86513
563.048	386.82821
563.514	450.04793
563.981	347.7508
564.448	376.79736
564.914	421.90933
565.381	441.93294
565.847	421.91205
566.313	383.83293
566.779	457.94732
567.245	441.94518
567.711	463.02154
568.176	497.01598
568.642	482.11861
569.108	514.15483
569.573	466.9925
570.038	542.01525
570.504	536.09462
570.969	554.24483
571.434	607.19697
571.899	592.25784
572.363	611.24721
572.828	696.39752
573.293	649.31231
573.757	718.45037
574.222	677.32711
574.686	781.53924
575.15	734.53963
575.614	793.60683
576.078	720.4717
576.542	764.49547
577.006	743.44778
577.469	767.63542
577.933	743.46219
578.396	723.49352
578.86	764.55117
579.323	784.62871
579.786	808.4797
580.249	776.57485
580.712	829.72113
581.175	685.49009
581.637	689.37358
582.1	725.36115
582.563	682.25732
583.025	704.5039
583.487	754.31822
583.95	651.22137
584.412	702.27228
584.874	709.51688
585.336	634.33667
585.797	619.19037
586.259	635.31797
586.721	567.1981
587.182	660.33976
587.643	612.23653
588.105	660.37694
588.566	584.08062
589.027	596.31248
589.488	579.19195
589.949	591.2903
590.41	615.06763
590.87	539.11645
591.331	652.25123
591.791	546.14333
592.252	582.21722
592.712	508.11189
593.172	530.09263
593.632	611.20656
594.092	488.99462
594.552	478.94767
595.011	464.97879
595.471	522.07418
595.931	502.03295
596.39	504.10683
596.849	495.05395
597.308	443.86905
597.768	484.15285
598.227	474.04782
598.685	453.95287
599.144	498.0739
599.603	487.04273
600.062	453.87691
600.52	503.03524
600.978	501.08154
601.437	511.05646
601.895	555.06604
602.353	454.91776
602.811	469.97263
603.269	491.06941
603.727	463.02452
604.184	540.11229
604.642	540.20638
605.099	538.13847
605.557	487.08669
606.014	534.03574
606.471	490.13048
606.928	599.18504
607.385	606.36404
607.842	585.20054
608.299	631.30849
608.755	623.34591
609.212	599.18891
609.668	615.23152
610.125	688.457
610.581	634.31736
611.037	517.0493
611.493	550.15781
611.949	574.2608
612.405	611.09325
612.861	570.17524
613.316	587.26154
613.772	609.23974
614.227	630.34682
614.683	586.10055
615.138	548.15966
615.593	616.26966
616.048	608.23574
616.503	559.22498
616.958	554.25754
617.412	615.30025
617.867	636.25337
618.321	583.06291
618.776	550.08565
619.23	567.19235
619.684	568.13174
620.138	571.1686
620.592	513.133
621.046	642.34111
621.5	539.17364
621.954	535.06266
622.407	526.04694
622.861	518.14335
623.314	537.09344
623.768	555.17988
624.221	506.89232
624.674	500.04961
625.127	501.05842
625.58	479.9805
626.033	490.97192
626.485	472.03426
626.938	471.02751
627.39	494.05159
627.843	455.96339
628.295	445.94428
628.747	468.0229
629.199	474.98585
629.651	434.91753
630.103	382.81715
630.555	402.78172
631.006	395.85427
631.458	426.92701
631.909	390.81115
632.361	411.87823
632.812	391.84237
633.263	389.78294
633.714	379.74419
634.165	363.81591
634.616	388.85473
635.067	401.81675
635.518	354.78769
635.968	358.65207
636.419	399.80639
636.869	385.85008
637.319	343.74817
637.769	396.82583
638.219	348.77113
638.669	313.70412
639.119	289.65759
639.569	350.78879
640.019	373.80429
640.468	336.70756
640.918	333.74388
641.367	368.76813
641.816	384.79263
642.265	424.91404
642.714	325.7023
643.163	364.78707
643.612	379.8693
644.061	341.68285
644.51	427.90293
644.958	373.76699
645.406	327.73772
645.855	357.8136
646.303	385.82802
646.751	401.86131
647.199	388.81706
647.647	398.85837
648.095	353.75365
648.543	412.76607
648.99	350.7904
649.438	384.8264
649.885	432.99816
650.333	412.73105
650.78	369.83517
651.227	355.81655
651.674	400.8464
652.121	389.89116
652.568	398.90866
653.015	323.75571
653.461	380.84307
653.908	359.77078
654.354	362.80715
654.801	336.74144
655.247	371.74637
655.693	321.79171
656.139	340.76312
656.585	358.80121
657.031	369.81067
657.477	392.79316
657.922	371.78556
658.368	342.79121
658.813	334.71294
659.259	343.78265
659.704	405.89124
660.149	361.77775
660.594	389.85927
661.039	364.77427
661.484	353.78367
661.929	400.86675
662.373	323.76665
662.818	336.78319
663.262	388.87441
663.707	366.87419
664.151	391.88783
664.595	382.86195
665.039	280.66217
665.483	379.90264
665.927	365.79986
666.371	384.84131
666.814	383.84708
667.258	428.95309
667.701	405.79412
668.145	376.87502
668.588	409.94147
669.031	361.79376
669.474	372.83322
669.917	418.84111
670.36	435.00159
670.803	382.86054
671.245	328.62626
671.688	375.85185
672.13	381.80038
672.573	377.8903
673.015	397.88938
673.457	391.78588
673.899	418.93507
674.341	415.92472
674.783	386.86065
675.225	409.93395
675.666	464.03975
676.108	413.81938
676.549	366.79444
676.991	431.86547
677.432	427.7697
677.873	430.90071
678.314	375.83112
678.755	474.06786
679.196	411.86568
679.637	364.81295
680.078	417.8976
680.518	426.89786
680.959	407.89564
681.399	390.89793
681.839	409.91852
682.28	447.02026
682.72	446.93175
683.16	426.98235
683.6	492.00961
684.039	488.90245
684.479	432.98388
684.919	472.0099
685.358	375.87046
685.798	396.96062
686.237	465.00969
686.676	441.91048
687.115	484.03339
687.554	496.07461
687.993	480.95875
688.432	461.95646
688.871	470.97883
689.309	485.05543
689.748	521.96229
690.186	419.90036
690.625	486.03318
691.063	478.03466
691.501	493.10689
691.939	521.18707
692.377	434.96645
692.815	544.19432
693.253	502.07745
693.69	515.00524
694.128	483.06441
694.565	507.08142
695.003	518.19944
695.44	538.14045
695.877	582.21292
696.314	493.92698
696.751	492.00187
697.188	610.24207
697.625	577.13558
698.061	523.12429
698.498	500.06392
698.934	519.11376
699.371	570.18998
699.807	561.1766
700.243	569.22123
700.679	546.07723
701.115	591.21451
701.551	568.16744
701.987	594.13151
702.422	614.28935
702.858	631.31898
703.294	651.29531
703.729	574.24018
704.164	559.18633
704.599	647.24969
705.035	535.06563
705.47	555.20137
705.904	547.12496
706.339	596.2003
706.774	616.26341
707.209	605.23606
707.643	599.26306
708.078	624.33283
708.512	563.2612
708.946	645.32982
709.38	636.31976
709.814	611.20543
710.248	639.36991
710.682	669.39604
711.116	678.43518
711.549	628.41477
711.983	661.31951
712.416	667.37278
712.85	606.32449
713.283	632.30152
713.716	610.33268
714.149	632.27175
714.582	631.22864
715.015	623.34074
715.448	673.47944
715.881	644.18416
716.313	624.27062
716.746	672.37533
717.178	635.3338
717.61	642.43573
718.043	683.46183
718.475	653.38009
718.907	632.38429
719.339	637.25034
719.77	645.3459
720.202	627.37938
720.634	691.46814
721.065	628.28863
721.497	676.43468
721.928	613.31524
722.359	617.31928
722.79	633.322
723.221	588.28997
723.652	625.39738
724.083	630.22407
724.514	632.25832
724.945	608.24304
725.375	644.30545
725.806	611.3222
726.236	628.41188
726.666	625.28218
727.096	593.27719
727.526	699.56619
727.956	634.25469
728.386	595.2837
728.816	641.44202
729.246	606.31723
729.675	551.1927
730.105	610.30738
730.534	603.22528
730.964	617.34998
731.393	606.30159
731.822	603.36199
732.251	626.39588
732.68	593.19671
733.109	599.30062
733.537	658.39886
733.966	636.39072
734.395	644.28523
734.823	603.15174
735.251	558.18446
735.68	617.33065
736.108	558.23742
736.536	564.16024
736.964	578.172
737.392	582.28429
737.82	592.23653
738.247	617.27885
738.675	625.27179
739.102	588.29322
739.53	621.40838
739.957	601.37785
740.384	587.23826
740.811	558.2292
741.238	588.27101
741.665	661.34027
742.092	553.11432
742.519	600.31136
742.945	639.35282
743.372	643.3939
743.798	637.42775
744.225	562.16858
744.651	603.32486
745.077	635.38122
745.503	602.26911
745.929	644.3554
746.355	614.30181
746.781	594.27962
747.207	594.23577
747.632	609.32965
748.058	650.43033
748.483	594.18748
748.908	581.27807
749.334	651.39507
749.759	623.29246
750.184	658.37276
750.609	632.34644
751.033	586.19096
751.458	655.2434
751.883	589.27182
752.307	645.30957
752.732	623.40206
753.156	555.20853
753.58	608.24417
754.005	537.19794
754.429	608.25764
754.853	556.22889
755.277	628.29443
755.7	552.21445
756.124	568.24865
756.548	533.11237
756.971	585.25292
757.394	528.20522
757.818	539.24296
758.241	549.2424
758.664	523.18012
759.087	535.06216
759.51	500.10171
759.933	524.12813
760.356	564.29578
760.778	509.11666
761.201	511.09703
761.623	510.07535
762.046	475.99034
762.468	493.05105
762.89	477.04194
763.312	508.11048
763.734	539.15029
764.156	446.9981
764.578	482.9757
765	430.9508
765.421	436.01367
765.843	455.08097
766.264	469.99303
766.686	392.88883
767.107	435.95443
767.528	432.01264
767.949	387.9015
768.37	440.99116
768.791	420.91124
769.212	351.81959
769.632	370.79457
770.053	297.72633
770.473	354.78344
770.894	331.75162
771.314	362.78007
771.734	352.75168
772.154	334.78954
772.575	360.75677
772.994	317.66036
773.414	347.75625
773.834	325.74935
774.254	319.72026
774.673	392.87728
775.093	341.78592
775.512	312.71637
775.931	302.71474
776.351	316.7331
776.77	281.64559
777.189	294.64877
777.607	253.60815
778.026	272.63453
778.445	266.63515
778.864	252.59942
779.282	257.57176
779.701	245.57795
780.119	206.49604
780.537	237.55496
780.955	226.53862
781.373	247.57248
781.791	287.60505
782.209	198.4199
782.627	221.55212
783.045	219.46657
783.462	202.48953
783.88	204.50236
784.297	256.60449
784.715	204.50013
785.132	193.43917
785.549	180.42752
785.966	183.4379
786.383	190.44622
786.8	233.50588
787.217	223.5025
787.633	189.45312
788.05	169.37178
788.466	185.40595
788.883	201.49123
789.299	158.35655
789.715	166.38575
790.131	164.38862
790.547	205.48248
790.963	141.33392
791.379	156.37693
791.795	200.42322
792.21	204.4449
792.626	135.30272
793.041	123.29028
793.457	153.35758
793.872	117.26063
794.287	159.36736
794.702	119.27593
795.117	174.41295
795.532	140.33878
795.947	126.28503
796.362	141.31292
796.776	151.32799
797.191	129.30279
797.605	129.29342
798.02	109.25405
798.434	182.38058
798.848	208.4902
799.262	106.25283
799.676	202.46383
800.09	120.28238
800.504	145.33289
800.918	86.18931
801.331	63.1562
801.745	110.2397
802.158	136.32127
802.572	171.39226
802.985	99.22701
803.398	150.33808
803.811	105.25347
804.224	111.26085
804.637	73.16847
805.05	126.27526
805.462	110.25703
805.875	89.22357
806.288	127.2946
806.7	40.09654
807.112	64.14147
807.525	88.20506
807.937	121.28689
808.349	77.18447
808.761	138.32473
809.173	149.34453
809.584	167.38799
809.996	54.12772
810.408	118.29583
810.819	103.2321
811.231	160.40904
811.642	231.53858
812.053	215.49279
812.464	179.39906
812.875	159.38859
813.286	180.44359
813.697	113.24451
814.108	148.34093
814.519	152.32263
814.929	142.34362
815.34	52.12046
815.75	125.30664
816.16	62.14703
816.571	112.27785
816.981	102.22679
817.391	74.16992
817.801	83.19922
818.211	104.23594
818.62	99.22947
819.03	119.27713
819.44	60.14874
819.849	94.22455
820.259	36.08836
820.668	76.18072
821.077	107.25702
821.486	51.1168
821.895	107.2484
822.304	77.19648
822.713	106.23774
823.122	97.23132
823.531	35.07894
823.939	93.21812
824.348	108.24869
824.756	74.17718
825.164	110.26298
825.573	101.24289
825.981	93.2194
826.389	129.30775
826.797	131.31849
827.205	146.31895
827.612	107.25047
828.02	11.02493
828.428	84.20526
828.835	100.25485
829.243	45.10257
829.65	89.21411
830.057	52.12094
830.464	127.29821
830.871	125.28548
831.278	97.22412
831.685	105.22107
832.092	59.13751
832.499	75.15749
832.905	63.15254
833.312	76.16209
833.718	125.29878
834.124	97.21159
834.531	55.13227
834.937	111.2734
835.343	96.21894
835.749	88.19282
836.155	96.24137
836.561	69.16335
836.966	74.17278
837.372	106.25641
837.777	103.24619
838.183	106.22175
838.588	85.20379
838.993	101.23475
839.399	100.23468
839.804	86.20119
840.209	66.16403
840.613	93.19607
841.018	96.23126
841.423	69.17064
841.828	82.20022
842.232	65.1518
842.637	92.20956
843.041	79.1958
843.445	65.15554
843.849	83.19786
844.253	122.27374
844.657	57.13941
845.061	183.39513
845.465	67.15542
845.869	82.18179
846.272	73.17155
846.676	38.08694
847.079	34.0845
847.483	103.2444
847.886	120.27422
848.289	87.22666
848.692	34.08271
849.095	48.1104
849.498	80.19133
849.901	74.16043
850.304	104.23603
850.707	65.15886
851.109	108.25908
851.512	102.23984
851.914	37.09097
852.316	127.30935
852.718	107.27177
853.121	94.22016
853.523	42.0937
853.925	61.15538
854.326	97.23362
854.728	103.25445
855.13	74.18572
855.531	92.21032
855.933	89.20154
856.334	64.15487
856.736	106.22735
857.137	82.18376
857.538	104.25176
857.939	105.25136
858.34	69.1593
858.741	37.09334
859.142	41.09428
859.542	79.20222
859.943	70.16684
860.343	79.18897
860.744	85.19811
861.144	137.31943
861.544	38.08946
861.945	40.0984
862.345	109.25214
862.745	95.22742
863.145	60.13463
863.544	73.17782
863.944	125.27914
864.344	56.13188
864.743	77.18264
865.143	74.18452
865.542	30.06607
865.941	92.21851
866.34	77.17373
866.74	68.17641
867.139	99.22919
867.537	74.17887
867.936	55.12779
868.335	93.22577
868.734	68.16752
869.132	61.13374
869.531	97.22037
869.929	73.15965
870.327	123.27921
870.726	61.14447
871.124	53.11767
871.522	80.19469
871.92	96.2259
872.318	73.16947
872.715	75.17487
873.113	68.15777
873.511	46.11001
873.908	68.16802
874.306	105.25126
874.703	62.14743
875.1	88.21215
875.497	64.14631
875.894	104.24768
876.291	75.17666
876.688	69.17146
877.085	101.22853
877.482	32.07735
877.878	93.21659
878.275	69.16895
878.671	31.064
879.068	124.28314
879.464	80.18458
879.86	70.15822
880.256	68.15802
880.652	84.20457
881.048	41.09676
881.444	69.15447
881.84	35.08583
882.236	86.20654
882.631	95.22368
883.027	61.14089
883.422	39.09567
883.817	68.16554
884.213	46.11399
884.608	108.2581
885.003	36.08283
885.398	30.07268
885.793	25.06042
886.188	46.10993
886.582	62.15139
886.977	60.13529
887.371	43.10408
887.766	25.06055
888.16	50.11784
888.554	102.23815
888.949	43.104
889.343	76.1764
889.737	49.12766
890.131	62.14947
890.525	94.23166
890.918	21.05111
891.312	55.1247
891.706	40.10126
892.099	87.21105
892.492	102.20582
892.886	60.14042
893.279	43.10541
893.672	56.13832
894.065	62.1493
894.458	57.1363
894.851	105.2426
895.244	12.02973
895.637	81.18693
896.029	114.26648
896.422	54.12494
896.814	65.15442
897.206	73.16867
897.599	121.28335
897.991	113.26109
898.383	73.16511
898.775	115.2482
899.167	114.25579
899.559	51.12307
899.951	53.11845
900.342	55.13317
900.734	89.21655
901.125	86.21475
901.517	95.22272
901.908	100.22391
902.299	80.18759
902.69	107.24181
903.082	100.23027
903.473	93.21573
903.863	78.18953
904.254	167.36738
904.645	60.14119
905.036	82.19379
905.426	63.13527
905.817	58.13553
906.207	5.01139
906.597	75.16921
906.987	46.11399
907.378	101.24519
907.768	94.23913
908.158	83.19261
908.547	91.22859
908.937	5.0123
909.327	112.25728
909.717	118.27962
910.106	52.11917
910.495	89.20939
910.885	92.2233
911.274	62.14845
911.663	82.19716
912.052	83.19299
912.441	96.23519
912.83	69.14969
913.219	59.1481
913.608	142.32972
913.997	72.17489
914.385	70.15977
914.774	63.14655
915.162	116.26508
915.55	70.16048
915.939	22.05422
916.327	100.23559
916.715	110.27169
917.103	32.07448
917.491	113.2643
917.878	54.12707
918.266	54.13431
918.654	107.26297
919.041	71.18078
919.429	22.05003
919.816	82.19858
920.203	108.25137
920.591	107.25292
920.978	122.28283
921.365	85.2149
921.752	55.12343
922.139	121.24657
922.525	52.12036
922.912	53.12348
923.299	86.2045
923.685	45.11223
924.072	50.10729
924.458	90.21385
924.844	35.08356
925.231	40.08838
925.617	70.17296
926.003	73.17828
926.389	47.1141
926.774	72.17417
927.16	74.17542
927.546	98.2432
927.931	83.19642
928.317	67.14584
928.702	116.25792
929.088	105.24135
929.473	87.21366
929.858	97.22768
930.243	116.26679
930.628	85.19959
931.013	71.1688
931.398	35.07573
931.783	44.11059
932.167	113.26523
932.552	95.22612
932.937	104.24378
933.321	44.10736
933.705	32.07691
934.09	56.13291
934.474	60.13474
934.858	57.14277
935.242	24.05332
935.626	71.17546
936.009	94.24242
936.393	126.30915
936.777	68.16839
937.16	84.21142
937.544	75.16527
937.927	88.21487
938.311	40.09314
938.694	91.23146
939.077	97.22055
939.46	30.06927
939.843	75.14379
940.226	55.13497
940.609	110.24183
940.991	57.13853
941.374	119.27757
941.757	88.20603
942.139	125.26515
942.522	129.28509
942.904	99.2261
943.286	66.16026
943.668	94.23566
944.05	95.22307
944.432	46.10863
944.814	43.10069
945.196	60.14147
945.578	83.19154
945.959	27.06015
946.341	67.154
946.722	37.0828
947.104	85.1935
947.485	116.25492
947.866	103.24958
948.247	113.27412
948.628	69.15739
949.009	45.11113
949.39	73.17255
949.771	76.16371
950.152	74.17386
950.532	120.28863
950.913	112.25532
951.293	81.21262
951.674	74.17088
952.054	105.2527
952.434	67.15966
952.814	56.12581
953.194	63.15632
953.574	77.1801
953.954	26.05872
954.334	77.18545
954.714	63.14788
955.093	110.25643
955.473	107.25771
955.853	93.23042
956.232	37.09818
956.611	49.11096
956.99	119.28531
957.37	60.1458
957.749	14.03166
958.128	79.19178
958.506	56.14024
958.885	56.13521
959.264	95.2249
959.643	133.28631
960.021	113.26803
960.4	67.14423
960.778	69.15981
961.156	55.13182
961.535	19.04213
961.913	126.27957
962.291	75.18718
962.669	70.17105
963.047	94.23055
963.424	100.24717
963.802	107.25056
964.18	54.1289
964.557	95.20583
964.935	106.23735
965.312	58.1464
965.69	43.10251
966.067	38.08782
966.444	21.04891
966.821	108.26577
967.198	58.13286
967.575	111.25667
967.952	81.18081
968.329	80.18701
968.705	147.29573
969.082	109.27055
969.458	77.17897
969.835	63.14666
970.211	81.20149
970.587	34.08178
970.963	79.19214
971.339	35.08887
971.715	91.21718
972.091	50.11803
972.467	23.05449
972.843	88.2111
973.219	62.1406
973.594	38.09612
973.97	57.12587
974.345	62.1426
974.721	43.09824
975.096	115.26592
975.471	96.21487
975.846	62.14117
976.221	45.11027
976.596	97.22501
976.971	101.23901
977.346	87.19026
977.72	46.1122
978.095	45.11202
978.469	62.1406
978.844	74.17671
979.218	95.22011
979.593	91.2059
979.967	9.02075
980.341	87.19099
980.715	95.22889
981.089	44.10583
981.463	102.22132
981.837	90.21228
982.21	79.16933
982.584	66.15313
982.957	64.15429
983.331	62.13751
983.704	119.28084
984.078	33.07815
984.451	23.0542
984.824	51.12004
985.197	39.08943
985.57	33.07837
985.943	40.09303
986.316	35.08119
986.688	87.19901
987.061	89.19875
987.434	89.22525
987.806	46.10525
988.179	31.06991
988.551	59.14291
988.923	44.10338
989.295	92.21759
989.667	57.13254
990.039	140.33265
990.411	29.06291
990.783	95.20363
991.155	69.15917
991.527	100.2287
991.898	80.19148
992.27	130.30746
992.641	64.15265
993.012	20.04397
993.384	65.14707
993.755	86.21093
994.126	107.24624
994.497	85.19889
994.868	40.08672
995.239	51.11798
995.61	41.09946
995.98	44.10237
996.351	96.2281
996.722	102.2267
997.092	70.159
997.462	40.09082
997.833	66.1476
998.203	44.10059
998.573	105.24963
998.943	79.17722
999.313	98.22431
999.683	106.24194
1000.053	15.03233
1000.423	71.1632
1000.792	44.10856
1001.162	41.0962
1001.531	86.20245
1001.901	40.09534
1002.27	19.03979
1002.639	39.09521
1003.009	38.08642
1003.378	32.07915
1003.747	70.15629
1004.116	45.10294
1004.485	48.10973
1004.853	36.08653
1005.222	17.0406
1005.591	106.23696
1005.959	101.21583
1006.328	90.19237
1006.696	65.14893
1007.064	50.11949
1007.433	78.18441
1007.801	64.14726
1008.169	20.04822
1008.537	110.22839
1008.905	91.20254
1009.273	99.23019
1009.64	107.24516
1010.008	63.1429
1010.375	94.21221
1010.743	93.19589
1011.11	135.30695
1011.478	105.24867
1011.845	107.23598
1012.212	144.30872
1012.579	69.16215
1012.946	45.10116
1013.313	97.21635
1013.68	147.30596
1014.047	58.13196
1014.414	77.17252
1014.78	81.19294
1015.147	76.17256
1015.513	89.20367
1015.88	96.23196
1016.246	87.20141
1016.612	73.15694
1016.978	103.2412
1017.344	81.19131
1017.71	70.16151
1018.076	76.16821
1018.442	125.30618
1018.808	93.22374
1019.174	55.13141
1019.539	57.11901
1019.905	66.14924
1020.27	58.1367
1020.636	51.11511
1021.001	96.21867
1021.366	55.12698
1021.731	60.15042
1022.096	41.10062
1022.461	115.25755
1022.826	108.24481
1023.191	9.02293
1023.556	93.20493
1023.92	52.12113
1024.285	64.14731
1024.649	47.10959
1025.014	103.23883
1025.378	66.16001
1025.742	35.08276
1026.107	36.07745
1026.471	75.16492
1026.835	84.19836
1027.199	68.15652
1027.562	80.17418
1027.926	56.13003
1028.29	84.20312
1028.654	63.13708
1029.017	90.21104
1029.381	72.16447
1029.744	39.09588
1030.107	98.21925
1030.471	90.20575
1030.834	39.08316
1031.197	93.21205
1031.56	50.11196
1031.923	54.13455
1032.286	93.20657
1032.648	64.14354
1033.011	84.18561
1033.374	61.13481
1033.736	51.1294
1034.099	57.13301
1034.461	68.16598
1034.823	36.08669
1035.185	40.09581
1035.548	160.36681
1035.91	19.04367
1036.272	93.20115
1036.634	71.16548
1036.995	57.12655
1037.357	42.0986
1037.719	100.231
1038.08	134.30177
1038.442	50.11316
1038.803	40.09034
1039.165	42.10133
1039.526	99.22692
1039.887	97.21948
1040.248	82.19619
1040.609	59.13773
1040.97	74.17169
1041.331	111.26896
1041.692	96.21637
1042.053	78.16686
1042.413	87.19042
1042.774	104.24015
1043.134	73.16275
1043.495	101.24114
1043.855	124.28724
1044.215	87.20413
1044.576	76.17431
1044.936	96.20617
1045.296	108.25543
1045.656	65.15042
1046.016	80.1823
1046.375	59.1367
1046.735	146.31544
1047.095	63.14046
1047.454	75.14754
1047.814	86.19653
1048.173	70.15648
1048.533	69.15001
1048.892	34.07873
1049.251	62.14766
1049.61	76.17863
1049.969	76.16947
1050.328	107.21725
1050.687	49.11326
1051.046	68.15715
1051.405	65.15287
1051.763	56.1242
1052.122	68.16176
1052.48	41.0968
1052.839	129.29057
1053.197	75.16742
1053.555	30.06376
1053.914	88.20369
1054.272	46.10385
1054.63	44.10346
1054.988	79.18028
1055.345	58.11623
1055.703	82.18792
1056.061	87.2165
1056.419	112.28078
1056.776	51.11601
1057.134	3.00655
1057.491	73.17469
1057.848	35.08318
1058.206	61.13414
1058.563	82.16987
1058.92	104.22451
1059.277	110.25683
1059.634	61.13442
1059.991	113.2562
1060.348	77.16554
1060.704	118.27204
1061.061	78.16795
1061.418	46.10702
1061.774	52.12299
1062.131	53.13728
1062.487	68.15006
1062.843	67.15947
1063.199	61.14525
1063.555	128.28129
1063.911	63.15122
1064.267	133.25227
1064.623	82.19191
1064.979	27.05887
1065.335	79.17744
1065.691	57.12813
1066.046	92.18956
1066.402	38.08175
1066.757	88.21183
1067.112	75.17439
1067.468	55.12586
1067.823	52.11668
1068.178	29.06682
1068.533	91.20917
1068.888	101.22666
1069.243	71.16724
1069.598	69.15854
1069.952	117.25349
1070.307	35.08379
1070.662	108.24571
1071.016	111.23751
1071.371	85.18392
1071.725	56.12642
1072.079	60.13805
1072.434	66.15368
1072.788	62.13848
1073.142	126.2928
1073.496	125.27799
1073.85	62.13631
1074.203	97.22332
1074.557	66.17104
1074.911	74.16638
1075.265	95.20829
1075.618	72.16771
1075.971	67.15141
1076.325	77.18868
1076.678	45.09825
1077.031	6.01274
1077.385	135.27547
1077.738	79.16802
1078.091	60.13108
1078.444	67.1456
1078.796	90.21137
1079.149	62.14783
1079.502	45.10248
1079.855	103.22697
1080.207	71.16607
1080.56	24.06039
1080.912	63.14597
1081.264	79.18173
1081.617	89.20694
1081.969	73.17728
1082.321	35.08167
1082.673	94.20622
1083.025	88.19631
1083.377	54.12086
1083.728	83.18213
1084.08	53.12581
1084.432	41.09424
1084.783	36.07885
1085.135	55.13282
1085.486	61.13363
1085.838	102.23918
1086.189	99.23001
1086.54	59.13361
1086.891	104.25536
1087.242	114.26753
1087.593	69.15727
1087.944	72.15603
1088.295	96.20484
1088.646	154.35744
1088.996	63.14585
1089.347	43.10042
1089.698	94.21308
1090.048	58.14368
1090.398	68.14849
1090.749	36.08164
1091.099	78.18996
1091.449	88.20966
1091.799	101.24003
1092.149	44.10459
1092.499	55.12834
1092.849	49.11989
1093.199	61.1448
1093.548	99.2281
1093.898	78.18526
1094.248	64.15586
1094.597	20.05007
1094.947	57.14688
1095.296	103.2428
1095.645	27.06751
1095.994	89.20269
1096.343	88.21191
1096.692	72.18491
1097.041	73.19357
1097.39	53.12659
1097.739	68.16937
1098.088	56.14342
1098.437	77.19724
1098.785	51.13151
1099.134	41.10321
1099.482	74.19691
1099.83	67.16921
1100.179	119.30161
1100.527	47.11895
1100.875	53.13624
1101.223	94.24082
1101.571	6.0161
1101.919	72.18511
1102.267	34.09396
1102.615	8.02568
1102.962	5.01603
1103.31	12.0385
1103.658	8.02562
