Data from N3 R4 sample 6_Subt2__2__12-07-37-731.txt Node

Date: Thu Sep 18 12:07:37 PDT 2025
User: uwsun
Spectrometer: HDX01956
Trigger mode: 0
Integration Time (sec): 5.000000E-1
Scans to average: 1
Nonlinearity correction enabled: true
Boxcar width: 0
Storing dark spectrum: false
XAxis mode: Wavelengths
Number of Pixels in Spectrum: 2068
>>>>>Begin Spectral Data<<<<<
194.03	200.56355
194.578	190.60401
195.127	203.63484
195.676	210.65861
196.225	239.61279
196.773	241.64812
197.321	360.951
197.87	495.18382
198.418	527.26285
198.966	499.23139
199.513	555.30475
200.061	469.11984
200.609	518.2753
201.156	480.97699
201.704	488.14905
202.251	500.24536
202.798	507.2273
203.345	549.2565
203.892	525.23366
204.438	524.14938
204.985	510.12472
205.532	514.26219
206.078	519.17585
206.624	536.24853
207.17	568.22144
207.716	532.20998
208.262	543.97938
208.808	539.25676
209.354	581.32077
209.899	559.29834
210.445	573.32041
210.99	566.27183
211.535	587.26425
212.08	549.17115
212.625	542.25261
213.17	544.28556
213.715	506.07251
214.259	573.22455
214.804	499.13916
215.348	575.21556
215.892	552.23627
216.436	525.1034
216.98	514.03821
217.524	570.25043
218.068	552.28786
218.612	561.31785
219.155	543.18187
219.698	508.12031
220.242	488.12184
220.785	527.14213
221.328	453.04975
221.871	488.16239
222.414	518.18521
222.956	448.0026
223.499	497.02057
224.041	420.90154
224.583	470.91483
225.126	465.94624
225.668	469.06196
226.21	492.16028
226.751	512.04789
227.293	439.92749
227.835	471.07644
228.376	447.9477
228.918	446.03982
229.459	512.18272
230	498.10784
230.541	433.93244
231.082	503.134
231.622	447.9419
232.163	458.02965
232.704	548.26198
233.244	453.0514
233.784	464.04657
234.324	528.0885
234.864	404.8586
235.404	431.95083
235.944	489.06415
236.484	507.17185
237.023	448.98646
237.563	518.10707
238.102	498.08767
238.641	485.1329
239.18	471.02708
239.719	471.09928
240.258	491.01594
240.797	542.18642
241.335	447.01534
241.874	533.93922
242.412	511.14784
242.95	530.17914
243.488	494.02011
244.026	516.10469
244.564	511.96035
245.102	537.11279
245.64	491.08388
246.177	466.95928
246.715	538.18608
247.252	466.98129
247.789	561.92727
248.326	514.14349
248.863	502.01532
249.4	539.11495
249.936	578.08976
250.473	564.21699
251.009	549.14531
251.546	567.1494
252.082	461.92187
252.618	530.08382
253.154	532.17723
253.69	512.05309
254.226	478.06371
254.761	524.07637
255.297	545.08105
255.832	531.1606
256.367	505.09438
256.903	565.14011
257.438	535.14865
257.972	574.15592
258.507	551.15152
259.042	598.16786
259.576	576.15463
260.111	503.06312
260.645	522.02931
261.179	557.19133
261.713	552.12531
262.247	528.10313
262.781	555.05887
263.315	521.16364
263.849	558.28249
264.382	514.08475
264.915	563.21664
265.449	517.16514
265.982	575.18371
266.515	545.22833
267.048	585.1146
267.58	536.05102
268.113	553.08468
268.646	486.10387
269.178	527.07694
269.71	616.22243
270.243	583.22658
270.775	600.40655
271.307	540.17557
271.838	565.21524
272.37	546.22783
272.902	550.13444
273.433	588.17764
273.965	563.25033
274.496	580.31131
275.027	543.24474
275.558	594.31954
276.089	613.39191
276.62	541.25549
277.15	600.3395
277.681	557.08482
278.211	541.21136
278.741	541.0971
279.272	609.25662
279.802	538.23203
280.332	629.33743
280.861	563.22857
281.391	596.22343
281.921	554.21069
282.45	578.30838
282.98	603.43584
283.509	602.23743
284.038	568.18318
284.567	584.23543
285.096	599.32102
285.625	557.1399
286.153	630.35901
286.682	607.25978
287.21	557.21187
287.739	569.22595
288.267	631.38877
288.795	637.51048
289.323	629.33105
289.851	666.40115
290.378	627.25096
290.906	664.45995
291.433	614.39052
291.961	648.32554
292.488	574.30247
293.015	585.25778
293.542	663.54133
294.069	660.47359
294.596	593.31868
295.122	689.47468
295.649	636.24162
296.175	662.42751
296.702	687.5033
297.228	630.3683
297.754	659.3216
298.28	729.47767
298.806	659.4262
299.332	676.34482
299.857	657.33457
300.383	630.43661
300.908	672.48497
301.433	716.56253
301.958	666.3618
302.483	645.44333
303.008	719.59387
303.533	680.57933
304.058	679.40942
304.582	671.4188
305.107	712.66083
305.631	714.42712
306.155	706.45869
306.679	684.4359
307.203	745.52046
307.727	761.58334
308.251	751.63862
308.775	796.69621
309.298	773.63683
309.822	698.57003
310.345	809.68405
310.868	821.72191
311.391	805.73355
311.914	777.7168
312.437	796.57949
312.96	758.56975
313.482	748.54626
314.005	805.75873
314.527	771.77631
315.049	785.7525
315.571	878.68172
316.093	858.84025
316.615	808.68829
317.137	861.59478
317.659	825.73715
318.18	813.68339
318.702	888.77784
319.223	896.52122
319.744	805.56953
320.265	861.81379
320.786	927.98275
321.307	918.93858
321.828	945.78634
322.348	939.86751
322.869	955.92136
323.389	1022.60945
323.909	1006.90139
324.43	964.93904
324.95	1011.91504
325.47	1010.10252
325.989	997.97748
326.509	1055.92973
327.029	1087.01796
327.548	1016.90071
328.067	1084.16517
328.587	1078.24228
329.106	1097.99667
329.625	1052.29619
330.144	1123.1128
330.662	1092.09492
331.181	1137.17051
331.7	1150.14529
332.218	1141.96737
332.736	1160.18102
333.255	1178.22251
333.773	1208.26709
334.291	1238.47899
334.808	1266.21548
335.326	1231.16238
335.844	1285.36208
336.361	1269.61845
336.879	1326.4153
337.396	1349.5504
337.913	1339.37494
338.43	1435.4066
338.947	1357.49861
339.464	1372.21278
339.981	1348.4629
340.497	1419.66627
341.014	1435.65845
341.53	1406.37741
342.046	1470.79122
342.562	1504.81894
343.078	1504.62054
343.594	1482.62912
344.11	1507.68534
344.626	1540.91328
345.141	1552.57545
345.657	1591.57544
346.172	1581.79204
346.687	1584.61467
347.202	1624.64175
347.717	1638.80653
348.232	1661.99734
348.747	1711.75773
349.261	1654.53242
349.776	1704.86202
350.29	1730.09406
350.805	1739.04346
351.319	1751.81344
351.833	1755.78537
352.347	1756.8822
352.861	1783.88138
353.374	1755.73361
353.888	1804.06624
354.401	1807.77858
354.915	1855.79246
355.428	1919.2489
355.941	1906.94399
356.454	1954.78802
356.967	1834.89339
357.48	1851.79455
357.993	2000.24895
358.505	1906.12338
359.018	2035.26036
359.53	2083.27923
360.042	2088.89585
360.554	2077.28806
361.066	1975.18053
361.578	2033.81334
362.09	2079.15329
362.602	2145.90706
363.113	2157.15448
363.625	2201.01135
364.136	2200.86133
364.647	2169.19524
365.158	2226.13443
365.669	2229.25637
366.18	2303.22091
366.691	2299.88549
367.201	2273.29642
367.712	2334.10544
368.222	2333.13316
368.733	2319.86229
369.243	2407.01815
369.753	2463.17722
370.263	2460.42089
370.773	2443.44817
371.282	2565.39527
371.792	2589.2418
372.301	2677.47965
372.811	2729.00217
373.32	2777.91487
373.829	2801.36277
374.338	2952.04278
374.847	2938.25491
375.356	3032.37297
375.865	3195.82169
376.373	3321.12712
376.882	3397.81911
377.39	3487.46405
377.898	3453.59578
378.407	3745.99003
378.915	3912.6905
379.423	3937.06403
379.93	4258.91489
380.438	4280.13376
380.946	4452.81733
381.453	4612.95478
381.96	4972.71684
382.468	5260.43996
382.975	5522.60247
383.482	5682.88636
383.989	5734.87267
384.495	6016.01516
385.002	6328.30162
385.509	6650.9768
386.015	6987.19891
386.521	7359.75958
387.028	7592.84713
387.534	7857.80531
388.04	8225.53326
388.546	8401.4617
389.051	8903.22345
389.557	9614.75601
390.063	10142.26551
390.568	10584.60751
391.073	10937.26282
391.578	11396.83477
392.084	11840.47611
392.589	12193.88984
393.093	13098.81182
393.598	14314.89544
394.103	15431.82854
394.607	17055.38074
395.112	18294.18938
395.616	19530.98635
396.12	21159.63295
396.624	23480.36783
397.128	25165.66256
397.632	28148.31204
398.136	30499.33472
398.639	32215.93936
399.143	35828.08846
399.646	40723.47417
400.15	44983.70122
400.653	49749.87802
401.156	56154.8644
401.659	62589.53767
402.162	63463.12598
402.664	62441.93235
403.167	63977.72923
403.67	63769.22307
404.172	63919.58413
404.674	63858.43483
405.176	63738.15102
405.678	63977.72923
406.18	64011.81569
406.682	63863.44694
407.184	63926.60148
407.686	63841.39382
408.187	64025.8516
408.688	63892.51763
409.19	63833.37461
409.691	63977.72923
410.192	63945.6488
410.693	63713.09355
411.194	63812.32447
411.694	63919.58413
412.195	64038.8851
412.696	63881.49072
413.196	63630.90911
413.696	63920.58661
414.196	63735.14409
414.696	63998.78251
415.196	63858.43483
415.696	61099.33715
416.196	49590.51793
416.695	38562.73027
417.195	32836.33574
417.694	31314.26085
418.194	29298.99813
418.693	27468.61136
419.192	26572.33373
419.691	25872.34529
420.19	25461.84994
420.688	24561.70485
421.187	23831.3022
421.685	22377.8297
422.184	20338.03563
422.682	17459.57562
423.18	14844.72905
423.678	13194.0334
424.176	12322.25072
424.674	11571.25465
425.172	10906.93054
425.669	10354.8048
426.167	9818.28706
426.664	8988.39783
427.161	8172.2764
427.659	7704.14695
428.156	7112.32535
428.652	6730.2528
429.149	6444.04929
429.646	6195.57555
430.143	5800.19966
430.639	5537.24692
431.135	5157.86992
431.632	4934.32534
432.128	4680.82393
432.624	4463.51209
433.12	4256.68548
433.616	4193.45946
434.111	3923.11518
434.607	3795.21849
435.103	3674.42561
435.598	3647.40104
436.093	3458.1339
436.588	3328.95646
437.083	3186.95902
437.578	3121.16195
438.073	2875.64184
438.568	2834.52885
439.062	2762.75196
439.557	2623.19169
440.051	2472.95856
440.546	2458.00696
441.04	2468.29456
441.534	2359.50463
442.028	2407.28775
442.522	2274.21177
443.015	2226.67225
443.509	2204.23926
444.002	2155.24042
444.496	2038.64627
444.989	2121.17709
445.482	2102.26216
445.975	2184.98695
446.468	2061.64947
446.961	2006.63653
447.454	1962.73777
447.947	1895.95288
448.439	1949.11033
448.931	1923.80978
449.424	1869.21047
449.916	1929.0694
450.408	1856.74713
450.9	1815.95804
451.392	1806.13959
451.884	1763.69593
452.375	1668.899
452.867	1715.5758
453.358	1635.57979
453.849	1652.35908
454.341	1635.52856
454.832	1649.38902
455.323	1632.8863
455.814	1558.50264
456.304	1576.55875
456.795	1550.48968
457.285	1542.36188
457.776	1520.4534
458.266	1494.56236
458.756	1488.53852
459.247	1388.47046
459.737	1452.58226
460.226	1433.3695
460.716	1445.5323
461.206	1374.45294
461.695	1258.40728
462.185	1374.42916
462.674	1323.25731
463.163	1344.22688
463.653	1319.05712
464.142	1254.34334
464.63	1180.24252
465.119	1254.22413
465.608	1185.15924
466.096	1188.96596
466.585	1197.10459
467.073	1091.04843
467.561	1133.14934
468.05	1140.05244
468.538	1167.24505
469.026	1032.97814
469.513	1079.77454
470.001	1056.93786
470.489	1104.08557
470.976	1061.98554
471.463	1000.04491
471.951	968.98988
472.438	916.78331
472.925	966.86478
473.412	893.81461
473.899	914.73143
474.385	883.81787
474.872	901.74535
475.359	893.84424
475.845	859.46412
476.331	874.53178
476.817	865.77521
477.303	887.71738
477.789	750.54002
478.275	765.64102
478.761	768.56497
479.247	744.42056
479.732	747.61889
480.218	758.73353
480.703	710.52785
481.188	756.39194
481.673	746.47395
482.158	679.27213
482.643	702.5771
483.128	720.45508
483.612	742.52905
484.097	675.42851
484.581	664.34605
485.066	648.40505
485.55	603.18015
486.034	592.13589
486.518	617.31359
487.002	602.30575
487.486	525.1552
487.969	566.23643
488.453	561.25878
488.936	572.14871
489.42	614.19803
489.903	517.17036
490.386	479.89754
490.869	566.10578
491.352	489.07361
491.835	496.91496
492.318	525.06314
492.8	510.95069
493.283	502.17244
493.765	470.05754
494.247	538.12853
494.73	496.99669
495.212	434.95043
495.694	523.11657
496.175	450.99792
496.657	480.03856
497.139	441.68211
497.62	444.98666
498.102	439.01082
498.583	383.87988
499.064	430.88399
499.545	453.94826
500.026	430.89832
500.507	434.92195
500.988	429.99615
501.469	395.91977
501.949	423.97019
502.43	435.97088
502.91	480.92585
503.39	331.77624
503.87	389.85891
504.35	369.80828
504.83	386.78495
505.31	362.81949
505.79	355.78844
506.269	303.65981
506.749	367.7849
507.228	364.80422
507.707	424.87401
508.187	352.792
508.666	341.79875
509.145	318.70437
509.623	322.71352
510.102	322.73814
510.581	382.863
511.059	325.77644
511.538	340.83007
512.016	355.80087
512.494	308.70322
512.972	306.69669
513.45	295.6552
513.928	313.72313
514.406	305.7122
514.884	347.847
515.361	289.65998
515.839	320.69815
516.316	360.82391
516.793	339.81019
517.27	293.67181
517.747	332.80874
518.224	287.63028
518.701	304.63708
519.178	325.77228
519.654	276.62509
520.131	287.67964
520.607	231.54493
521.083	256.55617
521.56	284.63902
522.036	285.59053
522.512	370.85936
522.987	302.69314
523.463	260.59149
523.939	321.7572
524.414	251.55169
524.89	314.71172
525.365	283.60972
525.84	289.66344
526.315	246.57411
526.79	303.64916
527.265	286.63085
527.74	225.5281
528.215	291.64685
528.689	228.48183
529.164	256.52558
529.638	254.61969
530.112	223.50702
530.587	309.62594
531.061	265.61565
531.534	248.57537
532.008	299.69353
532.482	287.62921
532.956	242.59592
533.429	282.6607
533.903	298.62009
534.376	286.60228
534.849	251.55447
535.322	291.6549
535.795	201.47159
536.268	277.64226
536.741	240.54909
537.213	235.52086
537.686	291.68032
538.158	278.60447
538.631	257.59849
539.103	270.58383
539.575	232.45952
540.047	265.55278
540.519	305.69371
540.991	237.558
541.463	247.57225
541.934	272.58791
542.406	271.62461
542.877	264.57111
543.348	321.73629
543.82	276.6431
544.291	324.71706
544.762	238.54714
545.233	304.73612
545.703	253.54111
546.174	319.70202
546.645	300.69296
547.115	307.70645
547.585	299.65524
548.056	364.8451
548.526	380.84728
548.996	343.7757
549.466	372.85103
549.935	353.79701
550.405	380.78085
550.875	411.91089
551.344	380.85078
551.814	393.84195
552.283	441.88801
552.752	458.99198
553.221	467.94728
553.69	491.01413
554.159	523.19068
554.628	473.98617
555.096	454.07218
555.565	447.91168
556.033	504.09987
556.502	424.95356
556.97	483.98421
557.438	398.87418
557.906	430.94326
558.374	396.85955
558.842	429.9567
559.31	442.9148
559.777	454.02731
560.245	407.87044
560.712	438.92882
561.18	459.93488
561.647	436.8939
562.114	531.10279
562.581	500.12838
563.048	535.10914
563.514	591.33865
563.981	523.08711
564.448	612.22918
564.914	614.26951
565.381	640.29319
565.847	661.35675
566.313	613.26602
566.779	633.25885
567.245	671.36491
567.711	705.47776
568.176	701.36776
568.642	691.5381
569.108	725.55916
569.573	735.4722
570.038	839.45837
570.504	871.64542
570.969	745.60906
571.434	833.55663
571.899	887.7648
572.363	924.7538
572.828	980.84044
573.293	949.78867
573.757	1054.96709
574.222	1009.82503
574.686	1019.89743
575.15	1010.99075
575.614	1073.03522
576.078	1049.98618
576.542	1021.87865
577.006	986.81185
577.469	1089.15967
577.933	1095.97897
578.396	967.88942
578.86	1009.93538
579.323	977.94317
579.786	962.69437
580.249	1018.95314
580.712	898.83595
581.175	942.93813
581.637	918.73394
582.1	891.6054
582.563	909.58204
583.025	829.72342
583.487	934.55694
583.95	854.52329
584.412	893.54103
584.874	883.81869
585.336	840.69171
585.797	824.50754
586.259	770.55058
586.721	798.60188
587.182	813.5934
587.643	795.53973
588.105	752.53719
588.566	758.34263
589.027	741.58267
589.488	741.47056
589.949	789.65111
590.41	792.3116
590.87	720.43182
591.331	769.4347
591.791	724.45716
592.252	733.4824
592.712	717.50096
593.172	745.46269
593.632	781.4816
594.092	742.42358
594.552	734.36691
595.011	678.36133
595.471	789.52737
595.931	808.54967
596.39	725.51906
596.849	713.44717
597.308	701.29016
597.768	727.65163
598.227	719.50913
598.685	786.53061
599.144	801.6164
599.603	759.53085
600.062	757.35791
600.52	848.61166
600.978	790.6011
601.437	852.6287
601.895	891.57514
602.353	892.62156
602.811	954.76345
603.269	918.8202
603.727	974.92778
604.184	960.7931
604.642	1021.0546
605.099	1054.98162
605.557	1049.06959
606.014	1053.79398
606.471	1128.27186
606.928	1182.02367
607.385	1172.33265
607.842	1225.15515
608.299	1257.24611
608.755	1221.30219
609.212	1303.16858
609.668	1303.20052
610.125	1365.4673
610.581	1343.35515
611.037	1303.17804
611.493	1318.3117
611.949	1348.4826
612.405	1404.01445
612.861	1304.25141
613.316	1345.42365
613.772	1369.31262
614.227	1417.51908
614.683	1466.17358
615.138	1387.40367
615.593	1399.38391
616.048	1460.40192
616.503	1427.56033
616.958	1401.63619
617.412	1452.51495
617.867	1380.2532
618.321	1446.07797
618.776	1352.17663
619.23	1389.39958
619.684	1467.32556
620.138	1401.3378
620.592	1351.46532
621.046	1383.4206
621.5	1347.43464
621.954	1388.21998
622.407	1387.219
622.861	1319.4272
623.314	1362.26183
623.768	1363.39411
624.221	1271.80397
624.674	1296.24933
625.127	1264.22925
625.58	1286.15472
626.033	1237.02895
626.485	1185.20915
626.938	1282.32081
627.39	1281.26579
627.843	1263.20272
628.295	1217.14768
628.747	1242.27426
629.199	1225.12275
629.651	1164.06707
630.103	1247.16901
630.555	1183.87774
631.006	1200.14771
631.458	1180.15495
631.909	1122.95448
632.361	1167.08469
632.812	1163.08922
633.263	1206.97509
633.714	1185.88951
634.165	1134.1424
634.616	1105.06567
635.067	1194.99656
635.518	1134.11224
635.968	1160.69125
636.419	1190.97253
636.869	1125.09697
637.319	1165.09708
637.769	1170.02116
638.219	1143.11072
638.669	1134.11848
639.119	1066.04002
639.569	1141.152
640.019	1164.08303
640.468	1158.99943
640.918	1164.15122
641.367	1152.98798
641.816	1187.01012
642.265	1252.21942
642.714	1224.13608
643.163	1252.19315
643.612	1254.36745
644.061	1248.98096
644.51	1233.14792
644.958	1262.07878
645.406	1252.28805
645.855	1195.25851
646.303	1279.2226
646.751	1293.24469
647.199	1320.21321
647.647	1346.31451
648.095	1313.22227
648.543	1308.90183
648.99	1339.41157
649.438	1347.30093
649.885	1425.63857
650.333	1391.85925
650.78	1448.55667
651.227	1424.57244
651.674	1428.34762
652.121	1454.61627
652.568	1469.628
653.015	1405.58474
653.461	1496.55089
653.908	1471.40753
654.354	1511.57047
654.801	1511.51852
655.247	1461.21372
655.693	1507.89259
656.139	1530.59677
656.585	1579.64839
657.031	1529.5446
657.477	1601.36119
657.922	1597.48776
658.368	1603.77881
658.813	1569.46339
659.259	1643.76841
659.704	1682.71884
660.149	1677.60624
660.594	1736.76654
661.039	1679.56591
661.484	1722.74554
661.929	1821.76963
662.373	1690.94971
662.818	1737.93277
663.262	1810.90361
663.707	1772.08804
664.151	1810.93602
664.595	1830.91969
665.039	1896.08307
665.483	1832.14226
665.927	1904.84293
666.371	1958.89379
666.814	1933.91516
667.258	2010.03349
667.701	2005.5082
668.145	2025.19193
668.588	2040.18245
669.031	2001.91533
669.474	2023.01686
669.917	2049.63536
670.36	2076.24136
670.803	2083.0879
671.245	2091.37609
671.688	2095.12632
672.13	2118.80439
672.573	2116.32358
673.015	2148.11375
673.457	2178.65674
673.899	2158.13235
674.341	2142.10298
674.783	2193.1049
675.225	2154.21711
675.666	2224.22848
676.108	2267.65179
676.549	2251.9889
676.991	2302.7285
677.432	2319.303
677.873	2269.89871
678.314	2302.11496
678.755	2353.32553
679.196	2291.91218
679.637	2379.17049
680.078	2402.05346
680.518	2384.95906
680.959	2385.144
681.399	2383.35267
681.839	2364.2383
682.28	2405.38665
682.72	2469.95998
683.16	2424.41528
683.6	2430.92426
684.039	2392.46712
684.479	2411.3516
684.919	2502.11828
685.358	2343.36185
685.798	2384.63961
686.237	2440.1661
686.676	2441.89402
687.115	2452.10719
687.554	2473.19697
687.993	2551.8025
688.432	2409.92929
688.871	2578.99095
689.309	2467.20571
689.748	2487.50396
690.186	2476.06765
690.625	2494.09941
691.063	2471.17325
691.501	2535.39508
691.939	2502.49205
692.377	2511.27167
692.815	2540.33376
693.253	2549.17641
693.69	2535.74208
694.128	2488.27337
694.565	2446.12421
695.003	2570.60134
695.44	2492.13898
695.877	2430.0864
696.314	2453.54523
696.751	2537.91008
697.188	2467.01745
697.625	2526.84117
698.061	2472.18615
698.498	2468.1116
698.934	2411.1548
699.371	2410.07635
699.807	2464.10424
700.243	2476.22738
700.679	2505.8172
701.115	2391.01959
701.551	2359.98789
701.987	2375.69273
702.422	2435.15624
702.858	2455.15812
703.294	2418.94379
703.729	2365.22646
704.164	2323.11129
704.599	2332.79121
705.035	2331.81062
705.47	2308.19312
705.904	2261.93654
706.339	2256.89213
706.774	2261.99093
707.209	2338.99116
707.643	2259.09499
708.078	2252.17399
708.512	2145.2761
708.946	2242.03321
709.38	2239.05129
709.814	2202.80169
710.248	2235.19706
710.682	2223.10015
711.116	2172.14554
711.549	2147.36454
711.983	2068.83502
712.416	2100.97886
712.85	1992.10642
713.283	2063.92971
713.716	2019.1268
714.149	2016.81303
714.582	1973.66653
715.015	1942.02212
715.448	1950.15802
715.881	1890.43779
716.313	1854.75069
716.746	1852.80677
717.178	1779.81594
717.61	1842.11319
718.043	1858.98814
718.475	1829.89275
718.907	1814.9995
719.339	1722.54135
719.77	1724.75494
720.202	1692.90124
720.634	1756.8822
721.065	1645.61786
721.497	1677.79591
721.928	1614.72721
722.359	1632.73575
722.79	1657.6907
723.221	1594.76528
723.652	1506.75959
724.083	1497.32245
724.514	1521.41602
724.945	1487.44599
725.375	1493.45054
725.806	1453.5847
726.236	1460.72556
726.666	1388.36443
727.096	1432.5348
727.526	1419.71033
727.956	1413.29661
728.386	1328.41895
728.816	1364.61563
729.246	1363.48979
729.675	1272.33287
730.105	1303.37861
730.534	1290.21656
730.964	1219.32968
731.393	1278.35092
731.822	1284.49831
732.251	1206.36726
732.68	1207.09693
733.109	1240.32732
733.537	1186.2333
733.966	1232.35628
734.395	1210.10161
734.823	1140.89966
735.251	1114.07999
735.68	1136.1785
736.108	1054.09643
736.536	1102.9962
736.964	1102.97096
737.392	1110.17948
737.82	1099.0393
738.247	1053.97248
738.675	1033.90932
739.102	1043.07498
739.53	1032.14459
739.957	1020.14117
740.384	1004.92623
740.811	948.91905
741.238	1001.97437
741.665	1003.8768
742.092	881.64325
742.519	1025.0391
742.945	967.90189
743.372	986.98243
743.798	927.95461
744.225	934.78314
744.651	916.88122
745.077	892.83518
745.503	892.76201
745.929	937.84627
746.355	864.73293
746.781	854.73805
747.207	855.67662
747.632	862.78215
748.058	927.92219
748.483	910.68782
748.908	869.79704
749.334	895.81786
749.759	921.785
750.184	844.68888
750.609	852.72926
751.033	847.6203
751.458	823.49927
751.883	811.66877
752.307	791.55314
752.732	829.78755
753.156	762.58718
753.58	797.56199
754.005	763.62337
754.429	842.65148
754.853	787.65635
755.277	770.53707
755.7	765.6086
756.124	753.59167
756.548	747.48593
756.971	770.58397
757.394	753.6416
757.818	750.65746
758.241	759.64491
758.664	699.52122
759.087	686.3147
759.51	671.42622
759.933	675.40671
760.356	718.59923
760.778	653.38973
761.201	676.40038
761.623	616.2691
762.046	636.27687
762.468	693.4142
762.89	646.3614
763.312	623.32925
763.734	578.22325
764.156	599.2962
764.578	630.23047
765	590.25902
765.421	561.27268
765.843	565.31436
766.264	531.10721
766.686	490.08686
767.107	536.14907
767.528	581.3229
767.949	521.17943
768.37	548.20513
768.791	481.02808
769.212	485.10048
769.632	527.09155
770.053	453.07332
770.473	466.0052
770.894	417.93033
771.314	427.90728
771.734	443.92733
772.154	440.01655
772.575	448.92348
772.994	410.83641
773.414	379.82038
773.834	381.86863
774.254	390.86777
774.673	425.94465
775.093	400.91102
775.512	396.89389
775.931	356.83371
776.351	384.87882
776.77	354.80139
777.189	324.71047
777.607	317.7527
778.026	351.80606
778.445	303.71835
778.864	269.63776
779.282	302.66558
779.701	330.76557
780.119	286.67819
780.537	297.68726
780.955	309.72466
781.373	290.6664
781.791	350.72764
782.209	208.44015
782.627	276.68263
783.045	236.50092
783.462	277.66179
783.88	257.62666
784.297	226.53676
784.715	283.68361
785.132	185.42165
785.549	248.58128
785.966	233.55221
786.383	259.60005
786.8	240.5203
787.217	252.56447
787.633	242.57431
788.05	217.47255
788.466	250.54105
788.883	231.56138
789.299	200.44745
789.715	198.45719
790.131	187.44114
790.547	211.49602
790.963	217.50634
791.379	185.44454
791.795	159.33948
792.21	168.36919
792.626	177.39346
793.041	181.42235
793.457	198.45865
793.872	161.35537
794.287	193.4429
794.702	136.31429
795.117	177.41982
795.532	141.34114
795.947	154.34638
796.362	112.25006
796.776	154.33429
797.191	164.3823
797.605	147.33315
798.02	151.34902
798.434	183.38258
798.848	164.38982
799.262	127.3017
799.676	173.39955
800.09	149.34864
800.504	132.30383
800.918	164.35509
801.331	66.16355
801.745	95.20767
802.158	86.20513
802.572	189.43198
802.985	131.29846
803.398	132.29861
803.811	103.24873
804.224	98.23088
804.637	106.24301
805.05	107.23469
805.462	126.29349
805.875	74.18639
806.288	137.31717
806.7	66.15851
807.112	115.2515
807.525	45.10575
807.937	124.29384
808.349	48.11563
808.761	150.35215
809.173	111.25861
809.584	100.23541
809.996	75.17666
810.408	125.31298
810.819	106.23872
811.231	184.4684
811.642	166.39199
812.053	208.47741
812.464	187.41621
812.875	167.40753
813.286	140.34756
813.697	105.22759
814.108	115.26666
814.519	169.35739
814.929	97.23672
815.34	60.13877
815.75	122.29944
816.16	44.10471
816.571	101.25106
816.981	82.18308
817.391	88.2015
817.801	56.13511
818.211	93.21145
818.62	93.21582
819.03	78.18312
819.44	36.08963
819.849	19.04604
820.259	55.13452
820.668	91.21576
821.077	140.33418
821.486	93.2112
821.895	65.15215
822.304	27.0695
822.713	91.20473
823.122	105.25001
823.531	64.14348
823.939	82.19274
824.348	79.18297
824.756	75.17954
825.164	89.21363
825.573	92.22162
825.981	91.21476
826.389	92.22104
826.797	100.24454
827.205	66.14663
827.612	77.1813
828.02	38.08565
828.428	76.18599
828.835	90.22977
829.243	60.13634
829.65	80.19279
830.057	50.11633
830.464	100.23605
830.871	77.17756
831.278	82.19003
831.685	107.22518
832.092	50.11674
832.499	91.19042
832.905	54.13097
833.312	41.08811
833.718	92.22129
834.124	97.21159
834.531	72.17259
834.937	68.16882
835.343	43.09912
835.749	90.19712
836.155	72.18181
836.561	61.14463
836.966	106.24594
837.372	46.11253
837.777	75.18023
838.183	109.22788
838.588	114.27181
838.993	137.31616
839.399	100.23468
839.804	29.0686
840.209	92.22756
840.613	131.27387
841.018	43.10462
841.423	74.18284
841.828	91.22183
842.232	77.17939
842.637	80.18267
843.041	36.08993
843.445	47.11286
843.849	54.12944
844.253	108.24302
844.657	54.13215
845.061	120.2626
845.465	72.16685
845.869	108.23814
846.272	82.19236
846.676	-7.01616
847.079	78.1923
847.483	97.23043
847.886	94.21593
848.289	113.29309
848.692	30.07303
849.095	66.15125
849.498	79.18897
849.901	56.12187
850.304	92.20931
850.707	86.20936
851.109	63.15243
851.512	75.17728
851.914	62.15173
852.316	105.25681
852.718	124.314
853.121	86.20174
853.523	53.11797
853.925	81.20559
854.326	76.18377
854.728	87.21555
855.13	66.16588
855.531	46.10614
855.933	46.10508
856.334	91.21909
856.736	85.18314
857.137	122.27115
857.538	73.17775
857.939	95.22785
858.34	76.17521
858.741	44.11087
859.142	62.14197
859.542	77.19717
859.943	64.15271
860.343	88.21014
860.744	89.20727
861.144	113.26472
861.544	79.18449
861.945	67.16399
862.345	85.19756
862.745	43.10396
863.145	67.15012
863.544	76.18502
863.944	70.1581
864.344	61.14352
864.743	87.20596
865.143	112.27734
865.542	28.06169
865.941	74.17637
866.34	64.14478
866.74	102.26305
867.139	88.20417
867.537	46.11178
867.936	72.16672
868.335	86.20905
868.734	93.22805
869.132	65.14239
869.531	66.15089
869.929	74.1618
870.327	56.12885
870.726	43.10219
871.124	86.18963
871.522	37.09077
871.92	80.18884
872.318	81.18775
872.715	51.11948
873.113	61.14173
873.511	37.08864
873.908	25.06226
874.306	98.23482
874.703	39.09315
875.1	58.14062
875.497	61.13954
875.894	94.2243
876.291	95.2229
876.688	53.13208
877.085	62.1414
877.482	63.15139
877.878	97.22572
878.275	23.0568
878.671	14.02902
879.068	109.24964
879.464	67.15499
879.86	50.11348
880.256	46.10736
880.652	92.22372
881.048	59.13876
881.444	31.06994
881.84	25.06142
882.236	90.21598
882.631	28.06679
883.027	75.17274
883.422	42.10297
883.817	37.0906
884.213	87.21397
884.608	133.31632
885.003	47.1079
885.398	64.15406
885.793	29.07003
886.188	11.02646
886.582	64.15621
886.977	63.14197
887.371	55.13282
887.766	41.09901
888.16	9.02138
888.554	58.13659
888.949	73.17555
889.343	64.1489
889.737	22.05758
890.131	45.10883
890.525	58.14389
890.918	47.11384
891.312	84.18933
891.706	76.19115
892.099	59.14388
892.492	102.20582
892.886	66.15428
893.279	69.16832
893.672	58.1432
894.065	68.16356
894.458	61.14575
894.851	57.13296
895.244	85.20774
895.637	79.18239
896.029	85.19983
896.422	14.03265
896.814	54.12856
897.206	95.21854
897.599	83.19581
897.991	103.23845
898.383	101.22713
898.775	100.21652
899.167	81.18298
899.559	75.18016
899.951	61.13611
900.342	60.14514
900.734	91.22133
901.125	29.07316
901.517	70.16492
901.908	73.16437
902.299	65.15287
902.69	111.25064
903.082	104.23929
903.473	87.20205
903.863	26.06379
904.254	91.20338
904.645	64.15049
905.036	104.24473
905.426	101.21508
905.817	15.03535
906.207	37.08375
906.597	79.17809
906.987	28.06961
907.378	76.18537
907.768	65.16621
908.158	64.14908
908.547	70.1765
908.937	13.03193
909.327	78.1804
909.717	47.1129
910.106	61.13954
910.495	41.09736
910.885	103.24948
911.274	75.17913
911.663	85.20426
912.052	96.22265
912.441	101.24721
912.83	59.12827
913.219	57.14313
913.608	74.17414
913.997	53.1292
914.385	104.23575
914.774	54.12583
915.162	77.17734
915.55	61.1401
915.939	65.15892
916.327	20.04785
916.715	84.20846
917.103	77.17763
917.491	46.10901
917.878	89.208
918.266	40.09974
918.654	116.28461
919.041	47.12018
919.429	41.09288
919.816	56.13628
920.203	108.25137
920.591	68.16195
920.978	82.19161
921.365	51.12972
921.752	16.0362
922.139	124.25251
922.525	41.09511
922.912	101.23308
923.299	13.03135
923.685	1.00251
924.072	10.02164
924.458	72.17167
924.844	52.12375
925.231	36.07961
925.617	74.18271
926.003	69.16864
926.389	53.12852
926.774	39.09493
927.16	79.1871
927.546	67.16721
927.931	85.20107
928.317	48.10491
928.702	70.15713
929.088	120.275
929.473	105.257
929.858	95.22307
930.243	87.20125
930.628	85.19959
931.013	46.10989
931.398	60.12913
931.783	42.1056
932.167	83.19596
932.552	90.21442
932.937	58.13718
933.321	62.15077
933.705	-5.0121
934.09	23.05493
934.474	38.08572
934.858	54.13533
935.242	51.11267
935.626	88.21679
936.009	74.19151
936.393	117.28754
936.777	82.20253
937.16	73.1841
937.544	45.09979
937.927	35.0863
938.311	69.15974
938.694	110.27885
939.077	88.20045
939.46	11.0255
939.843	65.12492
940.226	15.03708
940.609	123.26967
940.991	47.11444
941.374	43.1018
941.757	58.13659
942.139	29.0628
942.522	72.16102
942.904	56.129
943.286	44.10728
943.668	108.27007
944.05	116.27127
944.432	16.038
944.814	52.12156
945.196	60.14147
945.578	86.19835
945.959	46.10207
946.341	33.07637
946.722	86.1905
947.104	74.16883
947.485	97.21402
947.866	72.17548
948.247	44.10812
948.628	-15.0348
949.009	50.12336
949.39	61.14452
949.771	47.10187
950.152	85.19928
950.532	93.22484
950.913	82.18807
951.293	57.15023
951.674	65.15036
952.054	87.21009
952.434	13.0313
952.814	50.11246
953.194	47.11696
953.574	69.16164
953.954	58.13014
954.334	95.22803
954.714	51.11999
955.093	98.22899
955.473	104.25063
955.853	48.1199
956.232	86.22632
956.611	41.093
956.99	42.10217
957.37	51.12414
957.749	4.00906
958.128	85.20612
958.506	42.10545
958.885	74.17806
959.264	73.17355
959.643	99.21468
960.021	76.18155
960.4	76.16329
960.778	30.07002
961.156	28.06745
961.535	75.16437
961.913	100.22308
962.291	100.24844
962.669	76.1855
963.047	100.24499
963.424	62.15431
963.802	33.0784
964.18	49.11708
964.557	110.23756
964.935	103.23077
965.312	38.09626
965.69	50.11903
966.067	46.10614
966.444	46.1066
966.821	54.13421
967.198	38.0874
967.575	88.20442
967.952	76.16982
968.329	89.20768
968.705	104.2113
969.082	101.25106
969.458	93.21548
969.835	65.15126
970.211	67.16709
970.587	71.16958
970.963	37.0907
971.339	41.10399
971.715	60.14405
972.091	38.08991
972.467	48.11317
972.843	75.18036
973.219	50.11366
973.594	3.00764
973.97	20.04451
974.345	91.20808
974.721	39.08918
975.096	90.20914
975.471	58.13083
975.846	65.14791
976.221	60.14661
976.596	121.27935
976.971	135.31737
977.346	57.12545
977.72	29.07096
978.095	64.15877
978.469	83.18742
978.844	77.18377
979.218	86.19961
979.593	18.04133
979.967	3.00693
980.341	100.21892
980.715	79.19092
981.089	70.16754
981.463	62.13568
981.837	66.1564
982.21	35.07573
982.584	116.26647
982.957	40.09687
983.331	77.17025
983.704	89.21127
984.078	67.15763
984.451	85.19788
984.824	63.14793
985.197	-2.00462
985.57	25.05946
985.943	43.09994
986.316	104.23795
986.688	84.19227
987.061	89.19875
987.434	83.21029
987.806	54.12335
988.179	62.13894
988.551	64.15487
988.923	67.15671
989.295	67.15923
989.667	73.1692
990.039	79.18991
990.411	45.09729
990.783	60.12958
991.155	61.14094
991.527	66.15198
991.898	67.16076
992.27	80.19104
992.641	34.08156
993.012	15.03301
993.384	55.1247
993.755	41.1014
994.126	32.07474
994.497	71.16659
994.868	88.18883
995.239	57.1317
995.61	21.05113
995.98	35.08158
996.351	65.15537
996.722	67.14999
997.092	92.20804
997.462	94.21109
997.833	61.13656
998.203	50.11417
998.573	66.15809
998.943	55.12399
999.313	94.21533
999.683	30.06952
1000.053	18.03877
1000.423	40.09251
1000.792	35.0865
1001.162	34.07988
1001.531	93.21863
1001.901	61.1448
1002.27	39.08132
1002.639	21.05144
1003.009	35.07964
1003.378	50.12327
1003.747	65.14527
1004.116	28.06427
1004.485	77.175
1004.853	25.06021
1005.222	-2.00479
1005.591	89.19965
1005.959	68.14635
1006.328	93.19865
1006.696	4.00928
1007.064	25.06003
1007.433	10.02395
1007.801	73.16766
1008.169	30.07219
1008.537	114.23648
1008.905	69.15428
1009.273	61.1429
1009.64	66.15246
1010.008	51.11596
1010.375	81.18335
1010.743	71.15028
1011.11	109.24914
1011.478	66.15749
1011.845	56.12482
1012.212	112.24178
1012.579	77.18067
1012.946	70.15655
1013.313	79.17686
1013.68	61.12939
1014.047	21.04813
1014.414	23.0521
1014.78	116.27445
1015.147	34.07785
1015.513	33.07637
1015.88	64.15557
1016.246	35.08186
1016.612	68.14635
1016.978	72.16963
1017.344	99.23301
1017.71	77.17741
1018.076	54.12007
1018.442	71.17565
1018.808	88.21191
1019.174	33.07918
1019.539	31.0651
1019.905	84.18925
1020.27	47.11101
1020.636	65.14629
1021.001	93.21197
1021.366	78.17925
1021.731	106.26354
1022.096	43.10548
1022.461	82.18489
1022.826	124.28017
1023.191	20.05086
1023.556	81.17894
1023.92	14.03285
1024.285	53.12226
1024.649	53.12343
1025.014	45.10554
1025.378	108.25977
1025.742	54.12722
1026.107	37.07958
1026.471	82.18005
1026.835	65.15406
1027.199	41.09488
1027.562	18.03971
1027.926	42.09779
1028.29	63.15294
1028.654	73.1585
1029.017	94.22025
1029.381	68.15546
1029.744	41.10076
1030.107	118.26291
1030.471	62.14254
1030.834	40.08527
1031.197	61.13999
1031.56	77.17145
1031.923	77.19106
1032.286	94.20874
1032.648	62.13911
1033.011	74.16385
1033.374	45.09979
1033.736	23.05865
1034.099	65.15144
1034.461	60.14667
1034.823	43.10341
1035.185	37.08868
1035.548	77.17947
1035.91	59.13453
1036.272	95.20539
1036.634	80.18613
1036.995	62.13751
1037.357	33.07761
1037.719	61.14201
1038.08	91.20674
1038.442	49.11092
1038.803	64.14384
1039.165	15.03637
1039.526	24.05584
1039.887	32.07336
1040.248	70.16786
1040.609	31.07276
1040.97	49.11425
1041.331	90.21894
1041.692	89.20088
1042.053	90.19203
1042.413	64.14076
1042.774	86.1993
1043.134	100.2217
1043.495	50.12054
1043.855	82.19153
1044.215	54.12752
1044.576	54.1244
1044.936	68.14692
1045.296	71.16912
1045.656	20.0467
1046.016	88.20021
1046.375	49.11376
1046.735	95.2075
1047.095	82.1821
1047.454	64.12623
1047.814	63.14464
1048.173	74.16529
1048.533	74.1607
1048.892	51.1177
1049.251	12.02885
1049.61	59.13914
1049.969	88.19574
1050.328	93.18943
1050.687	43.09951
1051.046	19.04434
1051.405	37.08749
1051.763	65.14389
1052.122	36.08616
1052.48	61.14346
1052.839	114.25757
1053.197	74.16522
1053.555	29.06165
1053.914	67.15573
1054.272	9.02047
1054.63	38.08946
1054.988	92.20939
1055.345	-3.0061
1055.703	77.17663
1056.061	67.16734
1056.419	81.2042
1056.776	31.0708
1057.134	18.03919
1057.491	92.21936
1057.848	92.21624
1058.206	8.01779
1058.563	101.20834
1058.92	92.19911
1059.277	80.18789
1059.634	56.12353
1059.991	84.19157
1060.348	77.16554
1060.704	86.19953
1061.061	55.11901
1061.418	40.09317
1061.774	87.20437
1062.131	57.14754
1062.487	29.06452
1062.843	48.11467
1063.199	46.10985
1063.555	25.05613
1063.911	64.15359
1064.267	108.2061
1064.623	74.17346
1064.979	4.00876
1065.335	56.12637
1065.691	55.12369
1066.046	83.17137
1066.402	31.06679
1066.757	62.14998
1067.112	55.12839
1067.468	67.15296
1067.823	6.01359
1068.178	63.14417
1068.533	52.12046
1068.888	60.13579
1069.243	71.16724
1069.598	52.11988
1069.952	65.14239
1070.307	53.12644
1070.662	76.17403
1071.016	129.27495
1071.371	68.14767
1071.725	102.22811
1072.079	45.10385
1072.434	53.12372
1072.788	12.02708
1073.142	55.1296
1073.496	49.11069
1073.85	77.16875
1074.203	94.21654
1074.557	49.12736
1074.911	113.25203
1075.265	39.08652
1075.618	86.19977
1075.971	71.16032
1076.325	77.18868
1076.678	38.08309
1077.031	6.01274
1077.385	110.22574
1077.738	38.08154
1078.091	35.07687
1078.444	68.14774
1078.796	76.17898
1079.149	85.20177
1079.502	56.12725
1079.855	74.16406
1080.207	93.21659
1080.56	64.15987
1080.912	57.13222
1081.264	76.17494
1081.617	77.17947
1081.969	42.10259
1082.321	18.04214
1082.673	31.06891
1083.025	92.20507
1083.377	83.18466
1083.728	61.13448
1084.08	52.12346
1084.432	72.16447
1084.783	35.07667
1085.135	92.22062
1085.486	66.14443
1085.838	54.12781
1086.189	72.16818
1086.54	81.1826
1086.891	66.16319
1087.242	107.25145
1087.593	43.09852
1087.944	69.14962
1088.295	90.19228
1088.646	147.34167
1088.996	73.16867
1089.347	32.07489
1089.698	47.10756
1090.048	52.12895
1090.398	48.10526
1090.749	93.20845
1091.099	55.13452
1091.449	106.25167
1091.799	71.16971
1092.149	50.11871
1092.499	59.13757
1092.849	55.13442
1093.199	35.0835
1093.548	101.23262
1093.898	40.0957
1094.248	-14.03459
1094.597	17.04258
1094.947	49.12644
1095.296	34.08122
1095.645	85.21029
1095.994	72.16454
1096.343	58.14046
1096.692	84.21528
1097.041	83.21971
1097.39	56.13368
1097.739	60.14966
1098.088	41.10528
1098.437	47.12102
1098.785	-7.01823
1099.134	15.03794
1099.482	45.12032
1099.83	20.05093
1100.179	72.18401
1100.527	-2.00511
1100.875	41.10561
1101.223	50.12908
1101.571	-2.00537
1101.919	44.11367
1102.267	26.07194
1102.615	4.01285
1102.962	2.00642
1103.31	12.0385
1103.658	-1.00321
