Data from N3 R4 sample 4_Subt2__0__12-20-46-714.txt Node

Date: Thu Sep 18 12:20:46 PDT 2025
User: uwsun
Spectrometer: HDX01956
Trigger mode: 0
Integration Time (sec): 5.000000E-1
Scans to average: 1
Nonlinearity correction enabled: true
Boxcar width: 0
Storing dark spectrum: false
XAxis mode: Wavelengths
Number of Pixels in Spectrum: 2068
>>>>>Begin Spectral Data<<<<<
194.03	65.18691
194.578	76.24492
195.127	77.2446
195.676	80.25496
196.225	87.22899
196.773	99.27242
197.321	143.3915
197.87	213.53771
198.418	266.67016
198.966	253.65366
199.513	256.63781
200.061	223.55853
200.609	235.60969
201.156	214.46196
201.704	254.62638
202.251	215.56413
202.798	197.50547
203.345	271.65586
203.892	241.59859
204.438	276.63804
204.985	250.5823
205.532	212.5505
206.078	258.61652
206.624	279.68384
207.17	294.67045
207.716	291.69523
208.262	281.54082
208.808	304.74276
209.354	309.74217
209.899	267.65686
210.445	258.63273
210.99	284.67604
211.535	280.64368
212.08	251.5709
212.625	296.71864
213.17	284.70601
213.715	291.64685
214.259	276.62865
214.804	255.6118
215.348	321.71738
215.892	248.59104
216.436	257.57294
216.98	246.5283
217.524	305.70745
218.068	278.68455
218.612	286.70891
219.155	293.67262
219.698	289.66769
220.242	243.587
220.785	272.62254
221.328	193.47115
221.871	291.72064
222.414	217.52736
222.956	144.34307
223.499	213.4662
224.041	277.61292
224.583	188.39051
225.126	242.51747
225.668	227.54027
226.21	226.56144
226.751	274.59198
227.293	220.48711
227.835	242.57962
228.376	227.50439
228.918	204.49921
229.459	236.576
230	264.61684
230.541	209.47172
231.082	231.55064
231.622	162.36273
232.163	215.50837
232.704	280.68031
233.244	238.57698
233.784	274.64322
234.324	274.59806
234.864	262.57405
235.404	265.60494
235.944	209.48269
236.484	256.62224
237.023	195.45215
237.563	255.57695
238.102	277.63437
238.641	209.51552
239.18	260.59341
239.719	252.61459
240.258	272.59143
240.797	277.64124
241.335	207.494
241.874	240.45534
242.412	305.71528
242.95	270.63408
243.488	260.56606
244.026	267.60336
244.564	311.61326
245.102	292.63923
245.64	213.49838
246.177	254.54783
246.715	297.68889
247.252	227.50313
247.789	367.63918
248.326	236.55619
248.863	269.57408
249.4	281.6158
249.936	324.64986
250.473	258.59406
251.009	220.4932
251.546	318.68232
252.082	231.48657
252.618	237.51763
253.154	273.63774
253.69	248.54131
254.226	286.66299
254.761	238.52125
255.297	242.51478
255.832	270.62367
256.367	287.65198
256.903	323.68901
257.438	268.60944
257.972	267.57648
258.507	256.57083
259.042	271.57107
259.576	351.74126
260.111	274.60919
260.645	313.64855
261.179	286.64853
261.713	309.66573
262.247	201.45107
262.781	291.59163
263.315	244.57705
263.849	290.70329
264.382	227.51005
264.915	285.65347
265.449	256.6087
265.982	279.61348
266.515	355.83251
267.048	263.54105
267.58	259.54194
268.113	300.62453
268.646	211.50682
269.178	264.57257
269.71	344.72696
270.243	350.77523
270.775	303.75254
271.307	258.5962
271.838	298.67875
272.37	276.656
272.902	253.55749
273.433	302.64576
273.965	270.63704
274.496	280.67266
275.027	263.6377
275.558	298.70364
276.089	301.72763
276.62	277.67743
277.15	244.58552
277.681	267.5567
278.211	264.62579
278.741	316.67481
279.272	327.71841
279.802	250.60653
280.332	291.66508
280.861	264.61345
281.391	274.60413
281.921	295.681
282.45	286.68681
282.98	292.73775
283.509	349.75932
284.038	264.58794
284.567	334.74627
285.096	279.65738
285.625	283.616
286.153	344.78857
286.682	315.69729
287.21	239.55592
287.739	289.66105
288.267	307.7225
288.795	297.75132
289.323	296.67283
289.851	326.73801
290.378	256.55546
290.906	348.81689
291.433	328.78705
291.961	346.75711
292.488	318.76016
293.015	330.7495
293.542	363.89494
294.069	325.77674
294.596	307.72418
295.122	378.8644
295.649	326.68409
296.175	360.82755
296.702	362.84743
297.228	310.72004
297.754	388.82783
298.28	422.91636
298.806	310.72174
299.332	304.65791
299.857	390.84148
300.383	343.8285
300.908	335.79328
301.433	380.8892
301.958	376.82031
302.483	325.77614
303.008	376.89395
303.533	308.76872
304.058	278.62936
304.582	343.77823
305.107	321.8071
305.631	352.7634
306.155	337.75468
306.679	388.86869
307.203	386.85282
307.727	380.85848
308.251	345.81822
308.775	428.98578
309.298	380.87456
309.822	343.8285
310.345	379.86512
310.868	444.00749
311.391	422.98435
311.914	372.89225
312.437	456.97753
312.96	443.98301
313.482	378.847
314.005	372.88784
314.527	377.93763
315.049	444.05985
315.571	438.92882
316.093	433.01242
316.615	403.9184
317.137	404.83428
317.659	449.02236
318.18	416.93864
318.702	478.04655
319.223	431.82434
319.744	475.99958
320.265	423.97757
320.786	475.11384
321.307	433.01005
321.828	446.94661
322.348	490.07513
322.869	474.05785
323.389	486.88438
323.909	507.07393
324.43	507.12579
324.95	501.06582
325.47	536.23284
325.989	506.11729
326.509	526.08923
327.029	526.11206
327.548	510.07206
328.067	558.24973
328.587	555.28802
329.106	542.12392
329.625	499.2156
330.144	551.18153
330.662	563.21716
331.181	588.27101
331.7	570.21523
332.218	610.19923
332.736	558.20351
333.255	612.31393
333.773	595.28424
334.291	665.50704
334.808	658.33448
335.326	653.3198
335.844	661.40433
336.361	654.53443
336.879	671.42375
337.396	654.44516
337.913	659.37394
338.43	701.40984
338.947	671.44663
339.464	708.35497
339.981	658.41039
340.497	700.54625
341.014	724.57733
341.53	721.44413
342.046	747.66626
342.562	686.54302
343.078	724.5193
343.594	756.5921
344.11	787.66143
344.626	766.72096
345.141	826.64291
345.657	766.52625
346.172	784.66989
346.687	776.56554
347.202	788.58032
347.717	797.6708
348.232	790.7401
348.747	861.71857
349.261	868.63535
349.776	874.79732
350.29	890.93345
350.805	881.88676
351.319	892.77928
351.833	942.84008
352.347	878.79017
352.861	879.77966
353.374	876.71099
353.888	966.00813
354.401	868.70094
354.915	927.78042
355.428	956.03475
355.941	936.85335
356.454	962.79596
356.967	935.85352
357.48	915.76493
357.993	979.04015
358.505	928.93152
359.018	1021.10059
359.53	1004.06602
360.042	968.82143
360.554	1027.10918
361.066	972.00365
361.578	1075.94076
362.09	1022.03172
362.602	1069.95344
363.113	1094.11484
363.625	1162.11772
364.136	1062.90799
364.647	1102.14451
365.158	1147.15913
365.669	1125.19298
366.18	1093.11039
366.691	1165.03108
367.201	1131.21093
367.712	1171.15079
368.222	1201.20498
368.733	1143.98962
369.243	1236.17177
369.753	1234.24714
370.263	1240.38639
370.773	1214.36852
371.282	1244.35992
371.792	1339.39325
372.301	1303.46678
372.811	1372.83048
373.32	1348.21158
373.829	1392.50298
374.338	1399.33571
374.847	1450.50488
375.356	1461.58173
375.865	1601.41821
376.373	1700.69486
376.882	1749.15277
377.39	1700.91045
377.898	1736.01545
378.407	1831.79156
378.915	1897.69764
379.423	1934.95525
379.93	2211.11757
380.438	2094.19957
380.946	2276.14952
381.453	2373.34229
381.96	2477.35692
382.468	2663.32349
382.975	2741.56921
383.482	2796.07634
383.989	2927.89829
384.495	3085.30395
385.002	3239.68642
385.509	3411.39403
386.015	3597.42938
386.521	3725.98933
387.028	3895.90475
387.534	3958.50043
388.04	4123.19881
388.546	4152.5946
389.051	4442.41843
389.557	4641.63153
390.063	5133.17867
390.568	5339.49535
391.073	5458.88847
391.578	5695.41575
392.084	5925.82333
392.589	5965.50289
393.093	6476.9602
393.598	7201.71693
394.103	7789.11774
394.607	8594.91109
395.112	9224.94951
395.616	9726.02621
396.12	10388.05233
396.624	11527.62677
397.128	12488.69816
397.632	13918.06899
398.136	15061.53857
398.639	16058.31606
399.143	17807.48955
399.646	20180.34173
400.15	22290.20182
400.653	24956.98756
401.156	27989.16762
401.659	32894.58013
402.162	39570.40202
402.664	52276.75343
403.167	62446.84838
403.67	63769.22307
404.172	63919.58413
404.674	63858.43483
405.176	63738.15102
405.678	63977.72923
406.18	64011.81569
406.682	63863.44694
407.184	63926.60148
407.686	63841.39382
408.187	64025.8516
408.688	63892.51763
409.19	63833.37461
409.691	63977.72923
410.192	63677.15239
410.693	55455.55509
411.194	50309.0564
411.694	47357.95769
412.195	43957.21765
412.696	39563.16386
413.196	36633.5945
413.696	36028.15479
414.196	36149.15223
414.696	35591.22495
415.196	34099.77023
415.696	31075.62724
416.196	25374.15167
416.695	19403.76077
417.195	16611.02444
417.694	15732.07674
418.194	14716.64715
418.693	13823.71113
419.192	13510.89121
419.691	13137.32291
420.19	12821.82806
420.688	12434.22934
421.187	12047.45145
421.685	11242.38063
422.184	10316.74409
422.682	8839.08966
423.18	7459.79311
423.678	6557.64896
424.176	6238.7034
424.674	5772.70921
425.172	5506.18982
425.669	5177.67675
426.167	4898.43344
426.664	4523.49067
427.161	4009.84302
427.659	3817.29503
428.156	3601.55347
428.652	3275.69984
429.149	3276.44538
429.646	3170.94462
430.143	2940.38465
430.639	2801.30931
431.135	2588.57633
431.632	2496.0683
432.128	2379.28107
432.624	2238.58581
433.12	2138.93163
433.616	2165.77252
434.111	1973.00899
434.607	1934.01464
435.103	1899.46858
435.598	1844.417
436.093	1760.76743
436.588	1742.62697
437.083	1540.44301
437.578	1557.56765
438.073	1461.73343
438.568	1498.71624
439.062	1380.15365
439.557	1285.29752
440.051	1239.13358
440.546	1221.14029
441.04	1247.32623
441.534	1202.40128
442.028	1177.24058
442.522	1103.12671
443.015	1114.86833
443.509	1124.18948
444.002	1115.19188
444.496	1075.84632
444.989	1050.07301
445.482	1038.10461
445.975	1104.0319
446.468	1024.77858
446.961	1071.84432
447.454	943.74091
447.947	1016.98388
448.439	981.99359
448.931	975.83597
449.424	950.0272
449.916	977.97376
450.408	947.78577
450.9	940.90371
451.392	883.90647
451.884	881.696
452.375	837.77168
452.867	874.64184
453.358	856.65135
453.849	834.49443
454.341	862.63276
454.832	805.46938
455.323	840.78925
455.814	768.50827
456.304	846.65309
456.795	802.5596
457.285	780.46209
457.776	781.52194
458.266	707.4663
458.756	733.5027
459.247	757.56593
459.737	787.63894
460.226	743.4615
460.716	692.4508
461.206	673.41744
461.695	630.38744
462.185	716.48136
462.674	707.40495
463.163	607.20931
463.653	697.28278
464.142	614.32785
464.63	604.30787
465.119	645.32387
465.608	680.39674
466.096	633.20682
466.585	593.20658
467.073	573.21239
467.561	609.30215
468.05	569.17344
468.538	503.12106
469.026	576.22432
469.513	534.01009
470.001	537.11279
470.489	558.19424
470.976	576.20572
471.463	530.19861
471.951	545.22583
472.438	529.12354
472.925	508.08707
473.412	456.0176
473.899	521.08054
474.385	463.04198
474.872	493.04695
475.359	461.04297
475.845	455.86056
476.331	396.7818
476.817	396.89936
477.303	411.88697
477.789	368.82155
478.275	406.93923
478.761	358.79824
479.247	411.84893
479.732	409.95123
480.218	433.0538
480.703	361.83598
481.188	369.74611
481.673	386.82785
482.158	364.73583
482.643	396.94655
483.128	407.88248
483.612	396.88039
484.097	353.80059
484.581	329.71885
485.066	426.96865
485.55	378.78024
486.034	351.71362
486.518	343.77475
487.002	290.67173
487.486	303.69891
487.969	269.62544
488.453	283.67224
488.936	281.60307
489.42	294.61803
489.903	254.60673
490.386	199.39868
490.869	319.66068
491.352	215.5001
491.835	311.60029
492.318	242.52262
492.8	301.59019
493.283	283.69056
493.765	221.52357
494.247	253.56496
494.73	234.49863
495.212	191.43971
495.694	282.63452
496.175	239.55328
496.657	284.64138
497.139	250.40838
497.62	241.55813
498.102	201.48574
498.583	148.35598
499.064	197.42626
499.545	225.49475
500.026	246.5349
500.507	196.43796
500.988	243.58501
501.469	206.49754
501.949	215.51368
502.43	204.47704
502.91	250.50886
503.39	193.46482
503.87	265.6003
504.35	165.37698
504.83	228.48035
505.31	172.40442
505.79	190.43645
506.269	191.42581
506.749	183.40697
507.228	219.49853
507.707	254.5436
508.187	283.64576
508.666	248.5915
509.145	220.49726
509.623	195.44354
510.102	224.5236
510.581	309.70849
511.059	255.61738
511.538	217.54193
512.016	244.56295
512.494	186.43512
512.972	235.54273
513.45	242.54341
513.928	246.57592
514.406	260.6125
514.884	262.64967
515.361	259.59505
515.839	327.71237
516.316	307.71011
516.793	277.66987
517.27	269.61976
517.747	292.71663
518.224	294.6447
518.701	237.50403
519.178	273.65522
519.654	291.65705
520.131	269.63924
520.607	224.52914
521.083	239.52112
521.56	305.68331
522.036	245.5122
522.512	310.72856
522.987	262.60616
523.463	305.68753
523.939	276.65675
524.414	267.58488
524.89	234.53902
525.365	226.49288
525.84	233.54089
526.315	249.58077
526.79	224.4881
527.265	254.56403
527.74	155.36878
528.215	229.51559
528.689	156.33488
529.164	193.40188
529.638	161.39961
530.112	198.45246
530.587	180.37539
531.061	180.42521
531.534	142.33636
532.008	213.50247
532.482	184.41216
532.956	139.34878
533.429	236.55791
533.903	172.36795
534.376	139.30218
534.849	190.42508
535.322	182.41875
535.795	143.33932
536.268	172.4071
536.741	146.34035
537.213	170.3819
537.686	187.44611
538.158	212.46744
538.631	171.40497
539.103	167.36907
539.575	158.31837
540.047	188.39887
540.519	178.41526
540.991	212.50157
541.463	166.39077
541.934	173.38185
542.406	207.4832
542.877	190.41753
543.348	205.48116
543.82	205.48436
544.291	231.52116
544.762	211.48769
545.233	212.52225
545.703	207.44713
546.174	232.51989
546.645	218.51177
547.115	263.61052
547.585	195.43671
548.056	295.69426
548.526	260.59412
548.996	212.49224
549.466	252.59043
549.935	285.65242
550.405	236.50071
550.875	275.62675
551.344	265.60738
551.814	274.60211
552.283	310.64305
552.752	292.65487
553.221	342.71355
553.69	380.80584
554.159	305.72616
554.628	368.78517
555.096	356.85843
555.565	324.67929
556.033	419.93248
556.502	326.74791
556.97	384.8001
557.438	352.78064
557.906	340.75999
558.374	411.88925
558.842	383.86226
559.31	397.82994
559.777	371.85539
560.245	362.78174
560.712	382.81998
561.18	466.94763
561.647	409.84366
562.114	485.01739
562.581	474.07526
563.048	485.0165
563.514	586.32866
563.981	561.15639
564.448	561.13981
564.914	570.18998
565.381	606.23391
565.847	652.34096
566.313	624.2856
566.779	620.23668
567.245	653.33368
567.711	687.44569
568.176	694.35633
568.642	759.66585
569.108	755.6133
569.573	753.50205
570.038	824.43789
570.504	877.65435
570.969	828.75682
571.434	870.61109
571.899	913.80565
572.363	969.8193
572.828	983.84473
573.293	950.79012
573.757	1040.9476
574.222	977.78137
574.686	1029.91136
575.15	1005.98319
575.614	1055.00971
576.078	966.86567
576.542	988.83279
577.006	1007.84081
577.469	988.00488
577.933	987.83229
578.396	982.91199
578.86	1022.95424
579.323	1013.99806
579.786	920.63793
580.249	979.89577
580.712	933.89253
581.175	817.72782
581.637	872.66539
582.1	899.61655
582.563	834.47988
583.025	838.73867
583.487	855.45571
583.95	744.36432
584.412	806.42268
584.874	789.65911
585.336	728.50353
585.797	772.4307
586.259	720.46638
586.721	667.37894
587.182	715.43341
587.643	677.34775
588.105	692.43356
588.566	601.10743
589.027	657.42852
589.488	650.31703
589.949	626.35672
590.41	691.17582
590.87	676.35793
591.331	697.32327
591.791	593.22904
592.252	616.27877
592.712	594.27688
593.172	593.20548
593.632	642.25869
594.092	627.23589
594.552	638.21607
595.011	623.26656
595.471	707.39515
595.931	671.32897
596.39	635.35664
596.849	663.36086
597.308	623.16874
597.768	693.58514
598.227	657.39764
598.685	703.39569
599.144	681.41169
599.603	731.48375
600.062	695.26629
600.52	792.52551
600.978	764.55752
601.437	820.57953
601.895	852.52128
602.353	796.48186
602.811	966.78035
603.269	906.80139
603.727	909.82621
604.184	956.78738
604.642	969.97454
605.099	1035.95487
605.557	1036.05008
606.014	1073.81839
606.471	1095.22188
606.928	1129.96104
607.385	1162.31805
607.842	1187.10862
608.299	1206.18274
608.755	1248.33781
609.212	1295.15989
609.668	1303.20052
610.125	1302.39046
610.581	1344.3563
611.037	1277.14941
611.493	1313.30589
611.949	1265.37728
612.405	1364.98158
612.861	1327.27745
613.316	1360.44148
613.772	1377.32122
614.227	1445.55069
614.683	1394.11063
615.138	1379.39475
615.593	1341.31989
616.048	1371.3098
616.503	1408.53828
616.958	1351.57272
617.412	1366.41869
617.867	1375.24809
618.321	1311.9619
618.776	1362.1867
619.23	1288.28351
619.684	1295.15167
620.138	1238.15611
620.592	1193.26237
621.046	1271.28863
621.5	1181.22332
621.954	1186.00356
622.407	1168.98374
622.861	1122.16497
623.314	1171.0448
623.768	1098.0601
624.221	1094.63757
624.674	1044.93209
625.127	1042.9437
625.58	1026.84032
626.033	1058.82137
626.485	981.92133
626.938	962.88274
627.39	1004.90314
627.843	945.78547
628.295	957.8029
628.747	939.85021
629.199	876.65771
629.651	844.62272
630.103	821.58789
630.555	865.49655
631.006	800.57858
631.458	757.52961
631.909	781.4816
632.361	717.42882
632.812	698.40283
633.263	722.34053
633.714	666.21795
634.165	728.51159
634.616	651.35303
635.067	662.26679
635.518	641.33932
635.968	656.10381
636.419	663.25739
636.869	582.23011
637.319	607.248
637.769	604.19969
638.219	619.29215
638.669	553.18072
639.119	502.09087
639.569	535.15802
640.019	525.09322
640.468	564.12636
640.918	526.12614
641.367	557.1121
641.816	513.02647
642.265	542.13694
642.714	511.05835
643.163	532.10708
643.612	468.05217
644.061	507.9763
644.51	473.99012
644.958	484.97033
645.406	471.02925
645.855	394.89119
646.303	453.96
646.751	487.02475
647.199	503.03059
647.647	463.98461
648.095	455.94991
648.543	476.87102
648.99	457.00744
649.438	426.9085
649.885	443.01923
650.333	471.82298
650.78	405.90991
651.227	453.01943
651.674	421.88674
652.121	433.98317
652.568	381.87284
653.015	355.82535
653.461	400.88374
653.908	353.75888
654.354	408.90104
654.801	355.78024
655.247	393.78662
655.693	344.84483
656.139	341.76521
656.585	317.71545
657.031	347.76587
657.477	399.80602
657.922	309.66316
658.368	340.78689
658.813	292.62897
659.259	284.65575
659.704	339.75635
660.149	328.71166
660.594	338.75458
661.039	265.57584
661.484	328.73196
661.929	303.67017
662.373	268.64286
662.818	257.60838
663.262	301.69043
663.707	277.6729
664.151	299.69161
664.595	254.58812
665.039	231.55148
665.483	219.5376
665.927	295.65601
666.371	250.56322
666.814	284.64111
667.258	289.66211
667.701	316.63264
668.145	287.67964
668.588	272.64326
669.031	236.53255
669.474	237.5456
669.917	258.5383
670.36	258.61628
670.803	269.62
671.245	208.40871
671.688	261.6066
672.13	275.59121
672.573	259.62564
673.015	297.67907
673.457	295.60606
673.899	294.67451
674.341	254.58485
674.783	246.5644
675.225	249.58693
675.666	278.64802
676.108	214.44431
676.549	247.54974
676.991	190.40276
677.432	199.37967
677.873	203.44657
678.314	209.47923
678.755	249.58785
679.196	226.49538
679.637	194.44849
680.078	253.56379
680.518	206.45516
680.959	210.48123
681.399	247.58493
681.839	223.51993
682.28	215.51466
682.72	178.39396
683.16	182.44008
683.6	254.55018
684.039	202.40029
684.479	184.44004
684.919	234.52739
685.358	148.35895
685.798	145.36828
686.237	200.45961
686.676	185.40389
687.115	225.50825
687.554	246.56236
687.993	218.46191
688.432	188.41383
688.871	219.48156
689.309	223.51317
689.748	190.38003
690.186	177.40015
690.625	187.42414
691.063	178.41069
691.501	212.50429
691.939	195.47426
692.377	170.39925
692.815	252.58811
693.253	152.3514
693.69	197.41422
694.128	179.42031
694.565	167.38308
695.003	250.61062
695.44	233.52761
695.877	161.36739
696.314	170.34508
696.751	229.49508
697.188	177.3964
697.625	224.47815
698.061	152.35336
698.498	140.32173
698.934	170.39286
699.371	187.42414
699.807	165.37683
700.243	194.45063
700.679	189.40476
701.115	207.46282
701.551	173.38776
701.987	107.22826
702.422	205.46987
702.858	186.42761
703.294	200.44024
703.729	135.31947
704.164	115.26803
704.599	169.36427
705.035	175.37834
705.47	161.37834
705.904	137.30821
706.339	177.39134
706.774	138.31396
707.209	150.33849
707.643	179.41275
708.078	165.38789
708.512	142.34608
708.946	161.36843
709.38	173.39653
709.814	176.38319
710.248	207.48567
710.682	172.3989
711.116	221.51507
711.549	121.3011
711.983	184.40843
712.416	210.47717
712.85	125.30129
713.283	152.34721
713.716	157.37626
714.149	125.28122
714.582	169.36568
715.015	132.31436
715.448	216.5209
715.881	160.33042
716.313	153.34533
716.746	177.40325
717.178	145.33782
717.61	194.47439
718.043	142.33973
718.475	168.39317
718.907	202.48309
719.339	173.37722
719.77	176.40591
720.202	146.35396
720.634	187.44132
721.065	179.40501
721.497	179.42145
721.928	146.34516
722.359	166.39001
722.79	155.35841
723.221	105.25404
723.652	184.44927
724.083	160.34613
724.514	186.40926
724.945	136.30816
725.375	165.37151
725.806	139.33148
726.236	175.43039
726.666	194.43724
727.096	161.37937
727.526	190.47064
727.956	205.44699
728.386	134.31802
728.816	175.43166
729.246	194.45917
729.675	111.26318
730.105	164.38576
730.534	196.43578
730.964	148.35625
731.393	157.37023
731.822	179.43974
732.251	151.37014
732.68	141.31448
733.109	181.42848
733.537	224.52175
733.966	168.40408
734.395	197.43446
734.823	157.33274
735.251	152.35168
735.68	164.38847
736.108	140.33789
736.536	173.38776
736.964	122.27351
737.392	163.39168
737.82	206.46771
738.247	196.445
738.675	208.464
739.102	162.38862
739.53	201.49524
739.957	224.55302
740.384	162.37407
740.811	178.42391
741.238	187.43943
741.665	232.51711
742.092	132.29215
742.519	214.5065
742.945	230.53108
743.372	196.46587
743.798	174.42754
744.225	165.37394
744.651	216.5138
745.077	218.51676
745.503	200.45942
745.929	265.60494
746.355	175.40706
746.781	211.49254
747.207	203.45968
747.632	252.5925
748.058	276.65574
748.483	202.4411
748.908	228.53942
749.334	232.54272
749.759	276.61771
750.184	271.61464
750.609	217.50455
751.033	231.50816
751.458	240.5023
751.883	249.57757
752.307	270.59581
752.732	260.62936
753.156	194.45544
753.58	258.57053
754.005	208.49629
754.429	240.53804
754.853	237.55952
755.277	258.57672
755.7	280.65217
756.124	255.59827
756.548	226.50457
756.971	309.70224
757.394	189.46156
757.818	211.51911
758.241	256.61478
758.664	237.56689
759.087	286.60175
759.51	243.56522
759.933	246.56214
760.356	278.67621
760.778	246.5705
761.201	230.52452
761.623	193.43597
762.046	235.51609
762.468	266.59607
762.89	253.57988
763.312	288.65995
763.734	259.58719
764.156	275.63712
764.578	285.60294
765	257.58881
765.421	208.50635
765.843	227.56403
766.264	263.58195
766.686	222.52075
767.107	237.54168
767.528	239.58256
767.949	263.62763
768.37	251.58728
768.791	249.55993
769.212	226.54068
769.632	259.56951
770.053	200.49794
770.473	230.52219
770.894	224.51969
771.314	262.57671
771.734	226.4958
772.154	228.55004
772.575	276.59093
772.994	221.47021
773.414	241.53705
773.834	234.54933
774.254	196.45366
774.673	249.57368
775.093	222.52381
775.512	244.56788
775.931	204.49196
776.351	237.55843
776.77	227.52717
777.189	239.53348
777.607	195.4739
778.026	209.49361
778.445	221.53225
778.864	169.40841
779.282	153.34773
779.701	199.47364
780.119	160.38863
780.537	177.41934
780.955	186.44669
781.373	178.4182
781.791	218.46656
782.209	130.27979
782.627	145.36724
783.045	165.35565
783.462	166.40502
783.88	146.36338
784.297	139.33566
784.715	178.4385
785.132	191.43479
785.549	155.36991
785.966	152.36588
786.383	154.36422
786.8	187.40999
787.217	218.49173
787.633	170.40905
788.05	144.31844
788.466	189.41437
788.883	157.38684
789.299	140.31709
789.715	150.34967
790.131	155.36793
790.547	125.29878
790.963	134.31778
791.379	120.29192
791.795	137.2939
792.21	143.3159
792.626	151.33748
793.041	114.26951
793.457	119.27997
793.872	100.22354
794.287	161.37184
794.702	84.19613
795.117	118.28307
795.532	132.3199
795.947	108.24521
796.362	117.26095
796.776	116.25385
797.191	104.2453
797.605	99.22655
798.02	113.26316
798.434	148.31181
798.848	99.23826
799.262	82.19649
799.676	133.30962
800.09	87.20604
800.504	134.30831
800.918	63.13935
801.331	33.08227
801.745	83.1819
802.158	30.07232
802.572	106.24632
802.985	115.26285
803.398	126.28538
803.811	42.10259
804.224	62.14709
804.637	71.16392
805.05	83.18297
805.462	115.26845
805.875	50.12648
806.288	109.25375
806.7	58.13951
807.112	96.21079
807.525	53.12435
807.937	40.09632
808.349	45.10847
808.761	114.26951
809.173	91.21285
809.584	93.21923
809.996	49.116
810.408	121.30318
810.819	81.18335
811.231	120.30894
811.642	175.41252
812.053	145.33702
812.464	124.2796
812.875	136.3338
813.286	148.36688
813.697	66.14425
814.108	101.23485
814.519	89.19151
814.929	77.18861
815.34	31.07211
815.75	79.19545
816.16	24.05733
816.571	34.08555
816.981	73.16329
817.391	22.05104
817.801	84.20159
818.211	61.1396
818.62	59.13784
819.03	67.15763
819.44	54.13401
819.849	52.12522
820.259	57.13936
820.668	94.22275
821.077	59.14302
821.486	48.11
821.895	66.15446
822.304	33.08486
822.713	65.14701
823.122	68.16306
823.531	37.08341
823.939	94.22042
824.348	60.13949
824.756	89.21249
825.164	79.18998
825.573	38.09248
825.981	81.19154
826.389	87.20922
826.797	97.23733
827.205	95.20978
827.612	57.13473
828.02	44.09905
828.428	69.16908
828.835	43.11069
829.243	88.19883
829.65	80.19279
830.057	54.12554
830.464	117.27527
830.871	131.29882
831.278	66.15343
831.685	82.17352
832.092	50.11674
832.499	90.18836
832.905	17.04152
833.312	74.1579
833.718	63.15237
834.124	92.2009
834.531	66.15839
834.937	43.10724
835.343	71.16274
835.749	59.13007
836.155	38.09654
836.561	33.07867
836.966	65.15203
837.372	44.10768
837.777	64.15412
838.183	66.1393
838.588	69.16594
838.993	101.23475
839.399	55.13021
839.804	60.14108
840.209	89.22027
840.613	81.17122
841.018	34.08287
841.423	71.17552
841.828	72.17613
842.232	43.10085
842.637	112.25409
843.041	69.17133
843.445	32.07706
843.849	63.15076
844.253	59.13409
844.657	44.10788
845.061	88.19387
845.465	32.07474
845.869	111.2446
846.272	87.20389
846.676	38.08694
847.079	58.14352
847.483	98.23276
847.886	98.22494
848.289	9.02376
848.692	40.0972
849.095	59.1354
849.498	45.10834
849.901	54.11757
850.304	78.17796
850.707	65.15886
851.109	59.14286
851.512	109.25595
851.914	49.1202
852.316	62.15285
852.718	77.19661
853.121	85.19944
853.523	29.06487
853.925	32.08193
854.326	80.1933
854.728	48.11977
855.13	69.17333
855.531	7.01628
855.933	61.13892
856.334	64.15487
856.736	110.23573
857.137	83.18596
857.538	84.20411
857.939	82.19716
858.34	81.18656
858.741	12.03041
859.142	37.08515
859.542	74.18958
859.943	40.09588
860.343	71.1701
860.744	95.22098
861.144	141.3285
861.544	36.08478
861.945	56.13735
862.345	83.19299
862.745	51.12311
863.145	90.20069
863.544	67.16338
863.944	61.13802
864.344	42.09918
864.743	77.18264
865.143	91.2262
865.542	-7.01554
865.941	88.20917
866.34	61.13808
866.74	47.12237
867.139	109.25184
867.537	39.09489
867.936	50.11628
868.335	37.09077
868.734	85.20875
869.132	27.05962
869.531	74.1689
869.929	45.099
870.327	66.15155
870.726	54.12806
871.124	69.15268
871.522	19.04676
871.92	82.19349
872.318	71.16489
872.715	75.17487
873.113	28.06548
873.511	74.17603
873.908	62.15336
874.306	75.1805
874.703	36.08603
875.1	31.07554
875.497	57.13049
875.894	84.20082
876.291	70.16504
876.688	46.11478
877.085	31.07114
877.482	48.11567
877.878	91.21201
878.275	76.18585
878.671	53.10889
879.068	70.16158
879.464	67.15499
879.86	24.05476
880.256	63.14655
880.652	49.12011
881.048	65.15269
881.444	17.03847
881.84	28.06875
882.236	84.20182
882.631	104.24444
883.027	60.1386
883.422	33.08104
883.817	36.08817
884.213	47.11645
884.608	104.24873
885.003	40.09196
885.398	62.1493
885.793	75.17954
886.188	-18.04354
886.582	78.18989
886.977	49.11073
887.371	44.10648
887.766	30.0726
888.16	36.08508
888.554	58.13659
888.949	83.19922
889.343	98.22647
889.737	9.02361
890.131	21.05102
890.525	110.27029
890.918	70.16882
891.312	59.13366
891.706	57.14385
892.099	76.18474
892.492	90.1821
892.886	46.10795
893.279	48.11755
893.672	70.17245
894.065	58.13977
894.458	47.1126
894.851	70.16286
895.244	31.07653
895.637	64.1482
896.029	79.18594
896.422	29.06743
896.814	62.14737
897.206	99.22756
897.599	116.2719
897.991	66.15392
898.383	65.14725
898.775	84.1825
899.167	61.13836
899.559	72.17305
899.951	98.21699
900.342	52.12598
900.734	124.29973
901.125	43.10821
901.517	65.15328
901.908	73.16437
902.299	65.15287
902.69	64.1459
903.082	57.13238
903.473	101.23392
903.863	31.07599
904.254	116.25792
904.645	48.11322
905.036	107.25164
905.426	93.19839
905.817	70.16318
906.207	-6.0137
906.597	54.12236
906.987	45.11153
907.378	70.17092
907.768	59.15102
908.158	48.11216
908.547	62.15655
908.937	26.0637
909.327	22.05145
909.717	55.13192
910.106	50.11463
910.495	76.17926
910.885	83.2018
911.274	87.20731
911.663	31.07526
912.052	75.17467
912.441	54.13333
912.83	78.16889
913.219	66.16546
913.608	86.2019
913.997	28.06857
914.385	94.21351
914.774	50.11661
915.162	89.20449
915.55	49.11281
915.939	47.1153
916.327	58.13776
916.715	78.19378
917.103	38.08834
917.491	91.21376
917.878	50.11775
918.266	54.13431
918.654	124.30379
919.041	83.21089
919.429	42.09513
919.816	92.22238
920.203	81.18953
920.591	59.14076
920.978	76.1778
921.365	82.20743
921.752	38.08558
922.139	76.15646
922.525	61.14094
922.912	17.03989
923.299	80.19045
923.685	11.0276
924.072	13.02812
924.458	76.18107
924.844	49.11667
925.231	72.15803
925.617	22.05484
926.003	72.17587
926.389	70.1692
926.774	51.12386
927.16	74.17542
927.546	106.26267
927.931	69.16373
928.317	116.24987
928.702	65.14605
929.088	99.22783
929.473	94.23055
929.858	57.13484
930.243	65.15102
930.628	60.14158
931.013	89.21086
931.398	88.18826
931.783	17.04293
932.167	92.21683
932.552	50.12004
932.937	55.13016
933.321	87.21057
933.705	-2.00484
934.09	47.11174
934.474	47.10583
934.858	60.15021
935.242	12.02673
935.626	59.14613
936.009	74.19151
936.393	125.30675
936.777	69.17083
937.16	103.25836
937.544	42.09319
937.927	67.16424
938.311	86.19843
938.694	91.23146
939.077	81.18477
939.46	41.09447
939.843	65.12492
940.226	25.06169
940.609	63.13987
940.991	42.10236
941.374	104.2433
941.757	58.13659
942.139	74.15872
942.522	65.14557
942.904	72.16533
943.286	74.17941
943.668	97.24305
944.05	96.22538
944.432	52.12265
944.814	53.12387
945.196	56.13214
945.578	90.20741
945.959	50.11085
946.341	84.19242
946.722	96.21221
947.104	106.24028
947.485	98.21618
947.866	72.17548
948.247	80.19527
948.628	14.03229
949.009	60.14776
949.39	35.08334
949.771	-15.03294
950.152	41.09695
950.532	41.10009
950.913	75.17225
951.293	73.19188
951.674	57.13207
952.054	61.14803
952.434	56.13373
952.814	41.09239
953.194	-5.01256
953.574	66.15471
953.954	30.0677
954.334	79.1902
954.714	34.08026
955.093	79.18529
955.473	73.17695
955.853	68.16925
956.232	44.11661
956.611	84.18886
956.99	55.13347
957.37	46.11207
957.749	33.07433
958.128	60.14618
958.506	47.11789
958.885	59.14237
959.264	54.12885
959.643	134.2884
960.021	79.18861
960.4	56.12084
960.778	52.12084
961.156	31.07464
961.535	40.08831
961.913	96.21434
962.291	59.14767
962.669	77.18791
963.047	63.1554
963.424	80.19846
963.802	66.15579
964.18	20.04805
964.557	77.16747
964.935	74.16679
965.312	75.18874
965.69	49.11667
966.067	41.09469
966.444	27.06281
966.821	70.17347
967.198	10.02313
967.575	62.14476
967.952	132.29154
968.329	110.25562
968.705	147.29573
969.082	85.21191
969.458	70.16293
969.835	41.09586
970.211	79.19659
970.587	71.16958
970.963	20.04918
971.339	89.22381
971.715	63.15116
972.091	80.18774
972.467	10.02375
972.843	57.13755
973.219	37.08433
973.594	48.1212
973.97	23.05115
974.345	54.1244
974.721	32.07327
975.096	51.11943
975.471	77.17302
975.846	81.18372
976.221	57.13936
976.596	100.23183
976.971	100.23669
977.346	82.17952
977.72	27.06609
978.095	50.12436
978.469	38.08659
978.844	78.18612
979.218	92.21328
979.593	44.10051
979.967	-15.03475
980.341	74.16289
980.715	79.19092
981.089	44.10583
981.463	39.08576
981.837	96.22617
982.21	20.04342
982.584	78.18054
982.957	24.0583
983.331	34.07585
983.704	83.19725
984.078	62.14601
984.451	-1.00237
984.824	90.21022
985.197	43.09852
985.57	44.10427
985.943	26.06063
986.316	59.13621
986.688	64.14708
987.061	97.21626
987.434	108.27241
987.806	70.15939
988.179	27.06094
988.551	86.20725
988.923	50.11734
989.295	77.18264
989.667	79.18289
990.039	92.22062
990.411	62.13355
990.783	20.04356
991.155	65.15006
991.527	66.15198
991.898	65.15602
992.27	68.16275
992.641	56.13378
993.012	22.04835
993.384	55.1247
993.755	63.15518
994.126	93.21462
994.497	30.07095
994.868	62.13378
995.239	66.15222
995.61	60.14503
995.98	29.06767
996.351	67.16009
996.722	58.13008
997.092	62.14106
997.462	31.07051
997.833	39.0877
998.203	42.09606
998.573	78.1864
998.943	71.15954
999.313	63.14521
999.683	35.08103
1000.053	38.0815
1000.423	27.06261
1000.792	2.00497
1001.162	35.08222
1001.531	74.17461
1001.901	47.11187
1002.27	37.07718
1002.639	39.09521
1003.009	72.16261
1003.378	55.13547
1003.747	60.13424
1004.116	35.08022
1004.485	80.18171
1004.853	30.07219
1005.222	20.04774
1005.591	90.20185
1005.959	33.07156
1006.328	69.14815
1006.696	8.01854
1007.064	39.0934
1007.433	25.05971
1007.801	23.05335
1008.169	7.01692
1008.537	106.22028
1008.905	76.16968
1009.273	60.14059
1009.64	78.17975
1010.008	29.06623
1010.375	55.12516
1010.743	58.12311
1011.11	66.15216
1011.478	84.19974
1011.845	62.13803
1012.212	75.16319
1012.579	56.13193
1012.946	48.10783
1013.313	57.12818
1013.68	63.13358
1014.047	23.0527
1014.414	57.12824
1014.78	59.14113
1015.147	58.13217
1015.513	51.1176
1015.88	88.21295
1016.246	54.12583
1016.612	60.12936
1016.978	96.22511
1017.344	65.154
1017.71	63.14556
1018.076	24.0537
1018.442	63.15609
1018.808	77.18581
1019.174	20.04811
1019.539	43.09006
1019.905	110.24651
1020.27	43.10164
1020.636	15.03411
1021.001	103.23429
1021.366	37.08573
1021.731	70.17518
1022.096	45.11035
1022.461	79.17824
1022.826	82.18686
1023.191	14.03564
1023.556	53.11777
1023.92	67.1556
1024.285	65.14959
1024.649	31.07251
1025.014	67.15647
1025.378	50.12159
1025.742	23.05451
1026.107	56.11996
1026.471	130.28256
1026.835	77.18208
1027.199	51.11779
1027.562	63.13766
1027.926	52.12084
1028.29	63.15294
1028.654	39.08529
1029.017	134.31151
1029.381	96.21823
1029.744	87.212
1030.107	99.22145
1030.471	71.16294
1030.834	47.10005
1031.197	82.18739
1031.56	53.1186
1031.923	30.07508
1032.286	112.24778
1032.648	74.16563
1033.011	66.14638
1033.374	35.07777
1033.736	25.06372
1034.099	31.07271
1034.461	77.18763
1034.823	64.1533
1035.185	53.12664
1035.548	77.17947
1035.91	81.18387
1036.272	87.18841
1036.634	90.20898
1036.995	77.17025
1037.357	53.12416
1037.719	81.18782
1038.08	113.25557
1038.442	104.23277
1038.803	-11.0251
1039.165	6.01457
1039.526	70.16138
1039.887	111.25044
1040.248	50.12036
1040.609	33.07743
1040.97	75.17398
1041.331	61.1492
1041.692	95.21416
1042.053	82.17527
1042.413	82.17967
1042.774	54.12593
1043.134	50.112
1043.495	68.16338
1043.855	118.27367
1044.215	34.0806
1044.576	42.09698
1044.936	105.22506
1045.296	62.14794
1045.656	38.08841
1046.016	35.08048
1046.375	81.18685
1046.735	107.23311
1047.095	74.1646
1047.454	68.13399
1047.814	62.14237
1048.173	49.11001
1048.533	87.18841
1048.892	10.02327
1049.251	45.10752
1049.61	63.14845
1049.969	25.05634
1050.328	86.17545
1050.687	12.02794
1051.046	103.23637
1051.405	2.00476
1051.763	66.14608
1052.122	31.07427
1052.48	78.18283
1052.839	111.25095
1053.197	99.21989
1053.555	67.14125
1053.914	58.13505
1054.272	28.06344
1054.63	25.059
1054.988	89.20269
1055.345	46.09244
1055.703	80.18341
1056.061	63.15746
1056.419	103.25864
1056.776	64.14519
1057.134	-2.00437
1057.491	57.13682
1057.848	39.09261
1058.206	-7.01561
1058.563	54.11257
1058.92	104.22451
1059.277	83.19482
1059.634	38.08414
1059.991	104.23623
1060.348	61.1316
1060.704	103.23817
1061.061	77.16583
1061.418	78.18033
1061.774	61.14402
1062.131	84.21641
1062.487	31.06894
1062.843	52.12413
1063.199	51.12167
1063.555	59.13154
1063.911	46.11077
1064.267	76.14616
1064.623	61.14335
1064.979	9.0197
1065.335	67.15086
1065.691	-25.05714
1066.046	75.15513
1066.402	6.013
1066.757	92.22129
1067.112	82.1904
1067.468	85.19334
1067.823	30.06762
1068.178	65.14869
1068.533	118.26976
1068.888	45.10215
1069.243	49.11591
1069.598	37.08556
1069.952	86.18756
1070.307	61.1453
1070.662	113.25682
1071.016	83.17867
1071.371	81.17542
1071.725	42.09509
1072.079	31.07174
1072.434	43.10058
1072.788	22.04955
1073.142	88.20603
1073.496	78.17516
1073.85	96.20955
1074.203	58.13457
1074.557	79.20427
1074.911	67.15086
1075.265	88.19322
1075.618	84.1952
1075.971	33.07509
1076.325	21.05199
1076.678	47.10257
1077.031	-8.01703
1077.385	104.21371
1077.738	57.12181
1078.091	44.09645
1078.444	58.12628
1078.796	53.12537
1079.149	60.14311
1079.502	47.10699
1079.855	80.17714
1080.207	63.14759
1080.56	47.11777
1080.912	51.11845
1081.264	72.16586
1081.617	97.22519
1081.969	59.14366
1082.321	24.05612
1082.673	62.13694
1083.025	38.08565
1083.377	36.08087
1083.728	58.12794
1084.08	48.11405
1084.432	58.13286
1084.783	57.12429
1085.135	58.13998
1085.486	37.08146
1085.838	51.12078
1086.189	82.19116
1086.54	74.16706
1086.891	100.24572
1087.242	107.25145
1087.593	30.06892
1087.944	83.17944
1088.295	83.1776
1088.646	118.27583
1088.996	62.14357
1089.347	25.05859
1089.698	82.18633
1090.048	32.07965
1090.398	74.16139
1090.749	13.02962
1091.099	66.1611
1091.449	67.16027
1091.799	76.18148
1092.149	19.04538
1092.499	71.16516
1092.849	91.22092
1093.199	57.13541
1093.548	76.17591
1093.898	7.01685
1094.248	37.09056
1094.597	23.05755
1094.947	74.19012
1095.296	44.10491
1095.645	33.08242
1095.994	67.15326
1096.343	101.24261
1096.692	41.10587
1097.041	65.17258
1097.39	44.10527
1097.739	33.08272
1098.088	47.12056
1098.437	53.13633
1098.785	28.07249
1099.134	6.0152
1099.482	43.11501
1099.83	45.1141
1100.179	62.15873
1100.527	14.03564
1100.875	28.07229
1101.223	38.09831
1101.571	9.02414
1101.919	7.0182
1102.267	18.04987
1102.615	-16.0515
1102.962	1.00321
1103.31	-1.00321
1103.658	-8.02567
