Data from N3 R4 sample 2_Subt2__4__12-51-13-174.txt Node

Date: Thu Sep 18 12:51:13 PDT 2025
User: uwsun
Spectrometer: HDX01956
Trigger mode: 0
Integration Time (sec): 5.000000E-1
Scans to average: 1
Nonlinearity correction enabled: true
Boxcar width: 0
Storing dark spectrum: false
XAxis mode: Wavelengths
Number of Pixels in Spectrum: 2068
>>>>>Begin Spectral Data<<<<<
194.03	178.50325
194.578	175.55734
195.127	175.54921
195.676	180.56665
196.225	192.49634
196.773	223.60149
197.321	288.77004
197.87	482.15553
198.418	511.22818
198.966	464.15223
199.513	503.19428
200.061	454.08706
200.609	464.15349
201.156	504.01844
201.704	456.08024
202.251	440.10759
202.798	469.14326
203.345	478.10931
203.892	460.09434
204.438	475.05244
204.985	468.04099
205.532	473.17013
206.078	486.10832
206.624	525.22551
207.17	538.16427
207.716	487.11753
208.262	561.00566
208.808	512.20004
209.354	547.25191
209.899	512.20004
210.445	516.20236
210.99	531.20161
211.535	510.11627
212.08	473.02535
212.625	512.19021
213.17	567.33403
213.715	534.12506
214.259	522.12767
214.804	504.14944
215.348	524.11992
215.892	567.266
216.436	516.0866
216.98	536.07728
217.524	523.15849
218.068	542.26698
218.612	530.25244
219.155	473.04452
219.698	491.08659
220.242	514.17558
220.785	496.08192
221.328	432.00514
221.871	507.20333
222.414	447.03704
222.956	375.85358
223.499	427.89226
224.041	401.86428
224.583	472.91829
225.126	478.96982
225.668	463.04963
226.21	423.01059
226.751	505.03517
227.293	467.98058
227.835	432.99697
228.376	432.9189
228.918	421.98839
229.459	442.03492
230	478.06767
230.541	475.01173
231.082	474.07483
231.622	454.95518
232.163	403.91803
232.704	484.12857
233.244	452.04929
233.784	458.03428
234.324	481.00188
234.864	478.99947
235.404	450.98879
235.944	499.08365
236.484	481.11738
237.023	429.94839
237.563	502.07652
238.102	459.01059
238.641	483.12866
239.18	463.01131
239.719	473.10353
240.258	455.95076
240.797	480.0642
241.335	449.01948
241.874	529.93314
242.412	519.16393
242.95	523.16523
243.488	499.0293
244.026	467.01016
244.564	514.96528
245.102	536.11097
245.64	430.96309
246.177	464.9556
246.715	507.12486
247.252	468.98507
247.789	533.88779
248.326	496.10749
248.863	464.94829
249.4	514.06909
249.936	555.0522
250.473	557.20366
251.009	470.99928
251.546	546.11205
252.082	477.95033
252.618	499.02746
253.154	496.10566
253.69	495.02195
254.226	531.16891
254.761	477.99186
255.297	485.97705
255.832	497.09395
256.367	489.06325
256.903	510.0419
257.438	508.09691
257.972	514.04914
258.507	496.04899
259.042	531.05323
259.576	586.172
260.111	496.0499
260.645	535.05178
261.179	511.10363
261.713	501.03297
262.247	528.10313
262.781	550.05058
263.315	491.1033
263.849	502.16647
264.382	563.1756
264.915	527.14747
265.449	466.06093
265.982	543.12575
266.515	561.26032
267.048	531.02476
267.58	543.06302
268.113	533.0503
268.646	484.09976
269.178	487.00405
269.71	628.2428
270.243	541.14857
270.775	528.25492
271.307	478.05404
271.838	536.15994
272.37	503.14093
272.902	542.11992
273.433	557.12343
273.965	551.22669
274.496	522.1939
275.027	554.26719
275.558	551.23479
276.089	539.24197
276.62	491.15052
277.15	508.15531
277.681	545.06442
278.211	547.2233
278.741	571.15013
279.272	549.14784
279.802	501.15567
280.332	533.15663
280.861	557.217
281.391	558.1551
281.921	528.16011
282.45	531.2133
282.98	569.36361
283.509	619.26757
284.038	552.15387
284.567	574.21689
285.096	597.31715
285.625	562.14885
286.153	641.37952
286.682	585.21999
287.21	490.081
287.739	580.24675
288.267	616.35997
288.795	598.42855
289.323	566.214
289.851	616.31004
290.378	578.16612
290.906	628.39111
291.433	598.35864
291.961	604.24768
292.488	619.39191
293.015	607.29899
293.542	693.60162
294.069	646.44646
294.596	613.35757
295.122	647.39722
295.649	595.17271
296.175	639.38463
296.702	676.48263
297.228	605.3209
297.754	611.23874
298.28	608.26607
298.806	652.41313
299.332	666.32797
299.857	615.26107
300.383	683.54097
300.908	659.46015
301.433	666.46864
301.958	679.38434
302.483	596.34698
303.008	686.53106
303.533	644.50625
304.058	661.3775
304.582	658.39522
305.107	600.43006
305.631	706.41371
306.155	701.44996
306.679	679.42696
307.203	686.41858
307.727	715.5027
308.251	680.50579
308.775	797.69797
309.298	724.54933
309.822	703.57967
310.345	798.66518
310.868	743.58489
311.391	723.58413
311.914	724.61726
312.437	771.53872
312.96	757.56802
313.482	686.43758
314.005	729.61806
314.527	730.6955
315.049	786.75437
315.571	818.58925
316.093	800.73713
316.615	785.64852
317.137	813.52368
317.659	815.71983
318.18	765.60084
318.702	823.67224
319.223	824.42581
319.744	856.64898
320.265	886.85629
320.786	879.89945
321.307	869.85465
321.828	881.69113
322.348	878.77075
322.869	910.84961
323.389	1238.83133
323.909	923.77953
324.43	924.87553
324.95	927.79152
325.47	995.07811
325.989	947.90002
326.509	1003.85836
327.029	1013.91604
327.548	967.83067
328.067	1010.05146
328.587	1021.1503
329.106	992.85299
329.625	1010.22388
330.144	1056.0189
330.662	1054.04024
331.181	1118.1439
331.7	1063.02499
332.218	1082.89448
332.736	1102.101
333.255	1177.22116
333.773	1120.14671
334.291	1168.37612
334.808	1189.12197
335.326	1178.09742
335.844	1268.34058
336.361	1271.62141
336.879	1250.31983
337.396	1253.42352
337.913	1268.28958
338.43	1236.18305
338.947	1338.47512
339.464	1293.13074
339.981	1237.32224
340.497	1318.53686
341.014	1372.58084
341.53	1321.28392
342.046	1410.71564
342.562	1377.66013
343.078	1337.42992
343.594	1358.48496
344.11	1462.63472
344.626	1459.81356
345.141	1478.50127
345.657	1527.51504
346.172	1532.73915
346.687	1475.50618
347.202	1592.61219
347.717	1559.72611
348.232	1522.84169
348.747	1581.63892
349.261	1590.47888
349.776	1654.81471
350.29	1638.99802
350.805	1673.97816
351.319	1663.73643
351.833	1629.67562
352.347	1682.81568
352.861	1660.77258
353.374	1672.66501
353.888	1774.03877
354.401	1618.62172
354.915	1711.68263
355.428	1701.0442
355.941	1749.82117
356.454	1858.72714
356.967	1780.85018
357.48	1807.7625
357.993	1822.10202
358.505	1820.05114
359.018	1930.18042
359.53	1928.16502
360.042	1963.82611
360.554	1957.20007
361.066	1867.09471
361.578	1993.79155
362.09	2000.10134
362.602	1973.81654
363.113	2003.06082
363.625	2003.90773
364.136	2076.80658
364.647	2060.13032
365.158	2089.06209
365.669	2086.17423
366.18	2166.15371
366.691	2091.80292
367.201	2053.16942
367.712	2183.04098
368.222	2158.05505
368.733	2185.81586
369.243	2224.95481
369.753	2306.12254
370.263	2369.38374
370.773	2282.37458
371.282	2488.37131
371.792	2442.20215
372.301	2501.42929
372.811	2562.93595
373.32	2515.89178
373.829	2638.33626
374.338	2784.04394
374.847	2775.24672
375.356	2884.37
375.865	2940.86036
376.373	3099.16184
376.882	3200.83226
377.39	3180.50931
377.898	3287.6196
378.407	3433.09047
378.915	3659.79581
379.423	3709.15174
379.93	3952.05768
380.438	3976.27088
380.946	4215.93913
381.453	4405.0651
381.96	4657.89387
382.468	4909.63794
382.975	5227.76525
383.482	5373.04002
383.989	5493.00313
384.495	5591.20771
385.002	5853.43219
385.509	6216.08743
386.015	6600.15351
386.521	6974.6794
387.028	7173.69578
387.534	7375.49487
388.04	7864.25569
388.546	7804.86454
389.051	8380.42689
389.557	8851.20443
390.063	9461.39031
390.568	9856.3608
391.073	10175.40929
391.578	10703.99598
392.084	10857.83497
392.589	11328.18101
393.093	12154.85149
393.598	13224.15851
394.103	14475.79007
394.607	15981.29087
395.112	17000.24782
395.616	18132.40424
396.12	19891.58422
396.624	21715.74547
397.128	23537.50745
397.632	26396.99096
398.136	28358.30392
398.639	29946.99905
399.143	33485.59141
399.646	37974.82287
400.15	41804.26706
400.653	46435.8475
401.156	52516.00384
401.659	60580.93352
402.162	62905.33624
402.664	62441.93235
403.167	63977.72923
403.67	63769.22307
404.172	63919.58413
404.674	63858.43483
405.176	63738.15102
405.678	63977.72923
406.18	64011.81569
406.682	63863.44694
407.184	63926.60148
407.686	63841.39382
408.187	64025.8516
408.688	63892.51763
409.19	63833.37461
409.691	63977.72923
410.192	63945.6488
410.693	63713.09355
411.194	63812.32447
411.694	63919.58413
412.195	64038.8851
412.696	63881.49072
413.196	63630.90911
413.696	63788.32916
414.196	63467.6716
414.696	63755.88596
415.196	62109.84597
415.696	56672.40041
416.196	46047.76546
416.695	35976.97923
417.195	30611.7049
417.694	28960.37511
418.194	27603.01535
418.693	25644.64107
419.192	24743.33665
419.691	24347.13063
420.19	23679.64226
420.688	22987.05048
421.187	22065.77713
421.685	20798.97949
422.184	18774.50624
422.682	16169.34881
423.18	13846.96852
423.678	12221.63004
424.176	11335.9426
424.674	10864.98223
425.172	10348.87162
425.669	9658.8642
426.167	8927.31887
426.664	8302.37745
427.161	7628.85895
427.659	7045.97021
428.156	6668.25978
428.652	6271.37734
429.149	6005.19912
429.646	5843.69604
430.143	5391.407
430.639	5153.4549
431.135	4862.03754
431.632	4570.53094
432.128	4347.00252
432.624	4071.68706
433.12	3951.83297
433.616	3942.58395
434.111	3661.21181
434.607	3560.29393
435.103	3481.50191
435.598	3522.45132
436.093	3243.1801
436.588	3130.99547
437.083	2933.98953
437.578	2879.17374
438.073	2672.60109
438.568	2596.47898
439.062	2627.74969
439.557	2381.12834
440.051	2325.9194
440.546	2267.94849
441.04	2227.19504
441.534	2251.44717
442.028	2179.18356
442.522	2163.15587
443.015	2100.62815
443.509	2069.15978
444.002	2044.17068
444.496	1982.61961
444.989	1933.05175
445.482	1908.12157
445.975	2042.91443
446.468	1878.55741
446.961	1977.62226
447.454	1841.66358
447.947	1802.88096
448.439	1839.02309
448.931	1829.74625
449.424	1799.14598
449.916	1776.94565
450.408	1743.66495
450.9	1696.85306
451.392	1733.0689
451.884	1636.59239
452.375	1571.79852
452.867	1571.45811
453.358	1574.52574
453.849	1560.28958
454.341	1571.47361
454.832	1518.28539
455.323	1576.82679
455.814	1551.49618
456.304	1528.51326
456.795	1472.41516
457.285	1371.20311
457.776	1430.36515
458.266	1385.44302
458.756	1371.41072
459.247	1396.47968
459.737	1364.4798
460.226	1403.33861
460.716	1308.37284
461.206	1299.36297
461.695	1256.4046
462.185	1224.24678
462.674	1262.18775
463.163	1231.10181
463.653	1242.98036
464.142	1200.27183
464.63	1161.21644
465.119	1142.08324
465.608	1158.12419
466.096	1114.88051
466.585	1115.00166
467.073	1071.02061
467.561	1096.09758
468.05	1068.95895
468.538	1040.06088
469.026	996.92553
469.513	1002.68257
470.001	1035.90922
470.489	1031.98333
470.976	1039.9548
471.463	994.03536
471.951	923.91644
472.438	877.72305
472.925	868.71455
473.412	892.81299
473.899	858.64731
474.385	865.78796
474.872	823.62365
475.359	829.73641
475.845	851.45356
476.331	780.40033
476.817	786.64156
477.303	787.5598
477.789	747.53488
478.275	708.53723
478.761	698.44472
479.247	754.43621
479.732	729.58589
480.218	741.7004
480.703	674.46149
481.188	743.37241
481.673	622.26424
482.158	673.26273
482.643	714.60015
483.128	716.44831
483.612	664.39203
484.097	577.24694
484.581	631.28868
485.066	630.3712
485.55	647.25327
486.034	575.10772
486.518	631.33936
487.002	535.17674
487.486	548.20008
487.969	527.16058
488.453	488.1111
488.936	546.10297
489.42	569.12191
489.903	468.06978
490.386	463.87098
490.869	508.00587
491.352	485.0657
491.835	503.92625
492.318	501.02001
492.8	512.95395
493.283	523.21654
493.765	470.05754
494.247	502.06123
494.73	436.88824
495.212	364.80892
495.694	473.02055
496.175	472.03991
496.657	469.01709
497.139	438.67806
497.62	461.01882
498.102	426.98548
498.583	349.80724
499.064	390.80899
499.545	491.0173
500.026	414.86797
500.507	391.83839
500.988	448.03424
501.469	346.81347
501.949	408.93861
502.43	337.76741
502.91	444.86381
503.39	338.79157
503.87	387.85485
504.35	359.78804
504.83	399.80898
505.31	327.74554
505.79	302.67812
506.269	307.66795
506.749	314.67926
507.228	271.6104
507.707	354.7412
508.187	375.83976
508.666	311.73276
509.145	298.66282
509.623	290.6469
510.102	327.74885
510.581	304.69773
511.059	332.7921
511.538	322.78877
512.016	383.85909
512.494	341.77338
512.972	320.72649
513.45	279.62173
513.928	292.67743
514.406	319.74284
514.884	304.748
515.361	333.7537
515.839	352.76275
516.316	329.75766
516.793	358.85248
517.27	275.63282
517.747	315.76977
518.224	243.53859
518.701	270.57009
519.178	309.73653
519.654	280.63363
520.131	286.6774
520.607	235.55394
521.083	232.50661
521.56	262.59218
522.036	276.57304
522.512	297.69978
522.987	294.67586
523.463	261.59365
523.939	301.71279
524.414	284.61988
524.89	311.70535
525.365	249.54039
525.84	253.58499
526.315	283.65565
526.79	289.62104
527.265	288.635
527.74	258.60164
528.215	209.47249
528.689	256.53768
529.164	275.56216
529.638	202.49761
530.112	217.49398
530.587	286.5824
531.061	267.62005
531.534	250.57978
532.008	322.74347
532.482	258.5691
532.956	198.49153
533.429	278.65184
533.903	264.55351
534.376	255.54066
534.849	220.48914
535.322	260.58886
535.795	206.48285
536.268	235.54941
536.741	211.48556
537.213	252.55656
537.686	248.58469
538.158	265.5778
538.631	245.57189
539.103	236.51403
539.575	232.45952
540.047	273.56845
540.519	230.53108
540.991	267.62495
541.463	225.52356
541.934	234.50989
542.406	252.58303
542.877	259.56089
543.348	253.58824
543.82	259.60552
544.291	284.63378
544.762	241.5537
545.233	325.78385
545.703	258.5512
546.174	273.60659
546.645	282.65372
547.115	284.65653
547.585	267.58907
548.056	304.71419
548.526	305.69062
548.996	315.71645
549.466	309.71587
549.935	309.70394
550.405	316.65872
550.875	353.79181
551.344	300.68275
551.814	352.7608
552.283	423.85529
552.752	349.7735
553.221	425.87036
553.69	464.96591
554.159	398.93058
554.628	400.84751
555.096	407.9719
555.565	400.82454
556.033	388.86905
556.502	316.72643
556.97	370.77333
557.438	279.62816
557.906	297.66977
558.374	370.80757
558.842	268.61758
559.31	323.68632
559.777	318.74095
560.245	292.64004
560.712	297.64922
561.18	369.76697
561.647	309.65171
562.114	304.66437
562.581	407.93762
563.048	385.82624
563.514	367.87038
563.981	330.71661
564.448	399.84188
564.914	364.79582
565.381	411.87519
565.847	402.87443
566.313	388.8429
566.779	437.90991
567.245	414.89249
567.711	446.98946
568.176	457.94436
568.642	460.0721
569.108	465.05502
569.573	500.05515
570.038	580.07641
570.504	523.07117
570.969	518.17239
571.434	590.16802
571.899	579.23365
572.363	575.18317
572.828	652.3223
573.293	596.21957
573.757	658.34724
574.222	619.22982
574.686	710.42239
575.15	710.49709
575.614	773.57339
576.078	725.48026
576.542	716.41724
577.006	720.41054
577.469	725.55982
577.933	793.54244
578.396	739.52115
578.86	701.44349
579.323	753.57501
579.786	755.40088
580.249	778.57819
580.712	656.41396
581.175	686.49195
581.637	669.33983
582.1	776.43884
582.563	685.26192
583.025	695.48754
583.487	729.28278
583.95	655.22768
584.412	698.2663
584.874	652.41193
585.336	645.35662
585.797	658.25366
586.259	609.27124
586.721	578.21845
587.182	583.20397
587.643	627.26254
588.105	554.1826
588.566	594.09642
589.027	613.34516
589.488	557.15225
589.949	581.27112
590.41	575.0086
590.87	547.13102
591.331	583.13717
591.791	524.1025
592.252	518.09847
592.712	529.15281
593.172	512.05972
593.632	605.19637
594.092	487.99281
594.552	534.04315
595.011	411.87709
595.471	501.03575
595.931	511.04938
596.39	432.96478
596.849	426.92229
597.308	397.78727
597.768	488.1615
598.227	464.02781
598.685	405.86091
599.144	470.01948
599.603	422.91792
600.062	480.92319
600.52	497.02425
600.978	470.02121
601.437	492.02143
601.895	506.98491
602.353	489.98058
602.811	498.02424
603.269	471.03012
603.727	468.03453
604.184	443.93389
604.642	468.06077
605.099	534.13098
605.557	485.08266
606.014	468.92351
606.471	457.06112
606.928	557.11262
607.385	550.25198
607.842	557.15019
608.299	593.23999
608.755	530.16744
609.212	586.16659
609.668	631.25895
610.125	588.2721
610.581	642.33163
611.037	572.1466
611.493	510.08288
611.949	604.31844
612.405	593.06589
612.861	516.07659
613.316	561.21231
613.772	534.10533
614.227	637.35975
614.683	564.06488
615.138	571.20235
615.593	555.15938
616.048	573.17376
616.503	513.13489
616.958	547.24339
617.412	552.18291
617.867	599.19057
618.321	572.04571
618.776	573.12504
619.23	498.06288
619.684	568.13174
620.138	532.09824
620.592	537.18016
621.046	590.2465
621.5	512.12113
621.954	550.0887
622.407	462.93479
622.861	454.01522
623.314	509.04291
623.768	487.05036
624.221	469.83504
624.674	468.99113
625.127	479.01673
625.58	432.8937
626.033	476.94724
626.485	452.99652
626.938	467.01963
627.39	481.02675
627.843	458.96911
628.295	418.89222
628.747	440.96925
629.199	401.84759
629.651	415.88101
630.103	407.86592
630.555	383.74814
631.006	411.88583
631.458	376.82691
631.909	372.77682
632.361	345.74775
632.812	380.82061
633.263	420.8393
633.714	344.68105
634.165	331.74887
634.616	389.85675
635.067	335.69258
635.518	309.69398
635.968	372.67517
636.419	381.77319
636.869	354.78671
637.319	344.75019
637.769	323.68453
638.219	340.75466
638.669	292.65971
639.119	307.696
639.569	289.65945
640.019	325.70801
640.468	317.67034
640.918	326.7293
641.367	322.67898
641.816	306.64269
642.265	377.82093
642.714	251.55099
643.163	389.83662
643.612	334.77301
644.061	326.65508
644.51	335.72267
644.958	353.72913
645.406	290.6592
645.855	305.7024
646.303	333.7242
646.751	351.76205
647.199	348.73928
647.647	395.85245
648.095	293.6337
648.543	365.68661
648.99	324.73557
649.438	313.6839
649.885	361.84591
650.333	345.62281
650.78	338.76984
651.227	306.71075
651.674	334.71696
652.121	310.72146
652.568	353.81325
653.015	355.82535
653.461	303.68302
653.908	304.66044
654.354	344.76988
654.801	333.73528
655.247	320.65133
655.693	340.83563
656.139	301.68101
656.585	307.6943
657.031	301.67074
657.477	348.71123
657.922	284.61279
658.368	339.78474
658.813	284.61279
659.259	322.73785
659.704	382.84469
660.149	275.60342
660.594	318.71287
661.039	351.74874
661.484	330.73612
661.929	369.80487
662.373	312.74211
662.818	339.78971
663.262	331.75466
663.707	303.73246
664.151	331.76075
664.595	382.86195
665.039	348.81211
665.483	310.74811
665.927	361.79176
666.371	366.80492
666.814	319.71497
667.258	391.87739
667.701	342.68057
668.145	373.86855
668.588	368.85404
669.031	335.74062
669.474	318.7202
669.917	358.73034
670.36	360.84308
670.803	398.89364
671.245	283.54624
671.688	365.83082
672.13	336.71285
672.573	367.86837
673.015	368.82935
673.457	368.74357
673.899	365.82544
674.341	360.81132
674.783	335.75484
675.225	379.87069
675.666	346.79569
676.108	363.72859
676.549	344.75019
676.991	364.74224
677.432	339.62483
677.873	402.84728
678.314	421.92411
678.755	443.0042
679.196	396.83683
679.637	353.79018
680.078	438.93855
680.518	396.84013
680.959	360.80004
681.399	423.96747
681.839	404.90823
682.28	405.93413
682.72	378.8016
683.16	409.94635
683.6	443.92076
684.039	419.7882
684.479	409.93583
684.919	438.94584
685.358	355.8273
685.798	351.85867
686.237	419.92049
686.676	382.79912
687.115	436.94232
687.554	405.8961
687.993	452.90869
688.432	428.89454
688.871	441.92436
689.309	444.97642
689.748	406.77145
690.186	394.8512
690.625	435.93674
691.063	389.85963
691.501	430.97972
691.939	478.09837
692.377	391.87847
692.815	488.08376
693.253	437.95276
693.69	459.90937
694.128	423.94567
694.565	449.97145
695.003	471.10057
695.44	521.10845
695.877	440.94731
696.314	453.86014
696.751	468.95993
697.188	493.03011
697.625	483.97302
698.061	466.01379
698.498	432.93448
698.934	464.0073
699.371	469.00065
699.807	522.10407
700.243	538.16229
700.679	520.03209
701.115	518.08173
701.551	481.00765
701.987	453.8937
702.422	498.07206
702.858	547.16436
703.294	606.21823
703.729	505.10694
704.164	482.03978
704.599	548.08321
705.035	525.0481
705.47	523.13971
705.904	531.09592
706.339	536.09413
706.774	561.16468
707.209	530.10096
707.643	609.28136
708.078	569.22963
708.512	533.20125
708.946	532.12428
709.38	541.14607
709.814	534.07227
710.248	625.3439
710.682	571.2171
711.116	611.31207
711.549	518.19281
711.983	538.10418
712.416	621.29117
712.85	563.24153
713.283	558.16798
713.716	610.33268
714.149	537.10386
714.582	573.13087
715.015	489.08216
715.448	580.2996
715.881	592.10255
716.313	578.18909
716.746	607.26034
717.178	548.17281
717.61	601.35526
718.043	568.24551
718.475	586.25642
718.907	574.27242
719.339	555.11015
719.77	599.2625
720.202	539.20737
720.634	571.24448
721.065	605.2478
721.497	598.29045
721.928	487.0728
722.359	553.19857
722.79	554.17698
723.221	512.14092
723.652	529.20581
724.083	508.01527
724.514	584.17555
724.945	558.15355
725.375	568.17111
725.806	552.20936
726.236	557.27023
726.666	566.17639
727.096	588.26776
727.526	509.18439
727.956	623.23606
728.386	510.12003
728.816	579.31887
729.246	572.25219
729.675	469.03264
730.105	559.21108
730.534	524.08363
730.964	500.12057
731.393	506.10983
731.822	536.22695
732.251	535.21509
732.68	545.11177
733.109	535.17724
733.537	558.21173
733.966	567.25766
734.395	522.0708
734.823	537.04182
735.251	534.13935
735.68	503.11088
736.108	497.11589
736.536	483.01141
736.964	531.08807
737.392	554.22956
737.82	551.16119
738.247	546.14938
738.675	569.17238
739.102	469.05679
739.53	567.29982
739.957	523.21749
740.384	499.07261
740.811	513.14055
741.238	540.17906
741.665	563.16676
742.092	464.9556
742.519	516.14747
742.945	579.24166
743.372	530.17621
743.798	516.18489
744.225	492.03869
744.651	493.1078
745.077	530.17816
745.503	519.11376
745.929	630.32997
746.355	506.09771
746.781	500.09849
747.207	559.17188
747.632	525.16631
748.058	504.14251
748.483	590.18056
748.908	537.19202
749.334	548.20008
749.759	509.0824
750.184	554.18209
750.609	589.26639
751.033	492.02097
751.458	571.10581
751.883	531.1606
752.307	530.10389
752.732	514.18217
753.156	465.03152
753.58	524.09234
754.005	479.08113
754.429	554.15959
754.853	522.16179
755.277	507.07299
755.7	536.18314
756.124	475.06423
756.548	477.00763
756.971	540.16761
757.394	482.11023
757.818	515.19319
758.241	490.12195
758.664	464.05935
759.087	438.89069
759.51	464.02994
759.933	506.09351
760.356	480.12098
760.778	477.05336
761.201	500.07591
761.623	445.95334
762.046	413.87295
762.468	443.95643
762.89	417.92418
763.312	476.04743
763.734	400.88079
764.156	408.92022
764.578	443.90476
765	453.99684
765.421	384.90383
765.843	387.93333
766.264	363.78642
766.686	333.76412
767.107	350.78169
767.528	381.90392
767.949	342.80375
768.37	366.83697
768.791	356.78293
769.212	328.76936
769.632	380.81428
770.053	252.62145
770.473	304.67981
770.894	272.62504
771.314	327.70995
771.734	317.68208
772.154	289.68913
772.575	336.71005
772.994	269.56636
773.414	326.71365
773.834	265.61833
774.254	278.63295
774.673	298.67985
775.093	260.60893
775.512	256.59439
775.931	257.61354
776.351	272.63653
776.77	252.58233
777.189	299.65911
777.607	235.56682
778.026	258.60354
778.445	209.5045
778.864	197.47356
779.282	191.43075
779.701	213.50559
780.119	234.56046
780.537	176.41705
780.955	192.46058
781.373	218.50817
781.791	214.45839
782.209	215.45426
782.627	199.49914
783.045	157.33899
783.462	209.50583
783.88	206.50709
784.297	224.53221
784.715	201.49305
785.132	155.35542
785.549	133.31875
785.966	211.5022
786.383	192.45074
786.8	181.39734
787.217	235.52824
787.633	161.38805
788.05	161.35477
788.466	176.38693
788.883	163.40118
789.299	137.31048
789.715	205.4727
790.131	156.37023
790.547	149.35451
790.963	155.36609
791.379	136.32984
791.795	142.3043
792.21	163.35858
792.626	139.31143
793.041	161.37716
793.457	163.3802
793.872	109.24321
794.287	171.39415
794.702	130.30078
795.117	153.36458
795.532	132.3199
795.947	91.20733
796.362	110.24569
796.776	123.26876
797.191	146.34155
797.605	140.31774
798.02	127.29495
798.434	140.29548
798.848	148.35287
799.262	87.20827
799.676	215.49239
800.09	132.30989
800.504	109.25204
800.918	87.19147
801.331	57.14148
801.745	112.24395
802.158	77.18398
802.572	168.38561
802.985	101.2315
803.398	101.22992
803.811	61.14848
804.224	93.21931
804.637	117.26764
805.05	115.25182
805.462	99.23183
805.875	94.23591
806.288	102.23778
806.7	35.08455
807.112	81.17842
807.525	92.21421
807.937	103.24506
808.349	74.17739
808.761	99.23473
809.173	98.2289
809.584	81.19139
809.996	32.07601
810.408	119.29828
810.819	104.23431
811.231	187.47579
811.642	204.47816
812.053	185.42658
812.464	199.44181
812.875	171.41698
813.286	145.35964
813.697	117.25295
814.108	137.31628
814.519	149.31647
814.929	116.28208
815.34	47.10898
815.75	147.35913
816.16	34.08107
816.571	97.24129
816.981	67.15005
817.391	79.18122
817.801	81.1945
818.211	124.28017
818.62	86.19985
819.03	66.15531
819.44	63.15609
819.849	82.19634
820.259	80.19476
820.668	84.19944
821.077	96.23108
821.486	132.29739
821.895	88.20506
822.304	55.14088
822.713	60.13584
823.122	96.22898
823.531	57.12797
823.939	78.18348
824.348	96.22159
824.756	94.22421
825.164	86.20654
825.573	54.13102
825.981	88.20781
826.389	87.20922
826.797	149.36103
827.205	120.2636
827.612	101.2367
828.02	83.18535
828.428	68.16666
828.835	103.26235
829.243	55.1251
829.65	97.233
830.057	61.14161
830.464	94.22215
830.871	106.24301
831.278	80.18547
831.685	97.20459
832.092	91.21076
832.499	161.33166
832.905	82.19783
833.312	54.11572
833.718	97.23309
834.124	117.25414
834.531	48.11559
834.937	115.28305
835.343	61.1401
835.749	69.15179
836.155	37.09401
836.561	72.17035
836.966	70.16357
837.372	74.18008
837.777	58.13983
838.183	106.22175
838.588	98.23438
838.993	134.30942
839.399	86.20237
839.804	43.10144
840.209	116.28566
840.613	46.09798
841.018	39.09496
841.423	108.26518
841.828	116.28145
842.232	33.07755
842.637	126.28503
843.041	56.13938
843.445	59.14135
843.849	77.18377
844.253	72.16321
844.657	53.12973
845.061	125.27325
845.465	80.1851
845.869	78.17307
846.272	55.1297
846.676	47.10734
847.079	96.23589
847.483	94.22344
847.886	69.1593
848.289	46.12069
848.692	56.13567
849.095	68.15577
849.498	37.08922
849.901	102.21981
850.304	56.12833
850.707	68.1661
851.109	112.26847
851.512	46.10934
851.914	58.14204
852.316	139.33782
852.718	87.22176
853.121	101.23624
853.523	54.12017
853.925	47.12001
854.326	118.28307
854.728	38.09499
855.13	55.13851
855.531	59.13578
855.933	95.21486
856.334	80.19301
856.736	85.18314
857.137	89.19916
857.538	108.26125
857.939	90.21607
858.34	61.14105
858.741	51.12834
859.142	76.17354
859.542	76.19464
859.943	62.148
860.343	58.1393
860.744	87.20269
861.144	116.27158
861.544	61.14296
861.945	58.1422
862.345	85.19756
862.745	77.18496
863.145	42.09459
863.544	78.18982
863.944	97.21787
864.344	16.03797
864.743	116.27307
865.143	102.25304
865.542	38.08354
865.941	113.26731
866.34	62.14031
866.74	82.21221
867.139	79.18362
867.537	55.13342
867.936	76.17584
868.335	81.19708
868.734	82.20149
869.132	57.12508
869.531	50.11468
869.929	71.15534
870.327	89.20342
870.726	109.25575
871.124	108.23704
871.522	46.11266
871.92	128.29933
872.318	88.20369
872.715	71.16568
873.113	65.1509
873.511	51.12186
873.908	76.18751
874.306	81.19472
874.703	9.02162
875.1	44.10696
875.497	89.20244
875.894	116.27562
876.291	91.21368
876.688	69.17146
877.085	67.15265
877.482	57.13713
877.878	105.24395
878.275	55.13502
878.671	75.15332
879.068	95.21819
879.464	38.08841
879.86	83.18711
880.256	76.17633
880.652	38.09334
881.048	71.16659
881.444	57.12792
881.84	49.11985
882.236	55.13287
882.631	110.25824
883.027	57.13175
883.422	46.1127
883.817	80.19432
884.213	60.1483
884.608	117.27912
885.003	29.06682
885.398	53.12784
885.793	88.21014
886.188	43.10282
886.582	80.19469
886.977	80.17965
887.371	51.12325
887.766	83.19884
888.16	28.06627
888.554	83.19452
888.949	113.26968
889.343	66.15349
889.737	32.08361
890.131	52.1256
890.525	103.25342
890.918	39.09461
891.312	49.11123
891.706	51.12885
892.099	85.20627
892.492	86.17417
892.886	93.21624
893.279	34.08348
893.672	44.10892
894.065	64.15406
894.458	36.08643
894.851	75.17432
895.244	56.1376
895.637	95.21862
896.029	93.21829
896.422	42.09741
896.814	-8.01927
897.206	78.18004
897.599	93.21897
897.991	73.17001
898.383	85.19178
898.775	153.32752
899.167	63.14284
899.559	74.17779
899.951	48.10739
900.342	30.07298
900.734	77.18777
901.125	87.21721
901.517	70.16492
901.908	90.20194
902.299	68.15983
902.69	120.27047
903.082	106.24379
903.473	116.26786
903.863	55.13422
904.254	115.25575
904.645	101.23577
905.036	118.27692
905.426	96.20466
905.817	68.15858
906.207	17.03864
906.597	83.18696
906.987	60.1483
907.378	99.24043
907.768	51.13073
908.158	63.14678
908.547	110.27537
908.937	31.07588
909.327	51.11859
909.717	85.2027
910.106	74.16883
910.495	89.20939
910.885	126.30387
911.274	85.20263
911.663	74.1782
912.052	55.12859
912.441	80.19658
912.83	84.18164
913.219	91.22711
913.608	65.15323
913.997	79.19164
914.385	127.28653
914.774	54.12583
915.162	78.17961
915.55	56.12875
915.939	73.17821
916.327	75.17755
916.715	98.24258
917.103	33.07679
917.491	83.19528
917.878	66.15495
918.266	86.21265
918.654	112.275
919.041	71.18078
919.429	93.20845
919.816	58.14109
920.203	87.20333
920.591	43.1029
920.978	96.2237
921.365	95.23975
921.752	23.05196
922.139	118.24062
922.525	67.15462
922.912	44.10269
923.299	83.19748
923.685	28.07005
924.072	87.18519
924.458	90.21385
924.844	80.18935
925.231	28.06202
925.617	88.21671
926.003	60.14689
926.389	86.20725
926.774	83.20036
927.16	49.11672
927.546	109.26996
927.931	68.16139
928.317	103.22249
928.702	114.25358
929.088	102.23459
929.473	65.16028
929.858	61.14419
930.243	110.2533
930.628	93.21804
931.013	82.19454
931.398	103.21963
931.783	82.20469
932.167	104.24454
932.552	86.20505
932.937	67.15819
933.321	79.1915
933.705	32.07691
934.09	57.13525
934.474	53.11919
934.858	73.18232
935.242	49.10829
935.626	33.08212
936.009	55.1428
936.393	106.26104
936.777	103.25342
937.16	112.28048
937.544	39.08659
937.927	84.20526
938.311	72.16659
938.694	60.15345
939.077	29.06685
939.46	27.06238
939.843	64.12302
940.226	33.08131
940.609	123.26967
940.991	44.1072
941.374	67.15788
941.757	57.13426
942.139	111.23617
942.522	92.2049
942.904	62.14265
943.286	88.21279
943.668	102.25535
944.05	73.17215
944.432	67.15757
944.814	77.17911
945.196	67.15776
945.578	88.20288
945.959	27.06015
946.341	70.1608
946.722	78.17307
947.104	93.21137
947.485	98.21618
947.866	58.14173
948.247	105.25509
948.628	1.00231
949.009	70.17207
949.39	93.21897
949.771	30.06526
950.152	72.16923
950.532	125.30038
950.913	98.22404
951.293	39.1031
951.674	106.24321
952.054	109.26213
952.434	45.10768
952.814	54.12136
953.194	38.09472
953.574	72.16857
953.954	49.11015
954.334	86.20678
954.714	70.16408
955.093	76.17835
955.473	69.16738
955.853	84.20846
956.232	45.11924
956.611	45.10199
956.99	55.13347
957.37	43.10482
957.749	61.13662
958.128	103.24892
958.506	32.08049
958.885	80.19228
959.264	93.22025
959.643	133.28631
960.021	86.20505
960.4	81.17384
960.778	64.14837
961.156	58.13893
961.535	55.12104
961.913	122.27092
962.291	99.246
962.669	55.13477
963.047	49.12118
963.424	99.24474
963.802	78.18369
964.18	49.11708
964.557	95.20583
964.935	83.18673
965.312	61.15389
965.69	85.20099
966.067	40.0924
966.444	43.09971
966.821	71.17591
967.198	54.1238
967.575	28.06581
967.952	111.24624
968.329	77.1801
968.705	127.25667
969.082	114.2827
969.458	58.13531
969.835	99.22883
970.211	87.21618
970.587	118.27929
970.963	104.25176
971.339	51.12912
971.715	82.19604
972.091	105.24521
972.467	20.04741
972.843	95.22759
973.219	108.24262
973.594	32.08103
973.97	34.07544
974.345	93.21257
974.721	86.19479
975.096	119.27495
975.471	117.26074
975.846	47.10734
976.221	51.12483
976.596	72.16784
976.971	132.3105
977.346	60.13197
977.72	73.17715
978.095	34.08481
978.469	70.15848
978.844	98.23294
979.218	89.20645
979.593	77.17472
979.967	43.09848
980.341	119.25947
980.715	82.19806
981.089	65.15572
981.463	107.23192
981.837	106.24924
982.21	74.15879
982.584	63.14626
982.957	77.18517
983.331	67.14844
983.704	75.17851
984.078	39.09226
984.451	84.19559
984.824	41.09669
985.197	30.06892
985.57	42.09957
985.943	39.09072
986.316	82.18844
986.688	78.17875
987.061	97.21626
987.434	75.19029
987.806	43.09844
988.179	45.1012
988.551	109.26153
988.923	37.08705
989.295	85.2013
989.667	53.12333
990.039	126.30019
990.411	66.14205
990.783	40.08676
991.155	47.1089
991.527	73.16786
991.898	71.17023
992.27	88.20982
992.641	69.16442
993.012	25.0549
993.384	55.1247
993.755	100.24463
994.126	126.28886
994.497	34.08035
994.868	60.12952
995.239	93.21334
995.61	65.15697
995.98	61.14145
996.351	70.16716
996.722	103.22887
997.092	94.21247
997.462	18.04105
997.833	53.11885
998.203	61.13898
998.573	40.09629
998.943	94.21022
999.313	80.18377
999.683	56.12911
1000.053	20.04306
1000.423	69.15866
1000.792	0
1001.162	26.06118
1001.531	82.19319
1001.901	57.13541
1002.27	28.05852
1002.639	41.10006
1003.009	96.21575
1003.378	90.22025
1003.747	89.19793
1004.116	33.07567
1004.485	81.18395
1004.853	-8.01939
1005.222	-6.01439
1005.591	85.19084
1005.959	76.16329
1006.328	67.14392
1006.696	51.11718
1007.064	42.10053
1007.433	90.21228
1007.801	64.14726
1008.169	60.14355
1008.537	102.21216
1008.905	64.14325
1009.273	101.23475
1009.64	60.13877
1010.008	44.10019
1010.375	80.18112
1010.743	63.13358
1011.11	97.22225
1011.478	98.23241
1011.845	65.14461
1012.212	96.20795
1012.579	96.22441
1012.946	100.22225
1013.313	67.15036
1013.68	81.17107
1014.047	55.12521
1014.414	37.08358
1014.78	76.18121
1015.147	51.11638
1015.513	56.129
1015.88	93.22484
1016.246	63.14655
1016.612	69.14847
1016.978	74.17427
1017.344	120.28128
1017.71	116.26519
1018.076	91.20078
1018.442	72.17809
1018.808	84.20243
1019.174	56.13378
1019.539	54.11282
1019.905	91.20473
1020.27	34.08051
1020.636	79.17729
1021.001	106.24096
1021.366	51.11784
1021.731	147.36274
1022.096	56.13704
1022.461	97.21805
1022.826	116.26252
1023.191	71.17893
1023.556	57.12655
1023.92	78.18076
1024.285	33.07643
1024.649	67.1556
1025.014	48.11251
1025.378	112.26919
1025.742	63.14816
1026.107	128.26991
1026.471	105.22943
1026.835	43.10235
1027.199	11.02561
1027.562	41.09001
1027.926	45.10472
1028.29	55.13372
1028.654	74.16064
1029.017	123.28656
1029.381	70.15997
1029.744	57.13967
1030.107	125.2781
1030.471	55.12662
1030.834	63.13364
1031.197	127.28759
1031.56	38.0853
1031.923	46.11478
1032.286	123.27149
1032.648	30.06776
1033.011	72.15949
1033.374	105.22992
1033.736	39.09916
1034.099	53.12377
1034.461	88.21399
1034.823	50.12008
1035.185	38.09106
1035.548	97.22519
1035.91	53.12099
1036.272	68.14786
1036.634	85.19756
1036.995	57.12655
1037.357	47.11023
1037.719	74.17183
1038.08	108.24451
1038.442	13.02964
1038.803	13.02952
1039.165	46.1109
1039.526	73.1682
1039.887	23.05282
1040.248	92.21969
1040.609	80.18598
1040.97	73.16941
1041.331	81.19738
1041.692	86.19423
1042.053	62.13309
1042.413	115.25022
1042.774	102.23562
1043.134	74.16494
1043.495	89.21298
1043.855	82.19153
1044.215	41.09706
1044.576	48.11071
1044.936	95.20407
1045.296	72.17147
1045.656	66.15271
1046.016	82.18678
1046.375	73.16867
1046.735	89.19464
1047.095	66.14705
1047.454	80.15719
1047.814	83.18979
1048.173	81.18066
1048.533	63.13714
1048.892	39.09022
1049.251	75.17817
1049.61	35.08292
1049.969	79.17605
1050.328	83.16944
1050.687	60.13838
1051.046	79.18217
1051.405	33.07809
1051.763	114.24978
1052.122	39.09329
1052.48	98.22881
1052.839	88.19988
1053.197	45.10107
1053.555	60.12669
1053.914	86.19914
1054.272	-8.01826
1054.63	64.1499
1054.988	81.18477
1055.345	11.02228
1055.703	103.23504
1056.061	104.258
1056.419	94.23642
1056.776	15.03437
1057.134	43.09312
1057.491	105.24973
1057.848	2.00478
1058.206	11.02444
1058.563	46.09606
1058.92	63.13719
1059.277	126.29326
1059.634	64.14094
1059.991	118.26726
1060.348	82.1761
1060.704	102.23591
1061.061	78.16795
1061.418	91.20984
1061.774	77.18123
1062.131	46.11929
1062.487	24.05345
1062.843	102.24114
1063.199	49.11694
1063.555	91.20153
1063.911	29.07006
1064.267	114.21724
1064.623	53.12474
1064.979	24.05236
1065.335	90.20169
1065.691	54.12146
1066.046	119.24371
1066.402	56.12001
1066.757	71.17146
1067.112	82.1904
1067.468	72.1642
1067.823	32.0721
1068.178	51.11699
1068.533	57.13191
1068.888	111.24859
1069.243	69.16259
1069.598	48.11075
1069.952	105.22807
1070.307	39.09329
1070.662	128.29003
1071.016	87.18712
1071.371	101.2178
1071.725	92.20617
1072.079	85.1946
1072.434	59.13757
1072.788	60.13407
1073.142	96.22441
1073.496	27.06127
1073.85	63.13848
1074.203	84.19389
1074.557	106.2728
1074.911	90.20169
1075.265	84.1846
1075.618	118.27237
1075.971	49.11114
1076.325	79.19351
1076.678	65.14131
1077.031	18.03811
1077.385	103.2117
1077.738	67.14287
1078.091	71.15475
1078.444	88.19037
1078.796	76.17898
1079.149	90.21343
1079.502	66.14967
1079.855	82.18149
1080.207	85.19827
1080.56	63.1574
1080.912	64.14826
1081.264	87.19981
1081.617	93.21607
1081.969	60.14607
1082.321	55.12784
1082.673	99.21696
1083.025	57.12797
1083.377	357.74897
1083.728	89.19505
1084.08	48.11405
1084.432	89.20261
1084.783	54.11782
1085.135	89.21354
1085.486	70.15305
1085.838	102.23918
1086.189	81.18886
1086.54	85.19146
1086.891	120.29377
1087.242	105.24684
1087.593	25.05749
1087.944	140.29898
1088.295	103.21944
1088.646	98.22998
1088.996	63.14585
1089.347	36.08419
1089.698	76.17291
1090.048	63.15592
1090.398	68.14849
1090.749	22.05003
1091.099	72.17554
1091.449	74.17678
1091.799	55.13187
1092.149	29.06913
1092.499	71.16516
1092.849	48.11747
1093.199	98.23097
1093.548	109.25064
1093.898	53.12649
1094.248	33.08083
1094.597	66.16385
1094.947	75.19265
1095.296	79.1871
1095.645	72.17855
1095.994	97.22055
1096.343	101.24261
1096.692	99.25305
1097.041	49.13045
1097.39	64.15254
1097.739	37.09268
1098.088	87.2216
1098.437	94.24006
1098.785	29.07506
1099.134	22.05557
1099.482	76.20216
1099.83	44.11158
1100.179	85.21673
1100.527	15.03818
1100.875	13.03365
1101.223	78.20039
1101.571	36.09611
1101.919	61.15713
1102.267	51.14056
1102.615	6.01926
1102.962	12.03845
1103.31	14.04491
1103.658	2.00641
