Data from N3 R4 sample 3_Subt2__5__12-20-05-215.txt Node

Date: Thu Sep 18 12:20:05 PDT 2025
User: uwsun
Spectrometer: HDX01956
Trigger mode: 0
Integration Time (sec): 5.000000E-1
Scans to average: 1
Nonlinearity correction enabled: true
Boxcar width: 0
Storing dark spectrum: false
XAxis mode: Wavelengths
Number of Pixels in Spectrum: 2068
>>>>>Begin Spectral Data<<<<<
194.03	94.26915
194.578	116.37207
195.127	105.3324
195.676	99.31478
196.225	120.31408
196.773	126.34523
197.321	186.50571
197.87	266.66512
198.418	330.82182
198.966	334.85074
199.513	319.78562
200.061	256.63734
200.609	312.79865
201.156	289.61382
201.704	263.6475
202.251	306.79042
202.798	305.7677
203.345	295.71071
203.892	334.81543
204.438	292.67287
204.985	324.74362
205.532	286.73314
206.078	318.75115
206.624	365.88029
207.17	348.78492
207.716	362.85306
208.262	332.63113
208.808	326.79324
209.354	360.85625
209.899	350.84779
210.445	325.78711
210.99	365.85528
211.535	370.83522
212.08	323.72393
212.625	333.80284
213.17	336.82733
213.715	339.74602
214.259	371.82875
214.804	330.78039
215.348	384.84698
215.892	363.84594
216.436	304.67111
216.98	326.68802
217.524	354.81311
218.068	328.80019
218.612	352.86192
219.155	335.76255
219.698	332.76045
220.242	289.69204
220.785	365.81973
221.328	325.77377
221.871	336.82519
222.414	330.78492
222.956	221.51871
223.499	272.58791
224.041	282.62333
224.583	311.62826
225.126	353.73666
225.668	310.72601
226.21	334.8133
226.751	329.70242
227.293	298.64906
227.835	295.69939
228.376	336.72964
228.918	273.65946
229.459	271.65709
230	294.68288
230.541	317.69966
231.082	319.74752
231.622	246.54127
232.163	271.63382
232.704	315.76031
233.244	309.73907
233.784	304.70945
234.324	350.75162
234.864	305.66219
235.404	288.65439
235.944	298.67601
236.484	294.7095
237.023	264.60375
237.563	340.75591
238.102	313.71161
238.641	315.76175
239.18	308.69614
239.719	328.78854
240.258	310.6686
240.797	282.65216
241.335	287.67439
241.874	357.65801
242.412	369.8545
242.95	304.70917
243.488	285.61719
244.026	363.80419
244.564	337.66047
245.102	344.74478
245.64	324.74154
246.177	277.59448
246.715	372.85
247.252	348.75183
247.789	438.74857
248.326	307.71349
248.863	332.69883
249.4	328.71166
249.936	367.72879
250.473	334.75735
251.009	281.62203
251.546	383.81025
252.082	285.59317
252.618	340.72637
253.154	388.88584
253.69	351.74939
254.226	298.68916
254.761	310.6686
255.297	324.67689
255.832	327.74675
256.367	325.73261
256.903	366.77344
257.438	332.74517
257.972	332.70683
258.507	294.6504
259.042	309.6457
259.576	399.83375
260.111	308.67994
260.645	343.70594
261.179	372.82876
261.713	372.7906
262.247	321.70256
262.781	340.68353
263.315	321.74779
263.849	325.78296
264.382	316.69702
264.915	387.86913
265.449	297.7006
265.982	389.83554
266.515	388.904
267.048	387.77389
267.58	373.76076
268.113	364.74696
268.646	297.70169
269.178	280.6052
269.71	372.7813
270.243	413.90274
270.775	324.80161
271.307	335.76224
271.838	383.85732
272.37	307.72531
272.902	317.68912
273.433	414.86375
273.965	356.82588
274.496	341.80967
275.027	353.84138
275.558	364.84844
276.089	398.94442
276.62	338.8172
277.15	352.82725
277.681	344.70497
278.211	334.78098
278.741	366.77311
279.272	341.74696
279.802	386.91242
280.332	390.87353
280.861	379.86059
281.391	398.85469
281.921	341.77997
282.45	345.81916
282.98	395.97952
283.509	393.84704
284.038	361.78776
284.567	370.82055
285.096	379.87557
285.625	356.76286
286.153	394.89409
286.682	356.78129
287.21	396.89243
287.739	385.86357
288.267	359.83629
288.795	407.00697
289.323	353.79311
289.851	423.93864
290.378	366.77548
290.906	426.9847
291.433	387.91815
291.961	404.87317
292.488	408.95844
293.015	444.98503
293.542	448.08488
294.069	440.0262
294.596	396.91792
295.122	437.98742
295.649	439.89822
296.175	417.94761
296.702	441.01422
297.228	417.948
297.754	404.85897
298.28	429.93017
298.806	436.98977
299.332	447.93777
299.857	411.88279
300.383	429.01714
300.908	458.05653
301.433	467.07199
301.958	447.96051
302.483	402.94582
303.008	464.08228
303.533	449.08955
304.058	395.87288
304.582	463.02282
305.107	440.08022
305.631	475.0012
306.155	459.00002
306.679	472.03644
307.203	457.99467
307.727	451.00207
308.251	453.04975
308.775	487.10637
309.298	458.03554
309.822	460.08428
310.345	559.22755
310.868	532.18604
311.391	500.14626
311.914	449.05892
312.437	500.05977
312.96	485.06481
313.482	479.04897
314.005	461.07927
314.527	505.22428
315.049	542.26995
315.571	537.1123
316.093	572.3016
316.615	469.05249
317.137	554.1038
317.659	565.25686
318.18	505.1167
318.702	619.31557
319.223	544.01047
319.744	536.11097
320.265	559.2548
320.786	567.30605
321.307	555.26414
321.828	615.25539
322.348	582.25266
322.869	600.30473
323.389	673.16548
323.909	581.2111
324.43	675.44718
324.95	653.34393
325.47	630.42217
325.989	605.30864
326.509	669.34168
327.029	705.43287
327.548	634.29686
328.067	607.34594
328.587	686.5512
329.106	643.30372
329.625	696.63365
330.144	714.47787
330.662	733.52773
331.181	742.55164
331.7	720.48566
332.218	678.31186
332.736	756.56212
333.255	748.55937
333.773	697.4719
334.291	785.73593
334.808	751.49112
335.326	763.50372
335.844	778.61121
336.361	792.8084
336.879	822.68726
337.396	855.81059
337.913	852.70097
338.43	819.6029
338.947	834.73575
339.464	848.56871
339.981	842.73378
340.497	857.8314
341.014	884.86105
341.53	808.58619
342.046	939.01016
342.562	919.96901
343.078	921.8495
343.594	888.81631
344.11	973.97105
344.626	983.10898
345.141	997.90499
345.657	1002.88829
346.172	987.00875
346.687	987.89584
347.202	1067.00226
347.717	1069.10618
348.232	1020.13742
348.747	1056.01211
349.261	1043.88189
349.776	1084.12335
350.29	1034.17628
350.805	1074.20338
351.319	1089.07265
351.833	1108.07891
352.347	1100.1295
352.861	1159.19667
353.374	1128.07208
353.888	1174.3291
354.401	1135.08446
354.915	1100.02452
355.428	1230.46407
355.941	1147.15913
356.454	1176.07987
356.967	1131.13931
357.48	1181.13355
357.993	1234.42798
358.505	1179.31686
359.018	1277.47823
359.53	1300.49975
360.042	1324.27648
360.554	1310.52142
361.066	1230.39078
361.578	1277.18772
362.09	1308.43021
362.602	1333.27568
363.113	1364.46984
363.625	1346.34144
364.136	1364.26394
364.647	1364.49224
365.158	1431.51024
365.669	1376.52555
366.18	1421.53269
366.691	1387.28039
367.201	1439.6121
367.712	1444.4748
368.222	1474.52518
368.733	1419.29362
369.243	1501.45971
369.753	1606.65707
370.263	1547.76258
370.773	1485.71488
371.282	1553.72964
371.792	1642.71268
372.301	1578.79172
372.811	1687.2378
373.32	1706.53103
373.829	1764.87963
374.338	1858.72879
374.847	1891.89949
375.356	1845.94638
375.865	1960.65964
376.373	2022.92431
376.882	2103.46253
377.39	2157.26247
377.898	2133.33468
378.407	2400.08556
378.915	2428.92174
379.423	2480.22224
379.93	2622.25758
380.438	2676.4432
380.946	2795.28555
381.453	2889.47056
381.96	3021.44699
382.468	3251.33489
382.975	3483.56278
383.482	3580.95153
383.989	3601.88105
384.495	3797.13943
385.002	3942.41932
385.509	4135.14654
386.015	4392.03383
386.521	4507.61794
387.028	4763.45737
387.534	4952.95871
388.04	5115.66911
388.546	5200.01602
389.051	5464.85479
389.557	5851.98734
390.063	6299.66901
390.568	6541.99675
391.073	6679.51019
391.578	7069.04429
392.084	7229.68379
392.589	7426.53642
393.093	7992.28129
393.598	8859.19645
394.103	9576.66402
394.607	10524.40181
395.112	11280.29198
395.616	11984.79617
396.12	13047.92198
396.624	14465.7593
397.128	15571.87531
397.632	17241.89023
398.136	18874.20002
398.639	19696.82008
399.143	22065.09144
399.646	24635.48728
400.15	27641.22629
400.653	30754.06439
401.156	34610.43709
401.659	40499.94124
402.162	49284.76489
402.664	60382.29946
403.167	63736.88084
403.67	63769.22307
404.172	63919.58413
404.674	63858.43483
405.176	63738.15102
405.678	63977.72923
406.18	64011.81569
406.682	63863.44694
407.184	63926.60148
407.686	63841.39382
408.187	64025.8516
408.688	63892.51763
409.19	63833.37461
409.691	63977.72923
410.192	63945.6488
410.693	63713.09355
411.194	61518.05856
411.694	58171.0906
412.195	54514.92195
412.696	49065.86836
413.196	45264.79304
413.696	43894.57616
414.196	44550.40838
414.696	43819.97509
415.196	41585.03177
415.696	38029.96994
416.196	30990.04416
416.695	23915.4406
417.195	20616.1941
417.694	19335.92397
418.194	18151.76577
418.693	17015.8686
419.192	16279.80044
419.691	15960.61692
420.19	15665.89073
420.688	15152.43442
421.187	14600.1966
421.685	13655.23328
422.184	12359.14351
422.682	10730.5048
423.18	9166.75565
423.678	8073.17008
424.176	7503.7722
424.674	7037.50592
425.172	6856.77567
425.669	6322.13675
426.167	5901.9158
426.664	5486.95864
427.161	5021.29939
427.659	4670.88972
428.156	4375.17669
428.652	4111.47603
429.149	4001.2374
429.646	3731.77855
430.143	3588.29698
430.639	3488.24835
431.135	3234.65301
431.632	3050.10534
432.128	2857.3941
432.624	2720.80784
433.12	2565.07228
433.616	2615.88176
434.111	2437.24226
434.607	2344.24648
435.103	2302.61643
435.598	2328.59503
436.093	2160.02596
436.588	2055.82481
437.083	1957.75205
437.578	1915.85877
438.073	1845.13406
438.568	1779.00177
439.062	1681.40334
439.557	1620.65415
440.051	1550.45484
440.546	1561.49978
441.04	1487.61304
441.534	1424.70105
442.028	1495.63124
442.522	1345.44574
443.015	1376.14612
443.509	1353.49493
444.002	1390.55895
444.496	1302.10265
444.989	1286.40097
445.482	1244.40551
445.975	1331.3134
446.468	1258.05164
446.961	1308.11241
447.454	1148.01128
447.947	1240.29327
448.439	1210.33074
448.931	1183.11446
449.424	1167.37462
449.916	1187.28253
450.408	1159.07246
450.9	1154.22263
451.392	1081.23414
451.884	1065.96077
452.375	1051.11991
452.867	1034.86704
453.358	1016.88577
453.849	1061.79217
454.341	1024.86397
454.832	977.70699
455.323	1039.11667
455.814	992.8466
456.304	958.82286
456.795	939.7672
457.285	946.7017
457.776	1010.86254
458.266	915.81045
458.756	845.68893
459.247	934.85627
459.737	929.87414
460.226	976.81586
460.716	865.7449
461.206	816.66515
461.695	806.71011
462.185	821.65908
462.674	821.58865
463.163	842.58705
463.653	833.48154
464.142	780.62758
464.63	810.67754
465.119	731.47161
465.608	786.57631
466.096	711.33023
466.585	695.38171
467.073	660.37024
467.561	737.53267
468.05	679.36616
468.538	722.53707
469.026	673.40068
469.513	645.18749
470.001	668.3443
470.489	649.36204
470.976	687.40321
471.463	646.42687
471.951	580.29533
472.438	598.25129
472.925	582.22582
473.412	549.20202
473.899	574.17661
474.385	555.22591
474.872	560.17217
475.359	594.30807
475.845	505.94347
476.331	518.9934
476.817	515.13932
477.303	546.14232
477.789	444.9756
478.275	474.07961
478.761	436.95642
479.247	501.01213
479.732	436.00649
480.218	517.23886
480.703	444.00912
481.188	481.94761
481.673	472.99348
482.158	418.83453
482.643	439.03849
483.128	497.055
483.612	489.06415
484.097	410.91907
484.581	381.8233
485.066	469.05507
485.55	390.80284
486.034	400.80415
486.518	401.89502
487.002	353.80741
487.486	337.77206
487.969	339.77726
488.453	313.73919
488.936	330.70074
489.42	358.74195
489.903	334.78557
490.386	320.62315
490.869	354.72743
491.352	301.68821
491.835	336.64465
492.318	307.65375
492.8	311.60836
493.283	339.81853
493.765	311.72393
494.247	303.66961
494.73	317.6633
495.212	263.59674
495.694	379.83578
496.175	306.69894
496.657	305.68584
497.139	305.49057
497.62	277.63691
498.102	269.6417
498.583	246.58065
499.064	234.50231
499.545	266.57986
500.026	265.57388
500.507	294.64361
500.988	279.66708
501.469	265.63288
501.949	243.57746
502.43	282.64932
502.91	318.63724
503.39	244.58196
503.87	289.65147
504.35	198.44936
504.83	252.52811
505.31	224.52134
505.79	202.4629
506.269	245.54009
506.749	233.51277
507.228	269.60614
507.707	263.56176
508.187	245.56334
508.666	259.61642
509.145	228.5145
509.623	211.47838
510.102	266.61663
510.581	291.66963
511.059	247.59891
511.538	216.53953
512.016	266.61101
512.494	249.57529
512.972	214.4963
513.45	195.4421
513.928	207.48832
514.406	245.57885
514.884	250.62128
515.361	251.5776
515.839	201.44959
516.316	303.70142
516.793	226.5518
517.27	235.5451
517.747	244.60416
518.224	227.50481
518.701	270.57009
519.178	238.57503
519.654	254.57784
520.131	233.55753
520.607	211.49969
521.083	201.4418
521.56	225.51239
522.036	226.47447
522.512	241.57403
522.987	262.60616
523.463	202.46494
523.939	247.59103
524.414	244.53709
524.89	248.56967
525.365	217.47415
525.84	195.45608
526.315	208.48906
526.79	226.49225
527.265	259.57453
527.74	207.48756
528.215	181.41153
528.689	176.37618
529.164	177.36987
529.638	124.30986
530.112	151.34833
530.587	207.42911
531.061	145.34486
531.534	171.40278
532.008	187.44337
532.482	224.49762
532.956	148.37076
533.429	245.57818
533.903	164.35145
534.376	199.42709
534.849	164.36888
535.322	185.42539
535.795	183.43087
536.268	223.52259
536.741	133.31084
537.213	158.35582
537.686	180.42998
538.158	239.52399
538.631	167.3958
539.103	175.38611
539.575	136.27543
540.047	177.37644
540.519	184.42876
540.991	202.47884
541.463	192.44968
541.934	172.37973
542.406	186.43597
542.877	196.43017
543.348	198.46537
543.82	180.42735
544.291	197.44754
544.762	209.48326
545.233	232.5694
545.703	208.4492
546.174	153.34844
546.645	209.49151
547.115	169.39961
547.585	249.55143
548.056	239.56861
548.526	220.50678
548.996	226.52329
549.466	251.5882
549.935	273.62646
550.405	278.5844
550.875	292.66321
551.344	254.58345
551.814	303.66177
552.283	281.58667
552.752	268.60401
553.221	340.70969
553.69	326.69949
554.159	332.78633
554.628	338.72586
555.096	325.78829
555.565	290.61258
556.033	391.87522
556.502	309.71133
556.97	344.72313
557.438	318.71023
557.906	335.74959
558.374	365.7975
558.842	327.74464
559.31	326.69224
559.777	341.79093
560.245	334.72561
560.712	335.72639
561.18	351.73248
561.647	345.72188
562.114	397.85052
562.581	417.95873
563.048	454.9598
563.514	491.13436
563.981	483.01274
564.448	514.05531
564.914	498.05598
565.381	546.12668
565.847	552.1605
566.313	589.22291
566.779	574.15698
567.245	576.19667
567.711	608.30141
568.176	625.24118
568.642	660.47844
569.108	658.43524
569.573	654.33421
570.038	703.26537
570.504	756.46792
570.969	757.63082
571.434	821.5387
571.899	828.66981
572.363	868.66974
572.828	922.75594
573.293	857.65131
573.757	951.81958
574.222	965.76476
574.686	1006.87919
575.15	1000.97562
575.614	1032.97814
576.078	958.85373
576.542	1015.87039
577.006	987.81324
577.469	992.01119
577.933	1004.85607
578.396	978.90599
578.86	917.79751
579.323	972.93545
579.786	995.73762
580.249	1002.92977
580.712	982.96985
581.175	856.79498
581.637	893.69692
582.1	811.4908
582.563	843.4924
583.025	865.78398
583.487	880.48834
583.95	780.41755
584.412	873.51442
584.874	813.70062
585.336	762.56187
585.797	795.46499
586.259	715.45784
586.721	732.49153
587.182	745.48332
587.643	694.37619
588.105	666.38763
588.566	662.20147
589.027	692.49354
589.488	644.30664
589.949	645.3923
590.41	662.13515
590.87	630.27878
591.331	622.20218
591.791	611.26132
592.252	617.28056
592.712	541.17601
593.172	577.17717
593.632	650.272
594.092	615.21561
594.552	581.12253
595.011	506.05569
595.471	634.27227
595.931	567.14992
596.39	551.19829
596.849	551.15916
597.308	534.02341
597.768	575.34605
598.227	528.15427
598.685	557.14299
599.144	568.20677
599.603	556.17303
600.062	547.03347
600.52	575.16458
600.978	542.15995
601.437	551.12913
601.895	583.1124
602.353	552.08909
602.811	678.33878
603.269	605.28633
603.727	606.30159
604.184	614.24398
604.642	631.38355
605.099	680.39486
605.557	672.44291
606.014	641.21204
606.471	674.49868
606.928	723.3894
607.385	742.62408
607.842	731.45136
608.299	796.59051
608.755	777.62382
609.212	797.5098
609.668	843.6002
610.125	845.72867
610.581	800.60147
611.037	769.47227
611.493	786.56978
611.949	825.71738
612.405	867.45084
612.861	830.6126
613.316	857.73586
613.772	884.68834
614.227	881.78208
614.683	863.51206
615.138	830.64934
615.593	838.64207
616.048	916.73269
616.503	869.78102
616.958	860.83188
617.412	912.80409
617.867	881.63758
618.321	918.53437
618.776	885.61165
619.23	848.67421
619.684	849.58268
620.138	858.64335
620.592	874.78604
621.046	935.82768
621.5	874.76912
621.954	814.51319
622.407	869.59364
622.861	877.79177
623.314	903.68769
623.768	858.70505
624.221	827.3362
624.674	832.62033
625.127	875.69895
625.58	830.56287
626.033	852.54634
626.485	794.62314
626.938	895.77908
627.39	868.69934
627.843	865.66595
628.295	877.68425
628.747	885.76571
629.199	871.65024
629.651	857.64262
630.103	882.68127
630.555	874.50856
631.006	886.7134
631.458	835.65737
631.909	884.63544
632.361	850.64211
632.812	828.61482
633.263	936.64674
633.714	870.5104
634.165	886.77547
634.616	888.74919
635.067	922.65504
635.518	939.83378
635.968	916.43438
636.419	929.64931
636.869	961.86441
637.319	992.86485
637.769	933.71298
638.219	965.86151
638.669	976.8949
639.119	957.88043
639.569	968.90341
640.019	1015.88624
640.468	1014.81688
640.918	955.85715
641.367	1057.86944
641.816	1052.84661
642.265	1085.00528
642.714	1059.92832
643.163	1085.98374
643.612	1078.12147
644.061	1135.85879
644.51	1169.07011
644.958	1147.94951
645.406	1135.1344
645.855	1186.24634
646.303	1209.13903
646.751	1293.24469
647.199	1277.16565
647.647	1267.22359
648.095	1304.21228
648.543	1278.87496
648.99	1312.37892
649.438	1249.18845
649.885	1347.54168
650.333	1350.82817
650.78	1407.51019
651.227	1422.5701
651.674	1435.35467
652.121	1443.60362
652.568	1428.58099
653.015	1440.62639
653.461	1519.57454
653.908	1471.40753
654.354	1504.56326
654.801	1496.50349
655.247	1532.27391
655.693	1547.94136
656.139	1570.63673
656.585	1565.63464
657.031	1664.67004
657.477	1645.39481
657.922	1673.55066
658.368	1739.90955
658.813	1755.61333
659.259	1818.92309
659.704	1848.85318
660.149	1777.68442
660.594	1855.86001
661.039	1847.68871
661.484	1963.9247
661.929	1859.79692
662.373	1929.16236
662.818	1953.11158
663.262	1961.01646
663.707	2074.33942
664.151	2039.10416
664.595	2017.05404
665.039	2177.27609
665.483	2144.38537
665.927	2173.99695
666.371	2232.0405
666.814	2197.06673
667.258	2267.17504
667.701	2288.60166
668.145	2297.35415
668.588	2321.34357
669.031	2308.06571
669.474	2381.19369
669.917	2410.74958
670.36	2435.43231
670.803	2515.2771
671.245	2398.43847
671.688	2450.29274
672.13	2520.9283
672.573	2532.53318
673.015	2611.28833
673.457	2631.74349
673.899	2579.29626
674.341	2615.28038
674.783	2668.26175
675.225	2718.42892
675.666	2777.40622
676.108	2743.70825
676.549	2761.10627
676.991	2753.78532
677.432	2856.28321
677.873	2840.99467
678.314	2875.23709
678.755	2965.46553
679.196	2927.99924
679.637	2913.26892
680.078	2995.12147
680.518	2963.01845
680.959	3012.23419
681.399	3020.48401
681.839	3090.35335
682.28	3071.51382
682.72	3038.98799
683.16	3135.53735
683.6	3141.94225
684.039	3178.39278
684.479	3201.46145
684.919	3256.13464
685.358	3223.50837
685.798	3291.83141
686.237	3309.20422
686.676	3221.88773
687.115	3356.11695
687.554	3348.22245
687.993	3362.71975
688.432	3448.883
688.871	3534.89004
689.309	3437.21579
689.748	3513.31206
690.186	3548.00736
690.625	3559.03851
691.063	3610.12453
691.501	3596.38789
691.939	3678.5038
692.377	3648.22419
692.815	3694.2784
693.253	3733.06067
693.69	3727.51483
694.128	3772.19325
694.565	3796.00382
695.003	3751.59278
695.44	3898.96476
695.877	3887.92204
696.314	3813.23644
696.751	3864.66844
697.188	3997.76748
697.625	3935.54923
698.061	3991.995
698.498	3913.93046
698.934	4024.96325
699.371	4045.84605
699.807	4026.87178
700.243	4044.02596
700.679	4056.46334
701.115	4143.72836
701.551	4076.73012
701.987	4021.34553
702.422	4120.91016
702.858	4186.8725
703.294	4253.55669
703.729	4233.98849
704.164	4153.88572
704.599	4255.37418
705.035	4298.3789
705.47	4218.98126
705.904	4289.5972
706.339	4337.50941
706.774	4334.65337
707.209	4346.60694
707.643	4292.83088
708.078	4391.90254
708.512	4338.1768
708.946	4395.69591
709.38	4404.72012
709.814	4412.36443
710.248	4402.94409
710.682	4381.81678
711.116	4375.92855
711.549	4306.33085
711.983	4311.56007
712.416	4365.73209
712.85	4282.09128
713.283	4322.70849
713.716	4295.08783
714.149	4215.61865
714.582	4313.36804
715.015	4195.05121
715.448	4214.26335
715.881	4213.11894
716.313	4133.722
716.746	4195.79064
717.178	4128.93789
717.61	4177.35774
718.043	4153.1207
718.475	4059.03639
718.907	3966.2865
719.339	4014.577
719.77	3946.992
720.202	3948.31682
720.634	3854.21055
721.065	3910.87884
721.497	3867.17726
721.928	3759.20069
722.359	3745.18896
722.79	3817.03436
723.221	3674.34024
723.652	3689.51468
724.083	3592.69181
724.514	3565.84025
724.945	3639.93665
725.375	3615.94234
725.806	3518.32674
726.236	3454.6119
726.666	3422.04632
727.096	3379.30515
727.526	3361.69906
727.956	3373.86848
728.386	3317.32981
728.816	3206.66253
729.246	3211.40404
729.675	3110.31963
730.105	3168.32961
730.534	3072.03262
730.964	3042.46673
731.393	3090.34339
731.822	3020.64033
732.251	3034.59099
732.68	2953.99539
733.109	2955.3996
733.537	3031.35085
733.966	2916.48227
734.395	2951.99787
734.823	2875.74158
735.251	2732.21244
735.68	2754.36602
736.108	2723.44586
736.536	2724.05838
736.964	2738.00332
737.392	2639.42798
737.82	2609.1497
738.247	2618.14035
738.675	2573.05224
739.102	2517.38296
739.53	2601.60947
739.957	2490.60602
740.384	2427.14753
740.811	2381.31064
741.238	2434.26837
741.665	2539.06717
742.092	2261.85529
742.519	2337.29619
742.945	2350.19014
743.372	2341.30199
743.798	2276.4253
744.225	2224.98358
744.651	2104.20027
745.077	2173.22604
745.503	2126.03279
745.929	2170.0876
746.355	2050.02449
746.781	2031.06126
747.207	2019.91191
747.632	2021.12458
748.058	1962.15146
748.483	2031.76275
748.908	1952.08303
749.334	1969.04817
749.759	1967.89432
750.184	1895.8973
750.609	1933.98372
751.033	1854.71299
751.458	1878.54594
751.883	1861.94731
752.307	1806.72324
752.732	1806.09079
753.156	1797.90103
753.58	1708.64659
754.005	1655.84858
754.429	1700.6766
754.853	1644.81837
755.277	1691.67212
755.7	1640.79516
756.124	1616.78028
756.548	1550.51898
756.971	1612.69906
757.394	1490.74509
757.818	1488.78479
758.241	1498.73942
758.664	1447.65305
759.087	1445.2735
759.51	1469.58659
759.933	1439.49688
760.356	1442.73265
760.778	1433.53853
761.201	1371.40448
761.623	1338.31528
762.046	1298.21385
762.468	1314.30825
762.89	1362.42398
763.312	1337.41527
763.734	1252.26287
764.156	1230.30512
764.578	1249.08728
765	1198.22194
765.421	1156.30606
765.843	1138.34738
766.264	1171.09829
766.686	1067.0836
767.107	1115.09362
767.528	1097.23703
767.949	1004.04941
768.37	1016.01509
768.791	954.8328
769.212	954.9602
769.632	980.82693
770.053	920.98426
770.473	963.85854
770.894	865.74889
771.314	908.72589
771.734	838.59958
772.154	852.80855
772.575	847.5883
772.994	806.49532
773.414	752.49624
773.834	762.60123
774.254	705.4641
774.673	740.53516
775.093	746.57789
775.512	672.42928
775.931	684.49641
776.351	702.50157
776.77	622.32912
777.189	672.36354
777.607	642.42629
778.026	610.32594
778.445	625.38705
778.864	562.25457
779.282	486.0278
779.701	585.28634
780.119	565.26517
780.537	502.11213
780.955	528.18293
781.373	538.1727
781.791	537.06813
782.209	497.98511
782.627	488.1575
783.045	461.93041
783.462	473.08535
783.88	433.01875
784.297	437.99546
784.715	437.02259
785.132	401.87392
785.549	384.876
785.966	437.99466
786.383	421.94391
786.8	391.8203
787.217	364.79649
787.633	354.82189
788.05	371.78143
788.466	393.82449
788.883	372.88002
789.299	271.59739
789.715	353.78986
790.131	299.68996
790.547	323.74266
790.963	345.78467
791.379	302.70949
791.795	288.59768
792.21	303.64691
792.626	249.54522
793.041	281.64275
793.457	222.51179
793.872	257.55584
794.287	253.57359
794.702	245.55387
795.117	228.53545
795.532	213.50832
795.947	267.5866
796.362	290.62359
796.776	282.59542
797.191	244.55981
797.605	207.46339
798.02	193.44237
798.434	243.50126
798.848	239.55986
799.262	204.47741
799.676	218.49896
800.09	205.47439
800.504	187.42569
800.918	177.38217
801.331	117.28722
801.745	165.35535
802.158	160.37621
802.572	173.39669
802.985	181.4082
803.398	189.42258
803.811	189.44898
804.224	145.33848
804.637	198.44553
805.05	127.27739
805.462	160.37019
805.875	156.38713
806.288	177.40651
806.7	142.3361
807.112	145.31509
807.525	100.23247
807.937	123.29152
808.349	143.33827
808.761	197.45823
809.173	153.3535
809.584	121.28368
809.996	134.312
810.408	104.26139
810.819	84.19002
811.231	174.44373
811.642	202.47366
812.053	192.4421
812.464	179.39906
812.875	153.37434
813.286	173.42689
813.697	112.2424
814.108	105.24395
814.519	164.34719
814.929	115.2797
815.34	87.20013
815.75	107.26336
816.16	76.17975
816.571	73.18239
816.981	115.255
817.391	74.16992
817.801	137.32545
818.211	146.32839
818.62	101.23401
819.03	124.28849
819.44	57.14138
819.849	74.17745
820.259	95.23063
820.668	122.28753
821.077	121.28988
821.486	86.19558
821.895	87.20277
822.304	61.15609
822.713	79.17817
823.122	98.23366
823.531	63.14127
823.939	100.23422
824.348	105.24193
824.756	101.24058
825.164	136.32351
825.573	99.23817
825.981	102.24021
826.389	113.27041
826.797	150.36339
827.205	98.21627
827.612	89.20907
828.02	24.05425
828.428	95.23166
828.835	97.24733
829.243	68.15427
829.65	84.20228
830.057	77.17819
830.464	89.21053
830.871	114.26093
831.278	61.14195
831.685	96.20252
832.092	106.24477
832.499	108.22514
832.905	79.1907
833.312	41.08811
833.718	110.26368
834.124	103.2244
834.531	105.25011
834.937	75.18596
835.343	96.21894
835.749	97.21213
836.155	53.13428
836.561	32.0763
836.966	67.15665
837.372	42.10282
837.777	38.09196
838.183	114.23807
838.588	123.29276
838.993	51.11971
839.399	62.14658
839.804	12.02848
840.209	70.17385
840.613	66.13997
841.018	111.26663
841.423	85.20959
841.828	78.1906
842.232	97.2251
842.637	108.24521
843.041	45.11223
843.445	69.16499
843.849	34.08181
844.253	136.30427
844.657	81.19723
845.061	147.31985
845.465	101.23271
845.869	103.22735
846.272	65.15299
846.676	55.12541
847.079	76.18744
847.483	98.23276
847.886	62.14334
848.289	83.21639
848.692	56.13567
849.095	108.24541
849.498	88.21014
849.901	93.2008
850.304	106.24047
850.707	63.15403
851.109	37.08996
851.512	81.19124
851.914	51.12506
852.316	108.264
852.718	93.2368
853.121	91.21326
853.523	56.12456
853.925	54.13772
854.326	60.14552
854.728	86.21311
855.13	58.14598
855.531	54.1244
855.933	92.20821
856.334	84.20251
856.736	109.23364
857.137	108.24073
857.538	84.20411
857.939	86.20662
858.34	59.13648
858.741	18.04557
859.142	48.11022
859.542	32.08259
859.943	40.09588
860.343	21.05079
860.744	87.20269
861.144	123.28758
861.544	76.17759
861.945	45.1106
862.345	92.21354
862.745	80.19206
863.145	51.11464
863.544	59.14409
863.944	49.11114
864.344	32.07571
864.743	79.18731
865.143	68.16974
865.542	26.05731
865.941	90.21385
866.34	62.14031
866.74	59.1533
867.139	79.18362
867.537	58.14062
867.936	91.20992
868.335	64.15621
868.734	46.11378
869.132	29.06401
869.531	86.19582
869.929	54.11857
870.327	76.17417
870.726	27.06436
871.124	101.222
871.522	63.1538
871.92	93.21897
872.318	48.11198
872.715	25.05886
873.113	27.06315
873.511	74.17603
873.908	32.07959
874.306	93.22306
874.703	76.18023
875.1	48.11659
875.497	64.14631
875.894	66.15833
876.291	53.12537
876.688	33.08254
877.085	48.10978
877.482	94.22455
877.878	83.19368
878.275	36.08869
878.671	63.12914
879.068	84.19335
879.464	85.19592
879.86	28.06383
880.256	25.05859
880.652	58.14194
881.048	57.13411
881.444	65.14563
881.84	60.14645
882.236	78.18761
882.631	72.17029
883.027	87.19989
883.422	12.02958
883.817	67.16314
884.213	35.08691
884.608	71.17087
885.003	60.13739
885.398	66.15881
885.793	23.05561
886.188	29.06953
886.582	57.13931
886.977	65.14641
887.371	47.11367
887.766	59.14199
888.16	13.03086
888.554	55.1296
888.949	77.18503
889.343	73.16954
889.737	0
890.131	30.07276
890.525	99.24376
890.918	74.17833
891.312	78.17602
891.706	45.11381
892.099	78.18953
892.492	111.22351
892.886	52.12189
893.279	63.15386
893.672	69.17002
894.065	92.22028
894.458	68.16226
894.851	128.29439
895.244	38.09368
895.637	47.1092
896.029	109.25505
896.422	84.19319
896.814	27.06461
897.206	88.20272
897.599	122.28563
897.991	107.24752
898.383	66.14949
898.775	108.23344
899.167	66.14955
899.559	51.12307
899.951	106.23431
900.342	68.16424
900.734	91.22133
901.125	45.1132
901.517	56.13229
901.908	26.0591
902.299	45.10624
902.69	94.21299
903.082	69.15987
903.473	62.1447
903.863	54.13181
904.254	94.20996
904.645	72.16903
905.036	45.10711
905.426	58.12467
905.817	81.18842
906.207	30.068
906.597	58.13131
906.987	43.10662
907.378	58.14194
907.768	54.13835
908.158	72.16745
908.547	108.27046
908.937	31.07588
909.327	67.1553
909.717	50.12004
910.106	17.03923
910.495	58.13728
910.885	68.16579
911.274	67.16027
911.663	68.16393
912.052	72.16778
912.441	106.25921
912.83	69.14969
913.219	81.20252
913.608	77.18109
913.997	63.15329
914.385	88.20013
914.774	72.16718
915.162	97.22251
915.55	81.18529
915.939	72.17581
916.327	45.10715
916.715	69.17171
917.103	41.09526
917.491	97.22759
917.878	61.14335
918.266	70.17359
918.654	92.22673
919.041	71.18078
919.429	64.14431
919.816	62.15071
920.203	102.23769
920.591	77.18306
920.978	130.3009
921.365	35.08928
921.752	57.12787
922.139	83.1706
922.525	74.17054
922.912	90.20815
923.299	59.14102
923.685	3.00754
924.072	15.03243
924.458	64.15283
924.844	34.08119
925.231	21.04659
925.617	86.21187
926.003	55.13477
926.389	27.06579
926.774	68.16462
927.16	47.112
927.546	107.2651
927.931	57.13557
928.317	62.1351
928.702	100.22308
929.088	106.2436
929.473	86.21124
929.858	73.17215
930.243	83.19215
930.628	86.2019
931.013	82.19454
931.398	42.09074
931.783	41.1031
932.167	92.21683
932.552	63.15087
932.937	86.20229
933.321	89.21533
933.705	17.04098
934.09	31.07393
934.474	54.12141
934.858	54.13533
935.242	27.05995
935.626	33.08212
936.009	66.17104
936.393	97.23927
936.777	86.21226
937.16	90.22628
937.544	50.11076
937.927	86.21007
938.311	93.21428
938.694	121.30613
939.077	46.10567
939.46	23.05318
939.843	73.14002
940.226	44.1082
940.609	119.26113
940.991	15.03674
941.374	52.12289
941.757	77.18067
942.139	64.13757
942.522	103.22887
942.904	38.08785
943.286	82.19851
943.668	76.19115
944.05	73.17215
944.432	35.08283
944.814	58.13542
945.196	63.14845
945.578	101.23225
945.959	18.04017
946.341	43.09931
946.722	84.18615
947.104	85.1935
947.485	83.18366
947.866	64.15621
948.247	82.20007
948.628	1.00231
949.009	61.15019
949.39	52.12341
949.771	-2.00438
950.152	86.20159
950.532	114.27452
950.913	85.19483
951.293	65.17108
951.674	54.12519
952.054	75.18153
952.434	91.21585
952.814	61.1369
953.194	32.07985
953.574	78.1824
953.954	7.01587
954.334	82.19731
954.714	70.16408
955.093	79.18529
955.473	80.19366
955.853	51.12733
956.232	27.07176
956.611	80.18002
956.99	85.20511
957.37	63.153
957.749	3.0068
958.128	71.17262
958.506	32.08049
958.885	57.1376
959.264	82.19461
959.643	110.23797
960.021	105.24944
960.4	61.13148
960.778	59.13692
961.156	47.11281
961.535	47.10361
961.913	119.26442
962.291	67.16746
962.669	68.16623
963.047	70.17245
963.424	98.24232
963.802	69.16278
964.18	35.08385
964.557	108.23334
964.935	75.16901
965.312	59.1489
965.69	46.10959
966.067	32.07404
966.444	37.0859
966.821	118.28984
967.198	31.0714
967.575	112.25893
967.952	78.17422
968.329	87.20309
968.705	185.36892
969.082	90.22417
969.458	77.17897
969.835	94.21749
970.211	56.13994
970.587	57.1365
970.963	33.08095
971.339	45.11405
971.715	103.24525
972.091	63.14834
972.467	27.06392
972.843	101.24169
973.219	101.22722
973.594	24.06086
973.97	65.14329
974.345	61.14032
974.721	35.0801
975.096	100.23192
975.471	87.19509
975.846	101.22815
976.221	32.0786
976.596	99.22956
976.971	76.18072
977.346	21.04657
977.72	47.11461
978.095	58.14404
978.469	76.17186
978.844	86.20489
979.218	82.19048
979.593	50.11408
979.967	23.05289
980.341	110.24031
980.715	79.19092
981.089	59.14151
981.463	85.1851
981.837	92.21691
982.21	46.0993
982.584	40.09328
982.957	59.14237
983.331	62.13751
983.704	72.17147
984.078	25.0593
984.451	55.1288
984.824	49.11537
985.197	32.07348
985.57	61.14408
985.943	61.14128
986.316	31.07197
986.688	99.22592
987.061	97.21626
987.434	111.27983
987.806	56.12787
988.179	61.13673
988.551	86.20725
988.923	43.10105
989.295	77.18264
989.667	58.13484
990.039	53.12804
990.411	16.03481
990.783	44.09535
991.155	39.0905
991.527	85.19499
991.898	80.19148
992.27	75.17927
992.641	58.1385
993.012	25.0549
993.384	54.12246
993.755	67.16491
994.126	115.26423
994.497	48.11313
994.868	78.16773
995.239	54.12484
995.61	21.05113
995.98	57.13228
996.351	78.18598
996.722	64.14336
997.092	81.18357
997.462	52.11778
997.833	77.17181
998.203	13.02991
998.573	83.19816
998.943	93.20802
999.313	55.12698
999.683	80.18355
1000.053	8.01727
1000.423	55.12683
1000.792	18.04462
1001.162	13.03067
1001.531	61.1443
1001.901	54.12836
1002.27	51.10605
1002.639	31.07579
1003.009	48.10894
1003.378	38.09389
1003.747	69.15409
1004.116	71.16156
1004.485	90.20401
1004.853	18.04341
1005.222	29.06911
1005.591	61.13763
1005.959	49.10589
1006.328	59.12696
1006.696	58.13308
1007.064	14.03369
1007.433	39.0929
1007.801	23.05335
1008.169	54.12934
1008.537	102.21216
1008.905	37.08327
1009.273	69.16139
1009.64	81.18656
1010.008	86.19415
1010.375	108.24312
1010.743	67.14194
1011.11	132.30031
1011.478	57.13624
1011.845	53.11821
1012.212	114.24599
1012.579	84.19682
1012.946	47.10561
1013.313	50.1126
1013.68	83.17521
1014.047	32.07319
1014.414	76.17031
1014.78	81.19294
1015.147	10.02301
1015.513	96.21938
1015.88	38.09282
1016.246	53.12353
1016.612	34.07371
1016.978	110.25724
1017.344	55.13056
1017.71	94.21585
1018.076	88.19428
1018.442	79.19516
1018.808	58.14046
1019.174	39.09347
1019.539	21.0442
1019.905	63.14255
1020.27	25.0593
1020.636	47.10617
1021.001	104.23651
1021.366	71.16339
1021.731	83.20722
1022.096	57.13947
1022.461	54.12246
1022.826	100.22705
1023.191	39.09885
1023.556	23.05143
1023.92	28.06553
1024.285	27.06261
1024.649	60.13954
1025.014	57.13337
1025.378	56.13603
1025.742	32.07571
1026.107	99.21009
1026.471	92.20158
1026.835	80.18906
1027.199	41.09488
1027.562	25.05507
1027.926	56.13003
1028.29	60.14574
1028.654	61.13278
1029.017	57.13452
1029.381	22.05076
1029.744	69.1687
1030.107	95.21267
1030.471	102.23262
1030.834	31.06622
1031.197	82.18739
1031.56	38.0853
1031.923	45.11231
1032.286	103.2283
1032.648	46.10355
1033.011	90.19861
1033.374	57.12608
1033.736	40.10169
1034.099	70.16293
1034.461	40.09814
1034.823	44.10579
1035.185	21.05048
1035.548	84.19551
1035.91	32.07336
1036.272	97.20962
1036.634	113.26119
1036.995	19.04252
1037.357	114.26387
1037.719	64.1489
1038.08	94.21342
1038.442	21.04781
1038.803	37.08362
1039.165	22.05328
1039.526	26.06047
1039.887	50.11422
1040.248	84.2009
1040.609	33.07743
1040.97	67.15567
1041.331	64.15645
1041.692	103.23182
1042.053	42.09055
1042.413	53.11684
1042.774	94.21749
1043.134	93.20648
1043.495	70.16812
1043.855	83.19383
1044.215	96.22485
1044.576	72.16526
1044.936	57.12344
1045.296	91.21593
1045.656	50.11605
1046.016	55.12597
1046.375	74.17094
1046.735	98.21391
1047.095	57.12724
1047.454	59.11651
1047.814	65.14917
1048.173	49.11001
1048.533	68.14786
1048.892	49.11313
1049.251	60.14295
1049.61	40.09468
1049.969	-3.0068
1050.328	67.13728
1050.687	44.1018
1051.046	52.12055
1051.405	26.06161
1051.763	47.10444
1052.122	40.09567
1052.48	83.19436
1052.839	93.21103
1053.197	70.15642
1053.555	101.21134
1053.914	54.12583
1054.272	31.0702
1054.63	60.14064
1054.988	66.15101
1055.345	50.10038
1055.703	59.13583
1056.061	94.23362
1056.419	57.14431
1056.776	65.14743
1057.134	-44.09706
1057.491	77.18412
1057.848	-12.02878
1058.206	46.10147
1058.563	44.09193
1058.92	91.19699
1059.277	62.14613
1059.634	48.10606
1059.991	95.21618
1060.348	105.22438
1060.704	106.24496
1061.061	80.17218
1061.418	38.08855
1061.774	60.14169
1062.131	75.19352
1062.487	35.07777
1062.843	37.08857
1063.199	38.09088
1063.555	75.16665
1063.911	49.11793
1064.267	80.15371
1064.623	73.17115
1064.979	-24.0529
1065.335	44.09954
1065.691	24.05431
1066.046	49.10194
1066.402	21.04534
1066.757	60.14519
1067.112	42.0983
1067.468	62.14168
1067.823	18.04067
1068.178	47.1079
1068.533	40.09288
1068.888	69.15587
1069.243	65.15328
1069.598	12.02789
1069.952	80.1747
1070.307	25.05996
1070.662	92.20999
1071.016	121.25835
1071.371	76.16477
1071.725	89.19957
1072.079	107.24388
1072.434	45.10521
1072.788	6.01356
1073.142	68.15983
1073.496	8.01822
1073.85	84.18382
1074.203	73.16887
1074.557	95.24496
1074.911	83.18627
1075.265	51.11285
1075.618	63.14701
1075.971	77.17366
1076.325	60.14749
1076.678	74.16057
1077.031	-7.0149
1077.385	105.21572
1077.738	60.12813
1078.091	21.04626
1078.444	20.0439
1078.796	47.11131
1079.149	64.15254
1079.502	68.15414
1079.855	54.12022
1080.207	78.18219
1080.56	59.14752
1080.912	50.11615
1081.264	106.24252
1081.617	61.14262
1081.969	54.13161
1082.321	35.08167
1082.673	80.17603
1083.025	36.08117
1083.377	72.16055
1083.728	59.13012
1084.08	52.12346
1084.432	42.09652
1084.783	19.04176
1085.135	67.16143
1085.486	45.09891
1085.838	60.14185
1086.189	110.25501
1086.54	40.09093
1086.891	84.20701
1087.242	71.16802
1087.593	45.10306
1087.944	99.2133
1088.295	64.13751
1088.646	95.22307
1088.996	52.12065
1089.347	16.03756
1089.698	51.11662
1090.048	26.06478
1090.398	75.16354
1090.749	16.03643
1091.099	103.24967
1091.449	78.18619
1091.799	48.11524
1092.149	56.1328
1092.499	29.06802
1092.849	25.06144
1093.199	47.11187
1093.548	102.23487
1093.898	51.12176
1094.248	12.02951
1094.597	40.09978
1094.947	27.06994
1095.296	60.14262
1095.645	56.13928
1095.994	50.11477
1096.343	82.19768
1096.692	39.10074
1097.041	50.13309
1097.39	31.07435
1097.739	43.10759
1098.088	72.18388
1098.437	51.13123
1098.785	29.07506
1099.134	15.03794
1099.482	38.10172
1099.83	62.15672
1100.179	107.27177
1100.527	40.10136
1100.875	64.1642
1101.223	63.16228
1101.571	7.01878
1101.919	65.16731
1102.267	31.08571
1102.615	7.02247
1102.962	7.02244
1103.31	20.06411
1103.658	3.00961
