Data from N3 R4 sample 5_Subt2__1__12-06-44-233.txt Node

Date: Thu Sep 18 12:06:44 PDT 2025
User: uwsun
Spectrometer: HDX01956
Trigger mode: 0
Integration Time (sec): 5.000000E-1
Scans to average: 1
Nonlinearity correction enabled: true
Boxcar width: 0
Storing dark spectrum: false
XAxis mode: Wavelengths
Number of Pixels in Spectrum: 2068
>>>>>Begin Spectral Data<<<<<
194.03	116.33105
194.578	140.44776
195.127	130.41028
195.676	142.44914
196.225	190.49134
196.773	147.40142
197.321	252.67781
197.87	333.82251
198.418	369.9124
198.966	376.95058
199.513	380.92528
200.061	329.80816
200.609	332.84684
201.156	347.72767
201.704	347.841
202.251	342.87786
202.798	327.81982
203.345	387.91603
203.892	361.87689
204.438	338.77171
204.985	390.88322
205.532	368.9297
206.078	344.80845
206.624	395.94722
207.17	407.9069
207.716	342.80907
208.262	378.71054
208.808	402.96418
209.354	349.83185
209.899	363.87713
210.445	359.86387
210.99	401.933
211.535	405.90767
212.08	363.80687
212.625	381.91018
213.17	403.97997
213.715	394.85703
214.259	374.83494
214.804	365.85729
215.348	415.90941
215.892	402.92961
216.436	362.78944
216.98	363.75988
217.524	403.91655
218.068	379.91577
218.612	439.05528
219.155	385.86747
219.698	371.84311
220.242	374.88099
220.785	388.86726
221.328	346.82043
221.871	387.94143
222.414	372.87764
222.956	282.65398
223.499	294.63246
224.041	327.71599
224.583	326.65629
225.126	358.74626
225.668	324.75671
226.21	345.83836
226.751	351.74581
227.293	317.68765
227.835	349.81876
228.376	331.71955
228.918	321.76835
229.459	317.76196
230	328.75672
230.541	319.70378
231.082	372.86264
231.622	328.70924
232.163	270.6316
232.704	331.79651
233.244	373.88119
233.784	311.72478
234.324	368.78721
234.864	330.71265
235.404	320.72237
235.944	323.72899
236.484	398.94151
237.023	361.80942
237.563	365.80727
238.102	373.83769
238.641	332.80028
239.18	326.73411
239.719	321.77274
240.258	393.8325
240.797	347.79209
241.335	339.78847
241.874	343.63442
242.412	405.93115
242.95	359.82839
243.488	293.63343
244.026	363.80419
244.564	443.84648
245.102	389.8341
245.64	323.7394
246.177	321.68237
246.715	385.87739
247.252	317.68941
247.789	416.71516
248.326	342.78932
248.863	341.71636
249.4	369.79361
249.936	436.85188
250.473	396.8866
251.009	372.80781
251.546	408.85841
252.082	316.65315
252.618	391.82609
253.154	372.85205
253.69	360.7671
254.226	369.84128
254.761	387.82086
255.297	299.62813
255.832	398.89584
256.367	351.787
256.903	410.85806
257.438	414.91352
257.972	407.85235
258.507	373.81153
259.042	404.82642
259.576	450.92968
260.111	340.74555
260.645	370.75687
261.179	348.77915
261.713	329.70577
262.247	348.7573
262.781	360.7204
263.315	336.78041
263.849	344.82574
264.382	385.83692
264.915	421.93887
265.449	382.88618
265.982	393.84341
266.515	436.00409
267.048	424.84061
267.58	340.69866
268.113	416.84364
268.646	363.84661
269.178	371.78624
269.71	390.81585
270.243	456.98765
270.775	468.1249
271.307	342.77706
271.838	445.98335
272.37	393.91295
272.902	395.84441
273.433	424.88265
273.965	419.95986
274.496	316.75393
275.027	437.02259
275.558	426.98079
276.089	403.95536
276.62	376.90253
277.15	423.98029
277.681	407.82218
278.211	388.8976
278.741	364.76922
279.272	426.91638
279.802	380.89929
280.332	421.93693
280.861	427.96011
281.391	409.87623
281.921	392.88739
282.45	357.84569
282.98	454.11137
283.509	445.9484
284.038	419.90307
284.567	439.95955
285.096	431.98536
285.625	339.7291
286.153	459.02579
286.682	437.94267
287.21	389.87792
287.739	426.94746
288.267	462.05223
288.795	404.00008
289.323	418.92659
289.851	436.96487
290.378	432.9021
290.906	467.06856
291.433	454.06099
291.961	461.9842
292.488	487.12422
293.015	438.97293
293.542	464.12032
294.069	462.07296
294.596	434.9984
295.122	501.11521
295.649	427.87604
296.175	508.13105
296.702	485.10582
297.228	475.0651
297.754	449.94529
298.28	481.02941
298.806	464.0453
299.332	509.05138
299.857	458.97377
300.383	477.12072
300.908	477.09629
301.433	461.05946
301.958	441.94885
302.483	439.02327
303.008	496.14979
303.533	412.00651
304.058	509.09602
304.582	495.08635
305.107	482.17434
305.631	504.0557
306.155	495.07039
306.679	475.04238
307.203	544.16022
307.727	519.1372
308.251	486.11901
308.775	582.29713
309.298	491.10285
309.822	497.16324
310.345	548.20614
310.868	568.25701
311.391	556.26056
311.914	534.23898
312.437	545.144
312.96	582.25213
313.482	519.12716
314.005	522.20776
314.527	516.24841
315.049	574.33663
315.571	611.24495
316.093	560.27734
316.615	520.15495
317.137	658.27978
317.659	614.35216
318.18	553.21079
318.702	613.3045
319.223	574.05837
319.744	623.26656
320.265	629.39189
320.786	643.45891
321.307	656.46405
321.828	702.40505
322.348	606.29768
322.869	626.35384
323.389	731.24675
323.909	649.33269
324.43	643.38798
324.95	663.36147
325.47	708.57304
325.989	711.50347
326.509	739.4584
327.029	716.45162
327.548	717.43941
328.067	735.58677
328.587	757.68719
329.106	684.37402
329.625	674.58875
330.144	758.55366
330.662	734.52948
331.181	804.65843
331.7	769.56949
332.218	797.49878
332.736	810.65364
333.255	796.64192
333.773	819.68374
334.291	823.80563
334.808	827.61324
335.326	821.59622
335.844	860.74868
336.361	887.98675
336.879	892.8023
337.396	948.96707
337.913	940.83876
338.43	971.83289
338.947	919.87681
339.464	935.6926
339.981	930.87744
340.497	939.97128
341.014	965.9957
341.53	998.87248
342.046	1032.16544
342.562	1045.17692
343.078	1088.10022
343.594	1038.05023
344.11	1027.05348
344.626	990.12083
345.141	1110.06232
345.657	1105.02919
346.172	1078.14921
346.687	1084.03276
347.202	1169.13961
347.717	1082.12538
348.232	1078.2304
348.747	1165.16215
349.261	1117.97792
349.776	1156.22649
350.29	1193.42431
350.805	1159.33279
351.319	1211.23781
351.833	1200.20149
352.347	1225.3019
352.861	1279.35452
353.374	1232.2052
353.888	1280.47762
354.401	1266.25012
354.915	1319.29725
355.428	1251.49417
355.941	1307.36564
356.454	1308.23575
356.967	1318.38142
357.48	1282.25763
357.993	1337.56801
358.505	1335.52874
359.018	1389.62497
359.53	1404.63352
360.042	1433.39414
360.554	1414.65491
361.066	1383.59212
361.578	1450.37225
362.09	1406.55004
362.602	1466.41584
363.113	1483.60597
363.625	1424.4274
364.136	1410.31145
364.647	1545.69729
365.158	1527.61308
365.669	1529.70112
366.18	1520.64168
366.691	1539.4269
367.201	1538.72338
367.712	1575.60751
368.222	1623.67299
368.733	1568.43159
369.243	1625.57406
369.753	1629.67855
370.263	1700.91966
370.773	1670.91459
371.282	1700.87671
371.792	1755.81208
372.301	1742.95462
372.811	1829.3937
373.32	1878.64784
373.829	1859.95738
374.338	1968.79803
374.847	1979.95944
375.356	2026.07596
375.865	2138.74326
376.373	2248.0377
376.882	2250.56161
377.39	2342.35936
377.898	2350.45709
378.407	2446.09927
378.915	2593.95232
379.423	2657.26428
379.93	2840.28692
380.438	2819.46788
380.946	3024.29223
381.453	3167.47189
381.96	3299.42657
382.468	3470.29293
382.975	3744.4953
383.482	3784.87643
383.989	3887.80625
384.495	4034.04189
385.002	4183.29711
385.509	4484.97246
386.015	4777.81546
386.521	4980.35175
387.028	5173.22596
387.534	5233.80496
388.04	5582.41341
388.546	5544.83763
389.051	5801.69976
389.557	6375.80645
390.063	6845.60367
390.568	7111.96085
391.073	7269.58825
391.578	7698.20383
392.084	7838.9781
392.589	8140.08965
393.093	8712.05353
393.598	9524.539
394.103	10374.9224
394.607	11339.66017
395.112	12353.7788
395.616	12956.67231
396.12	14155.55063
396.624	15697.61392
397.128	17005.6167
397.632	18917.25895
398.136	20586.9621
398.639	21830.23715
399.143	24283.20036
399.646	27077.62597
400.15	30123.09794
400.653	33221.49546
401.156	37566.13535
401.659	43783.84675
402.162	53211.51826
402.664	60809.29887
403.167	63977.72923
403.67	63769.22307
404.172	63919.58413
404.674	63858.43483
405.176	63738.15102
405.678	63977.72923
406.18	64011.81569
406.682	63863.44694
407.184	63926.60148
407.686	63841.39382
408.187	64025.8516
408.688	63892.51763
409.19	63833.37461
409.691	63977.72923
410.192	63945.6488
410.693	63713.09355
411.194	63812.32447
411.694	63109.26287
412.195	58727.09119
412.696	53039.31345
413.196	48978.9101
413.696	47730.53565
414.196	48071.15465
414.696	46952.03624
415.196	45071.78704
415.696	41062.54692
416.196	33720.48634
416.695	26047.21996
417.195	22259.91194
417.694	20878.73944
418.194	19530.35987
418.693	18425.51564
419.192	17624.5829
419.691	17339.41927
420.19	17058.3027
420.688	16596.54228
421.187	15997.55859
421.685	14821.2482
422.184	13512.96885
422.682	11799.58506
423.18	9948.65941
423.678	8848.16514
424.176	8160.24697
424.674	7749.81084
425.172	7394.85908
425.669	7003.02741
426.167	6474.73816
426.664	5919.76306
427.161	5450.06565
427.659	5102.64609
428.156	4857.90412
428.652	4536.27365
429.149	4333.08375
429.646	4213.555
430.143	4012.14333
430.639	3690.18851
431.135	3453.62569
431.632	3306.06621
432.128	3170.39277
432.624	3021.86592
433.12	2888.10114
433.616	2861.88861
434.111	2693.30642
434.607	2576.32392
435.103	2501.64956
435.598	2535.62384
436.093	2305.09035
436.588	2210.89566
437.083	2080.81755
437.578	2065.95068
438.073	1944.21766
438.568	1862.07382
439.062	1820.49433
439.557	1732.75234
440.051	1674.56042
440.546	1639.56855
441.04	1623.75352
441.534	1606.9144
442.028	1597.73799
442.522	1535.66024
443.015	1451.21531
443.509	1468.63088
444.002	1459.64058
444.496	1377.17806
444.989	1400.54167
445.482	1380.58332
445.975	1367.35392
446.468	1359.15549
446.961	1355.16009
447.454	1273.15883
447.947	1304.37389
448.439	1244.37701
448.931	1277.22842
449.424	1264.51607
449.916	1313.44973
450.408	1244.17681
450.9	1221.31449
451.392	1183.38985
451.884	1202.13702
452.375	1107.20459
452.867	1095.94687
453.358	1122.02711
453.849	1064.7958
454.341	1095.9579
454.832	1076.83183
455.323	1115.23283
455.814	990.84378
456.304	1025.91899
456.795	981.82744
457.285	986.75574
457.776	1070.94398
458.266	1040.99828
458.756	935.83026
459.247	969.91029
459.737	964.92927
460.226	1031.89236
460.716	969.9085
461.206	853.72618
461.695	870.82035
462.185	934.83906
462.674	855.64114
463.163	871.63018
463.653	937.62233
464.142	866.77287
464.63	819.6928
465.119	820.61735
465.608	876.72068
466.096	782.43775
466.585	799.55044
467.073	762.5464
467.561	767.58451
468.05	704.4084
468.538	754.59413
469.026	711.46739
469.513	733.32016
470.001	770.51362
470.489	724.49459
470.976	736.48678
471.463	720.56596
471.951	676.48014
472.438	597.24947
472.925	642.33459
473.412	606.31109
473.899	657.32183
474.385	604.32067
474.872	630.29856
475.359	611.34077
475.845	592.08072
476.331	581.0957
476.817	565.2371
477.303	565.17718
477.789	490.0643
478.275	521.1756
478.761	480.04121
479.247	554.10585
479.732	518.17667
480.218	509.22151
480.703	499.12176
481.188	513.00133
481.673	487.0198
482.158	509.99476
482.643	462.08816
483.128	529.11524
483.612	506.09725
484.097	413.92522
484.581	455.9676
485.066	482.08149
485.55	467.94469
486.034	402.8078
486.518	447.98818
487.002	367.83706
487.486	366.8336
487.969	351.80283
488.453	335.78776
488.936	378.79425
489.42	404.82867
489.903	340.79874
490.386	356.68732
490.869	402.81711
491.352	295.67531
491.835	350.66924
492.318	307.65375
492.8	383.73643
493.283	349.84108
493.765	332.7696
494.247	322.70876
494.73	338.70395
495.212	270.61175
495.694	352.78064
496.175	250.57748
496.657	330.73825
497.139	315.50523
497.62	291.66723
498.102	293.69572
498.583	222.52645
499.064	337.70733
499.545	307.66341
500.026	324.6928
500.507	258.5691
500.988	308.73232
501.469	263.62835
501.949	250.59329
502.43	299.68612
502.91	313.62794
503.39	263.62498
503.87	298.67052
504.35	252.56563
504.83	288.59875
505.31	266.61395
505.79	214.48922
506.269	255.56095
506.749	214.47284
507.228	238.53969
507.707	278.59187
508.187	278.63499
508.666	255.60737
509.145	222.50157
509.623	198.45009
510.102	203.47647
510.581	256.59322
511.059	275.66328
511.538	216.53953
512.016	230.53213
512.494	235.54445
512.972	240.55372
513.45	229.51559
513.928	213.50189
514.406	243.57435
514.884	233.58083
515.361	225.52046
515.839	239.53039
516.316	213.50189
516.793	226.5518
517.27	253.58476
517.747	231.57334
518.224	209.46652
518.701	217.46351
519.178	208.5054
519.654	251.57137
520.131	196.47232
520.607	195.46323
521.083	164.36328
521.56	221.50369
522.036	170.36131
522.512	250.59444
522.987	264.61054
523.463	217.49797
523.939	239.57276
524.414	208.46131
524.89	223.51481
525.365	226.49288
525.84	210.48972
526.315	233.54517
526.79	211.46104
527.265	214.47916
527.74	194.4581
528.215	168.38298
528.689	159.3411
529.164	154.32345
529.638	154.38273
530.112	144.33264
530.587	187.38938
531.061	192.4525
531.534	162.38225
532.008	191.4525
532.482	238.52718
532.956	173.43143
533.429	261.61402
533.903	152.32658
534.376	169.36505
534.849	175.39273
535.322	234.53278
535.795	136.32314
536.268	214.50238
536.741	137.31993
537.213	207.46148
537.686	186.44381
538.158	210.46323
538.631	212.49808
539.103	205.44945
539.575	162.32613
540.047	181.38461
540.519	205.47571
540.991	197.46744
541.463	170.39988
541.934	196.43053
542.406	219.51
542.877	156.34527
543.348	200.46989
543.82	188.44565
544.291	214.48449
544.762	240.55152
545.233	282.68569
545.703	185.4015
546.174	242.54118
546.645	235.54985
547.115	246.57299
547.585	289.63467
548.056	315.73844
548.526	326.73501
548.996	317.72071
549.466	258.60377
549.935	333.75493
550.405	304.63539
550.875	317.71633
551.344	299.68062
551.814	344.74478
552.283	368.75346
552.752	350.77556
553.221	390.80501
553.69	409.86184
554.159	377.88512
554.628	403.8533
555.096	405.9675
555.565	375.77735
556.033	430.95477
556.502	376.85395
556.97	406.8418
557.438	374.82562
557.906	401.88503
558.374	407.88135
558.842	440.979
559.31	432.8961
559.777	436.99218
560.245	419.89377
560.712	432.9173
561.18	460.93671
561.647	455.92884
562.114	496.03799
562.581	505.13852
563.048	505.05383
563.514	567.29047
563.981	554.14373
564.448	671.32959
564.914	649.33149
565.381	641.29492
565.847	688.40367
566.313	704.42466
566.779	723.40809
567.245	700.41461
567.711	735.53054
568.176	784.49996
568.642	823.78218
569.108	805.70168
569.573	804.585
570.038	873.50403
570.504	948.75757
570.969	913.90155
571.434	979.76435
571.899	978.90509
572.363	1065.95295
572.828	1100.00435
573.293	1130.03541
573.757	1093.01911
574.222	1109.9556
574.686	1157.08051
575.15	1113.1399
575.614	1247.26691
576.078	1183.16641
576.542	1233.14904
577.006	1202.08984
577.469	1193.30941
577.933	1195.10434
578.396	1150.14951
578.86	1169.15567
579.323	1202.26571
579.786	1194.97811
580.249	1157.14513
580.712	1097.14131
581.175	1069.13565
581.637	1056.92817
582.1	1070.84112
582.563	1047.75698
583.025	962.94122
583.487	1066.71385
583.95	911.60139
584.412	954.62
584.874	930.89543
585.336	841.69334
585.797	915.63615
586.259	862.6995
586.721	846.67962
587.182	788.55342
587.643	764.49053
588.105	775.57603
588.566	771.36111
589.027	777.64674
589.488	689.38376
589.949	701.49523
590.41	658.12949
590.87	793.55048
591.331	687.30742
591.791	722.4538
592.252	640.32157
592.712	585.25994
593.172	623.25793
593.632	671.30666
594.092	583.16087
594.552	647.23057
595.011	572.1762
595.471	595.2046
595.931	609.22343
596.39	491.08117
596.849	507.07674
597.308	500.96767
597.768	530.25147
598.227	510.11909
598.685	489.01857
599.144	490.05843
599.603	454.9808
600.062	424.82647
600.52	534.09152
600.978	443.96993
601.437	422.89138
601.895	500.97462
602.353	469.94482
602.811	522.06791
603.269	436.96246
603.727	422.94362
604.184	422.89372
604.642	481.08742
605.099	468.00521
605.557	427.9664
606.014	504.98615
606.471	439.02287
606.928	505.0207
607.385	504.15775
607.842	474.99857
608.299	525.11406
608.755	484.0762
609.212	530.06863
609.668	495.01829
610.125	516.13323
610.581	485.04067
611.037	436.90278
611.493	462.99295
611.949	490.09497
612.405	508.93429
612.861	459.97143
613.316	436.96889
613.772	478.00158
614.227	525.14746
614.683	464.89885
615.138	457.98791
615.593	424.91286
616.048	518.07407
616.503	455.0185
616.958	497.14097
617.412	421.92916
617.867	475.97275
618.321	469.88097
618.776	456.92138
619.23	444.96043
619.684	447.91707
620.138	465.97595
620.592	431.9699
621.046	429.93968
621.5	422.94324
621.954	453.91847
622.407	480.9672
622.861	441.99077
623.314	424.88697
623.768	435.95041
624.221	434.77971
624.674	416.89103
625.127	409.88303
625.58	356.74902
626.033	379.77124
626.485	362.81316
626.938	399.8854
627.39	438.94543
627.843	380.8178
628.295	384.82569
628.747	415.91898
629.199	354.75595
629.651	299.65082
630.103	349.7519
630.555	320.63442
631.006	339.74195
631.458	342.75752
631.909	285.60664
632.361	299.65442
632.812	273.60306
633.263	313.641
633.714	299.59819
634.165	293.66804
634.616	240.54511
635.067	311.64642
635.518	270.61125
635.968	292.54076
636.419	351.7172
636.869	304.68261
637.319	262.58131
637.769	301.64097
638.219	263.59311
638.669	187.43154
639.119	205.47439
639.569	254.58369
640.019	248.5491
640.468	266.56879
640.918	214.48981
641.367	225.48456
641.816	272.57557
642.265	264.58867
642.714	186.4139
643.163	273.6018
643.612	243.57257
644.061	258.52658
644.51	256.56161
644.958	234.49625
645.406	247.56635
645.855	207.48605
646.303	198.44297
646.751	227.50586
647.199	231.50325
647.647	199.4475
648.095	175.38805
648.543	228.44335
648.99	245.56514
649.438	240.5325
649.885	224.53896
650.333	263.48474
650.78	180.42307
651.227	198.46972
651.674	210.46284
652.121	231.54599
652.568	232.5474
653.015	147.35579
653.461	190.4382
653.908	218.48228
654.354	209.48077
654.801	185.42114
655.247	233.48365
655.693	143.36423
656.139	219.50377
656.585	195.45107
657.031	166.38026
657.477	224.47068
657.922	160.35442
658.368	207.49173
658.813	178.39281
659.259	199.46726
659.704	231.52691
660.149	200.44579
660.594	180.41497
661.039	186.41098
661.484	212.48445
661.929	177.40179
662.373	124.30559
662.818	173.41619
663.262	202.47255
663.707	183.45239
664.151	198.46718
664.595	191.44778
665.039	192.4618
665.483	173.4283
665.927	182.41422
666.371	225.50949
666.814	210.48123
667.258	188.43945
667.701	218.44635
668.145	212.50932
668.588	278.65668
669.031	163.37331
669.474	169.39435
669.917	179.38003
670.36	213.51318
670.803	246.5696
671.245	138.27564
671.688	213.49974
672.13	220.47857
672.573	166.40803
673.015	204.47517
673.457	187.39354
673.899	221.51446
674.341	197.45877
674.783	167.38922
675.225	187.44611
675.666	224.5277
676.108	179.37455
676.549	173.39095
676.991	182.38648
677.432	224.42478
677.873	194.42758
678.314	229.52298
678.755	259.61026
679.196	200.4408
679.637	163.37915
680.078	204.45922
680.518	203.44882
680.959	194.446
681.399	201.48024
681.839	179.42096
682.28	221.52842
682.72	158.35115
683.16	243.58079
683.6	220.48
684.039	188.37377
684.479	210.49972
684.919	241.54239
685.358	196.47106
685.798	157.39791
686.237	184.42419
686.676	179.39129
687.115	262.58735
687.554	284.64425
687.993	219.46393
688.432	188.41383
688.871	254.55441
689.309	241.5526
689.748	222.44075
690.186	157.35639
690.625	257.5746
691.063	166.38392
691.501	272.63952
691.939	291.69496
692.377	170.39925
692.815	273.63449
693.253	214.48863
693.69	217.45426
694.128	233.54132
694.565	222.50362
695.003	260.63386
695.44	247.55771
695.877	255.57084
696.314	213.42811
696.751	260.55836
697.188	285.62404
697.625	182.39204
698.061	255.5807
698.498	234.52761
698.934	227.51862
699.371	234.52566
699.807	201.45571
700.243	251.57645
700.679	237.50228
701.115	251.55609
701.551	253.55772
701.987	209.43597
702.422	248.56351
702.858	290.65279
703.294	351.74809
703.729	229.53203
704.164	214.48902
704.599	247.52347
705.035	254.53983
705.47	262.60351
705.904	207.459
706.339	289.62398
706.774	271.5999
707.209	275.60469
707.643	237.54015
708.078	231.53604
708.512	254.60604
708.946	219.4953
709.38	258.58124
709.814	234.50318
710.248	277.64099
710.682	257.58597
711.116	254.58812
711.549	191.46922
711.983	198.43822
712.416	306.68174
712.85	224.52975
713.283	249.55764
713.716	217.51409
714.149	230.50628
714.582	264.55962
715.015	161.38129
715.448	264.63086
715.881	258.52107
716.313	244.54047
716.746	247.55475
717.178	201.4631
717.61	296.71001
718.043	221.52074
718.475	207.48073
718.907	261.61713
719.339	223.48107
719.77	238.5421
720.202	241.57381
720.634	261.60708
721.065	248.55322
721.497	259.60029
721.928	198.46337
722.359	201.46901
722.79	236.5369
723.221	209.49572
723.652	231.55907
724.083	230.49011
724.514	251.54473
724.945	230.51116
725.375	258.56981
725.806	227.53217
726.236	197.48253
726.666	241.53794
727.096	222.51689
727.526	238.58434
727.956	216.46987
728.386	228.53127
728.816	196.48159
729.246	241.56521
729.675	190.44361
730.105	217.50515
730.534	250.54961
730.964	198.47207
731.393	237.55018
731.822	229.55736
732.251	209.50678
732.68	242.52844
733.109	269.62593
733.537	265.61225
733.966	184.44122
734.395	230.50373
734.823	220.45983
735.251	242.54988
735.68	179.42277
736.108	158.38003
736.536	207.46072
736.964	190.41999
737.392	256.60425
737.82	207.46988
738.247	223.50353
738.675	209.46613
739.102	182.43493
739.53	240.58707
739.957	217.53643
740.384	159.36736
740.811	133.31948
741.238	200.46879
741.665	219.48945
742.092	130.28784
742.519	152.36407
742.945	235.54208
743.372	244.57459
743.798	187.45837
744.225	186.41973
744.651	135.32613
745.077	163.39049
745.503	154.35702
745.929	187.4336
746.355	200.46291
746.781	173.40685
747.207	175.39853
747.632	183.43606
748.058	238.5696
748.483	224.48686
748.908	159.3812
749.334	207.48662
749.759	170.38879
750.184	211.4844
750.609	164.38531
751.033	181.40235
751.458	200.42229
751.883	188.44135
752.307	139.31515
752.732	194.47544
753.156	124.29508
753.58	153.34576
754.005	116.28166
754.429	204.46072
754.853	164.39266
755.277	176.40008
755.7	164.39072
756.124	138.33117
756.548	155.35113
756.971	180.41977
757.394	123.30407
757.818	165.40939
758.241	167.40784
758.664	160.38834
759.087	160.34598
759.51	136.32302
759.933	139.32448
760.356	159.39537
760.778	167.39335
761.201	154.35659
761.623	80.18488
762.046	126.28306
762.468	153.35083
762.89	110.25935
763.312	149.35096
763.734	123.28656
764.156	135.32144
764.578	145.31617
765	124.29168
765.421	91.22637
765.843	118.29902
766.264	75.17246
766.686	90.21656
767.107	109.25555
767.528	129.32089
767.949	147.3586
768.37	128.30671
768.791	130.29947
769.212	71.17488
769.632	98.22278
770.053	80.20352
770.473	88.20555
770.894	69.16499
771.314	154.34667
771.734	100.2252
772.154	100.24708
772.575	112.2483
772.994	92.20124
773.414	116.26519
773.834	76.18391
774.254	107.25203
774.673	153.35926
775.093	135.32391
775.512	92.22053
775.931	121.29638
776.351	92.22288
776.77	132.31231
777.189	96.22062
777.607	107.26433
778.026	148.35368
778.445	95.23425
778.864	37.09164
779.282	86.19811
779.701	62.15145
780.119	94.23115
780.537	63.15254
780.955	65.15969
781.373	93.22212
781.791	125.2729
782.209	88.19111
782.627	50.12877
783.045	92.20141
783.462	49.12216
783.88	54.13665
784.297	39.09596
784.715	53.13357
785.132	50.11706
785.549	70.16978
785.966	87.212
786.383	134.31814
786.8	127.28196
787.217	135.30968
787.633	97.23663
788.05	103.22973
788.466	107.23865
788.883	83.20729
789.299	51.1176
789.715	145.33835
790.131	111.26572
790.547	45.1092
790.963	73.17515
791.379	55.13542
791.795	51.11144
792.21	94.20978
792.626	77.17472
793.041	69.16455
793.457	35.08369
793.872	89.19941
794.287	114.26575
794.702	43.10121
795.117	59.14312
795.532	70.17162
795.947	52.11941
796.362	53.11977
796.776	81.17857
797.191	97.2291
797.605	24.05575
798.02	78.1829
798.434	113.23991
798.848	73.17655
799.262	17.04124
799.676	128.29827
800.09	87.20604
800.504	85.19749
800.918	76.16765
801.331	-5.01255
801.745	81.17759
802.158	30.07232
802.572	112.25996
802.985	111.25391
803.398	81.18514
803.811	21.0515
804.224	55.13066
804.637	100.22953
805.05	81.17864
805.462	73.17182
805.875	33.08373
806.288	41.09673
806.7	-3.0073
807.112	35.07784
807.525	24.05663
807.937	20.04834
808.349	47.11324
808.761	137.32244
809.173	62.14584
809.584	90.21228
809.996	5.01194
810.408	72.182
810.819	47.10712
811.231	128.32907
811.642	124.2952
812.053	174.4021
812.464	130.29276
812.875	155.3791
813.286	75.1884
813.697	89.19357
814.108	65.15221
814.519	131.27933
814.929	70.17169
815.34	18.04198
815.75	123.30184
816.16	52.12356
816.571	60.15026
816.981	44.09901
817.391	80.18348
817.801	57.13749
818.211	59.13507
818.62	91.21126
819.03	81.19005
819.44	34.08469
819.849	29.07014
820.259	71.17314
820.668	51.12186
821.077	78.1884
821.486	95.21565
821.895	55.129
822.304	68.17379
822.713	56.12689
823.122	97.23132
823.531	12.02719
823.939	77.18116
824.348	77.1784
824.756	63.15116
825.164	106.25361
825.573	68.16455
825.981	66.15652
826.389	63.1522
826.797	126.30663
827.205	81.17939
827.612	61.14408
828.02	56.12575
828.428	79.19322
828.835	76.1945
829.243	61.13858
829.65	107.25654
830.057	73.16907
830.464	121.28446
830.871	114.26093
831.278	55.12814
831.685	51.10865
832.092	45.10517
832.499	128.26564
832.905	33.08035
833.312	57.12207
833.718	113.27071
834.124	94.20518
834.531	44.10603
834.937	99.24438
835.343	71.16274
835.749	72.15829
836.155	72.18181
836.561	35.0834
836.966	80.18657
837.372	58.14157
837.777	101.24151
838.183	86.18071
838.588	65.15643
838.993	80.18671
839.399	44.10439
839.804	35.0827
840.209	60.14928
840.613	61.12951
841.018	29.07075
841.423	53.13146
841.828	71.17372
842.232	68.15871
842.637	104.23632
843.041	15.03761
843.445	58.13898
843.849	52.1247
844.253	98.22097
844.657	88.21399
845.061	123.26899
845.465	39.09097
845.869	67.149
846.272	95.22229
846.676	47.10734
847.079	59.14597
847.483	102.24208
847.886	89.20465
848.289	89.2318
848.692	51.12367
849.095	106.24096
849.498	90.21483
849.901	65.14119
850.304	40.09196
850.707	50.12254
851.109	85.2048
851.512	74.17495
851.914	40.09829
852.316	56.13821
852.718	83.21171
853.121	81.1902
853.523	69.15307
853.925	67.17048
854.326	60.14552
854.728	87.21555
855.13	33.08343
855.531	69.15847
855.933	76.17256
856.334	56.13572
856.736	55.11926
857.137	92.20575
857.538	71.17294
857.939	75.18057
858.34	68.15702
858.741	88.21998
859.142	77.17578
859.542	63.16171
859.943	55.13146
860.343	26.06282
860.744	81.18894
861.144	94.22103
861.544	52.12208
861.945	23.05676
862.345	81.18842
862.745	66.15887
863.145	88.19631
863.544	90.21853
863.944	76.17144
864.344	11.02613
864.743	92.21759
865.143	86.21397
865.542	27.0595
865.941	72.17167
866.34	53.12017
866.74	93.24022
867.139	117.2699
867.537	21.05127
867.936	109.25054
868.335	30.07369
868.734	50.12359
869.132	51.11205
869.531	73.16665
869.929	88.19184
870.327	98.22359
870.726	65.15382
871.124	119.26057
871.522	16.0394
871.92	61.14452
872.318	76.17633
872.715	32.07524
873.113	70.16235
873.511	40.09577
873.908	30.07464
874.306	77.18524
874.703	60.14273
875.1	20.04884
875.497	39.08961
875.894	82.19611
876.291	71.16737
876.688	61.1518
877.085	71.16163
877.482	52.12522
877.878	58.13601
878.275	45.11068
878.671	45.09262
879.068	80.18429
879.464	120.27467
879.86	53.12021
880.256	52.12122
880.652	71.17333
881.048	64.15037
881.444	51.1146
881.84	34.08339
882.236	37.08969
882.631	107.25135
883.027	50.11573
883.422	88.21391
883.817	31.07599
884.213	85.20913
884.608	88.2111
885.003	7.0162
885.398	64.15406
885.793	28.06763
886.188	14.03366
886.582	73.17788
886.977	63.14197
887.371	70.16856
887.766	34.08222
888.16	18.04269
888.554	63.14822
888.949	59.14226
889.343	86.19922
889.737	18.04715
890.131	30.07276
890.525	90.22196
890.918	-7.01713
891.312	60.1359
891.706	66.1663
892.099	110.26569
892.492	85.17218
892.886	63.14736
893.279	42.10297
893.672	62.15297
894.065	97.23203
894.458	42.10072
894.851	68.15827
895.244	40.09858
895.637	69.15962
896.029	93.21829
896.422	32.07436
896.814	51.12148
897.206	68.15727
897.599	122.28563
897.991	42.09841
898.383	50.11362
898.775	77.16754
899.167	111.24921
899.559	66.15881
899.951	79.17562
900.342	48.11637
900.734	73.17815
901.125	45.1132
901.517	71.16724
901.908	56.12653
902.299	54.12727
902.69	91.20632
903.082	103.23703
903.473	113.26109
903.863	52.12697
904.254	102.22745
904.645	68.15977
905.036	91.21468
905.426	66.14162
905.817	68.15858
906.207	-19.0435
906.597	94.21126
906.987	51.12627
907.378	102.24757
907.768	63.16115
908.158	47.10985
908.547	57.14406
908.937	2.00492
909.327	52.12089
909.717	58.13903
910.106	47.10782
910.495	62.14664
910.885	85.20658
911.274	100.2377
911.663	47.11376
912.052	61.14245
912.441	103.25201
912.83	56.12182
913.219	58.14562
913.608	86.2019
913.997	37.09046
914.385	106.24018
914.774	30.07024
915.162	86.19772
915.55	56.12875
915.939	60.14683
916.327	66.15652
916.715	108.26685
917.103	68.15715
917.491	42.0996
917.878	84.19651
918.266	11.02757
918.654	69.17077
919.041	56.14297
919.429	29.06586
919.816	61.14831
920.203	85.19873
920.591	58.1384
920.978	78.1824
921.365	44.11205
921.752	31.06991
922.139	84.17261
922.525	46.1066
922.912	65.15108
923.299	47.1126
923.685	5.01256
924.072	20.04319
924.458	55.13156
924.844	63.14961
925.231	41.09057
925.617	49.12154
926.003	74.18069
926.389	58.14051
926.774	49.11904
927.16	38.09071
927.546	82.20409
927.931	29.06934
928.317	64.1394
928.702	92.20558
929.088	100.23008
929.473	64.15784
929.858	84.19767
930.243	87.20125
930.628	78.18341
931.013	34.08141
931.398	95.20292
931.783	53.13299
932.167	90.2122
932.552	54.12954
932.937	70.16517
933.321	60.14596
933.705	34.08169
934.09	41.09759
934.474	66.14803
934.858	9.02274
935.242	35.07758
935.626	34.08459
936.009	86.2221
936.393	99.24412
936.777	78.19279
937.16	62.15667
937.544	81.17827
937.927	68.16666
938.311	114.26156
938.694	95.24146
939.077	63.14423
939.46	12.02781
939.843	58.11165
940.226	24.05923
940.609	109.23969
940.991	49.11927
941.374	79.18572
941.757	78.18298
942.139	78.16715
942.522	94.20926
942.904	61.14038
943.286	71.17223
943.668	91.22826
944.05	73.17215
944.432	66.15525
944.814	59.13773
945.196	58.1368
945.578	104.239
945.959	32.07121
946.341	82.18792
946.722	43.0961
947.104	90.20467
947.485	67.14875
947.866	69.16826
948.247	61.14942
948.628	31.07126
949.009	43.10623
949.39	47.11165
949.771	3.00656
950.152	73.17155
950.532	78.18911
950.913	93.21282
951.293	78.20485
951.674	51.11831
952.054	96.23143
952.434	77.18313
952.814	39.08792
953.194	70.17347
953.574	83.19391
953.954	37.08338
954.334	87.20914
954.714	16.0379
955.093	126.2928
955.473	93.22458
955.853	71.17662
956.232	44.11661
956.611	71.16006
956.99	51.12386
957.37	51.12414
957.749	36.08104
958.128	79.19178
958.506	80.19948
958.885	21.05104
959.264	49.11703
959.643	107.23163
960.021	57.13666
960.4	76.16329
960.778	47.10933
961.156	3.00726
961.535	59.12974
961.913	86.19241
962.291	68.16992
962.669	49.1202
963.047	70.17245
963.424	77.19113
963.802	97.22759
964.18	28.06717
964.557	36.07898
964.935	55.12445
965.312	64.16137
965.69	35.08356
966.067	37.08552
966.444	-14.03283
966.821	67.16612
967.198	19.04387
967.575	90.20898
967.952	72.16102
968.329	69.16164
968.705	158.31705
969.082	73.18239
969.458	26.06104
969.835	78.18104
970.211	53.13251
970.587	92.21885
970.963	68.16573
971.339	47.11908
971.715	72.17246
972.091	69.16228
972.467	16.03796
972.843	68.16375
973.219	108.24262
973.594	53.13371
973.97	59.13023
974.345	71.163
974.721	27.06189
975.096	123.28396
975.471	38.08607
975.846	66.15016
976.221	49.11998
976.596	90.20906
976.971	80.19009
977.346	12.02666
977.72	45.10978
978.095	88.21735
978.469	83.18742
978.844	87.20724
979.218	74.17217
979.593	70.15906
979.967	19.04373
980.341	63.139
980.715	98.23599
981.089	70.16754
981.463	78.17011
981.837	74.17508
982.21	48.10357
982.584	49.11407
982.957	61.14714
983.331	59.13094
983.704	111.26237
984.078	51.12036
984.451	32.07527
984.824	78.18262
985.197	34.07804
985.57	1.00239
985.943	33.07685
986.316	30.06966
986.688	61.14027
987.061	103.22935
987.434	103.26003
987.806	17.03912
988.179	50.11233
988.551	74.17874
988.923	58.1359
989.295	85.2013
989.667	68.15777
990.039	97.23238
990.411	39.08443
990.783	52.11249
991.155	33.07667
991.527	92.21075
991.898	91.21735
992.27	48.11532
992.641	107.25311
993.012	52.11355
993.384	57.12918
993.755	36.08911
994.126	116.26647
994.497	67.15733
994.868	107.22865
995.239	70.16132
995.61	43.10427
995.98	52.12079
996.351	111.26298
996.722	83.1852
997.092	69.15676
997.462	81.18238
997.833	76.16961
998.203	47.10738
998.573	52.12489
998.943	88.19704
999.313	71.16339
999.683	56.12911
1000.053	35.07512
1000.423	50.11541
1000.792	32.07912
1001.162	55.12869
1001.531	83.1955
1001.901	53.12601
1002.27	66.13679
1002.639	30.07336
1003.009	58.13137
1003.378	32.07915
1003.747	49.10988
1004.116	56.12782
1004.485	56.12782
1004.853	0
1005.222	18.04298
1005.591	68.1532
1005.959	58.1251
1006.328	49.10566
1006.696	39.08982
1007.064	12.02889
1007.433	35.08344
1007.801	68.15633
1008.169	47.11273
1008.537	89.18565
1008.905	57.12776
1009.273	49.11506
1009.64	35.08135
1010.008	36.0821
1010.375	63.14313
1010.743	53.11262
1011.11	125.28479
1011.478	66.15749
1011.845	70.15558
1012.212	87.18882
1012.579	67.15751
1012.946	58.13003
1013.313	50.1126
1013.68	64.13567
1014.047	35.08
1014.414	31.07011
1014.78	59.14113
1015.147	32.0733
1015.513	87.19917
1015.88	74.17954
1016.246	55.12814
1016.612	80.17173
1016.978	141.32772
1017.344	82.19364
1017.71	88.20231
1018.076	90.19861
1018.442	102.25091
1018.808	73.17629
1019.174	7.01688
1019.539	24.05048
1019.905	66.14924
1020.27	11.02616
1020.636	66.14851
1021.001	77.17607
1021.366	60.13838
1021.731	86.21459
1022.096	26.06398
1022.461	96.21584
1022.826	60.13733
1023.191	50.12648
1023.556	72.15936
1023.92	56.13034
1024.285	20.04644
1024.649	46.10728
1025.014	56.13106
1025.378	57.13843
1025.742	48.11322
1026.107	82.17466
1026.471	93.20373
1026.835	45.10707
1027.199	50.1155
1027.562	-4.00886
1027.926	104.23919
1028.29	44.1072
1028.654	57.12418
1029.017	75.17639
1029.381	51.11699
1029.744	51.12511
1030.107	111.24767
1030.471	82.18777
1030.834	25.05347
1031.197	130.2942
1031.56	77.17145
1031.923	26.06511
1032.286	63.1408
1032.648	54.12136
1033.011	110.24173
1033.374	71.15659
1033.736	23.05865
1034.099	48.11221
1034.461	21.05171
1034.823	46.11056
1035.185	13.0313
1035.548	81.18864
1035.91	25.0574
1036.272	96.2075
1036.634	83.19299
1036.995	54.11997
1037.357	71.16574
1037.719	63.1466
1038.08	120.27102
1038.442	26.05913
1038.803	33.07464
1039.165	49.11806
1039.526	37.08586
1039.887	62.14128
1040.248	77.1844
1040.609	-12.0284
1040.97	74.17169
1041.331	74.18056
1041.692	75.16977
1042.053	78.16686
1042.413	60.13208
1042.774	102.23562
1043.134	62.13854
1043.495	69.16575
1043.855	86.20072
1044.215	87.20413
1044.576	51.11756
1044.936	56.1213
1045.296	102.24152
1045.656	40.09303
1046.016	57.13049
1046.375	60.13899
1046.735	66.14504
1047.095	56.12503
1047.454	87.17067
1047.814	61.1401
1048.173	82.18285
1048.533	55.11993
1048.892	72.16546
1049.251	53.12644
1049.61	12.02856
1049.969	26.05858
1050.328	70.14333
1050.687	53.12241
1051.046	72.16626
1051.405	27.06397
1051.763	61.13515
1052.122	17.04084
1052.48	74.17359
1052.839	69.15733
1053.197	51.11441
1053.555	55.11626
1053.914	69.16031
1054.272	4.00911
1054.63	27.0637
1054.988	93.21163
1055.345	26.05249
1055.703	88.20142
1056.061	81.20179
1056.419	90.22653
1056.776	12.02751
1057.134	31.06731
1057.491	78.18647
1057.848	64.15125
1058.206	53.11674
1058.563	58.1208
1058.92	89.19274
1059.277	54.12747
1059.634	71.15613
1059.991	120.27168
1060.348	42.09098
1060.704	130.29899
1061.061	56.12115
1061.418	51.11854
1061.774	69.16265
1062.131	49.12701
1062.487	45.09979
1062.843	69.16417
1063.199	70.16639
1063.555	77.17103
1063.911	21.05081
1064.267	92.17625
1064.623	79.185
1064.979	46.0999
1065.335	84.18847
1065.691	39.08799
1066.046	133.27152
1066.402	68.14535
1066.757	68.16431
1067.112	56.1307
1067.468	74.1687
1067.823	20.04517
1068.178	25.05765
1068.533	105.24067
1068.888	81.18253
1069.243	48.11357
1069.598	23.05333
1069.952	83.18113
1070.307	66.15706
1070.662	93.21223
1071.016	92.19767
1071.371	76.16477
1071.725	71.1598
1072.079	65.14941
1072.434	68.15827
1072.788	26.05851
1073.142	52.1226
1073.496	76.17074
1073.85	69.15147
1074.203	79.18253
1074.557	91.23481
1074.911	28.06355
1075.265	83.18244
1075.618	60.14009
1075.971	61.13802
1076.325	77.18868
1076.678	18.03952
1077.031	22.04653
1077.385	75.15513
1077.738	30.06448
1078.091	57.1246
1078.444	53.11552
1078.796	53.12537
1079.149	26.06242
1079.502	64.14519
1079.855	43.09595
1080.207	42.0988
1080.56	35.08789
1080.912	25.05836
1081.264	105.24028
1081.617	62.14493
1081.969	58.14125
1082.321	65.15078
1082.673	68.15
1083.025	53.11909
1083.377	45.10091
1083.728	86.18859
1084.08	26.06204
1084.432	43.0988
1084.783	7.01543
1085.135	82.19701
1085.486	94.20449
1085.838	60.14185
1086.189	93.21633
1086.54	47.10669
1086.891	88.21671
1087.242	90.2122
1087.593	68.15502
1087.944	113.24273
1088.295	116.24644
1088.646	109.25525
1088.996	56.12983
1089.347	36.08419
1089.698	15.03455
1090.048	61.15102
1090.398	57.12476
1090.749	77.17316
1091.099	61.14903
1091.449	74.17678
1091.799	59.14135
1092.149	54.12811
1092.499	82.19033
1092.849	45.11019
1093.199	75.17755
1093.548	107.24614
1093.898	12.02886
1094.248	17.04177
1094.597	33.08242
1094.947	39.10081
1095.296	58.13792
1095.645	61.15158
1095.994	90.20492
1096.343	69.16675
1096.692	69.1773
1097.041	35.0934
1097.39	27.06481
1097.739	41.10262
1098.088	81.20654
1098.437	35.09031
1098.785	54.13917
1099.134	8.02026
1099.482	44.11766
1099.83	61.15422
1100.179	75.19157
1100.527	29.07363
1100.875	65.16673
1101.223	73.18771
1101.571	-6.01613
1101.919	62.15968
1102.267	23.06367
1102.615	6.01926
1102.962	-4.01284
1103.31	-1.00321
1103.658	-5.01604
