Data from N3 R4 sample 4_Subt2__5__12-20-51-714.txt Node

Date: Thu Sep 18 12:20:51 PDT 2025
User: uwsun
Spectrometer: HDX01956
Trigger mode: 0
Integration Time (sec): 5.000000E-1
Scans to average: 1
Nonlinearity correction enabled: true
Boxcar width: 0
Storing dark spectrum: false
XAxis mode: Wavelengths
Number of Pixels in Spectrum: 2068
>>>>>Begin Spectral Data<<<<<
194.03	73.20967
194.578	77.24812
195.127	77.2446
195.676	79.2518
196.225	107.28068
196.773	97.267
197.321	123.33782
197.87	206.52069
198.418	229.58078
198.966	261.67339
199.513	253.63068
200.061	197.49573
200.609	254.65681
201.156	247.52942
201.704	258.63578
202.251	238.62203
202.798	238.60627
203.345	282.68106
203.892	205.51252
204.438	261.60516
204.985	284.65705
205.532	218.56549
206.078	241.57777
206.624	302.73705
207.17	316.71742
207.716	257.618
208.262	323.61537
208.808	275.67554
209.354	302.72633
209.899	284.69648
210.445	256.62806
210.99	291.69177
211.535	324.73826
212.08	219.50135
212.625	254.62154
213.17	277.68949
213.715	327.72143
214.259	230.52875
214.804	224.5406
215.348	302.67757
215.892	314.73882
216.436	253.56449
216.98	213.46069
217.524	274.63945
218.068	279.68688
218.612	301.74403
219.155	250.57886
219.698	223.52198
220.242	252.6077
220.785	291.66348
221.328	259.62446
221.871	263.65465
222.414	234.56686
222.956	209.4917
223.499	246.53467
224.041	234.52243
224.583	208.43012
225.126	243.51949
225.668	236.56072
226.21	228.5662
226.751	279.60213
227.293	214.47442
227.835	244.58418
228.376	219.48743
228.918	218.53207
229.459	201.49378
230	233.54773
230.541	224.50403
231.082	273.6455
231.622	216.47826
232.163	225.53099
232.704	291.70558
233.244	229.55611
233.784	228.54005
234.324	301.65323
234.864	256.56161
235.404	278.63295
235.944	262.59869
236.484	266.64534
237.023	220.50758
237.563	249.56406
238.102	321.72862
238.641	263.64225
239.18	253.57825
239.719	253.61691
240.258	255.55647
240.797	268.62152
241.335	238.5646
241.874	306.57122
242.412	320.74825
242.95	281.65849
243.488	220.48305
244.026	259.58624
244.564	286.56728
245.102	312.68013
245.64	248.57628
246.177	250.53967
246.715	283.65824
247.252	256.56398
247.789	374.65016
248.326	271.63431
248.863	260.55596
249.4	298.65071
249.936	334.66837
250.473	310.70636
251.009	248.55277
251.546	281.60775
252.082	266.55597
252.618	255.55482
253.154	300.69709
253.69	218.47886
254.226	278.64547
254.761	296.64032
255.297	302.63401
255.832	255.59079
256.367	236.54168
256.903	260.56221
257.438	265.60299
257.972	267.57648
258.507	246.54967
259.042	298.62423
259.576	326.69224
260.111	255.56919
260.645	291.60593
261.179	294.66558
261.713	308.66372
262.247	280.61814
262.781	282.57451
263.315	250.59055
263.849	286.69411
264.382	291.64524
264.915	259.59696
265.449	258.61322
265.982	298.65264
266.515	297.7044
267.048	293.59869
267.58	253.53009
268.113	279.58353
268.646	227.54359
269.178	265.57462
269.71	326.69164
270.243	359.79367
270.775	309.7666
271.307	236.54775
271.838	324.73408
272.37	242.57896
272.902	290.63405
273.433	298.63776
273.965	277.65267
274.496	278.66811
275.027	292.70414
275.558	260.61845
276.089	259.63107
276.62	271.6635
277.15	297.70549
277.681	258.53901
278.211	304.71502
278.741	288.61876
279.272	267.594
279.802	272.65716
280.332	268.61536
280.861	255.59359
281.391	270.59581
281.921	261.6066
282.45	296.70947
282.98	319.80207
283.509	349.75932
284.038	318.70026
284.567	335.74835
285.096	335.7807
285.625	236.51883
286.153	327.75216
286.682	317.70142
287.21	244.56698
287.739	316.71887
288.267	329.77095
288.795	279.70806
289.323	360.80767
289.851	345.778
290.378	279.60239
290.906	298.70637
291.433	344.82292
291.961	375.81553
292.488	307.73541
293.015	323.73464
293.542	332.8232
294.069	369.87445
294.596	315.7419
295.122	368.84323
295.649	323.67825
296.175	315.73064
296.702	362.84743
297.228	289.67405
297.754	325.7029
298.28	366.80425
298.806	346.79982
299.332	351.75198
299.857	306.67214
300.383	315.7649
300.908	333.78885
301.433	362.85008
301.958	311.68786
302.483	317.7582
303.008	379.90056
303.533	316.78754
304.058	338.75583
304.582	341.774
305.107	332.8331
305.631	342.7433
306.155	369.82089
306.679	366.82315
307.203	327.73139
307.727	355.8061
308.251	380.89512
308.775	414.95621
309.298	369.85112
309.822	347.83753
310.345	394.89663
310.868	460.04049
311.391	428.99717
311.914	396.94546
312.437	430.92697
312.96	412.92013
313.482	372.83459
314.005	363.86786
314.527	398.98605
315.049	382.92458
315.571	445.94222
316.093	425.99738
316.615	387.8848
317.137	425.87351
317.659	454.03273
318.18	407.92003
318.702	502.09365
319.223	410.78816
319.744	440.93306
320.265	454.04064
320.786	476.11597
321.307	469.08646
321.828	443.94086
322.348	458.01154
322.869	473.05583
323.389	500.90664
323.909	464.99382
324.43	459.02916
324.95	523.1074
325.47	528.21635
325.989	519.14293
326.509	532.1002
327.029	569.19183
327.548	517.08513
328.067	580.2932
328.587	563.30455
329.106	540.12027
329.625	587.40678
330.144	591.25653
330.662	601.2889
331.181	540.17906
331.7	561.19835
332.218	598.17891
332.736	603.28819
333.255	620.32884
333.773	623.33672
334.291	618.41375
334.808	630.28576
335.326	618.25895
335.844	708.48896
336.361	625.47461
336.879	620.32999
337.396	732.59141
337.913	715.47236
338.43	711.42669
338.947	663.43181
339.464	664.28411
339.981	703.49237
340.497	729.60064
341.014	696.52525
341.53	703.41387
342.046	759.68886
342.562	757.67815
343.078	756.57536
343.594	726.5389
344.11	778.64564
344.626	801.78676
345.141	789.5827
345.657	811.5992
346.172	786.67343
346.687	745.51358
347.202	827.64376
347.717	814.70009
348.232	805.7676
348.747	851.70251
349.261	853.61293
349.776	892.82696
350.29	866.89085
350.805	896.91272
351.319	909.80611
351.833	916.80019
352.347	907.83724
352.861	966.91727
353.374	943.81294
353.888	965.00649
354.401	908.7627
354.915	962.83225
355.428	998.10501
355.941	937.8549
356.454	954.78451
356.967	949.87518
357.48	1009.90289
357.993	987.05321
358.505	976.00831
359.018	1059.1604
359.53	1039.12145
360.042	1043.92688
360.554	1061.16254
361.066	984.02299
361.578	1089.95912
362.09	1073.10816
362.602	1074.96013
363.113	1125.1589
363.625	1078.00565
364.136	1124.98778
364.647	1240.33527
365.158	1119.12066
365.669	1131.20159
366.18	1157.20029
366.691	1126.98412
367.201	1177.27621
367.712	1177.15862
368.222	1202.20627
368.733	1194.04975
369.243	1239.17537
369.753	1257.27596
370.263	1310.47947
370.773	1207.35871
371.282	1294.42542
371.792	1400.46387
372.301	1352.52952
372.811	1355.80592
373.32	1431.2951
373.829	1447.56608
374.338	1430.36774
374.847	1464.5199
375.356	1612.73983
375.865	1603.41984
376.373	1644.6465
376.882	1732.13527
377.39	1696.90662
377.898	1817.09098
378.407	1807.77376
378.915	1925.71458
379.423	2047.02809
379.93	2136.07914
380.438	2089.1964
380.946	2271.14732
381.453	2321.31934
381.96	2395.32659
382.468	2623.31525
382.975	2854.58863
383.482	2885.07778
383.989	2890.89166
384.495	3045.30612
385.002	3184.69972
385.509	3370.40184
386.015	3594.4306
386.521	3765.97418
387.028	3950.88083
387.534	3967.49611
388.04	4168.17822
388.546	4166.5875
389.051	4471.40244
389.557	4756.56694
390.063	5214.13399
390.568	5407.45823
391.073	5454.89048
391.578	5741.39295
392.084	5866.84725
392.589	6078.46652
393.093	6601.9351
393.598	7151.70631
394.103	7791.11894
394.607	8559.8667
395.112	8952.47818
395.616	9683.92337
396.12	10544.6068
396.624	11536.67059
397.128	12484.67371
397.632	13915.04448
398.136	15170.59879
398.639	16157.38969
399.143	17991.795
399.646	20245.25607
400.15	22439.37172
400.653	25053.33224
401.156	28041.80999
401.659	32866.32438
402.162	39620.84043
402.664	52390.58277
403.167	62428.53024
403.67	63769.22307
404.172	63919.58413
404.674	63858.43483
405.176	63738.15102
405.678	63977.72923
406.18	64011.81569
406.682	63863.44694
407.184	63926.60148
407.686	63841.39382
408.187	64025.8516
408.688	63892.51763
409.19	63833.37461
409.691	63977.72923
410.192	63842.08848
410.693	55880.8199
411.194	50141.29282
411.694	47703.1337
412.195	43925.84859
412.696	39576.2775
413.196	36949.10549
413.696	35777.14921
414.196	36270.11372
414.696	35769.65852
415.196	33822.41538
415.696	30819.03028
416.196	25076.01191
416.695	19344.95661
417.195	16660.58766
417.694	15846.30815
418.194	15000.38271
418.693	13968.89747
419.192	13324.50666
419.691	13174.5881
420.19	12791.63097
420.688	12386.94971
421.187	11792.97143
421.685	11171.06267
422.184	10161.25178
422.682	8799.01965
423.18	7465.79559
423.678	6576.64646
424.176	6073.75495
424.674	5832.68436
425.172	5528.17852
425.669	5187.67111
426.167	4884.44139
426.664	4514.49565
427.161	4124.78861
427.659	3828.29104
428.156	3597.55503
428.652	3471.67435
429.149	3268.44641
429.646	3092.95708
430.143	2939.38461
430.639	2824.31141
431.135	2622.58693
431.632	2502.06971
432.128	2357.27217
432.624	2236.58453
433.12	2171.94704
433.616	2087.73965
434.111	2012.03478
434.607	1936.01608
435.103	1946.49173
435.598	1839.41429
436.093	1740.75118
436.588	1715.60633
437.083	1628.5198
437.578	1559.56956
438.073	1441.70905
438.568	1466.67934
439.062	1390.16314
439.557	1336.35803
440.051	1309.21308
440.546	1271.19937
441.04	1197.2601
441.534	1133.2991
442.028	1245.33161
442.522	1136.17328
443.015	1076.823
443.509	1102.15767
444.002	1125.20641
444.496	1063.83147
444.989	1049.07152
445.482	1041.10927
445.975	1153.09651
446.468	1016.76836
446.961	1049.81686
447.454	982.79546
447.947	965.90684
448.439	975.98408
448.931	997.86739
449.424	998.10776
449.916	967.95799
450.408	952.79302
450.9	875.79817
451.392	882.90472
451.884	891.71118
452.375	843.78206
452.867	844.59705
453.358	848.63902
453.849	815.46743
454.341	839.59801
454.832	856.5426
455.323	847.80144
455.814	752.48235
456.304	791.56554
456.795	770.50865
457.285	815.51468
457.776	804.5583
458.266	766.56796
458.756	729.49584
459.247	746.54694
459.737	782.63032
460.226	771.5067
460.716	700.46501
461.206	701.46743
461.695	621.37017
462.185	679.41631
462.674	658.32233
463.163	686.34193
463.653	647.2055
464.142	656.4061
464.63	627.35109
465.119	586.21856
465.608	653.34935
466.096	584.12644
466.585	534.10089
467.073	553.17511
467.561	570.2289
468.05	535.11161
468.538	565.24335
469.026	598.26508
469.513	485.92988
470.001	544.12556
470.489	570.21681
470.976	619.28357
471.463	505.14779
471.951	477.08755
472.438	484.03785
472.925	514.09851
473.412	485.07597
473.899	491.02502
474.385	482.0806
474.872	458.98182
475.359	476.07369
475.845	454.85888
476.331	408.80322
476.817	381.86793
477.303	453.9688
477.789	434.95564
478.275	388.9008
478.761	383.84955
479.247	408.8433
479.732	396.92336
480.218	399.97931
480.703	369.85315
481.188	432.86088
481.673	363.78239
482.158	375.75615
482.643	407.97079
483.128	356.7803
483.612	425.93916
484.097	320.73062
484.581	360.78142
485.066	335.77579
485.55	336.70009
486.034	318.65139
486.518	358.80615
487.002	282.65424
487.486	270.6269
487.969	269.62544
488.453	293.69465
488.936	292.62519
489.42	304.63765
489.903	276.6565
490.386	222.44239
490.869	339.69896
491.352	225.52232
491.835	266.51897
492.318	270.57959
492.8	309.60473
493.283	277.67668
493.765	230.54394
494.247	269.5987
494.73	249.52886
495.212	243.5536
495.694	265.59835
496.175	241.55769
496.657	238.54254
497.139	251.4099
497.62	240.55593
498.102	263.62811
498.583	143.34428
499.064	194.42004
499.545	248.54269
500.026	205.44964
500.507	210.46788
500.988	279.66708
501.469	161.39216
501.949	240.57066
502.43	233.54175
502.91	259.52609
503.39	228.54547
503.87	216.49419
504.35	227.51214
504.83	196.41584
505.31	191.44743
505.79	165.38092
506.269	152.34161
506.749	185.41124
507.228	214.48764
507.707	234.50296
508.187	259.59386
508.666	259.61642
509.145	203.46043
509.623	203.46099
510.102	232.54144
510.581	262.6064
511.059	241.58502
511.538	246.61112
512.016	264.60666
512.494	235.54445
512.972	300.68386
513.45	235.52845
513.928	272.63354
514.406	231.54726
514.884	289.71307
515.361	255.58633
515.839	261.57656
516.316	326.75121
516.793	248.60303
517.27	249.57597
517.747	261.64423
518.224	279.61374
518.701	277.58397
519.178	297.70956
519.654	253.57569
520.131	272.64599
520.607	236.55619
521.083	247.53764
521.56	241.54705
522.036	224.47047
522.512	263.62378
522.987	313.7168
523.463	285.64508
523.939	241.57733
524.414	187.41655
524.89	263.60231
525.365	214.4679
525.84	206.48077
526.315	232.54293
526.79	188.41279
527.265	241.53661
527.74	189.44673
528.215	211.47682
528.689	161.34524
529.164	155.32548
529.638	173.42846
530.112	169.38845
530.587	205.42515
531.061	181.42749
531.534	150.35476
532.008	214.50474
532.482	181.40569
532.956	157.39267
533.429	264.62071
533.903	178.38029
534.376	193.41475
534.849	176.39489
535.322	183.42096
535.795	145.34393
536.268	209.49113
536.741	136.31766
537.213	161.36235
537.686	185.4415
538.158	190.42087
538.631	207.48681
539.103	152.33698
539.575	145.29305
540.047	166.35389
540.519	173.404
540.991	161.38467
541.463	150.35421
541.934	143.31762
542.406	174.40881
542.877	215.46998
543.348	160.37885
543.82	164.39057
544.291	189.43007
544.762	177.41188
545.233	233.57175
545.703	212.45744
546.174	179.4055
546.645	192.45303
547.115	214.5016
547.585	183.41085
548.056	249.59126
548.526	233.53533
548.996	255.58704
549.466	224.5277
549.935	257.59164
550.405	275.57848
550.875	275.62675
551.344	223.51543
551.814	312.68013
552.283	306.63532
552.752	312.69684
553.221	317.66506
553.69	378.80195
554.159	319.75745
554.628	345.73977
555.096	340.82234
555.565	297.6264
556.033	386.86492
556.502	278.64394
556.97	330.69585
557.438	296.66411
557.906	341.76207
558.374	362.79145
558.842	330.75102
559.31	333.70603
559.777	390.89578
560.245	352.76178
560.712	370.79628
561.18	375.7784
561.647	321.67524
562.114	422.89919
562.581	433.99232
563.048	461.97311
563.514	505.16352
563.981	427.90807
564.448	516.05895
564.914	514.08617
565.381	585.19676
565.847	513.08761
566.313	539.13138
566.779	606.21263
567.245	533.11778
567.711	612.30886
568.176	606.20871
568.642	647.45316
569.108	649.41828
569.573	676.37229
570.038	684.23708
570.504	773.49492
570.969	690.50764
571.434	772.46414
571.899	729.50324
572.363	820.59541
572.828	839.62972
573.293	774.52078
573.757	896.73689
574.222	817.54926
574.686	863.66846
575.15	911.83695
575.614	970.8868
576.078	907.77622
576.542	903.71014
577.006	872.64772
577.469	840.76295
577.933	856.64031
578.396	790.60766
578.86	798.60777
579.323	870.77305
579.786	867.56446
580.249	825.65576
580.712	766.61247
581.175	772.64858
581.637	757.48559
582.1	707.33316
582.563	714.30591
583.025	712.51838
583.487	721.27132
583.95	647.21505
584.412	702.27228
584.874	632.3744
585.336	681.42112
585.797	659.25526
586.259	635.31797
586.721	579.22029
587.182	619.26814
587.643	576.17326
588.105	563.19951
588.566	593.09485
589.027	558.23844
589.488	538.1176
589.949	537.1856
590.41	564.99361
590.87	564.16181
591.331	552.0845
591.791	540.13224
592.252	550.15832
592.712	497.09029
593.172	542.11441
593.632	604.19467
594.092	487.99281
594.552	537.04827
595.011	488.02212
595.471	561.14447
595.931	507.04209
596.39	500.09895
596.849	555.16656
597.308	503.97278
597.768	552.29794
598.227	518.13476
598.685	554.13759
599.144	561.19369
599.603	565.1897
600.062	589.10157
600.52	625.25158
600.978	590.24977
601.437	633.27347
601.895	680.26742
602.353	646.24686
602.811	707.38667
603.269	669.40284
603.727	710.4912
604.184	739.45499
604.642	730.56756
605.099	794.58724
605.557	786.64664
606.014	806.46342
606.471	858.83551
606.928	911.6725
607.385	891.88933
607.842	887.69776
608.299	935.80873
608.755	959.92412
609.212	967.75688
609.668	1022.85657
610.125	981.94572
610.581	994.90153
611.037	995.80239
611.493	994.89056
611.949	980.97035
612.405	993.60547
612.861	964.81389
613.316	960.89916
613.772	1065.94611
614.227	1093.10337
614.683	1011.70373
615.138	995.90207
615.593	1015.90676
616.048	1030.89477
616.503	961.92902
616.958	945.97606
617.412	1044.0007
617.867	991.79239
618.321	978.60826
618.776	975.73565
619.23	926.79513
619.684	942.71612
620.138	937.76084
620.592	939.89087
621.046	966.87456
621.5	900.81102
621.954	846.56033
622.407	903.64201
622.861	846.74047
623.314	823.56825
623.768	887.7509
624.221	792.2921
624.674	878.69143
625.127	764.52226
625.58	770.471
626.033	820.50021
626.485	686.43631
626.938	781.59329
627.39	703.42944
627.843	703.40608
628.295	719.43281
628.747	674.40991
629.199	647.29212
629.651	645.29884
630.103	604.22816
630.555	570.06255
631.006	583.20828
631.458	582.22259
631.909	499.01085
632.361	531.10328
632.812	583.20235
633.263	563.08612
633.714	574.07373
634.165	469.02919
634.616	485.0447
635.067	556.09083
635.518	493.06333
635.968	474.83805
636.419	517.01489
636.869	443.96625
637.319	445.94963
637.769	435.8993
638.219	416.90872
638.669	421.92605
639.119	362.81149
639.569	401.89428
640.019	468.98853
640.468	388.80771
640.918	405.89124
641.367	325.68485
641.816	379.78319
642.265	439.94333
642.714	336.72436
643.163	405.86803
643.612	382.87565
644.061	321.64578
644.51	368.78823
644.958	375.77075
645.406	354.79421
645.855	330.75618
646.303	344.74638
646.751	353.76606
647.199	355.753
647.647	359.78074
648.095	309.66601
648.543	343.64871
648.99	332.75251
649.438	302.6614
649.885	345.81096
650.333	379.67825
650.78	304.69717
651.227	334.77148
651.674	289.62639
652.121	306.71271
652.568	298.69408
653.015	279.6584
653.461	244.55667
653.908	288.62781
654.354	297.67114
654.801	267.5977
655.247	273.56162
655.693	267.66509
656.139	281.63835
656.585	243.55673
657.031	209.47461
657.477	256.53412
657.922	214.46869
658.368	228.53942
658.813	196.4309
659.259	249.57894
659.704	238.5421
660.149	214.47561
660.594	254.57691
661.039	183.4046
661.484	243.55181
661.929	287.6369
662.373	151.37027
662.818	237.5632
663.262	237.55061
663.707	191.47147
664.151	241.56388
664.595	247.57271
665.039	195.46875
665.483	191.4713
665.927	236.53125
666.371	213.4835
666.814	210.48123
667.258	221.51324
667.701	219.4483
668.145	232.55525
668.588	228.5438
669.031	162.37109
669.474	181.42135
669.917	194.41052
670.36	182.44107
670.803	237.54974
671.245	108.21722
671.688	200.47044
672.13	164.361
672.573	183.4484
673.015	213.49525
673.457	148.31414
673.899	228.53002
674.341	208.48334
674.783	169.39373
675.225	185.4415
675.666	240.56363
676.108	158.33215
676.549	160.36253
676.991	193.40885
677.432	162.31186
677.873	146.32502
678.314	146.33901
678.755	196.46748
679.196	163.36204
679.637	136.31803
680.078	198.44626
680.518	203.44882
680.959	161.37258
681.399	156.37593
681.839	200.46842
682.28	194.46626
682.72	161.3576
683.16	179.43307
683.6	204.4466
684.039	211.41724
684.479	159.38207
684.919	170.38817
685.358	152.36837
685.798	137.34846
686.237	162.37511
686.676	134.29571
687.115	179.40814
687.554	185.42811
687.993	189.40301
688.432	155.34356
688.871	228.5004
689.309	170.39535
689.748	167.33581
690.186	101.23187
690.625	178.40447
691.063	172.39732
691.501	208.49515
691.939	195.47426
692.377	172.40379
692.815	221.51892
693.253	133.30864
693.69	164.34734
694.128	167.39305
694.565	122.28238
695.003	185.45733
695.44	193.44059
695.877	167.38062
696.314	145.29601
696.751	157.34465
697.188	191.42652
697.625	127.2768
698.061	146.33981
698.498	149.34179
698.934	164.37944
699.371	135.30943
699.807	122.28104
700.243	158.36962
700.679	146.31558
701.115	185.41551
701.551	158.35524
701.987	109.23242
702.422	155.35883
702.858	183.42096
703.294	186.41063
703.729	143.33788
704.164	112.26119
704.599	174.37465
705.035	110.24112
705.47	114.27035
705.904	102.23112
706.339	154.34212
706.774	138.31396
707.209	147.33193
707.643	166.38377
708.078	129.30539
708.512	96.23598
708.946	142.3262
709.38	160.36769
709.814	173.3769
710.248	153.36276
710.682	162.37645
711.116	195.4568
711.549	118.2938
711.983	157.35045
712.416	153.35167
712.85	114.27535
713.283	149.34056
713.716	137.32958
714.149	86.19502
714.582	145.31536
715.015	132.31436
715.448	146.35675
715.881	206.42102
716.313	169.3802
716.746	115.26528
717.178	168.38962
717.61	133.32891
718.043	108.26007
718.475	120.28348
718.907	122.29622
719.339	148.32442
719.77	172.397
720.202	138.33507
720.634	148.35192
721.065	116.26583
721.497	147.34827
721.928	102.2432
722.359	128.30296
722.79	142.3292
723.221	105.25404
723.652	122.30133
724.083	157.33986
724.514	128.28507
724.945	124.28165
725.375	123.27932
725.806	111.26613
726.236	145.35859
726.666	96.22071
727.096	132.31279
727.526	153.38156
727.956	167.36707
728.386	134.31802
728.816	141.34998
729.246	190.45005
729.675	52.1247
730.105	101.24049
730.534	163.3649
730.964	118.28565
731.393	130.30817
731.822	156.38487
732.251	130.3199
732.68	115.25787
733.109	126.30145
733.537	161.37967
733.966	182.43659
734.395	189.41752
734.823	140.29781
735.251	119.27713
735.68	155.36779
736.108	105.25509
736.536	139.31374
736.964	123.2757
737.392	148.35665
737.82	141.32435
738.247	117.2699
738.675	184.4125
739.102	107.25937
739.53	195.48099
739.957	123.3093
740.384	104.24292
740.811	67.16296
741.238	172.40537
741.665	211.47235
742.092	50.11256
742.519	123.29624
742.945	184.42876
743.372	193.45901
743.798	118.29294
744.225	142.32332
744.651	140.33789
745.077	116.28039
745.503	167.38615
745.929	179.41571
746.355	104.2453
746.781	118.28048
747.207	125.28755
747.632	192.45672
748.058	172.41684
748.483	185.40543
748.908	166.39745
749.334	196.46175
749.759	201.45682
750.184	190.43802
750.609	170.39894
751.033	179.39807
751.458	177.37562
751.883	172.40505
752.307	187.41983
752.732	208.50843
753.156	112.26714
753.58	175.3937
754.005	134.32426
754.429	217.48878
754.853	180.42965
755.277	193.43721
755.7	173.41144
756.124	132.31714
756.548	120.27378
756.971	175.40851
757.394	147.3618
757.818	146.36351
758.241	176.42909
758.664	184.44458
759.087	117.25533
759.51	154.3645
759.933	182.42125
760.356	211.51969
760.778	158.37281
761.201	209.47865
761.623	117.26839
762.046	165.3677
762.468	206.46733
762.89	163.38035
763.312	217.50435
763.734	191.43901
764.156	159.37684
764.578	164.35615
765	221.50999
765.421	166.40728
765.843	152.38284
766.264	175.39434
766.686	141.33599
767.107	178.41167
767.528	184.45311
767.949	195.47142
768.37	211.49756
768.791	180.4105
769.212	143.34754
769.632	171.38296
770.053	111.28083
770.473	164.37733
770.894	114.27024
771.314	179.40088
771.734	168.37307
772.154	163.39807
772.575	171.37444
772.994	166.35742
773.414	152.34497
773.834	149.35559
774.254	153.35715
774.673	195.45412
775.093	174.41438
775.512	113.26979
775.931	180.43606
776.351	170.40579
776.77	132.31231
777.189	133.30338
777.607	138.33896
778.026	154.3676
778.445	124.30413
778.864	87.2135
779.282	137.31238
779.701	133.32057
780.119	131.31992
780.537	83.20021
780.955	166.40018
781.373	79.18919
781.791	166.35927
782.209	119.25672
782.627	115.29281
783.045	66.14528
783.462	134.32889
783.88	90.22628
784.297	121.29319
784.715	144.35696
785.132	108.24998
785.549	94.22696
785.966	125.30243
786.383	93.22255
786.8	181.39734
787.217	149.34084
787.633	141.34114
788.05	84.18809
788.466	157.34654
788.883	142.35085
789.299	105.23951
789.715	125.29283
790.131	112.26806
790.547	106.25428
790.963	134.31778
791.379	68.16703
791.795	132.28348
792.21	130.28797
792.626	84.19033
793.041	98.23241
793.457	93.21991
793.872	71.15967
794.287	84.19697
794.702	50.11752
795.117	124.29712
795.532	109.26531
795.947	98.22296
796.362	106.23696
796.776	114.24957
797.191	99.23374
797.605	86.19732
798.02	75.17597
798.434	127.2688
798.848	140.33431
799.262	56.13485
799.676	140.32546
800.09	83.19672
800.504	76.17689
800.918	60.1328
801.331	9.02253
801.745	104.22691
802.158	77.18398
802.572	116.26903
802.985	76.17507
803.398	67.15357
803.811	29.07101
804.224	60.1424
804.637	73.16847
805.05	75.16562
805.462	103.24101
805.875	52.13149
806.288	102.23778
806.7	17.04121
807.112	43.09547
807.525	97.22563
807.937	29.06998
808.349	95.22681
808.761	91.2161
809.173	101.23577
809.584	94.22154
809.996	40.09486
810.408	60.15199
810.819	67.15209
811.231	106.27356
811.642	157.37138
812.053	149.34604
812.464	104.23546
812.875	97.2398
813.286	138.34272
813.697	96.20848
814.108	68.15914
814.519	135.28761
814.929	118.28684
815.34	43.09979
815.75	88.21735
816.16	32.07633
816.571	77.19224
816.981	54.12126
817.391	54.12449
817.801	68.16369
818.211	112.25367
818.62	76.17696
819.03	77.18081
819.44	55.13647
819.849	32.07735
820.259	25.06149
820.668	78.18541
821.077	104.24996
821.486	43.09864
821.895	46.10808
822.304	37.09508
822.713	102.22896
823.122	68.16306
823.531	18.04074
823.939	97.22732
824.348	28.0655
824.756	41.09879
825.164	81.19472
825.573	64.15499
825.981	76.17989
826.389	95.22811
826.797	118.28759
827.205	110.24214
827.612	89.20907
828.02	-1.00227
828.428	24.0593
828.835	54.13873
829.243	56.12735
829.65	44.10676
830.057	43.10018
830.464	79.18724
830.871	107.24526
831.278	77.17862
831.685	82.17352
832.092	81.18797
832.499	130.26967
832.905	35.08519
833.312	52.11148
833.718	94.22601
834.124	86.18804
834.531	114.27108
834.937	93.22983
835.343	12.02783
835.749	66.14528
836.155	23.05858
836.561	76.17968
836.966	28.06597
837.372	53.12949
837.777	58.13983
838.183	70.14761
838.588	86.20615
838.993	88.20506
839.399	55.13021
839.804	5.01188
840.209	64.15912
840.613	66.13997
841.018	30.07317
841.423	39.09698
841.828	69.16889
842.232	68.15871
842.637	144.32456
843.041	36.08993
843.445	9.02177
843.849	72.172
844.253	63.14307
844.657	57.13941
845.061	103.22621
845.465	29.06778
845.869	84.18615
846.272	73.17155
846.676	29.06647
847.079	50.1239
847.483	99.23509
847.886	73.1684
848.289	120.31087
848.692	21.05121
849.095	63.14446
849.498	67.16064
849.901	37.08085
850.304	71.16222
850.707	70.17092
851.109	89.21428
851.512	58.13755
851.914	35.08608
852.316	72.17718
852.718	62.15873
853.121	68.16008
853.523	48.10695
853.925	55.14024
854.326	25.06103
854.728	51.12719
855.13	47.11853
855.531	52.11984
855.933	46.10508
856.334	74.17874
856.736	81.17467
857.137	100.22327
857.538	57.13921
857.939	90.21607
858.34	33.07673
858.741	27.06824
859.142	48.11022
859.542	61.15664
859.943	76.18093
860.343	75.17954
860.744	125.28904
861.144	97.22795
861.544	55.12905
861.945	55.13492
862.345	66.15398
862.745	70.16837
863.145	39.08788
863.544	84.20419
863.944	77.17366
864.344	28.0663
864.743	106.25002
865.143	93.23109
865.542	48.10531
865.941	58.13866
866.34	27.06154
866.74	31.08093
867.139	112.25862
867.537	11.0269
867.936	69.15987
868.335	69.16826
868.734	27.06702
869.132	28.06182
869.531	81.18462
869.929	78.1704
870.327	52.11974
870.726	71.16782
871.124	67.14832
871.522	31.07613
871.92	54.12811
872.318	25.05859
872.715	63.14724
873.113	59.13713
873.511	28.0672
873.908	88.21663
874.306	90.21598
874.703	63.14978
875.1	24.05856
875.497	51.1169
875.894	71.17016
876.291	84.19751
876.688	29.07259
877.085	80.18179
877.482	58.13951
877.878	99.23029
878.275	57.13988
878.671	21.04346
879.068	97.22269
879.464	73.16867
879.86	86.19376
880.256	17.0399
880.652	48.11768
881.048	70.16427
881.444	24.05423
881.84	60.14645
882.236	50.1209
882.631	93.21906
883.027	43.09967
883.422	21.05169
883.817	79.19193
884.213	34.08444
884.608	105.25107
885.003	36.08283
885.398	73.17542
885.793	35.08443
886.188	-9.02173
886.582	68.16585
886.977	44.09954
887.371	35.08484
887.766	11.02671
888.16	21.04977
888.554	51.12027
888.949	74.17793
889.343	71.16496
889.737	25.0654
890.131	62.14947
890.525	92.22681
890.918	71.1712
891.312	70.15822
891.706	46.11632
892.099	72.17515
892.492	95.192
892.886	66.15428
893.279	36.08836
893.672	54.13342
894.065	104.24844
894.458	6.01449
894.851	47.10985
895.244	39.09613
895.637	85.196
896.029	99.2321
896.422	17.03962
896.814	68.16145
897.206	69.15955
897.599	93.21897
897.991	88.20434
898.383	35.07977
898.775	101.21864
899.167	81.18298
899.559	65.15643
899.951	100.22133
900.342	37.08989
900.734	64.15645
901.125	61.15301
901.517	49.11591
901.908	67.15104
902.299	66.15519
902.69	89.20187
903.082	98.22575
903.473	112.25883
903.863	9.02215
904.254	48.10823
904.645	64.15049
905.036	92.217
905.426	74.15851
905.817	60.14015
906.207	-20.0458
906.597	92.20685
906.987	33.08197
907.378	90.21894
907.768	90.22912
908.158	79.18347
908.547	64.16155
908.937	33.08074
909.327	48.11168
909.717	36.08666
910.106	74.16883
910.495	63.14897
910.885	93.22569
911.274	44.10571
911.663	52.12574
912.052	82.1907
912.441	82.20142
912.83	49.10675
913.219	48.12073
913.608	97.22724
913.997	39.09532
914.385	114.25789
914.774	72.16718
915.162	59.13637
915.55	31.07163
915.939	47.1153
916.327	50.11894
916.715	74.18398
917.103	42.09756
917.491	91.21376
917.878	69.1619
918.266	43.10716
918.654	79.19516
919.041	37.09478
919.429	62.13986
919.816	36.08794
920.203	97.22626
920.591	82.19476
920.978	95.22142
921.365	45.11458
921.752	41.09228
922.139	129.26239
922.525	38.0882
922.912	61.14189
923.299	51.12209
923.685	8.02009
924.072	41.08815
924.458	74.17637
924.844	26.06218
925.231	53.11679
925.617	70.17296
926.003	62.15173
926.389	49.11891
926.774	72.17417
927.16	48.11436
927.546	113.27966
927.931	64.15201
928.317	73.1587
928.702	69.15491
929.088	87.20069
929.473	51.12608
929.858	73.17215
930.243	83.19215
930.628	49.11587
931.013	34.08141
931.398	74.15879
931.783	38.09561
932.167	48.1141
932.552	55.13192
932.937	49.11609
933.321	63.15317
933.705	25.06017
934.09	57.13525
934.474	53.11919
934.858	43.10798
935.242	68.14969
935.626	44.10927
936.009	78.20172
936.393	114.28033
936.777	43.10697
937.16	38.09643
937.544	37.08218
937.927	36.08875
938.311	88.20296
938.694	55.14078
939.077	15.03467
939.46	25.05779
939.843	26.05044
940.226	12.02968
940.609	99.21815
940.991	23.05625
941.374	63.14857
941.757	83.19452
942.139	53.11419
942.522	95.21145
942.904	64.1472
943.286	52.12659
943.668	89.22333
944.05	81.19072
944.432	61.14363
944.814	68.15846
945.196	62.14613
945.578	59.13681
945.959	28.06236
946.341	57.13128
946.722	36.08058
947.104	88.20021
947.485	74.16406
947.866	50.12236
948.247	54.13244
948.628	7.01617
949.009	-1.00249
949.39	28.06676
949.771	50.10831
950.152	76.17849
950.532	79.1915
950.913	45.10397
951.293	67.17629
951.674	25.05829
952.054	89.21484
952.434	24.05766
952.814	29.06551
953.194	-3.00753
953.574	49.11524
953.954	31.06994
954.334	98.23509
954.714	32.07557
955.093	47.11092
955.473	74.17934
955.853	82.20357
956.232	77.20294
956.611	37.08399
956.99	92.22171
957.37	41.09998
957.749	58.12998
958.128	50.12204
958.506	63.15757
958.885	55.13282
959.264	68.16182
959.643	127.27374
960.021	49.11766
960.4	85.18227
960.778	36.08392
961.156	49.11757
961.535	72.15789
961.913	82.18361
962.291	55.13776
962.669	57.13962
963.047	90.2209
963.424	51.12719
963.802	34.08076
964.18	47.11234
964.557	39.08551
964.935	92.20659
965.312	60.1514
965.69	41.09778
966.067	47.10842
966.444	38.0882
966.821	66.16367
967.198	47.1079
967.575	68.15858
967.952	71.15881
968.329	74.17319
968.705	112.22714
969.082	93.23151
969.458	71.16522
969.835	69.16044
970.211	86.21374
970.587	58.13887
970.963	46.11257
971.339	53.13414
971.715	48.1155
972.091	61.14368
972.467	-15.0358
972.843	56.13516
973.219	78.17631
973.594	9.02288
973.97	29.06441
974.345	70.16074
974.721	51.11634
975.096	81.18856
975.471	66.14864
975.846	37.08467
976.221	43.10541
976.596	114.26355
976.971	97.22972
977.346	56.12327
977.72	26.06365
978.095	48.11943
978.469	37.08433
978.844	65.15548
979.218	51.11919
979.593	105.2369
979.967	24.05518
980.341	104.22749
980.715	75.18139
981.089	82.19581
981.463	74.16153
981.837	55.13061
982.21	46.0993
982.584	57.13248
982.957	58.13998
983.331	20.04475
983.704	103.24384
984.078	66.15531
984.451	24.05654
984.824	36.08498
985.197	25.05749
985.57	-8.01915
985.943	34.07917
986.316	49.11335
986.688	58.13345
987.061	114.25326
987.434	93.23521
987.806	31.07114
988.179	27.06094
988.551	54.13092
988.923	44.10338
989.295	70.16626
989.667	53.12333
990.039	99.23709
990.411	2.00436
990.783	71.15297
991.155	18.04194
991.527	51.11779
991.898	81.19383
992.27	59.14146
992.641	56.13378
993.012	22.04835
993.384	16.03656
993.755	59.14543
994.126	76.17598
994.497	19.04503
994.868	43.09316
995.239	32.0743
995.61	35.085
995.98	45.10468
996.351	59.14119
996.722	54.12121
997.092	73.16571
997.462	57.12897
997.833	75.16742
998.203	73.16591
998.573	48.11537
998.943	57.12845
999.313	71.16339
999.683	70.16093
1000.053	27.05805
1000.423	66.15186
1000.792	38.09386
1001.162	49.11479
1001.531	86.20245
1001.901	12.02875
1002.27	20.04188
1002.639	-9.02217
1003.009	35.07964
1003.378	71.17436
1003.747	76.16947
1004.116	51.11652
1004.485	66.15034
1004.853	8.01933
1005.222	10.02392
1005.591	74.16652
1005.959	73.15694
1006.328	123.26102
1006.696	27.06233
1007.064	16.03849
1007.433	74.17508
1007.801	28.06489
1008.169	22.05302
1008.537	84.17542
1008.905	96.21345
1009.273	56.13132
1009.64	100.22944
1010.008	56.1272
1010.375	40.0913
1010.743	6.01288
1011.11	71.16352
1011.478	81.19272
1011.845	75.16652
1012.212	88.19094
1012.579	79.18529
1012.946	48.10783
1013.313	70.157
1013.68	64.13567
1014.047	52.11845
1014.414	27.06112
1014.78	62.14822
1015.147	64.14566
1015.513	39.09015
1015.88	61.14836
1016.246	71.16489
1016.612	48.10375
1016.978	76.17891
1017.344	66.15634
1017.71	94.21585
1018.076	30.06704
1018.442	59.14629
1018.808	97.23318
1019.174	3.00724
1019.539	47.09835
1019.905	80.18039
1020.27	2.00476
1020.636	32.07251
1021.001	38.08757
1021.366	90.20633
1021.731	82.20476
1022.096	32.07866
1022.461	87.19597
1022.826	67.15314
1023.191	39.09885
1023.556	48.10677
1023.92	7.01645
1024.285	19.04413
1024.649	55.12804
1025.014	52.12179
1025.378	45.10953
1025.742	19.04507
1026.107	93.19762
1026.471	84.18436
1026.835	63.14938
1027.199	50.1155
1027.562	48.10522
1027.926	47.10933
1028.29	51.12409
1028.654	74.16064
1029.017	32.07589
1029.381	54.1238
1029.744	41.10076
1030.107	101.22583
1030.471	49.11295
1030.834	55.11687
1031.197	87.19861
1031.56	75.16707
1031.923	47.11726
1032.286	72.16062
1032.648	66.14797
1033.011	73.16167
1033.374	49.10856
1033.736	17.04339
1034.099	61.14223
1034.461	39.09571
1034.823	68.16275
1035.185	39.09343
1035.548	67.15647
1035.91	49.11195
1036.272	83.1799
1036.634	82.1907
1036.995	65.14407
1037.357	32.07527
1037.719	80.18554
1038.08	94.21342
1038.442	27.06139
1038.803	4.0091
1039.165	39.09415
1039.526	82.18859
1039.887	48.10969
1040.248	31.07489
1040.609	15.03532
1040.97	37.08647
1041.331	79.19258
1041.692	78.17645
1042.053	74.15844
1042.413	65.14293
1042.774	102.23562
1043.134	68.15176
1043.495	72.17285
1043.855	96.22362
1044.215	48.11348
1044.576	51.11756
1044.936	84.18087
1045.296	85.20193
1045.656	47.10916
1046.016	51.1169
1046.375	30.06991
1046.735	73.16019
1047.095	63.14046
1047.454	77.15141
1047.814	31.07163
1048.173	63.14104
1048.533	71.15429
1048.892	39.09022
1049.251	47.11226
1049.61	37.08763
1049.969	47.10543
1050.328	56.11502
1050.687	53.12241
1051.046	46.10677
1051.405	57.13426
1051.763	55.12201
1052.122	40.09567
1052.48	67.15739
1052.839	79.17977
1053.197	5.01132
1053.555	41.08693
1053.914	77.17862
1054.272	16.03634
1054.63	51.11976
1054.988	78.17803
1055.345	76.15166
1055.703	107.24398
1056.061	83.20669
1056.419	84.21165
1056.776	5.01148
1057.134	27.05867
1057.491	49.11779
1057.848	36.08554
1058.206	21.04657
1058.563	85.17597
1058.92	78.16932
1059.277	73.17168
1059.634	68.14962
1059.991	83.18933
1060.348	58.12521
1060.704	92.2132
1061.061	55.11901
1061.418	34.07929
1061.774	54.12767
1062.131	58.1501
1062.487	30.06673
1062.843	51.12176
1063.199	17.04082
1063.555	61.13594
1063.911	52.12508
1064.267	84.16124
1064.623	51.12008
1064.979	22.04802
1065.335	49.11073
1065.691	35.07903
1066.046	32.06683
1066.402	50.10729
1066.757	81.19524
1067.112	39.09133
1067.468	95.21565
1067.823	9.02037
1068.178	57.1306
1068.533	59.13648
1068.888	78.17588
1069.243	73.17188
1069.598	34.07867
1069.952	88.19184
1070.307	55.13116
1070.662	81.18529
1071.016	121.25835
1071.371	76.16477
1071.725	72.16201
1072.079	80.18333
1072.434	60.13987
1072.788	58.12966
1073.142	92.21523
1073.496	62.13968
1073.85	35.07738
1074.203	61.14145
1074.557	88.22719
1074.911	97.21706
1075.265	88.19322
1075.618	85.19749
1075.971	42.0954
1076.325	63.15478
1076.678	78.1691
1077.031	-8.01703
1077.385	45.0937
1077.738	100.2117
1078.091	78.16975
1078.444	40.08742
1078.796	65.1534
1079.149	46.11001
1079.502	70.15861
1079.855	74.16406
1080.207	44.10346
1080.56	33.0829
1080.912	66.15283
1081.264	73.16813
1081.617	62.14493
1081.969	82.19881
1082.321	70.16222
1082.673	94.20622
1083.025	11.02493
1083.377	65.14515
1083.728	66.14535
1084.08	45.10699
1084.432	37.08512
1084.783	50.10919
1085.135	83.19938
1085.486	10.02214
1085.838	63.14886
1086.189	26.06128
1086.54	78.17595
1086.891	71.1754
1087.242	100.23532
1087.593	33.07576
1087.944	80.17307
1088.295	50.10775
1088.646	70.16517
1088.996	57.13212
1089.347	63.14655
1089.698	25.05746
1090.048	48.11912
1090.398	62.13556
1090.749	58.13094
1091.099	67.16351
1091.449	84.20028
1091.799	66.15791
1092.149	40.09515
1092.499	59.13757
1092.849	73.17782
1093.199	55.13071
1093.548	93.21454
1093.898	33.07906
1094.248	41.10028
1094.597	30.07497
1094.947	31.08024
1095.296	75.17776
1095.645	13.03259
1095.994	97.22055
1096.343	93.22374
1096.692	74.18998
1097.041	53.141
1097.39	34.0815
1097.739	56.13979
1098.088	57.14596
1098.437	62.15923
1098.785	10.02597
1099.134	49.12318
1099.482	56.14946
1099.83	46.11661
1100.179	105.26679
1100.527	21.0534
1100.875	35.09025
1101.223	47.1214
1101.571	11.02949
1101.919	60.15458
1102.267	15.04158
1102.615	-5.01607
1102.962	3.00962
1103.31	1.00321
1103.658	-9.02889
