Data from N3 R4 sample 9_Subt2__5__12-09-49-737.txt Node

Date: Thu Sep 18 12:09:49 PDT 2025
User: uwsun
Spectrometer: HDX01956
Trigger mode: 0
Integration Time (sec): 5.000000E-1
Scans to average: 1
Nonlinearity correction enabled: true
Boxcar width: 0
Storing dark spectrum: false
XAxis mode: Wavelengths
Number of Pixels in Spectrum: 2068
>>>>>Begin Spectral Data<<<<<
194.03	94.26915
194.578	96.30865
195.127	98.31051
195.676	96.30536
196.225	107.28068
196.773	138.37739
197.321	198.53729
197.87	267.6675
198.418	305.76303
198.966	307.78571
199.513	302.7461
200.061	273.67756
200.609	270.69625
201.156	273.58186
201.704	265.65218
202.251	330.84885
202.798	295.74387
203.345	300.72206
203.892	325.79479
204.438	255.59196
204.985	328.7522
205.532	287.73557
206.078	305.72226
206.624	329.79889
207.17	383.85767
207.716	293.69974
208.262	320.6101
208.808	344.8342
209.354	354.84295
209.899	246.60755
210.445	282.68851
210.99	309.73201
211.535	299.68474
212.08	274.62031
212.625	286.69567
213.17	318.78561
213.715	390.84905
214.259	344.77273
214.804	316.74931
215.348	340.75685
215.892	338.79157
216.436	254.56661
216.98	327.68998
217.524	324.74868
218.068	332.80934
218.612	369.90068
219.155	317.72421
219.698	290.66986
220.242	272.65344
220.785	305.69343
221.328	259.62446
221.871	310.76501
222.414	309.73794
222.956	224.52545
223.499	294.63246
224.041	258.57315
224.583	281.57156
225.126	262.55781
225.668	242.57431
226.21	242.59943
226.751	309.66258
227.293	277.60601
227.835	316.74613
228.376	284.62356
228.918	269.65029
229.459	247.60161
230	297.68944
230.541	263.58704
231.082	280.66115
231.622	244.53709
232.163	285.66473
232.704	297.71931
233.244	298.71426
233.784	275.64544
234.324	267.58364
234.864	264.57818
235.404	279.6351
235.944	273.62244
236.484	320.76844
237.023	286.65116
237.563	367.81136
238.102	318.72225
238.641	292.7092
239.18	269.61283
239.719	260.63315
240.258	289.62612
240.797	288.66524
241.335	274.64548
241.874	331.61406
242.412	337.78536
242.95	293.68499
243.488	304.65566
244.026	338.75271
244.564	352.68742
245.102	327.71055
245.64	300.68993
246.177	262.56411
246.715	315.72803
247.252	282.61786
247.789	286.50876
248.326	323.7483
248.863	331.69688
249.4	300.6548
249.936	356.70876
250.473	346.78264
251.009	275.60951
251.546	337.72012
252.082	268.5599
252.618	301.64849
253.154	286.6664
253.69	317.68179
254.226	301.69568
254.761	311.67061
255.297	299.62813
255.832	363.82293
256.367	307.69458
256.903	339.72063
257.438	288.65227
257.972	312.66714
258.507	292.64624
259.042	324.67479
259.576	345.72955
260.111	303.66961
260.645	344.70784
261.179	322.72481
261.713	305.65768
262.247	304.66775
262.781	316.6388
263.315	277.65089
263.849	357.85482
264.382	327.71962
264.915	339.76884
265.449	299.70504
265.982	376.80988
266.515	337.79308
267.048	345.69662
267.58	305.63169
268.113	280.58549
268.646	270.64124
269.178	288.62142
269.71	374.78515
270.243	382.84046
270.775	357.87788
271.307	307.70249
271.838	390.87173
272.37	272.64699
272.902	363.78138
273.433	387.81226
273.965	342.7956
274.496	329.78299
275.027	334.799
275.558	342.80062
276.089	331.7956
276.62	327.79225
277.15	372.87083
277.681	288.59768
278.211	353.82232
278.741	346.73407
279.272	345.75508
279.802	343.81755
280.332	373.83838
280.861	380.86268
281.391	363.78541
281.921	329.75434
282.45	372.87866
282.98	321.80681
283.509	375.81137
284.038	371.80786
284.567	376.83281
285.096	387.89262
285.625	329.70912
286.153	402.91076
286.682	364.7975
287.21	318.7281
287.739	316.71887
288.267	390.90294
288.795	335.84168
289.323	368.82426
289.851	422.93662
290.378	330.70471
290.906	348.81689
291.433	403.95315
291.961	382.82952
292.488	362.85803
293.015	362.81683
293.542	401.98167
294.069	383.90516
294.596	378.87933
295.122	416.944
295.649	362.75359
296.175	374.85732
296.702	415.96137
297.228	381.87249
297.754	390.83174
298.28	432.93608
298.806	344.79552
299.332	402.85175
299.857	399.85923
300.383	393.94027
300.908	399.9331
301.433	410.95374
301.958	429.92541
302.483	387.91319
303.008	473.10136
303.533	382.94055
304.058	385.85256
304.582	366.82653
305.107	374.93135
305.631	417.89182
306.155	456.99607
306.679	408.90969
307.203	448.97695
307.727	439.97981
308.251	457.0582
308.775	442.01308
309.298	444.00668
309.822	401.95794
310.345	457.02467
310.868	502.12598
311.391	473.09011
311.914	458.0783
312.437	514.08617
312.96	445.98704
313.482	414.92078
314.005	415.98228
314.527	422.03862
315.049	534.25313
315.571	501.04593
316.093	514.18311
316.615	479.07277
317.137	493.99774
317.659	519.16536
318.18	494.09484
318.702	541.16903
319.223	519.97155
319.744	569.17081
320.265	500.13572
320.786	520.20884
321.307	522.19677
321.828	526.09506
322.348	570.22995
322.869	595.29521
323.389	593.04843
323.909	521.10027
324.43	578.26481
324.95	543.1448
325.47	592.34662
325.989	585.27072
326.509	612.24332
327.029	614.27348
327.548	591.22052
328.067	646.42093
328.587	667.51402
329.106	585.20162
329.625	664.56819
330.144	659.38063
330.662	626.33537
331.181	687.45393
331.7	624.31498
332.218	677.31023
332.736	662.39639
333.255	740.5454
333.773	671.42498
334.291	726.62506
334.808	735.46474
335.326	747.47765
335.844	761.58193
336.361	799.82183
336.879	802.65356
337.396	785.68757
337.913	789.59798
338.43	777.53565
338.947	793.66533
339.464	788.47929
339.981	788.64211
340.497	832.78752
341.014	848.79928
341.53	825.61314
342.046	966.05606
342.562	885.90998
343.078	909.8304
343.594	868.78337
344.11	908.86645
344.626	911.98619
345.141	890.74411
345.657	963.83194
346.172	969.98168
346.687	906.77384
347.202	956.84369
347.717	944.9153
348.232	915.96296
348.747	1003.93677
349.261	951.75571
349.776	987.97853
350.29	997.11526
350.805	975.04434
351.319	995.93779
351.833	1080.04011
352.347	1023.01631
352.861	1065.06403
353.374	1022.92792
353.888	1100.21942
354.401	1085.01722
354.915	1071.98659
355.428	1102.27203
355.941	1116.11649
356.454	1090.97141
356.967	1090.08207
357.48	1097.0235
357.993	1202.38254
358.505	1108.2132
359.018	1219.39785
359.53	1194.35351
360.042	1261.20382
360.554	1222.40096
361.066	1186.32901
361.578	1243.14843
362.09	1229.32745
362.602	1238.16626
363.113	1271.35486
363.625	1267.24902
364.136	1238.12452
364.647	1316.43309
365.158	1275.32615
365.669	1287.41403
366.18	1272.35264
366.691	1284.17
367.201	1363.5209
367.712	1378.4024
368.222	1412.45813
368.733	1395.26967
369.243	1380.3357
369.753	1398.44253
370.263	1499.70919
370.773	1377.58461
371.282	1446.61103
371.792	1568.64185
372.301	1486.69033
372.811	1612.14842
373.32	1624.46712
373.829	1614.74179
374.338	1645.56774
374.847	1761.79972
375.356	1700.8231
375.865	1883.61623
376.373	1954.8826
376.882	1926.3205
377.39	1981.14622
377.898	2033.26616
378.407	2149.9854
378.915	2225.8596
379.423	2282.15016
379.93	2431.20692
380.438	2525.40277
380.946	2551.24372
381.453	2745.45211
381.96	2851.4385
382.468	3059.35238
382.975	3273.59472
383.482	3233.04282
383.989	3424.90898
384.495	3464.2437
385.002	3658.54626
385.509	3947.228
386.015	4206.13613
386.521	4273.74253
387.028	4424.64566
387.534	4580.16988
388.04	4738.88226
388.546	4791.24512
389.051	5027.08889
389.557	5533.13826
390.063	5898.80129
390.568	6285.06467
391.073	6297.56481
391.578	6527.09722
392.084	6741.63256
392.589	6933.38445
393.093	7542.02384
393.598	8226.34626
394.103	8938.38711
394.607	9904.49059
395.112	10465.15235
395.616	11248.20458
396.12	12320.16755
396.624	13618.74587
397.128	14519.87217
397.632	16375.84819
398.136	17596.68788
398.639	18667.87436
399.143	20753.18045
399.646	23672.73448
400.15	25877.19857
400.653	28767.24979
401.156	32455.76618
401.659	37895.79176
402.162	45825.87598
402.664	59753.84464
403.167	63436.07146
403.67	63769.22307
404.172	63919.58413
404.674	63858.43483
405.176	63738.15102
405.678	63977.72923
406.18	64011.81569
406.682	63863.44694
407.184	63926.60148
407.686	63841.39382
408.187	64025.8516
408.688	63892.51763
409.19	63833.37461
409.691	63977.72923
410.192	63945.6488
410.693	63276.76091
411.194	57562.16848
411.694	54514.48926
412.195	50389.20473
412.696	45579.22857
413.196	42609.56677
413.696	41342.18714
414.196	41365.79101
414.696	40525.96703
415.196	38940.99907
415.696	35305.18183
416.196	28376.09418
416.695	22202.62422
417.195	19113.31033
417.694	18222.93452
418.194	16958.82264
418.693	15906.32793
419.192	15248.02417
419.691	15159.40793
420.19	14684.39004
420.688	14271.47687
421.187	13620.58106
421.685	12773.87906
422.184	11681.40272
422.682	9943.72619
423.18	8594.79061
423.678	7569.81337
424.176	7161.65703
424.674	6712.48129
425.172	6392.83655
425.669	6015.25002
426.167	5702.00407
426.664	5105.16255
427.161	4714.47343
427.659	4403.03326
428.156	4164.29082
428.652	3831.58191
429.149	3771.32536
429.646	3559.8423
430.143	3390.34515
430.639	3220.30068
431.135	3059.65678
431.632	2893.11283
432.128	2711.3752
432.624	2576.75893
433.12	2443.04455
433.616	2439.85473
434.111	2271.17685
434.607	2219.18908
435.103	2159.57681
435.598	2160.55154
436.093	1989.93079
436.588	1915.74561
437.083	1813.66084
437.578	1818.79006
438.073	1672.96956
438.568	1676.90542
439.062	1526.28395
439.557	1523.5607
440.051	1480.38966
440.546	1382.32281
441.04	1376.48663
441.534	1387.65413
442.028	1358.4738
442.522	1331.42869
443.015	1259.02878
443.509	1282.40521
444.002	1251.38182
444.496	1269.06796
444.989	1211.30215
445.482	1180.31612
445.975	1260.23021
446.468	1212.00146
446.961	1205.00132
447.454	1123.98139
447.947	1121.13372
448.439	1121.20472
448.931	1134.05198
449.424	1175.38661
449.916	1081.13086
450.408	1085.97777
450.9	1038.05404
451.392	1083.23728
451.884	984.84797
452.375	961.97946
452.867	979.79222
453.358	1004.86899
453.849	952.65491
454.341	988.81463
454.832	907.61348
455.323	975.01477
455.814	855.64508
456.304	897.73181
456.795	941.7701
457.285	854.57197
457.776	881.67652
458.266	848.70393
458.756	804.62209
459.247	847.71715
459.737	841.73056
460.226	843.61963
460.716	803.64267
461.206	860.73758
461.695	770.64644
462.185	778.58752
462.674	760.49183
463.163	765.46884
463.653	792.42338
464.142	711.50609
464.63	707.49761
465.119	694.40888
465.608	762.53656
466.096	682.28499
466.585	678.35318
467.073	658.36668
467.561	662.39944
468.05	657.32851
468.538	693.48453
469.026	632.3272
469.513	664.21673
470.001	652.31688
470.489	668.39611
470.976	697.42045
471.463	617.37098
471.951	590.31498
472.438	554.17033
472.925	577.2166
473.412	579.2598
473.899	503.04733
474.385	519.15487
474.872	493.04695
475.359	579.27899
475.845	509.95
476.331	503.96813
476.817	451.01078
477.303	483.02434
477.789	448.98356
478.275	458.04646
478.761	441.96637
479.247	471.95976
479.732	462.06112
480.218	486.17132
480.703	434.99042
481.188	461.91247
481.673	417.88835
482.158	390.78369
482.643	408.97298
483.128	486.03408
483.612	430.94922
484.097	405.90879
484.581	373.80739
485.066	406.92692
485.55	390.80284
486.034	370.74899
486.518	433.96003
487.002	287.66518
487.486	350.79974
487.969	368.83883
488.453	283.67224
488.936	353.74581
489.42	398.81747
489.903	313.73919
490.386	234.465
490.869	398.80972
491.352	301.68821
491.835	321.6181
492.318	287.61382
492.8	345.66943
493.283	283.69056
493.765	291.68005
494.247	309.68201
494.73	312.65356
495.212	197.45298
495.694	283.63664
496.175	293.671
496.657	315.70688
497.139	341.54289
497.62	280.64342
498.102	270.64396
498.583	185.44184
499.064	283.60107
499.545	281.61061
500.026	323.69081
500.507	249.55028
500.988	290.69191
501.469	184.44625
501.949	285.67178
502.43	262.60568
502.91	329.6576
503.39	274.64974
503.87	293.65994
504.35	214.48409
504.83	209.44217
505.31	227.52801
505.79	212.48484
506.269	216.47905
506.749	185.41124
507.228	245.55478
507.707	255.54562
508.187	227.52384
508.666	228.54588
509.145	221.49942
509.623	218.49354
510.102	206.48323
510.581	287.66096
511.059	228.55482
511.538	238.59211
512.016	283.64784
512.494	212.49341
512.972	288.6581
513.45	243.54554
513.928	258.60259
514.406	269.63259
514.884	239.59514
515.361	240.5535
515.839	311.67981
516.316	287.66649
516.793	250.60766
517.27	222.51628
517.747	245.60652
518.224	269.59299
518.701	287.60372
519.178	261.62786
519.654	305.68669
520.131	297.70196
520.607	250.58757
521.083	220.48162
521.56	240.54489
522.036	218.45848
522.512	239.56949
522.987	253.58639
523.463	280.63441
523.939	285.67699
524.414	157.3519
524.89	208.48162
525.365	195.42807
525.84	242.56078
526.315	165.39121
526.79	221.48187
527.265	247.54928
527.74	191.45128
528.215	182.41372
528.689	168.35971
529.164	158.33156
529.638	175.43325
530.112	180.41282
530.587	156.32708
531.061	195.4593
531.534	189.44361
532.008	171.40669
532.482	181.40569
532.956	149.3732
533.429	224.53078
533.903	156.33488
534.376	176.3796
534.849	179.40138
535.322	147.34059
535.795	172.40584
536.268	209.49113
536.741	124.29031
537.213	175.39273
537.686	170.40687
538.158	213.46955
538.631	184.43466
539.103	167.36907
539.575	174.34932
540.047	194.41106
540.519	217.50236
540.991	193.4583
541.463	161.37937
541.934	120.26781
542.406	232.53889
542.877	214.4679
543.348	155.36736
543.82	162.38595
544.291	178.40594
544.762	187.43429
545.233	218.53643
545.703	185.4015
546.174	194.43814
546.645	209.49151
547.115	196.46103
547.585	221.49228
548.056	246.58448
548.526	255.58329
548.996	200.46548
549.466	246.57705
549.935	255.58727
550.405	255.53877
550.875	208.48047
551.344	264.60521
551.814	247.54586
552.283	308.63919
552.752	271.6104
553.221	284.60017
553.69	341.7293
554.159	339.80182
554.628	340.72984
555.096	314.76319
555.565	231.49427
556.033	351.79217
556.502	246.57344
556.97	279.5949
557.438	262.59194
557.906	254.57784
558.374	276.6144
558.842	326.74251
559.31	295.63065
559.777	300.70149
560.245	231.51285
560.712	268.58942
561.18	291.61537
561.647	267.56833
562.114	266.58601
562.581	285.67256
563.048	283.62071
563.514	357.8483
563.981	306.6679
564.448	321.68891
564.914	306.67722
565.381	383.82053
565.847	332.73292
566.313	321.70731
566.779	349.74092
567.245	273.60634
567.711	353.79831
568.176	385.80842
568.642	366.87052
569.108	374.86591
569.573	373.81049
570.038	331.65331
570.504	385.81448
570.969	392.91152
571.434	420.86576
571.899	411.90899
572.363	452.95725
572.828	485.02053
573.293	463.97733
573.757	467.99873
574.222	432.8969
574.686	489.02896
575.15	492.08632
575.614	529.13574
576.078	490.053
576.542	511.05929
577.006	524.07346
577.469	493.11278
577.933	515.06713
578.396	509.10118
578.86	484.04455
579.323	484.07174
579.786	494.97711
580.249	559.18994
580.712	434.98124
581.175	445.0165
581.637	444.93661
582.1	416.84133
582.563	438.85782
583.025	463.03985
583.487	535.99014
583.95	417.82847
584.412	496.94708
584.874	483.08307
585.336	480.04563
585.797	469.9357
586.259	457.98749
586.721	427.93136
587.182	443.94496
587.643	455.95371
588.105	479.03882
588.566	448.85831
589.027	482.08636
589.488	475.00032
589.949	527.16591
590.41	527.93738
590.87	596.21902
591.331	561.09988
591.791	578.2019
592.252	577.20808
592.712	562.21629
593.172	595.209
593.632	691.33929
594.092	649.27274
594.552	664.25775
595.011	660.33062
595.471	742.45234
595.931	768.48701
596.39	740.5454
596.849	763.53118
597.308	754.36951
597.768	847.87774
598.227	867.76093
598.685	897.70123
599.144	985.90469
599.603	980.87741
600.062	976.65391
600.52	1115.98355
600.978	1100.07194
601.437	1180.07835
601.895	1276.03387
602.353	1234.05143
602.811	1409.31426
603.269	1351.41109
603.727	1428.53028
604.184	1523.4576
604.642	1576.7753
605.099	1672.6785
605.557	1730.88269
606.014	1753.44617
606.471	1807.0852
606.928	1932.67474
607.385	1981.22388
607.842	2074.87957
608.299	2142.99874
608.755	2182.189
609.212	2214.81938
609.668	2307.90378
610.125	2273.20736
610.581	2354.10066
611.037	2416.89645
611.493	2410.09482
611.949	2529.36512
612.405	2520.47546
612.861	2544.05112
613.316	2551.274
613.772	2641.04746
614.227	2624.31104
614.683	2613.65334
615.138	2603.16606
615.593	2564.10218
616.048	2693.0445
616.503	2641.36588
616.958	2603.54099
617.412	2550.22189
617.867	2539.91039
618.321	2520.52228
618.776	2551.82986
619.23	2457.1211
619.684	2507.88416
620.138	2403.98467
620.592	2416.2911
621.046	2435.1604
621.5	2337.21729
621.954	2278.78357
622.407	2270.7811
622.861	2220.20702
623.314	2138.83534
623.768	2199.06196
624.221	2097.25693
624.674	2029.87149
625.127	2030.89872
625.58	1961.70977
626.033	1906.5731
626.485	1821.87832
626.938	1860.89017
627.39	1857.81199
627.843	1799.71173
628.295	1709.64281
628.747	1712.77549
629.199	1681.5735
629.651	1639.56415
630.103	1625.55366
630.555	1609.25345
631.006	1503.48608
631.458	1521.54493
631.909	1404.2673
632.361	1494.45017
632.812	1443.41095
633.263	1395.1666
633.714	1461.15111
634.165	1371.44319
634.616	1320.33929
635.067	1338.15031
635.518	1318.34534
635.968	1306.82107
636.419	1297.0869
636.869	1200.196
637.319	1257.21055
637.769	1260.12579
638.219	1249.24659
638.669	1178.17718
639.119	1161.17173
639.569	1173.19531
640.019	1215.14636
640.468	1199.04691
640.918	1173.16307
641.367	1191.03319
641.816	1129.94249
642.265	1263.23267
642.714	1120.00708
643.163	1133.0455
643.612	1203.29903
644.061	1152.87787
644.51	1150.04632
644.958	1167.973
645.406	1158.16557
645.855	1149.19558
646.303	1124.03177
646.751	1177.10477
647.199	1136.99972
647.647	1098.01076
648.095	1122.99656
648.543	1140.74172
648.99	1141.15723
649.438	1073.96667
649.885	1155.28021
650.333	1117.62563
650.78	1165.20593
651.227	1086.12827
651.674	1091.95972
652.121	1044.07266
652.568	1048.07484
653.015	1000.02376
653.461	1061.01728
653.908	1073.94895
654.354	1037.98726
654.801	1019.92553
655.247	969.68144
655.693	994.14035
656.139	1012.95557
656.585	957.87514
657.031	988.8864
657.477	999.74097
657.922	911.70016
658.368	976.97039
658.813	950.75604
659.259	970.93057
659.704	1006.93285
660.149	951.78807
660.594	918.80159
661.039	942.75075
661.484	961.86175
661.929	912.75871
662.373	912.915
662.818	915.88633
663.262	960.908
663.707	916.95374
664.151	988.96917
664.595	931.86274
665.039	956.96079
665.483	925.96826
665.927	989.88058
666.371	997.9004
666.814	966.87456
667.258	972.91845
667.701	1035.72922
668.145	1063.13341
668.588	1035.07997
669.031	940.81365
669.474	1019.97615
669.917	1037.79032
670.36	1016.06834
670.803	1060.05286
671.245	981.57886
671.688	1032.02792
672.13	1011.82865
672.573	1062.16897
673.015	1005.96747
673.457	1068.81329
673.899	1068.06544
674.341	995.94878
674.783	1046.0103
675.225	1096.15193
675.666	1131.18809
676.108	1094.82768
676.549	1024.91005
676.991	1094.86259
677.432	1120.66667
677.873	1060.91119
678.314	1065.01806
678.755	1141.2211
679.196	1085.94693
679.637	1071.03929
680.078	1108.02913
680.518	1111.98964
680.959	1150.1337
681.399	1079.13782
681.839	1126.15307
682.28	1159.26685
682.72	1162.04228
683.16	1126.22957
683.6	1209.08499
684.039	1152.78197
684.479	1143.225
684.919	1174.13429
685.358	1161.27077
685.798	1122.34317
686.237	1196.19631
686.676	1175.02716
687.115	1210.18116
687.554	1278.31121
687.993	1241.04455
688.432	1231.11638
688.871	1225.12387
689.309	1267.3034
689.748	1294.93684
690.186	1242.19596
690.625	1235.20213
691.063	1254.26879
691.501	1342.49113
691.939	1303.50136
692.377	1249.3094
692.815	1379.50025
693.253	1299.31435
693.69	1293.06757
694.128	1273.3446
694.565	1234.2212
695.003	1283.52045
695.44	1298.30013
695.877	1340.32851
696.314	1247.91694
696.751	1267.13249
697.188	1295.23167
697.625	1286.11622
698.061	1272.29799
698.498	1132.08049
698.934	1211.21453
699.371	1196.15364
699.807	1265.24545
700.243	1286.33748
700.679	1154.95777
701.115	1245.18595
701.551	1236.16275
701.987	1161.91317
702.422	1205.20352
702.858	1202.19747
703.294	1300.20192
703.729	1217.2701
704.164	1128.09896
704.599	1208.02444
705.035	1144.9616
705.47	1146.16933
705.904	1128.01941
706.339	1167.04524
706.774	1095.00475
707.209	1087.98142
707.643	1147.12969
708.078	1072.06827
708.512	1124.22767
708.946	1104.04304
709.38	1110.0613
709.814	1080.89986
710.248	1143.18514
710.682	1070.03492
711.116	1012.98724
711.549	965.02335
711.983	1030.88248
712.416	1054.98259
712.85	989.98801
713.283	1000.89095
713.716	944.9179
714.149	932.74757
714.582	941.69916
715.015	874.7804
715.448	945.95953
715.881	895.54367
716.313	943.78255
716.746	924.78444
717.178	887.76071
717.61	898.90294
718.043	833.7256
718.475	866.74572
718.907	861.79555
719.339	842.57387
719.77	792.59932
720.202	740.58974
720.634	812.68019
721.065	774.5365
721.497	804.65917
721.928	761.58123
722.359	729.5214
722.79	754.53293
723.221	713.52347
723.652	723.58413
724.083	680.30569
724.514	733.42556
724.945	744.4748
725.375	713.42281
725.806	674.43913
726.236	653.46065
726.666	652.32952
727.096	654.39035
727.526	652.47486
727.956	661.29997
728.386	651.38787
728.816	642.44398
729.246	625.35311
729.675	591.26852
730.105	627.33895
730.534	599.21825
730.964	577.27297
731.393	617.32212
731.822	585.32612
732.251	570.28554
732.68	583.17919
733.109	559.22395
733.537	605.30084
733.966	567.25766
734.395	606.21991
734.823	532.03333
735.251	550.16949
735.68	528.16011
736.108	486.09361
736.536	513.06724
736.964	550.12225
737.392	561.24331
737.82	463.99617
738.247	547.15123
738.675	508.06081
739.102	470.05884
739.53	519.20105
739.957	437.03415
740.384	440.9595
740.811	401.91385
741.238	536.1713
741.665	490.03175
742.092	411.85654
742.519	437.98943
742.945	520.12909
743.372	481.07814
743.798	426.99758
744.225	427.91597
744.651	419.95755
745.077	376.86398
745.503	410.90205
745.929	445.97883
746.355	426.94157
746.781	371.83867
747.207	401.87132
747.632	418.95085
748.058	403.93395
748.483	381.80038
748.908	411.93776
749.334	396.89644
749.759	446.96311
750.184	413.9096
750.609	402.9004
751.033	385.81947
751.458	381.77249
751.883	327.74675
752.307	366.79139
752.732	410.96426
753.156	331.75618
753.58	403.86412
754.005	333.77543
754.429	393.85322
754.853	357.82312
755.277	405.87777
755.7	372.85068
756.124	377.86333
756.548	364.78943
756.971	364.81799
757.394	345.8179
757.818	365.87231
758.241	343.81003
758.664	342.80156
759.087	348.72219
759.51	274.63341
759.933	356.79542
760.356	377.89994
760.778	341.77589
761.201	323.72274
761.623	315.6938
762.046	345.74009
762.468	379.82948
762.89	341.76772
763.312	350.79201
763.734	317.71019
764.156	316.72614
764.578	270.57309
765	370.8284
765.421	298.71317
765.843	274.67495
766.264	307.67306
766.686	353.80676
767.107	353.7879
767.528	303.7297
767.949	290.68847
768.37	337.77516
768.791	264.59183
769.212	257.6112
769.632	285.62325
770.053	248.61204
770.473	265.59737
770.894	271.62287
771.314	266.58502
771.734	293.6337
772.154	290.69138
772.575	286.61102
772.994	225.47831
773.414	277.61267
773.834	237.55605
774.254	291.6608
774.673	268.61511
775.093	281.6554
775.512	218.50997
775.931	239.57254
776.351	267.62544
776.77	244.56474
777.189	280.61969
777.607	207.50193
778.026	228.5365
778.445	200.48359
778.864	184.4434
779.282	206.46315
779.701	215.51014
780.119	199.47982
780.537	193.45583
780.955	245.58177
781.373	229.53266
781.791	250.53133
782.209	209.44217
782.627	201.50398
783.045	196.41966
783.462	193.46852
783.88	207.50946
784.297	153.36849
784.715	184.45278
785.132	175.39966
785.549	146.34904
785.966	174.41708
786.383	176.41447
786.8	180.39522
787.217	208.47014
787.633	153.36933
788.05	146.32273
788.466	185.40595
788.883	143.35325
789.299	147.33247
789.715	196.45276
790.131	211.49544
790.547	148.35219
790.963	148.35003
791.379	151.36519
791.795	129.27722
792.21	139.30732
792.626	105.2369
793.041	169.39528
793.457	148.34623
793.872	143.31683
794.287	139.32243
794.702	113.26233
795.117	103.24779
795.532	160.38572
795.947	131.29604
796.362	144.31937
796.776	137.29847
797.191	113.26606
797.605	139.31553
798.02	108.25177
798.434	138.29138
798.848	173.4105
799.262	138.32714
799.676	180.41514
800.09	82.19439
800.504	111.25657
800.918	116.25374
801.331	1.00251
801.745	125.27152
802.158	71.16984
802.572	148.34107
802.985	121.27623
803.398	131.2964
803.811	68.1653
804.224	101.23781
804.637	82.1889
805.05	69.15256
805.462	112.2616
805.875	61.154
806.288	119.27648
806.7	56.13475
807.112	70.15454
807.525	55.129
807.937	88.20998
808.349	115.27351
808.761	97.23008
809.173	115.26771
809.584	71.16808
809.996	48.11366
810.408	106.26632
810.819	81.18335
811.231	125.32153
811.642	149.35301
812.053	156.36179
812.464	105.23767
812.875	108.26645
813.286	105.26233
813.697	120.25927
814.108	70.16376
814.519	146.3103
814.929	60.14743
815.34	70.16158
815.75	89.21978
816.16	28.06684
816.571	84.20945
816.981	44.09901
817.391	59.13589
817.801	41.0992
818.211	133.29995
818.62	98.22719
819.03	100.23376
819.44	19.04745
819.849	43.10372
820.259	51.12483
820.668	78.18541
821.077	69.16694
821.486	49.11227
821.895	31.07305
822.304	43.11038
822.713	66.14924
823.122	74.17725
823.531	36.08117
823.939	73.17188
824.348	109.25094
824.756	63.15116
825.164	104.24892
825.573	64.15499
825.981	74.17522
826.389	93.2234
826.797	77.1891
827.205	106.23353
827.612	37.0878
828.02	37.08341
828.428	27.06668
828.835	78.19955
829.243	20.04582
829.65	42.10194
830.057	83.19185
830.464	111.26146
830.871	121.27656
831.278	72.16718
831.685	98.20665
832.092	72.16738
832.499	72.15129
832.905	33.08035
833.312	69.14739
833.718	92.22129
834.124	70.15357
834.531	75.17968
834.937	77.19085
835.343	41.09454
835.749	101.22069
836.155	71.17931
836.561	35.0834
836.966	83.19345
837.372	46.11253
837.777	60.14459
838.183	50.1059
838.588	66.15881
838.993	49.11506
839.399	54.12786
839.804	22.05211
840.209	59.14682
840.613	79.16706
841.018	49.11909
841.423	80.19745
841.828	51.12525
842.232	67.1564
842.637	75.17143
843.041	50.12458
843.445	43.10333
843.849	44.10567
844.253	92.2077
844.657	60.14667
845.061	117.2562
845.465	65.15084
845.869	60.13363
846.272	11.02616
846.676	24.05507
847.079	73.18014
847.483	96.2281
847.886	68.15702
848.289	55.14408
848.692	38.09237
849.095	71.16254
849.498	66.15827
849.901	75.16256
850.304	56.12833
850.707	52.1274
851.109	55.13327
851.512	110.25824
851.914	54.13235
852.316	87.2135
852.718	64.16379
853.121	95.22246
853.523	61.13555
853.925	47.12001
854.326	78.18854
854.728	69.17152
855.13	59.14847
855.531	85.1946
855.933	19.04364
856.334	54.13092
856.736	40.08702
857.137	83.18596
857.538	65.15851
857.939	108.25839
858.34	69.1593
858.741	68.1706
859.142	80.18252
859.542	54.13883
859.943	83.19733
860.343	32.07723
860.744	54.12663
861.144	92.21641
861.544	79.18449
861.945	51.1252
862.345	58.13553
862.745	69.166
863.145	41.09235
863.544	83.2018
863.944	48.1089
864.344	55.12955
864.743	83.19664
865.143	100.24817
865.542	49.10748
865.941	47.1126
866.34	51.11568
866.74	44.11462
867.139	47.10993
867.537	65.15738
867.936	91.20992
868.335	36.08833
868.734	72.17725
869.132	84.18328
869.531	59.13507
869.929	34.07497
870.327	49.1129
870.726	56.13275
871.124	57.12645
871.522	48.11751
871.92	48.11401
872.318	56.13044
872.715	89.20694
873.113	57.13254
873.511	76.18072
873.908	38.09441
874.306	67.16149
874.703	36.08603
875.1	8.01958
875.497	2.00463
875.894	22.05322
876.291	87.20445
876.688	51.12714
877.085	40.09163
877.482	46.1109
877.878	92.2143
878.275	39.09603
878.671	27.0558
879.068	80.18429
879.464	74.17094
879.86	61.13813
880.256	47.10967
880.652	45.11039
881.048	37.08739
881.444	78.17429
881.84	21.05163
882.236	43.10412
882.631	97.2283
883.027	61.14089
883.422	24.05904
883.817	63.15352
884.213	62.15319
884.608	90.21582
885.003	17.03926
885.398	23.05579
885.793	63.15116
886.188	10.02406
886.582	10.02465
886.977	54.12191
887.371	15.0365
887.766	27.06537
888.16	19.04505
888.554	105.24501
888.949	48.11598
889.343	99.22874
889.737	15.03931
890.131	13.03163
890.525	98.24134
890.918	53.12823
891.312	37.0842
891.706	66.1663
892.099	45.11002
892.492	113.22744
892.886	43.10097
893.279	37.0908
893.672	83.20399
894.065	74.17779
894.458	7.0169
894.851	47.10985
895.244	0
895.637	40.09306
896.029	56.13239
896.422	80.18414
896.814	25.05985
897.206	116.26572
897.599	106.24895
897.991	64.14931
898.383	76.17179
898.775	89.19316
899.167	75.16963
899.559	21.05096
899.951	49.1096
900.342	41.09953
900.734	92.22372
901.125	49.12318
901.517	63.14863
901.908	67.15104
902.299	31.07339
902.69	57.13013
903.082	86.19859
903.473	90.2089
903.863	41.10032
904.254	72.16155
904.645	73.17135
905.036	78.18448
905.426	62.13315
905.817	52.12165
906.207	-35.08039
906.597	104.23325
906.987	35.08691
907.378	94.2285
907.768	58.14849
908.158	40.09361
908.547	62.15655
908.937	21.0515
909.327	72.16672
909.717	-1.00242
910.106	30.06905
910.495	47.11148
910.885	75.18262
911.274	79.18854
911.663	38.09213
912.052	19.04474
912.441	70.17232
912.83	88.19013
913.219	57.14313
913.608	97.22724
913.997	37.09046
914.385	107.2424
914.774	74.17176
915.162	60.13866
915.55	99.22564
915.939	44.108
916.327	36.08587
916.715	87.21579
917.103	79.18217
917.491	81.19064
917.878	102.23778
918.266	40.09974
918.654	97.23883
919.041	108.27319
919.429	74.16652
919.816	16.03923
920.203	72.16877
920.591	81.19242
920.978	54.12687
921.365	82.20743
921.752	54.12121
922.139	109.22272
922.525	27.06281
922.912	85.19678
923.299	86.2045
923.685	-26.06568
924.072	48.10304
924.458	37.08881
924.844	34.08119
925.231	-6.01339
925.617	71.1754
926.003	69.16864
926.389	68.16443
926.774	5.01225
927.16	109.25665
927.546	54.13509
927.931	45.10727
928.317	67.14584
928.702	65.14605
929.088	70.16203
929.473	56.13832
929.858	51.12078
930.243	96.22168
930.628	55.1299
931.013	68.16176
931.398	73.15667
931.783	31.0781
932.167	95.22377
932.552	86.20505
932.937	52.12313
933.321	72.17476
933.705	2.00483
934.09	44.10467
934.474	99.22053
934.858	43.10798
935.242	78.17134
935.626	91.22406
936.009	52.13508
936.393	96.23685
936.777	59.14634
937.16	80.2015
937.544	19.04236
937.927	62.15212
938.311	55.12768
938.694	84.21392
939.077	94.21386
939.46	60.13772
939.843	65.12492
940.226	69.16889
940.609	127.27821
940.991	30.07328
941.374	56.13224
941.757	48.11326
942.139	71.15238
942.522	103.22887
942.904	74.16986
943.286	89.21517
943.668	111.27742
944.05	35.08315
944.432	54.12732
944.814	49.11461
945.196	56.13214
945.578	98.22548
945.959	30.06679
946.341	50.11532
946.722	85.18833
947.104	75.17108
947.485	69.15313
947.866	76.18509
948.247	39.09592
948.628	-1.00231
949.009	36.08905
949.39	68.16089
949.771	51.11045
950.152	100.23376
950.532	79.1915
950.913	92.21058
951.293	62.16327
951.674	72.16632
952.054	109.26213
952.434	68.16201
952.814	67.15018
953.194	35.08729
953.574	91.21226
953.954	51.1146
954.334	102.2445
954.714	22.05205
955.093	71.16678
955.473	37.09029
955.853	38.0951
956.232	84.22113
956.611	59.13333
956.99	104.25006
957.37	38.09272
957.749	-14.03184
958.128	35.08567
958.506	1.00253
958.885	36.08725
959.264	106.25041
959.643	115.24852
960.021	92.2191
960.4	71.15271
960.778	64.14837
961.156	55.13182
961.535	64.14059
961.913	100.22308
962.291	14.03533
962.669	18.04441
963.047	58.1432
963.424	97.23989
963.802	67.15812
964.18	8.01926
964.557	83.18029
964.935	49.11101
965.312	61.15389
965.69	38.09067
966.067	54.1244
966.444	22.05123
966.821	30.07489
967.198	82.18693
967.575	81.18842
967.952	105.23322
968.329	40.09424
968.705	103.20932
969.082	80.19962
969.458	39.09133
969.835	71.16502
970.211	22.05531
970.587	78.18605
970.963	68.16573
971.339	35.08887
971.715	79.18897
972.091	51.12036
972.467	46.1085
972.843	78.18747
973.219	83.18742
973.594	55.13871
973.97	24.05336
974.345	87.19909
974.721	51.11634
975.096	69.16101
975.471	103.2302
975.846	56.12766
976.221	40.09811
976.596	85.19764
976.971	93.22042
977.346	43.09491
977.72	33.08068
978.095	24.05997
978.469	127.28419
978.844	96.22828
979.218	98.22692
979.593	48.10956
979.967	67.15271
980.341	39.08648
980.715	88.21231
981.089	39.0939
981.463	55.12054
981.837	33.0787
982.21	4.00871
982.584	36.08402
982.957	56.13521
983.331	9.02018
983.704	80.19023
984.078	59.13903
984.451	32.07527
984.824	48.11304
985.197	46.10533
985.57	48.11366
985.943	67.15499
986.316	44.10189
986.688	96.2192
987.061	73.16356
987.434	86.21778
987.806	27.06201
988.179	81.18081
988.551	42.10206
988.923	50.11734
989.295	108.25464
989.667	68.15777
990.039	84.20174
990.411	45.09729
990.783	100.21411
991.155	29.06743
991.527	33.07649
991.898	105.25011
992.27	62.14856
992.641	49.11721
993.012	55.12003
993.384	65.14707
993.755	34.08419
994.126	65.15084
994.497	41.09676
994.868	20.04354
995.239	46.10652
995.61	-3.00734
995.98	45.10468
996.351	82.19536
996.722	83.1852
997.092	29.06642
997.462	36.0818
997.833	61.13656
998.203	40.09152
998.573	68.16282
998.943	85.19044
999.313	80.18377
999.683	49.11313
1000.053	-10.02167
1000.423	65.14959
1000.792	-28.06999
1001.162	24.0565
1001.531	91.21401
1001.901	42.10006
1002.27	10.02099
1002.639	4.00983
1003.009	74.16706
1003.378	39.09634
1003.747	115.25437
1004.116	31.07111
1004.485	55.12556
1004.853	32.07697
1005.222	10.02392
1005.591	32.07263
1005.959	62.13361
1006.328	43.09285
1006.696	33.0761
1007.064	64.15254
1007.433	52.12356
1007.801	31.0718
1008.169	11.02656
1008.537	104.21622
1008.905	86.19161
1009.273	31.07305
1009.64	37.08597
1010.008	64.14513
1010.375	30.06861
1010.743	60.1273
1011.11	114.2603
1011.478	99.23473
1011.845	62.13803
1012.212	99.21431
1012.579	70.16447
1012.946	15.03393
1013.313	99.22071
1013.68	94.19796
1014.047	25.05726
1014.414	42.09478
1014.78	67.16002
1015.147	67.1524
1015.513	81.18566
1015.88	83.20104
1016.246	44.10273
1016.612	62.13361
1016.978	56.13234
1017.344	40.09523
1017.71	58.13414
1018.076	56.12446
1018.442	78.19272
1018.808	57.13806
1019.174	16.03851
1019.539	9.01899
1019.905	64.14478
1020.27	33.07815
1020.636	46.10393
1021.001	78.17832
1021.366	95.21758
1021.731	103.25622
1022.096	78.1901
1022.461	72.16268
1022.826	103.23372
1023.191	69.17395
1023.556	23.05143
1023.92	29.06786
1024.285	12.02791
1024.649	65.15102
1025.014	42.09856
1025.378	68.1648
1025.742	50.11789
1026.107	68.14528
1026.471	51.11271
1026.835	59.14
1027.199	49.11322
1027.562	15.03311
1027.926	53.12314
1028.29	81.19598
1028.654	66.14351
1029.017	103.24091
1029.381	46.10563
1029.744	47.11538
1030.107	122.2716
1030.471	93.21248
1030.834	32.06834
1031.197	79.18064
1031.56	35.07861
1031.923	48.11973
1032.286	69.15402
1032.648	68.15239
1033.011	79.17474
1033.374	55.12171
1033.736	3.00768
1034.099	21.04935
1034.461	48.1176
1034.823	60.14383
1035.185	37.08868
1035.548	68.15877
1035.91	34.07792
1036.272	92.19903
1036.634	97.22492
1036.995	24.05365
1037.357	59.13805
1037.719	17.03992
1038.08	80.18215
1038.442	63.1422
1038.803	44.09929
1039.165	4.00972
1039.526	78.17954
1039.887	68.15477
1040.248	47.1132
1040.609	70.16305
1040.97	49.11425
1041.331	62.15161
1041.692	104.23402
1042.053	82.17527
1042.413	32.07085
1042.774	117.26947
1043.134	78.17372
1043.495	39.09422
1043.855	117.2714
1044.215	49.11582
1044.576	96.21929
1044.936	55.11916
1045.296	58.1385
1045.656	34.07917
1046.016	66.15082
1046.375	66.15271
1046.735	60.13202
1047.095	49.10956
1047.454	91.17834
1047.814	64.1469
1048.173	36.08104
1048.533	86.18629
1048.892	47.10855
1049.251	35.08379
1049.61	37.08763
1049.969	63.14086
1050.328	91.18544
1050.687	11.02562
1051.046	23.05363
1051.405	39.09219
1051.763	80.17655
1052.122	2.00482
1052.48	85.19897
1052.839	115.25978
1053.197	53.11885
1053.555	50.10581
1053.914	55.12814
1054.272	14.03181
1054.63	27.0637
1054.988	94.21386
1055.345	46.09244
1055.703	74.16986
1056.061	93.23118
1056.419	88.22157
1056.776	44.10023
1057.134	8.01745
1057.491	73.17469
1057.848	43.10203
1058.206	32.0708
1058.563	10.02105
1058.92	103.2224
1059.277	62.14613
1059.634	31.06874
1059.991	87.19829
1060.348	85.18243
1060.704	112.25852
1061.061	41.08898
1061.418	65.15066
1061.774	50.1183
1062.131	51.13214
1062.487	47.10418
1062.843	59.14065
1063.199	51.12167
1063.555	70.15571
1063.911	46.11077
1064.267	101.19307
1064.623	64.15031
1064.979	-14.03079
1065.335	67.15086
1065.691	31.07006
1066.046	65.13475
1066.402	40.08602
1066.757	47.11401
1067.112	57.13301
1067.468	53.12134
1067.823	33.07433
1068.178	59.13513
1068.533	26.06054
1068.888	81.18253
1069.243	42.09949
1069.598	32.07407
1069.952	95.20679
1070.307	48.11462
1070.662	95.2167
1071.016	123.2625
1071.371	99.21358
1071.725	70.15758
1072.079	66.15167
1072.434	86.19945
1072.788	28.06298
1073.142	86.20143
1073.496	11.02504
1073.85	65.14281
1074.203	80.1848
1074.557	82.21192
1074.911	60.13529
1075.265	64.14124
1075.618	71.16542
1075.971	46.1044
1076.325	81.19833
1076.678	22.04827
1077.031	-11.02344
1077.385	76.15716
1077.738	75.15965
1078.091	32.07032
1078.444	33.07223
1078.796	58.13707
1079.149	45.10764
1079.502	91.20531
1079.855	50.1114
1080.207	53.1244
1080.56	59.14752
1080.912	45.10463
1081.264	53.12255
1081.617	40.09391
1081.969	63.15329
1082.321	21.04914
1082.673	81.17819
1083.025	47.10574
1083.377	33.07418
1083.728	72.15836
1084.08	40.09519
1084.432	79.1802
1084.783	27.05925
1085.135	58.13998
1085.486	19.04199
1085.838	76.17912
1086.189	77.17968
1086.54	57.12913
1086.891	90.22156
1087.242	120.28128
1087.593	34.07804
1087.944	109.23434
1088.295	96.20484
1088.646	97.22768
1088.996	43.09994
1089.347	31.07257
1089.698	39.08939
1090.048	22.05486
1090.398	63.13772
1090.749	61.13763
1091.099	69.16832
1091.449	101.24003
1091.799	70.16735
1092.149	47.11165
1092.499	70.16286
1092.849	63.15374
1093.199	49.11658
1093.548	82.18957
1093.898	32.07668
1094.248	29.07109
1094.597	60.14912
1094.947	28.07251
1095.296	72.17075
1095.645	35.08738
1095.994	51.11704
1096.343	57.13806
1096.692	73.18745
1097.041	55.14628
1097.39	41.09815
1097.739	48.11999
1098.088	69.17631
1098.437	61.15669
1098.785	-4.01041
1099.134	-2.00507
1099.482	42.11235
1099.83	16.04078
1100.179	64.16379
1100.527	4.0102
1100.875	44.11328
1101.223	54.13931
1101.571	17.04553
1101.919	55.14182
1102.267	46.12688
1102.615	0
1102.962	2.00642
1103.31	10.03209
1103.658	-3.00962
