Data from N3 R4 sample 12_Subt2__3__12-11-33-727.txt Node

Date: Thu Sep 18 12:11:33 PDT 2025
User: uwsun
Spectrometer: HDX01956
Trigger mode: 0
Integration Time (sec): 5.000000E-1
Scans to average: 1
Nonlinearity correction enabled: true
Boxcar width: 0
Storing dark spectrum: false
XAxis mode: Wavelengths
Number of Pixels in Spectrum: 2068
>>>>>Begin Spectral Data<<<<<
194.03	58.16696
194.578	78.25131
195.127	45.1435
195.676	66.21069
196.225	98.25746
196.773	99.27242
197.321	118.32434
197.87	195.49386
198.418	206.52458
198.966	221.57416
199.513	219.5493
200.061	214.53686
200.609	183.47904
201.156	216.46607
201.704	220.54594
202.251	218.57171
202.798	168.43325
203.345	220.53755
203.892	204.51011
204.438	190.44674
204.985	215.50424
205.532	185.48263
206.078	219.52723
206.624	267.65589
207.17	270.61871
207.716	252.60655
208.262	208.40736
208.808	268.6592
209.354	238.57937
209.899	203.50532
210.445	220.54335
210.99	249.59672
211.535	235.5451
212.08	190.4375
212.625	209.51571
213.17	243.60861
213.715	235.52845
214.259	252.57677
214.804	203.49187
215.348	252.57121
215.892	242.57741
216.436	227.50921
216.98	186.40461
217.524	248.58174
218.068	262.64706
218.612	267.66412
219.155	244.56564
219.698	233.54431
220.242	197.48002
220.785	222.51322
221.328	191.46644
221.871	218.54709
222.414	196.47821
222.956	149.35464
223.499	201.44105
224.041	205.46043
224.583	197.40838
225.126	182.39423
225.668	220.52432
226.21	247.61125
226.751	231.50367
227.293	177.39542
227.835	204.49215
228.376	247.54655
228.918	186.45668
229.459	171.42242
230	194.45952
230.541	181.41086
231.082	212.50719
231.622	154.34539
232.163	218.51517
232.704	261.63641
233.244	198.48363
233.784	199.474
234.324	270.58983
234.864	193.42903
235.404	174.4045
235.944	212.48932
236.484	245.59674
237.023	197.4566
237.563	258.58338
238.102	206.4785
238.641	170.42234
239.18	191.442
239.719	202.49725
240.258	198.43731
240.797	224.52401
241.335	235.55781
241.874	268.50499
242.412	242.57453
242.95	218.51716
243.488	141.31474
244.026	255.57765
244.564	244.48872
245.102	287.62895
245.64	196.46013
246.177	184.40282
246.715	253.59196
247.252	199.44365
247.789	286.50876
248.326	202.47921
248.863	204.4415
249.4	204.45432
249.936	268.5445
250.473	284.65053
251.009	182.41121
251.546	213.46738
252.082	213.45043
252.618	203.44657
253.154	218.51477
253.69	175.38788
254.226	243.56812
254.761	219.48156
255.297	220.47022
255.832	209.48863
256.367	219.50437
256.903	276.59476
257.438	216.49637
257.972	225.49018
258.507	196.44247
259.042	265.55916
259.576	311.66255
260.111	237.53098
260.645	245.51537
261.179	251.57321
261.713	292.6314
262.247	210.4704
262.781	206.42694
263.315	193.46095
263.849	238.58283
264.382	206.46486
264.915	254.58602
265.449	207.49684
265.982	232.51518
266.515	243.58235
267.048	218.45302
267.58	252.52811
268.113	215.45605
268.646	222.53213
269.178	244.53145
269.71	304.64806
270.243	256.57815
270.775	245.61494
271.307	206.48096
271.838	236.54428
272.37	220.52854
272.902	268.58868
273.433	272.58539
273.965	217.51727
274.496	207.50419
275.027	228.55648
275.558	236.56396
276.089	251.61249
276.62	217.53663
277.15	227.54649
277.681	205.43332
278.211	255.60551
278.741	236.51272
279.272	256.57083
279.802	232.56476
280.332	248.57172
280.861	220.51566
281.391	227.50544
281.921	216.50648
282.45	219.53262
282.98	253.64368
283.509	253.56169
284.038	247.55202
284.567	254.57691
285.096	225.53572
285.625	210.4642
286.153	322.7414
286.682	210.47505
287.21	186.43717
287.739	252.58071
288.267	246.58583
288.795	227.58142
289.323	223.5144
289.851	273.6247
290.378	215.47058
290.906	269.6412
291.433	285.68948
291.961	284.62959
292.488	259.62612
293.015	321.73039
293.542	308.76705
294.069	297.71363
294.596	243.58035
295.122	301.699
295.649	255.54349
296.175	295.68696
296.702	330.77737
297.228	271.63431
297.754	296.64416
298.28	287.64114
298.806	266.62468
299.332	312.67407
299.857	298.65567
300.383	263.64487
300.908	283.6769
301.433	306.72645
301.958	315.69612
302.483	279.67217
303.008	313.7532
303.533	292.73091
304.058	266.60367
304.582	294.6737
305.107	252.64148
305.631	319.69671
306.155	279.63227
306.679	292.6667
307.203	328.73347
307.727	314.71894
308.251	313.74692
308.775	360.84044
309.298	311.72564
309.822	306.74431
310.345	349.80147
310.868	337.78289
311.391	317.75473
311.914	253.62059
312.437	385.83799
312.96	300.68551
313.482	267.61196
314.005	280.68006
314.527	287.72551
315.049	366.88854
315.571	343.74246
316.093	395.93243
316.615	325.75234
317.137	355.74116
317.659	379.87696
318.18	310.71463
318.702	402.89595
319.223	403.77601
319.744	380.81639
320.265	363.84893
320.786	397.94694
321.307	338.80486
321.828	343.74436
322.348	391.87739
322.869	368.84086
323.389	407.75545
323.909	372.81262
324.43	422.95528
324.95	394.85921
325.47	395.93568
325.989	418.94161
326.509	434.91873
327.029	468.00175
327.548	409.88039
328.067	439.00679
328.587	477.12376
329.106	385.82767
329.625	473.15774
330.144	468.02117
330.662	462.01997
331.181	462.02507
331.7	479.04102
332.218	515.03476
332.736	434.96245
333.255	530.15768
333.773	498.09684
334.291	504.17896
334.808	499.0482
335.326	514.07146
335.844	550.19636
336.361	548.31199
336.879	537.17225
337.396	572.28533
337.913	552.17782
338.43	562.16599
338.947	541.19842
339.464	557.10438
339.981	527.16106
340.497	561.27474
341.014	563.26792
341.53	563.16832
342.046	615.40885
342.562	604.38114
343.078	567.23052
343.594	635.37245
344.11	702.50933
344.626	628.45044
345.141	690.4154
345.657	684.38855
346.172	656.4357
346.687	610.27699
347.202	707.44412
347.717	682.46566
348.232	706.58221
348.747	696.44186
349.261	666.31628
349.776	725.54045
350.29	754.685
350.805	723.60075
351.319	745.53627
351.833	721.4814
352.347	667.42447
352.861	727.52259
353.374	760.5248
353.888	801.72714
354.401	744.50021
354.915	742.48796
355.428	826.8088
355.941	738.52829
356.454	764.49547
356.967	691.44711
357.48	814.60775
357.993	811.75394
358.505	727.58019
359.018	873.85677
359.53	815.7491
360.042	863.66527
360.554	902.90561
361.066	821.75065
361.578	889.6803
362.09	827.71926
362.602	841.62431
363.113	879.78695
363.625	851.67268
364.136	888.66574
364.647	840.73663
365.158	895.78898
365.669	876.8087
366.18	956.90708
366.691	940.73579
367.201	927.89999
367.712	976.88052
368.222	1011.9448
368.733	972.76732
369.243	977.83255
369.753	989.91243
370.263	1021.0668
370.773	988.02941
371.282	1054.09061
371.792	1082.05979
372.301	977.99625
372.811	1108.41948
373.32	1060.87719
373.829	1103.12772
374.338	1163.06476
374.847	1157.1515
375.356	1179.23359
375.865	1329.16638
376.373	1311.30475
376.882	1369.70349
377.39	1383.56433
377.898	1423.67251
378.407	1444.4473
378.915	1485.37706
379.423	1611.68938
379.93	1720.78858
380.438	1664.8559
380.946	1758.82245
381.453	1816.99144
381.96	1924.05705
382.468	2117.11701
382.975	2238.37867
383.482	2257.96412
383.989	2375.70368
384.495	2444.22577
385.002	2516.74194
385.509	2611.38553
386.015	2877.62363
386.521	2968.15392
387.028	3081.13169
387.534	3168.78338
388.04	3281.45775
388.546	3355.9115
389.051	3486.8532
389.557	3779.0518
390.063	4054.76588
390.568	4221.10617
391.073	4256.54949
391.578	4522.06117
392.084	4675.47216
392.589	4784.08214
393.093	5182.52544
393.598	5685.98042
394.103	6107.03094
394.607	6814.94517
395.112	7163.07799
395.616	7821.23549
396.12	8267.3834
396.624	9110.68296
397.128	9828.28516
397.632	11126.78026
398.136	11946.89367
398.639	12606.58893
399.143	14135.07179
399.646	15892.37972
400.15	17745.23557
400.653	19717.8479
401.156	22247.35908
401.659	25969.18843
402.162	31546.69679
402.664	41910.05289
403.167	59647.58529
403.67	62808.89516
404.172	63919.58413
404.674	63858.43483
405.176	63738.15102
405.678	63977.72923
406.18	64011.81569
406.682	63863.44694
407.184	63926.60148
407.686	63841.39382
408.187	64025.8516
408.688	63892.51763
409.19	63833.37461
409.691	58972.903
410.192	49862.87056
410.693	43296.53183
411.194	38960.44031
411.694	37165.20223
412.195	34237.86283
412.696	30832.32407
413.196	28894.40761
413.696	28164.01554
414.196	28651.6194
414.696	27889.87365
415.196	26781.18119
415.696	24212.93505
416.196	19640.13855
416.695	15084.36002
417.195	13041.24975
417.694	12392.3133
418.194	11575.49933
418.693	10820.63826
419.192	10454.19227
419.691	10084.03132
420.19	10024.82014
420.688	9934.55903
421.187	9443.39928
421.685	8777.09134
422.184	7935.18832
422.682	6968.41059
423.18	5778.92949
423.678	5244.15218
424.176	4891.33522
424.674	4648.30054
425.172	4301.85241
425.669	4051.27142
426.167	3902.9519
426.664	3509.95313
427.161	3215.10384
427.659	3064.44902
428.156	2838.73752
428.652	2638.6345
429.149	2547.3922
429.646	2502.94596
430.143	2330.24868
430.639	2184.12517
431.135	2072.31405
431.632	1987.8596
432.128	1832.95405
432.624	1853.2812
433.12	1723.6678
433.616	1657.47727
434.111	1565.66719
434.607	1499.62471
435.103	1460.1711
435.598	1523.20418
436.093	1422.4485
436.588	1339.25679
437.083	1256.15099
437.578	1253.23664
438.073	1124.27514
438.568	1191.32519
439.062	1108.86429
439.557	1100.05882
440.051	997.82707
440.546	970.81182
441.04	986.95791
441.534	996.0834
442.028	997.98116
442.522	911.83779
443.015	885.57588
443.509	910.86302
444.002	860.79228
444.496	832.52068
444.989	867.78571
445.482	866.82553
445.975	903.7459
446.468	844.53489
446.961	892.60844
447.454	842.59326
447.947	800.64132
448.439	836.75455
448.931	790.55445
449.424	805.77278
449.916	793.66899
450.408	759.49652
450.9	699.49289
451.392	744.65376
451.884	678.36821
452.375	658.44674
452.867	709.38536
453.358	670.34957
453.849	690.28164
454.341	707.38928
454.832	648.22919
455.323	737.60466
455.814	623.26484
456.304	680.38042
456.795	667.33828
457.285	632.22738
457.776	666.33289
458.266	611.29403
458.756	596.2592
459.247	624.3288
459.737	615.32917
460.226	661.32501
460.716	605.29247
461.206	604.29117
461.695	539.20935
462.185	587.24909
462.674	531.09789
463.163	603.20244
463.653	615.15484
464.142	544.19381
464.63	529.16353
465.119	537.12866
465.608	519.10418
466.096	472.93622
466.585	484.00881
467.073	478.03202
467.561	462.01869
468.05	483.01497
468.538	469.05249
469.026	412.90835
469.513	430.83537
470.001	457.96551
470.489	459.00298
470.976	532.12428
471.463	473.08188
471.951	470.07307
472.438	465.00111
472.925	417.91148
473.412	379.86094
473.899	409.87093
474.385	353.8139
474.872	425.91757
475.359	378.87135
475.845	378.72839
476.331	331.66344
476.817	371.84686
477.303	379.82353
477.789	346.77595
478.275	329.77276
478.761	333.74634
479.247	327.68816
479.732	300.71275
480.218	358.88537
480.703	291.68325
481.188	301.6181
481.673	306.66761
482.158	286.5885
482.643	306.74403
483.128	376.82066
483.612	382.85174
484.097	294.67478
484.581	294.64714
485.066	330.76497
485.55	338.70395
486.034	296.60935
486.518	321.72832
487.002	247.57701
487.486	233.54495
487.969	233.54559
488.453	223.53585
488.936	226.49079
489.42	291.61213
489.903	237.56797
490.386	214.42724
490.869	334.68943
491.352	217.50455
491.835	278.54084
492.318	210.45663
492.8	263.52032
493.283	233.57386
493.765	244.57548
494.247	289.64054
494.73	264.55889
495.212	220.50354
495.694	259.58552
496.175	203.4733
496.657	275.62219
497.139	212.34999
497.62	248.57355
498.102	201.48574
498.583	153.36766
499.064	180.3909
499.545	172.38243
500.026	208.45593
500.507	184.41216
500.988	230.55508
501.469	129.3161
501.949	183.43991
502.43	210.49049
502.91	261.52991
503.39	137.33345
503.87	229.52256
504.35	171.39021
504.83	144.30899
505.31	152.35879
505.79	117.27269
506.269	156.35031
506.749	168.37477
507.228	171.39304
507.707	205.44338
508.187	167.38999
508.666	204.49066
509.145	132.30371
509.623	137.31528
510.102	181.42666
510.581	175.41204
511.059	150.37034
511.538	155.39144
512.016	201.46772
512.494	144.33964
512.972	155.36367
513.45	143.32764
513.928	160.38089
514.406	154.37027
514.884	166.41885
515.361	150.35215
515.839	225.50078
516.316	175.4154
516.793	157.38826
517.27	158.37208
517.747	146.36799
518.224	164.36948
518.701	159.3439
519.178	151.37082
519.654	172.39779
520.131	113.27658
520.607	96.2324
521.083	126.28132
521.56	142.32881
522.036	113.24315
522.512	187.45003
522.987	177.41642
523.463	143.33302
523.939	208.50142
524.414	174.38864
524.89	168.39209
525.365	175.38578
525.84	119.28248
526.315	139.33122
526.79	164.36191
527.265	185.41671
527.74	134.3201
528.215	112.25821
528.689	88.19168
529.164	142.29904
529.638	79.19902
530.112	99.23074
530.587	143.30068
531.061	192.4525
531.534	151.35705
532.008	140.33495
532.482	169.37973
532.956	98.24772
533.429	191.45547
533.903	123.26592
534.376	180.3879
534.849	138.31205
535.322	119.27724
535.795	102.24394
536.268	189.44586
536.741	133.31084
537.213	139.31425
537.686	128.30881
538.158	171.38028
538.631	127.30333
539.103	81.18223
539.575	143.28914
540.047	139.29807
540.519	130.30615
540.991	159.38004
541.463	115.2734
541.934	112.25037
542.406	178.41788
542.877	171.37728
543.348	143.33971
543.82	148.35355
544.291	196.44536
544.762	161.37583
545.233	163.40517
545.703	148.32373
546.174	137.31301
546.645	159.37757
547.115	176.4156
547.585	172.38703
548.056	217.51846
548.526	187.4336
548.996	199.46325
549.466	206.487
549.935	170.39816
550.405	203.4338
550.875	153.3573
551.344	212.49108
551.814	217.48257
552.283	253.5315
552.752	214.48764
553.221	239.51006
553.69	246.53695
554.159	240.57855
554.628	240.52629
555.096	272.66632
555.565	189.40808
556.033	295.67341
556.502	203.47721
556.97	241.51812
557.438	205.46855
557.906	278.62936
558.374	235.52759
558.842	230.53403
559.31	222.4821
559.777	234.55426
560.245	215.47892
560.712	268.58942
561.18	260.55355
561.647	233.49963
562.114	268.59016
562.581	296.69702
563.048	284.62277
563.514	360.85493
563.981	341.73876
564.448	284.61437
564.914	328.72258
565.381	379.81266
565.847	310.68751
566.313	276.61389
566.779	285.6135
567.245	303.66877
567.711	305.69652
568.176	340.72102
568.642	337.80602
569.108	403.92766
569.573	380.82447
570.038	376.73429
570.504	382.80867
570.969	386.89864
571.434	424.87322
571.899	408.90292
572.363	462.97629
572.828	497.04307
573.293	487.0207
573.757	514.08617
574.222	536.08521
574.686	507.0627
575.15	499.1002
575.614	582.23548
576.078	479.03175
576.542	472.98868
577.006	544.10948
577.469	495.11685
577.933	529.09277
578.396	511.10504
578.86	452.984
579.323	593.28375
579.786	526.03089
580.249	585.23835
580.712	495.1032
581.175	481.09095
581.637	481.00454
582.1	500.99176
582.563	486.94103
583.025	442.99892
583.487	501.93507
583.95	442.87302
584.412	496.94708
584.874	489.0952
585.336	459.00424
585.797	486.96579
586.259	465.00111
586.721	408.89351
587.182	464.98523
587.643	488.01356
588.105	467.01533
588.566	437.83946
589.027	491.10465
589.488	496.03983
589.949	504.12028
590.41	516.92042
590.87	601.22788
591.331	566.1084
591.791	536.12483
592.252	522.106
592.712	535.16443
593.172	556.13965
593.632	703.35869
594.092	541.0876
594.552	633.20799
595.011	601.22788
595.471	695.37529
595.931	725.41801
596.39	682.4424
596.849	722.46246
597.308	766.38712
597.768	780.75314
598.227	803.65452
598.685	853.63494
599.144	900.77535
599.603	905.76479
600.062	961.635
600.52	1056.90686
600.978	1051.00304
601.437	1102.98105
601.895	1186.93895
602.353	1194.00628
602.811	1297.19504
603.269	1314.36697
603.727	1351.44066
604.184	1457.39366
604.642	1487.67794
605.099	1590.60459
605.557	1624.78238
606.014	1681.3974
606.471	1721.00397
606.928	1893.65197
607.385	1962.20922
607.842	2010.84491
608.299	2076.96402
608.755	2117.15236
609.212	2198.81337
609.668	2335.91259
610.125	2389.25617
610.581	2398.11563
611.037	2421.89763
611.493	2468.1116
611.949	2586.38132
612.405	2581.477
612.861	2713.07535
613.316	2674.30088
613.772	2740.05734
614.227	2813.34073
614.683	2786.65143
615.138	2734.18548
615.593	2798.13139
616.048	2878.0522
616.503	2830.39628
616.958	2833.59275
617.412	2834.26548
617.867	2866.92977
618.321	2751.52016
618.776	2763.84309
619.23	2766.1772
619.684	2765.90796
620.138	2710.03935
620.592	2638.3563
621.046	2690.21823
621.5	2637.30936
621.954	2631.85089
622.407	2516.8376
622.861	2498.32119
623.314	2506.95092
623.768	2371.13301
624.221	2381.30317
624.674	2306.99803
625.127	2340.03947
625.58	2203.82282
626.033	2234.71442
626.485	2201.12035
626.938	2180.08888
627.39	2160.99262
627.843	2117.90484
628.295	2050.87051
628.747	2059.02808
629.199	2031.80519
629.651	1984.80907
630.103	1914.76857
630.555	1936.44522
631.006	1958.85064
631.458	1940.89071
631.909	1868.64004
632.361	1891.77389
632.812	1929.8136
633.263	1904.54051
633.714	1902.44379
634.165	1938.96834
634.616	1875.86295
635.067	1948.61755
635.518	1937.91786
635.968	1909.17965
636.419	2031.62729
636.869	1988.94594
637.319	1996.86318
637.769	2094.77715
638.219	2138.01299
638.669	2081.01725
639.119	2138.07834
639.569	2171.10896
640.019	2324.99244
640.468	2333.85062
640.918	2397.14604
641.367	2362.85066
641.816	2492.84416
642.265	2548.10536
642.714	2611.02158
643.163	2698.07836
643.612	2767.42795
644.061	2840.66767
644.51	2934.03893
644.958	2964.82533
645.406	2997.28327
645.855	2988.38069
646.303	3163.0597
646.751	3226.06169
647.199	3244.92765
647.647	3367.05237
648.095	3368.93366
648.543	3480.22402
648.99	3510.24263
649.438	3581.95917
649.885	3537.50178
650.333	3600.94739
650.78	3611.25475
651.227	3611.34519
651.674	3606.86826
652.121	3723.33022
652.568	3646.34322
653.015	3628.41486
653.461	3630.13168
653.908	3534.92685
654.354	3581.15516
654.801	3511.07427
655.247	3543.56025
655.693	3493.82767
656.139	3508.18961
656.585	3517.1925
657.031	3493.09532
657.477	3509.63148
657.922	3497.87054
658.368	3405.41651
658.813	3350.91279
659.259	3507.30256
659.704	3495.15315
660.149	3378.99526
660.594	3379.18457
661.039	3333.93489
661.484	3382.16824
661.929	3360.08501
662.373	3344.57569
662.818	3351.46856
663.262	3377.31082
663.707	3393.67057
664.151	3346.36924
664.595	3495.28408
665.039	3408.48269
665.483	3583.63202
665.927	3545.05883
666.371	3669.04252
666.814	3609.12214
667.258	3746.18305
667.701	3750.37689
668.145	3855.37802
668.588	3799.36656
669.031	3967.91531
669.474	3982.05049
669.917	4106.36991
670.36	4184.26534
670.803	4218.99583
671.245	4194.90653
671.688	4239.03578
672.13	4348.45552
672.573	4388.25745
673.015	4422.87449
673.457	4439.1466
673.899	4485.86172
674.341	4646.74115
674.783	4535.7637
675.225	4695.88495
675.666	4714.83211
676.108	4722.93932
676.549	4839.37638
676.991	4855.96051
677.432	4841.372
677.873	4883.20718
678.314	4873.5154
678.755	4885.79049
679.196	4832.24472
679.637	4823.58228
680.078	4972.31836
680.518	4953.20193
680.959	4943.47269
681.399	4957.77098
681.839	4908.6415
682.28	5028.76731
682.72	4947.17667
683.16	5060.77977
683.6	4954.13561
684.039	4959.51682
684.479	5039.70613
684.919	5151.27021
685.358	5167.69156
685.798	5220.05151
686.237	5211.32774
686.676	5247.92813
687.115	5274.20534
687.554	5475.21464
687.993	5366.71958
688.432	5546.83389
688.871	5530.87783
689.309	5534.19874
689.748	5720.19258
690.186	5639.95417
690.625	5709.95796
691.063	5847.00361
691.501	5949.23163
691.939	6049.3352
692.377	6049.03602
692.815	6167.06246
693.253	6061.89489
693.69	6192.32684
694.128	6192.99494
694.565	6335.77703
695.003	6477.29648
695.44	6383.76789
695.877	6440.71158
696.314	6477.07472
696.751	6483.46626
697.188	6605.59179
697.625	6611.3793
698.061	6597.79133
698.498	6509.71652
698.934	6703.76377
699.371	6745.66824
699.807	6769.68164
700.243	6797.81891
700.679	6835.36067
701.115	6887.60983
701.551	6949.58942
701.987	6863.25885
702.422	6936.75084
702.858	6996.74986
703.294	7185.56747
703.729	6976.86133
704.164	7000.74788
704.599	7064.40654
705.035	7124.44114
705.47	7115.86106
705.904	7121.59572
706.339	7231.5784
706.774	7259.6878
707.209	7367.69481
707.643	7242.79708
708.078	7391.92714
708.512	7345.09749
708.946	7296.75206
709.38	7384.80048
709.814	7290.52602
710.248	7502.99846
710.682	7506.90481
711.116	7400.94264
711.549	7429.22232
711.983	7336.63864
712.416	7428.81036
712.85	7358.01511
713.283	7410.77182
713.716	7345.0141
714.149	7272.62286
714.582	7356.51877
715.015	7263.93114
715.448	7263.10284
715.881	7166.24419
716.313	7188.64433
716.746	7239.73032
717.178	7107.7917
717.61	7177.15448
718.043	7174.95429
718.475	7157.85108
718.907	7099.01462
719.339	7057.46394
719.77	7062.76325
720.202	6934.03027
720.634	6972.90688
721.065	7009.6536
721.497	7055.88741
721.928	6873.86772
722.359	7054.85917
722.79	6804.743
723.221	6732.97851
723.652	6859.13191
724.083	6793.37724
724.514	6700.49544
724.945	6647.60724
725.375	6710.60064
725.806	6622.93943
726.236	6541.22616
726.666	6632.64746
727.096	6597.89147
727.526	6679.27041
727.956	6712.46751
728.386	6722.88737
728.816	6508.25697
729.246	6526.97855
729.675	6459.89488
730.105	6508.90016
730.534	6406.60179
730.964	6340.0838
731.393	6427.92632
731.822	6310.2912
732.251	6346.22225
732.68	6406.55188
733.109	6338.00993
733.537	6408.93639
733.966	6283.12397
734.395	6460.54498
734.823	6337.29301
735.251	6263.8338
735.68	6287.00597
736.108	6214.13318
736.536	6171.68094
736.964	6098.63807
737.392	6039.19954
737.82	6195.80074
738.247	6051.83563
738.675	6002.75328
739.102	5992.20456
739.53	5874.5272
739.957	5930.55238
740.384	5884.9704
740.811	5810.25339
741.238	5840.15237
741.665	5847.84139
742.092	5581.77578
742.519	5626.34908
742.945	5658.17152
743.372	5546.39623
743.798	5451.68081
744.225	5356.09766
744.651	5432.49288
745.077	5294.54435
745.503	5378.23375
745.929	5282.33575
746.355	5201.38646
746.781	5090.52925
747.207	5051.31456
747.632	4926.73992
748.058	4956.8419
748.483	4986.09769
748.908	4888.7736
749.334	4778.75411
749.759	4719.5261
750.184	4697.62673
750.609	4681.73955
751.033	4610.40194
751.458	4599.09519
751.883	4420.911
752.307	4512.53416
752.732	4410.26466
753.156	4276.99357
753.58	4298.64655
754.005	4153.19689
754.429	4208.76127
754.853	4053.2036
755.277	4079.83006
755.7	4001.18834
756.124	3966.22023
756.548	3938.84155
756.971	3912.0914
757.394	3827.47958
757.818	3788.58138
758.241	3760.47038
758.664	3632.45257
759.087	3592.6892
759.51	3577.27831
759.933	3534.17435
760.356	3457.67133
760.778	3395.30714
761.201	3289.19764
761.623	3267.09449
762.046	3202.98836
762.468	3196.1496
762.89	3134.28011
763.312	3101.32526
763.734	3139.21962
764.156	3016.3806
764.578	2921.87587
765	2971.29092
765.421	2862.60167
765.843	2841.75405
766.264	2778.0937
766.686	2639.35429
767.107	2689.23378
767.528	2657.60381
767.949	2635.49864
768.37	2632.37055
768.791	2520.12686
769.212	2466.41889
769.632	2470.01193
770.053	2327.55171
770.473	2326.09644
770.894	2209.14545
771.314	2219.93935
771.734	2123.84884
772.154	2149.30886
772.575	2122.78969
772.994	2092.70042
773.414	2100.92022
773.834	1999.08648
774.254	1957.96234
774.673	2015.02604
775.093	1950.06421
775.512	1795.90419
775.931	1831.05086
776.351	1822.97201
776.77	1769.86011
777.189	1714.6713
777.607	1663.9196
778.026	1685.83821
778.445	1591.82856
778.864	1574.78604
779.282	1590.56594
779.701	1499.66965
780.119	1513.73185
780.537	1425.55543
780.955	1420.60143
781.373	1411.51222
781.791	1480.31243
782.209	1326.1249
782.627	1266.55138
783.045	1297.11975
783.462	1225.38834
783.88	1245.46621
784.297	1162.25513
784.715	1117.26556
785.132	1115.05988
785.549	1102.14552
785.966	1055.09696
786.383	1103.12266
786.8	1071.90997
787.217	1066.98562
787.633	1049.09562
788.05	974.77902
788.466	963.76552
788.883	948.98888
789.299	892.70858
789.715	909.79857
790.131	865.76803
790.547	888.80813
790.963	860.74948
791.379	821.73023
791.795	822.50161
792.21	797.51789
792.626	761.48432
793.041	753.55626
793.457	682.42541
793.872	675.32755
794.287	710.45779
794.702	714.45744
795.117	661.41835
795.532	639.39758
795.947	613.24677
796.362	604.20918
796.776	659.27473
797.191	582.24246
797.605	564.16754
798.02	527.12464
798.434	586.11407
798.848	550.20751
799.262	516.13133
799.676	518.11185
800.09	439.96847
800.504	496.05631
800.918	425.86879
801.331	417.96639
801.745	471.94754
802.158	425.94739
802.572	445.96444
802.985	436.93184
803.398	411.87671
803.811	382.87355
804.224	391.86837
804.637	386.83499
805.05	376.77786
805.462	361.80176
805.875	308.743
806.288	336.74702
806.7	299.68612
807.112	324.67719
807.525	289.64667
807.937	310.70807
808.349	276.63601
808.761	307.69854
809.173	317.70844
809.584	302.68286
809.996	243.5536
810.408	275.66979
810.819	244.53394
811.231	304.75737
811.642	306.70288
812.053	333.74511
812.464	268.58645
812.875	287.68463
813.286	275.66579
813.697	276.57636
814.108	256.57697
814.519	309.63338
814.929	250.59261
815.34	196.44103
815.75	195.47213
816.16	157.36548
816.571	163.40059
816.981	175.38319
817.391	133.30179
817.801	223.52095
818.211	177.39558
818.62	170.38848
819.03	184.42301
819.44	131.32052
819.849	158.37281
820.259	147.35337
820.668	181.42168
821.077	182.43093
821.486	152.34105
821.895	171.39194
822.304	139.35079
822.713	168.37198
823.122	166.39062
823.531	120.26593
823.939	173.39939
824.348	175.39757
824.756	144.34017
825.164	114.27233
825.573	122.29222
825.981	109.25635
826.389	138.32865
826.797	149.36103
827.205	147.32107
827.612	104.24359
828.02	81.18096
828.428	123.29837
828.835	94.23981
829.243	143.31947
829.65	109.26123
830.057	96.22132
830.464	123.28904
830.871	152.34525
831.278	106.24447
831.685	155.32275
832.092	93.2153
832.499	100.20883
832.905	100.24044
833.312	81.17257
833.718	167.39595
834.124	123.26683
834.531	117.27805
834.937	127.31189
835.343	94.21446
835.749	97.21213
836.155	84.21165
836.561	89.20988
836.966	110.25501
837.372	83.20165
837.777	78.18733
838.183	80.16833
838.588	123.29276
838.993	93.2165
839.399	110.25764
839.804	73.17121
840.209	93.23
840.613	128.26778
841.018	72.17423
841.423	94.2314
841.828	96.2338
842.232	90.20914
842.637	139.31361
843.041	70.17378
843.445	27.06508
843.849	68.16257
844.253	89.20105
844.657	65.15874
845.061	126.27538
845.465	73.16914
845.869	138.30237
846.272	51.12036
846.676	57.12992
847.079	103.25276
847.483	133.31376
847.886	71.16385
848.289	81.21125
848.692	50.12127
849.095	39.08986
849.498	59.14167
849.901	63.1369
850.304	70.15997
850.707	102.24757
851.109	78.18818
851.512	81.19124
851.914	23.05669
852.316	99.24241
852.718	85.21673
853.121	64.15078
853.523	7.01573
853.925	57.14529
854.326	55.13352
854.728	47.1173
855.13	67.16836
855.531	78.17882
855.933	52.11864
856.334	95.22855
856.736	88.18948
857.137	93.20794
857.538	126.30376
857.939	64.15441
858.34	51.11816
858.741	55.13831
859.142	71.16228
859.542	74.18958
859.943	59.14092
860.343	48.1155
860.744	66.1544
861.144	117.27387
861.544	66.15452
861.945	67.16399
862.345	42.09845
862.745	59.14221
863.145	69.15453
863.544	98.2376
863.944	84.18917
864.344	19.04507
864.743	86.20363
865.143	98.24329
865.542	13.02873
865.941	84.19982
866.34	57.12913
866.74	58.15072
867.139	88.20417
867.537	75.18125
867.936	87.20085
868.335	51.12479
868.734	68.16752
869.132	27.05962
869.531	56.12828
869.929	59.12941
870.327	99.22583
870.726	56.13275
871.124	78.17228
871.522	57.13931
871.92	68.16089
872.318	80.18547
872.715	45.10554
873.113	42.09795
873.511	59.14076
873.908	95.23356
874.306	91.21834
874.703	31.07415
875.1	46.11178
875.497	67.15308
875.894	114.27097
876.291	81.19057
876.688	55.13702
877.085	45.10298
877.482	89.21281
877.878	77.17989
878.275	67.16412
878.671	30.06195
879.068	97.22269
879.464	99.22756
879.86	71.16045
880.256	67.15573
880.652	36.08846
881.048	61.1434
881.444	59.13235
881.84	109.26362
882.236	60.14481
882.631	120.28117
883.027	109.24934
883.422	37.0908
883.817	39.09546
884.213	26.06467
884.608	104.24873
885.003	56.12833
885.398	75.18016
885.793	64.15353
886.188	27.06476
886.582	55.13447
886.977	42.09505
887.371	27.06555
887.766	46.11098
888.16	33.07803
888.554	59.13892
888.949	78.1874
889.343	44.10277
889.737	50.13025
890.131	41.09924
890.525	92.22681
890.918	55.13302
891.312	54.12246
891.706	42.10628
892.099	84.20388
892.492	118.23723
892.886	63.14736
893.279	66.1611
893.672	63.1554
894.065	78.18726
894.458	36.08643
894.851	74.17203
895.244	27.0667
895.637	76.17556
896.029	68.16039
896.422	36.08359
896.814	47.11204
897.206	64.14814
897.599	97.22821
897.991	71.16542
898.383	62.14054
898.775	147.31508
899.167	68.15402
899.559	61.14692
899.951	93.20614
900.342	61.14753
900.734	76.18537
901.125	25.06312
901.517	37.08773
901.908	27.06137
902.299	37.08749
902.69	88.19964
903.082	107.24604
903.473	88.20434
903.863	44.1076
904.254	105.23399
904.645	26.06159
905.036	76.17982
905.426	67.14374
905.817	69.16088
906.207	11.02503
906.597	89.20023
906.987	35.08691
907.378	80.19498
907.768	51.13073
908.158	63.14678
908.547	56.14156
908.937	12.02948
909.327	98.22575
909.717	55.13192
910.106	41.09417
910.495	66.15598
910.885	82.1994
911.274	16.03865
911.663	54.13053
912.052	62.14476
912.441	59.14554
912.83	83.17952
913.219	74.18525
913.608	40.09475
913.997	45.10986
914.385	100.22686
914.774	45.10505
915.162	92.21126
915.55	49.11281
915.939	49.12016
916.327	27.06451
916.715	67.16679
917.103	48.11137
917.491	54.12776
917.878	91.2126
918.266	28.06997
918.654	96.23641
919.041	72.1833
919.429	75.16873
919.816	53.12905
920.203	103.23997
920.591	62.14783
920.978	78.1824
921.365	41.10447
921.752	7.01586
922.139	69.14227
922.525	36.08359
922.912	81.18767
923.299	73.17402
923.685	-9.02266
924.072	12.02596
924.458	69.16461
924.844	57.13551
925.231	62.13636
925.617	55.13627
926.003	20.04933
926.389	71.17159
926.774	70.16939
927.16	81.19176
927.546	77.19182
927.931	44.10491
928.317	71.15442
928.702	97.21652
929.088	127.29063
929.473	77.18945
929.858	59.13951
930.243	90.20807
930.628	68.1602
931.013	61.1453
931.398	36.07788
931.783	51.12802
932.167	50.1188
932.552	79.18861
932.937	68.16052
933.321	62.15077
933.705	31.07452
934.09	27.06444
934.474	21.04754
934.858	34.08552
935.242	59.13012
935.626	54.13387
936.009	63.16335
936.393	107.26345
936.777	59.14634
937.16	74.18659
937.544	38.08439
937.927	29.07159
938.311	56.12998
938.694	104.26392
939.077	38.08743
939.46	8.01855
939.843	79.15131
940.226	35.08621
940.609	108.23754
940.991	56.13613
941.374	48.11352
941.757	86.20143
942.139	103.21953
942.522	103.22887
942.904	76.17438
943.286	57.13864
943.668	75.18867
944.05	89.20923
944.432	38.08987
944.814	48.11229
945.196	48.11344
945.578	54.12534
945.959	41.09107
946.341	22.05102
946.722	72.15996
947.104	95.21583
947.485	101.22265
947.866	62.15139
948.247	79.19286
948.628	26.05982
949.009	71.17449
949.39	66.15622
949.771	35.07606
950.152	64.15066
950.532	88.21295
950.913	44.10168
951.293	61.16067
951.674	82.18905
952.054	106.25506
952.434	62.14788
952.814	31.07
953.194	70.17347
953.574	69.16164
953.954	63.14121
954.334	107.25624
954.714	58.13627
955.093	95.22211
955.473	56.13618
955.853	59.14709
956.232	38.10081
956.611	62.14003
956.99	61.14786
957.37	11.02697
957.749	38.08551
958.128	46.11236
958.506	48.12038
958.885	21.05104
959.264	85.20162
959.643	133.28631
960.021	74.17684
960.4	52.1123
960.778	37.08624
961.156	46.11043
961.535	9.02
961.913	82.18361
962.291	51.12784
962.669	66.1614
963.047	76.18702
963.424	111.27381
963.802	42.0996
964.18	60.14306
964.557	68.14818
964.935	85.19115
965.312	91.22834
965.69	57.13551
966.067	24.05562
966.444	15.03497
966.821	82.20276
967.198	121.27367
967.575	75.17467
967.952	53.11899
968.329	80.18701
968.705	110.22318
969.082	119.29483
969.458	54.12608
969.835	67.15585
970.211	99.24546
970.587	76.18135
970.963	29.07119
971.339	88.22133
971.715	75.17954
972.091	32.0758
972.467	3.00714
972.843	82.19694
973.219	62.1406
973.594	27.06843
973.97	5.01116
974.345	67.15394
974.721	27.06189
975.096	112.25914
975.471	77.17302
975.846	89.20154
976.221	2.00494
976.596	86.19993
976.971	84.19944
977.346	70.15364
977.72	28.06852
978.095	40.09967
978.469	75.16963
978.844	46.11043
979.218	136.31254
979.593	89.20146
979.967	28.06432
980.341	92.20175
980.715	57.13832
981.089	41.09867
981.463	94.20431
981.837	92.21691
982.21	64.13763
982.584	74.17142
982.957	46.11127
983.331	30.06698
983.704	65.15501
984.078	52.1227
984.451	57.13343
984.824	56.13168
985.197	31.0712
985.57	40.09486
985.943	41.09533
986.316	42.09729
986.688	73.16746
987.061	131.29
987.434	92.23272
987.806	22.05058
988.179	15.03394
988.551	67.16204
988.923	62.14516
989.295	78.18498
989.667	62.14402
990.039	81.19465
990.411	2.00436
990.783	51.11035
991.155	18.04194
991.527	68.15652
991.898	33.07969
992.27	83.19809
992.641	45.10773
993.012	21.04616
993.384	66.1493
993.755	28.06941
994.126	81.18737
994.497	-1.00238
994.868	20.04354
995.239	59.13627
995.61	11.02683
995.98	47.10929
996.351	72.17187
996.722	77.17202
997.092	72.16347
997.462	54.12226
997.833	54.12106
998.203	50.11417
998.573	34.08194
998.943	88.19704
999.313	56.12926
999.683	56.12911
1000.053	30.06446
1000.423	27.06261
1000.792	-8.01993
1001.162	41.0962
1001.531	61.1443
1001.901	61.1448
1002.27	26.05437
1002.639	30.07336
1003.009	54.12241
1003.378	63.15495
1003.747	49.10988
1004.116	33.07567
1004.485	81.18395
1004.853	26.06261
1005.222	19.04536
1005.591	41.09288
1005.959	72.15483
1006.328	77.16505
1006.696	6.01391
1007.064	56.13368
1007.433	66.1564
1007.801	24.05566
1008.169	1.00242
1008.537	107.22231
1008.905	43.09666
1009.273	35.08241
1009.64	41.09518
1010.008	86.19415
1010.375	114.25631
1010.743	36.07678
1011.11	77.17713
1011.478	113.2672
1011.845	87.19268
1012.212	97.21007
1012.579	110.25643
1012.946	71.15875
1013.313	68.15258
1013.68	65.13776
1014.047	42.09586
1014.414	36.08134
1014.78	55.13166
1015.147	33.07558
1015.513	36.08326
1015.88	79.1915
1016.246	71.16489
1016.612	91.19488
1016.978	99.23201
1017.344	70.16568
1017.71	74.1706
1018.076	73.16167
1018.442	73.18054
1018.808	76.18343
1019.174	17.04091
1019.539	36.07551
1019.905	38.08642
1020.27	27.06402
1020.636	35.07926
1021.001	86.19629
1021.366	67.15431
1021.731	127.31454
1022.096	61.14914
1022.461	49.11123
1022.826	73.16665
1023.191	13.0331
1023.556	40.08912
1023.92	70.16248
1024.285	29.06722
1024.649	52.12113
1025.014	31.07291
1025.378	82.19821
1025.742	28.0663
1026.107	84.17884
1026.471	119.25925
1026.835	71.16808
1027.199	3.00699
1027.562	51.11172
1027.926	39.09086
1028.29	68.16493
1028.654	18.03954
1029.017	62.14618
1029.381	40.09196
1029.744	22.05426
1030.107	103.2302
1030.471	81.18551
1030.834	22.04708
1031.197	102.23215
1031.56	30.06745
1031.923	61.1518
1032.286	100.22179
1032.648	0
1033.011	88.19428
1033.374	82.18043
1033.736	2.00512
1034.099	61.14223
1034.461	28.06885
1034.823	30.07232
1035.185	13.0313
1035.548	73.17028
1035.91	61.13903
1036.272	122.26223
1036.634	94.21809
1036.995	72.15936
1037.357	38.08928
1037.719	81.18782
1038.08	79.17991
1038.442	74.16665
1038.803	47.106
1039.165	32.07735
1039.526	39.09047
1039.887	43.09836
1040.248	85.20325
1040.609	60.14004
1040.97	33.07719
1041.331	83.20217
1041.692	95.21416
1042.053	39.08414
1042.413	60.13208
1042.774	119.27396
1043.134	59.13192
1043.495	43.1038
1043.855	117.2714
1044.215	82.19259
1044.576	69.15847
1044.936	60.12986
1045.296	69.16442
1045.656	77.17777
1046.016	54.1237
1046.375	7.01639
1046.735	98.21391
1047.095	56.12503
1047.454	83.16297
1047.814	43.09912
1048.173	90.20036
1048.533	31.06794
1048.892	-3.007
1049.251	67.15941
1049.61	61.1438
1049.969	62.13866
1050.328	86.17545
1050.687	17.03954
1051.046	54.12514
1051.405	6.01427
1051.763	105.2305
1052.122	45.10752
1052.48	44.10382
1052.839	75.1708
1053.197	41.09216
1053.555	39.08273
1053.914	62.14425
1054.272	-2.00456
1054.63	66.15452
1054.988	53.12158
1055.345	16.03237
1055.703	68.15627
1056.061	105.26043
1056.419	99.24877
1056.776	35.07987
1057.134	-38.08372
1057.491	47.11303
1057.848	43.10203
1058.206	26.05759
1058.563	95.19623
1058.92	66.14364
1059.277	75.17632
1059.634	54.11917
1059.991	84.19157
1060.348	51.11026
1060.704	89.20637
1061.061	81.17429
1061.418	19.04444
1061.774	42.09953
1062.131	84.21641
1062.487	51.11295
1062.843	75.17824
1063.199	49.11694
1063.555	80.17758
1063.911	15.03633
1064.267	90.1725
1064.623	52.12241
1064.979	13.02843
1065.335	73.16416
1065.691	31.07006
1066.046	51.10605
1066.402	45.09666
1066.757	96.23073
1067.112	39.09133
1067.468	97.2201
1067.823	5.01133
1068.178	15.03466
1068.533	47.10898
1068.888	86.1936
1069.243	68.16027
1069.598	73.16759
1069.952	91.19825
1070.307	76.18051
1070.662	88.20102
1071.016	82.17656
1071.371	89.19241
1071.725	26.05906
1072.079	74.16979
1072.434	48.11216
1072.788	8.01807
1073.142	134.3109
1073.496	54.12186
1073.85	94.20527
1074.203	90.20749
1074.557	72.1864
1074.911	91.20389
1075.265	89.19538
1075.618	81.18834
1075.971	53.12012
1076.325	50.12313
1076.678	58.12628
1077.031	5.01062
1077.385	78.16122
1077.738	73.15546
1078.091	42.0921
1078.444	52.11336
1078.796	62.14641
1079.149	114.2691
1079.502	42.09571
1079.855	94.20753
1080.207	59.13832
1080.56	65.16234
1080.912	46.10694
1081.264	63.14539
1081.617	55.12874
1081.969	76.18447
1082.321	73.16907
1082.673	95.20837
1083.025	51.11464
1083.377	82.18247
1083.728	114.24852
1084.08	9.02155
1084.432	89.20261
1084.783	44.09621
1085.135	51.12325
1085.486	15.03318
1085.838	50.11844
1086.189	83.19345
1086.54	66.14924
1086.891	99.24331
1087.242	116.27212
1087.593	66.15052
1087.944	102.21962
1088.295	83.1776
1088.646	128.29862
1088.996	61.14128
1089.347	65.15114
1089.698	66.15046
1090.048	36.08954
1090.398	9.0199
1090.749	43.09737
1091.099	49.11998
1091.449	81.19324
1091.799	74.17678
1092.149	27.06439
1092.499	45.10521
1092.849	39.0956
1093.199	107.25174
1093.548	99.2281
1093.898	-4.00965
1094.248	18.04421
1094.597	35.08738
1094.947	34.08796
1095.296	109.25665
1095.645	33.08242
1095.994	65.14875
1096.343	29.07061
1096.692	79.20264
1097.041	78.20665
1097.39	0
1097.739	62.1546
1098.088	30.07718
1098.437	65.16685
1098.785	12.03115
1099.134	17.04298
1099.482	44.11766
1099.83	68.17171
1100.179	94.2393
1100.527	23.05846
1100.875	44.11328
1101.223	48.12396
1101.571	-13.03499
1101.919	62.15968
1102.267	36.09946
1102.615	5.01606
1102.962	-6.01926
1103.31	11.0353
1103.658	0
