Data from N3 R4 sample 12_Subt2__1__12-11-31-727.txt Node

Date: Thu Sep 18 12:11:31 PDT 2025
User: uwsun
Spectrometer: HDX01956
Trigger mode: 0
Integration Time (sec): 5.000000E-1
Scans to average: 1
Nonlinearity correction enabled: true
Boxcar width: 0
Storing dark spectrum: false
XAxis mode: Wavelengths
Number of Pixels in Spectrum: 2068
>>>>>Begin Spectral Data<<<<<
194.03	58.16696
194.578	65.20975
195.127	63.20047
195.676	60.19168
196.225	72.18999
196.773	118.32373
197.321	106.29192
197.87	165.42011
198.418	224.5686
198.966	230.59661
199.513	193.48636
200.061	180.45433
200.609	194.50688
201.156	193.4185
201.704	166.416
202.251	203.53373
202.798	160.4132
203.345	239.58191
203.892	238.59146
204.438	156.36923
204.985	225.52666
205.532	199.5179
206.078	198.47858
206.624	250.61607
207.17	261.59917
207.716	231.55823
208.262	275.53003
208.808	238.58866
209.354	216.52798
209.899	220.54594
210.445	214.52911
210.99	191.46279
211.535	258.59572
212.08	240.5471
212.625	214.52756
213.17	251.62773
213.715	238.53487
214.259	251.5746
214.804	208.5035
215.348	218.49756
215.892	256.60917
216.436	197.44464
216.98	232.49974
217.524	200.47355
218.068	213.53079
218.612	259.64516
219.155	203.47442
219.698	228.53316
220.242	259.62375
220.785	217.50216
221.328	198.48291
221.871	252.62853
222.414	207.50401
222.956	158.37541
223.499	208.45574
224.041	179.40418
224.583	221.45567
225.126	196.42328
225.668	205.48998
226.21	254.62777
226.751	202.44315
227.293	215.47654
227.835	211.50836
228.376	214.47679
228.918	204.49921
229.459	203.49851
230	246.57682
230.541	217.48898
231.082	197.47266
231.622	114.25778
232.163	206.48794
232.704	245.59919
233.244	225.5468
233.784	191.45565
234.324	259.56712
234.864	210.46517
235.404	166.38651
235.944	208.48047
236.484	219.53601
237.023	165.38486
237.563	255.57695
238.102	239.55153
238.641	198.48938
239.18	206.47529
239.719	210.51618
240.258	228.5004
240.797	204.4791
241.335	172.41323
241.874	251.47493
242.412	229.54503
242.95	225.53305
243.488	220.48305
244.026	219.49974
244.564	229.46027
245.102	247.54586
245.64	180.42389
246.177	181.3965
246.715	250.58528
247.252	188.42008
247.789	208.37749
248.326	224.52914
248.863	255.54586
249.4	256.56398
249.936	261.53112
250.473	261.60061
251.009	218.48892
251.546	275.59554
252.082	218.4605
252.618	211.46338
253.154	229.53959
253.69	233.51019
254.226	253.59033
254.761	220.48366
255.297	212.45391
255.832	232.53995
256.367	238.54605
256.903	268.57852
257.438	245.55974
257.972	194.42542
258.507	198.44681
259.042	231.49106
259.576	284.60859
260.111	206.46448
260.645	207.43909
261.179	216.49677
261.713	236.51643
262.247	215.4811
262.781	202.41903
263.315	219.52043
263.849	193.47658
264.382	196.4432
264.915	269.61877
265.449	181.43658
265.982	234.5194
266.515	243.58235
267.048	253.52165
267.58	218.4603
268.113	239.5043
268.646	192.46285
269.178	195.42915
269.71	239.5167
270.243	272.61227
270.775	237.59572
271.307	179.42014
271.838	238.54867
272.37	213.5124
272.902	217.48177
273.433	286.61367
273.965	265.62586
274.496	186.45482
275.027	237.57747
275.558	239.5708
276.089	241.58919
276.62	206.51046
277.15	216.5211
277.681	244.51135
278.211	211.50528
278.741	211.46085
279.272	272.6045
279.802	230.5601
280.332	228.52772
280.861	234.54697
281.391	217.48418
281.921	233.54453
282.45	223.54194
282.98	254.64611
283.509	273.60357
284.038	230.51583
284.567	263.59626
285.096	292.68627
285.625	220.48528
286.153	286.66325
286.682	302.67032
287.21	197.46203
287.739	248.57195
288.267	244.58129
288.795	234.59861
289.323	246.56485
289.851	284.64844
290.378	211.46221
290.906	296.7019
291.433	276.66884
291.961	286.63376
292.488	245.59384
293.015	282.64672
293.542	303.75529
294.069	301.72269
294.596	256.60987
295.122	315.72948
295.649	218.46837
296.175	245.57616
296.702	311.73533
297.228	231.54493
297.754	285.62167
298.28	307.68298
298.806	274.64246
299.332	301.65184
299.857	273.60382
300.383	244.6004
300.908	299.71297
301.433	309.73314
301.958	257.57484
302.483	274.66075
303.008	309.74414
303.533	246.62089
304.058	287.64855
304.582	267.61515
305.107	240.61223
305.631	297.65169
306.155	300.67695
306.679	350.78976
307.203	256.58098
307.727	257.59518
308.251	270.64963
308.775	346.80998
309.298	319.74313
309.822	308.74889
310.345	348.79933
310.868	339.78723
311.391	308.73457
311.914	288.70184
312.437	335.73691
312.96	334.75797
313.482	287.65515
314.005	297.71904
314.527	308.77567
315.049	323.79049
315.571	358.77244
316.093	374.88646
316.615	369.84671
317.137	336.70445
317.659	343.79934
318.18	278.64496
318.702	417.92649
319.223	344.6718
319.744	390.83607
320.265	381.88788
320.786	385.92044
321.307	384.90629
321.828	356.77043
322.348	365.82343
322.869	427.96404
323.389	410.76045
323.909	381.83069
324.43	380.86758
324.95	402.87517
325.47	420.99007
325.989	449.00298
326.509	432.9149
327.029	442.95325
327.548	425.91168
328.067	422.97313
328.587	454.07425
329.106	419.89416
329.625	441.08567
330.144	449.98555
330.662	443.98383
331.181	493.08694
331.7	440.96601
332.218	450.91926
332.736	498.08767
333.255	505.1088
333.773	457.01501
334.291	503.17685
334.808	520.08735
335.326	461.97396
335.844	505.1088
336.361	547.30984
336.879	536.17031
337.396	566.27339
337.913	548.17028
338.43	576.19135
338.947	563.24153
339.464	565.11818
339.981	540.18652
340.497	558.26868
341.014	556.25392
341.53	531.10966
342.046	632.44291
342.562	562.29581
343.078	626.34172
343.594	598.30257
344.11	686.47995
344.626	662.51873
345.141	661.36469
345.657	653.33488
346.172	669.46018
346.687	665.37541
347.202	727.47831
347.717	690.48032
348.232	638.4496
348.747	677.40839
349.261	708.38569
349.776	695.48626
350.29	737.65274
350.805	687.53235
351.319	727.50515
351.833	701.44673
352.347	698.48078
352.861	766.59057
353.374	726.46789
353.888	798.72177
354.401	707.43759
354.915	732.47126
355.428	737.64394
355.941	791.61882
356.454	749.47125
356.967	730.51574
357.48	792.57228
357.993	755.65221
358.505	735.59489
359.018	826.77462
359.53	844.80011
360.042	804.57314
360.554	820.76323
361.066	826.75941
361.578	846.61565
362.09	856.76816
362.602	836.61656
363.113	855.74757
363.625	893.73806
364.136	913.70221
364.647	916.86181
365.158	896.79057
365.669	878.81202
366.18	913.83931
366.691	849.60301
367.201	868.80257
367.712	892.75297
368.222	983.90353
368.733	964.75628
369.243	984.84254
369.753	972.88712
370.263	1026.07458
370.773	974.00688
371.282	1033.05885
371.792	1049.01271
372.301	1048.10566
372.811	1056.33101
373.32	1119.9518
373.829	1109.13627
374.338	1144.04083
374.847	1151.14347
375.356	1235.3083
375.865	1288.12304
376.373	1391.39547
376.882	1396.73966
377.39	1372.55076
377.898	1375.61226
378.407	1480.48457
378.915	1559.44474
379.423	1572.65148
379.93	1689.76137
380.438	1670.86174
380.946	1830.88047
381.453	1876.0401
381.96	1995.10851
382.468	2081.09586
382.975	2177.34318
383.482	2209.94474
383.989	2291.65497
384.495	2386.20576
385.002	2505.74056
385.509	2577.37671
386.015	2796.63089
386.521	2920.15504
387.028	3092.13057
387.534	3198.77694
388.04	3314.45318
388.546	3293.92677
389.051	3503.84779
389.557	3754.06119
390.063	3922.82643
390.568	4197.11761
391.073	4313.51939
391.578	4435.10668
392.084	4596.51646
392.589	4724.11622
393.093	5176.52881
393.598	5635.00464
394.103	6140.01894
394.607	6817.94496
395.112	7172.07892
395.616	7669.1559
396.12	8288.40638
396.624	9086.63883
397.128	9925.54288
397.632	10960.08341
398.136	11865.45326
398.639	12590.48767
399.143	14144.14639
399.646	16072.2996
400.15	17506.27207
400.653	19470.42545
401.156	22140.8093
401.659	25768.45312
402.162	31591.1306
402.664	41611.6981
403.167	59286.9445
403.67	62772.17507
404.172	63919.58413
404.674	63858.43483
405.176	63738.15102
405.678	63977.72923
406.18	64011.81569
406.682	63863.44694
407.184	63926.60148
407.686	63841.39382
408.187	64025.8516
408.688	63892.51763
409.19	63833.37461
409.691	58373.12246
410.192	49273.32318
410.693	42637.15474
411.194	38778.91694
411.694	36752.92394
412.195	34078.51098
412.696	30921.23465
413.196	28885.30315
413.696	28165.02788
414.196	28342.969
414.696	27807.85174
415.196	26241.04349
415.696	23826.41034
416.196	19307.57002
416.695	14864.2748
417.195	12806.68439
417.694	12244.38536
418.194	11521.218
418.693	10863.81136
419.192	10471.2508
419.691	10214.43326
420.19	10027.82868
420.688	9770.13586
421.187	9086.55054
421.685	8622.86585
422.184	7934.18759
422.682	6832.39495
423.18	5848.89907
423.678	5145.20668
424.176	4830.36987
424.674	4609.32254
425.172	4353.82558
425.669	4039.27654
426.167	3797.99476
426.664	3530.94657
427.161	3240.0995
427.659	2972.4487
428.156	2884.73398
428.652	2702.65246
429.149	2539.3898
429.646	2470.93946
430.143	2361.26157
430.639	2173.11948
431.135	2074.31546
431.632	1875.78815
432.128	1877.98971
432.624	1790.21983
433.12	1740.68124
433.616	1698.50845
434.111	1577.67922
434.607	1506.63224
435.103	1512.21427
435.598	1475.16538
436.093	1385.40774
436.588	1408.3298
437.083	1251.14523
437.578	1304.29773
438.073	1174.34957
438.568	1155.27385
439.062	1133.89362
439.557	1070.01724
440.051	993.82155
440.546	972.81467
441.04	974.93944
441.534	977.05213
442.028	953.91294
442.522	902.82336
443.015	827.4944
443.509	892.83354
444.002	936.91802
444.496	831.51923
444.989	831.72529
445.482	840.78075
445.975	877.70607
446.468	842.53202
446.961	880.59161
447.454	768.47921
447.947	783.61255
448.439	771.64112
448.931	810.58639
449.424	813.78742
449.916	775.6375
450.408	755.49002
450.9	721.53261
451.392	778.71723
451.884	720.43913
452.375	723.56817
452.867	698.36738
453.358	748.47998
453.849	717.32297
454.341	701.37941
454.832	623.18887
455.323	722.57696
455.814	651.31335
456.304	627.28803
456.795	648.30579
457.285	631.22572
457.776	644.29534
458.266	590.25521
458.756	536.14709
459.247	610.30289
459.737	625.34793
460.226	635.28044
460.716	590.26446
461.206	578.24244
461.695	523.17724
462.185	553.18531
462.674	550.13241
463.163	631.2502
463.653	572.08529
464.142	546.19771
464.63	558.21996
465.119	566.18214
465.608	539.14183
466.096	512.00435
466.585	504.04592
467.073	465.00668
467.561	478.05052
468.05	447.94852
468.538	444.00138
469.026	476.0334
469.513	462.8907
470.001	438.92923
470.489	417.9211
470.976	491.04678
471.463	442.01713
471.951	434.99999
472.438	457.98749
472.925	419.91546
473.412	406.91721
473.899	388.82999
474.385	347.80102
474.872	376.82031
475.359	364.84142
475.845	397.76151
476.331	377.7476
476.817	378.86162
477.303	447.95721
477.789	338.75926
478.275	344.80561
478.761	315.70862
479.247	345.72316
479.732	316.74845
480.218	360.88999
480.703	298.69873
481.188	362.73313
481.673	286.62663
482.158	330.6723
482.643	348.83947
483.128	346.75999
483.612	345.77514
484.097	272.62704
484.581	319.69848
485.066	303.70614
485.55	305.63989
486.034	291.59973
486.518	323.73256
487.002	220.51667
487.486	236.55164
487.969	233.54559
488.453	221.53124
488.936	223.48458
489.42	311.65132
489.903	238.57026
490.386	233.46312
490.869	313.64913
491.352	211.49118
491.835	167.33349
492.318	231.50004
492.8	274.54068
493.283	246.60443
493.765	177.4229
494.247	236.52885
494.73	236.50267
495.212	206.47282
495.694	222.50566
496.175	219.509
496.657	234.53386
497.139	234.38396
497.62	210.48933
498.102	237.56883
498.583	141.33959
499.064	182.39507
499.545	215.47376
500.026	183.40325
500.507	154.34709
500.988	243.58501
501.469	145.35424
501.949	226.53882
502.43	190.44552
502.91	254.51653
503.39	172.4159
503.87	223.50948
504.35	133.30583
504.83	159.34007
505.31	169.3976
505.79	120.27952
506.269	137.30884
506.749	166.37047
507.228	147.3395
507.707	201.4351
508.187	225.51943
508.666	147.35739
509.145	165.37713
509.623	150.3443
510.102	137.32571
510.581	197.46185
511.059	164.40386
511.538	155.39144
512.016	165.38668
512.494	138.32587
512.972	146.34316
513.45	146.33431
513.928	159.37859
514.406	180.43064
514.884	151.38202
515.361	145.34074
515.839	173.3892
516.316	172.40852
516.793	149.36902
517.27	148.34921
517.747	157.39494
518.224	175.39337
518.701	137.29771
519.178	157.38513
519.654	167.38661
520.131	124.30289
520.607	128.30799
521.083	155.34399
521.56	126.29268
522.036	96.20733
522.512	198.47551
522.987	146.34556
523.463	147.34207
523.939	176.42685
524.414	129.29081
524.89	162.37853
525.365	126.28062
525.84	123.29175
526.315	147.34975
526.79	173.38105
527.265	183.41237
527.74	135.32243
528.215	134.30757
528.689	89.19381
529.164	117.24775
529.638	106.26574
530.112	125.28984
530.587	160.33517
531.061	136.32401
531.534	135.32021
532.008	190.45022
532.482	156.35146
532.956	118.29721
533.429	154.36985
533.903	152.32658
534.376	121.26406
534.849	156.35146
535.322	130.30221
535.795	103.24629
536.268	149.35423
536.741	113.26513
537.213	116.26348
537.686	106.2568
538.158	149.33287
538.631	112.26827
539.103	150.33268
539.575	127.25773
540.047	153.32709
540.519	158.37006
540.991	148.35449
541.463	154.36337
541.934	82.18444
542.406	182.42693
542.877	165.3645
543.348	180.42455
543.82	136.32563
544.291	161.36843
544.762	128.30074
545.233	156.38826
545.703	133.29185
546.174	136.31079
546.645	155.36835
547.115	156.3698
547.585	188.42164
548.056	219.52304
548.526	201.46477
548.996	160.37533
549.466	216.50965
549.935	211.49021
550.405	214.45621
550.875	199.46051
551.344	160.37445
551.814	199.4442
552.283	251.52753
552.752	238.53969
553.221	206.44278
553.69	283.61286
554.159	233.56242
554.628	275.59859
555.096	261.64068
555.565	209.44933
556.033	317.72041
556.502	227.53113
556.97	252.54048
557.438	189.43337
557.906	208.47761
558.374	262.58493
558.842	253.58476
559.31	242.52329
559.777	263.61945
560.245	210.46827
560.712	244.53935
561.18	260.55355
561.647	262.55829
562.114	242.53582
562.581	257.60979
563.048	284.62277
563.514	327.78151
563.981	320.69638
564.448	311.66889
564.914	330.72668
565.381	332.71911
565.847	308.68336
566.313	312.68877
566.779	348.73895
567.245	290.64182
567.711	362.81716
568.176	329.69937
568.642	314.75432
569.108	364.84443
569.573	354.77232
570.038	406.78724
570.504	429.89882
570.969	383.89218
571.434	452.92502
571.899	434.95524
572.363	439.93236
572.828	484.01864
573.293	465.98112
573.757	544.14215
574.222	486.99685
574.686	536.11641
575.15	502.10613
575.614	596.2614
576.078	515.10089
576.542	518.07216
577.006	479.99292
577.469	533.19342
577.933	561.15069
578.396	474.03298
578.86	511.09656
579.323	512.12726
579.786	535.04634
580.249	577.22352
580.712	510.13317
581.175	462.05181
581.637	470.98579
582.1	495.98298
582.563	434.85079
583.025	454.02148
583.487	469.88227
583.95	451.88892
584.412	469.90138
584.874	477.07091
585.336	484.05347
585.797	448.89816
586.259	461.99528
586.721	468.00996
587.182	485.02322
587.643	488.01356
588.105	420.92404
588.566	494.93594
589.027	563.24826
589.488	503.0529
589.949	528.16788
590.41	559.98609
590.87	552.14011
591.331	575.12366
591.791	536.12483
592.252	532.12477
592.712	514.12362
593.172	632.2735
593.632	657.2836
594.092	581.15742
594.552	653.2402
595.011	655.32204
595.471	732.43612
595.931	721.41151
596.39	716.50316
596.849	744.49953
597.308	732.33688
597.768	813.81503
598.227	868.76256
598.685	867.65622
599.144	878.7408
599.603	941.81948
600.062	1006.69115
600.52	1065.91876
600.978	1099.07055
601.437	1143.03225
601.895	1267.02458
602.353	1311.13447
602.811	1336.23777
603.269	1354.41462
603.727	1461.56712
604.184	1550.48271
604.642	1550.74756
605.099	1695.69824
605.557	1772.91986
606.014	1769.45647
606.471	1843.11738
606.928	1940.67928
607.385	2110.31587
607.842	2071.87802
608.299	2210.03071
608.755	2253.22543
609.212	2370.86875
609.668	2449.94307
610.125	2564.3121
610.581	2587.16513
611.037	2588.92805
611.493	2707.15763
611.949	2670.40128
612.405	2766.46909
612.861	2732.07698
613.316	2850.3228
613.772	2910.06095
614.227	3000.34895
614.683	2960.63342
615.138	2968.19466
615.593	2939.13337
616.048	3045.0428
616.503	3005.40518
616.958	3028.61075
617.412	2993.2688
617.867	2996.92081
618.321	3027.48111
618.776	2960.83276
619.23	2977.18238
619.684	2895.90539
620.138	2862.04535
620.592	2939.39426
621.046	2887.23511
621.5	2686.31874
621.954	2685.8544
622.407	2675.85388
622.861	2598.34918
623.314	2605.96682
623.768	2515.17672
624.221	2464.30742
624.674	2420.03412
625.127	2429.06753
625.58	2396.88346
626.033	2429.76331
626.485	2281.15763
626.938	2283.13676
627.39	2370.07787
627.843	2196.94111
628.295	2144.91775
628.747	2146.077
629.199	2141.85886
629.651	2193.91331
630.103	2169.90483
630.555	2093.50934
631.006	2019.88711
631.458	2080.97532
631.909	2069.74935
632.361	2050.86872
632.812	2053.88647
633.263	2080.6237
633.714	2019.49684
634.165	2007.01382
634.616	2059.98164
635.067	2025.65604
635.518	1984.94866
635.968	2116.24232
636.419	2254.71105
636.869	2168.04689
637.319	2141.9405
637.769	2212.82621
638.219	2246.06403
638.669	2310.12812
639.119	2271.14338
639.569	2338.18541
640.019	2438.02669
640.468	2511.89111
640.918	2578.19585
641.367	2685.90262
641.816	2674.86473
642.265	2745.13447
642.714	2834.03834
643.163	2922.0865
643.612	2983.44654
644.061	3068.6359
644.51	3123.02117
644.958	3129.8008
645.406	3287.25461
645.855	3276.3597
646.303	3382.01513
646.751	3465.00582
647.199	3563.83831
647.647	3672.95986
648.095	3597.86347
648.543	3663.14579
648.99	3814.1442
649.438	3797.87938
649.885	3880.39758
650.333	3982.75575
650.78	3880.16085
651.227	3875.25641
651.674	3951.72769
652.121	3932.25412
652.568	3945.23742
653.015	3943.30726
653.461	3911.02698
653.908	3941.76813
654.354	3886.04575
654.801	3891.93704
655.247	3841.4351
655.693	3736.77495
656.139	3812.08913
656.585	3817.09278
657.031	3775.00093
657.477	3856.48925
657.922	3676.80803
658.368	3736.32874
658.813	3690.80267
659.259	3683.25152
659.704	3758.06797
660.149	3570.93891
660.594	3663.10444
661.039	3627.84485
661.484	3660.08911
661.929	3573.02608
662.373	3650.51169
662.818	3663.39639
663.262	3646.24129
663.707	3727.59705
664.151	3719.27296
664.595	3825.17929
665.039	3814.37268
665.483	3761.58403
665.927	3840.95268
666.371	3984.91618
666.814	3912.0097
667.258	4084.04515
667.701	4143.18323
668.145	4128.26706
668.588	4254.17605
669.031	4182.81425
669.474	4269.9152
669.917	4434.19349
670.36	4465.12738
670.803	4626.782
671.245	4586.68614
671.688	4626.83278
672.13	4745.23419
672.573	4803.03647
673.015	4779.67861
673.457	4837.92092
673.899	4897.63275
674.341	4981.55213
674.783	5026.48786
675.225	5019.70229
675.666	5144.58903
676.108	5105.72574
676.549	5151.20046
676.991	5183.77934
677.432	5244.16268
677.873	5251.0026
678.314	5226.3165
678.755	5330.53956
679.196	5318.97481
679.637	5287.32121
680.078	5322.12442
680.518	5292.01464
680.959	5305.27021
681.399	5433.50442
681.839	5355.39075
682.28	5457.52777
682.72	5402.92817
683.16	5431.57224
683.6	5452.86637
684.039	5408.28857
684.479	5453.47553
684.919	5491.08761
685.358	5555.4786
685.798	5666.80458
686.237	5544.15005
686.676	5516.79041
687.115	5839.9252
687.554	5897.01317
687.993	5841.50638
688.432	5902.67814
688.871	6016.6708
689.309	6086.95195
689.748	6118.07375
690.186	6192.73517
690.625	6242.75483
691.063	6324.83274
691.501	6411.06623
691.939	6594.15875
692.377	6497.89981
692.815	6658.93648
693.253	6581.75819
693.69	6742.2729
694.128	6792.86879
694.565	6769.7105
695.003	6906.2172
695.44	7000.7181
695.877	7071.6883
696.314	7002.13183
696.751	7126.49571
697.188	7065.60442
697.625	7142.43613
698.061	7067.78203
698.498	7129.71306
698.934	7143.77936
699.371	7361.75421
699.807	7326.75493
700.243	7301.86758
700.679	7476.55139
701.115	7492.75778
701.551	7475.72947
701.987	7458.45839
702.422	7502.87745
702.858	7595.9158
703.294	7592.73479
703.729	7571.998
704.164	7642.9378
704.599	7655.66633
705.035	7696.70975
705.47	7736.07028
705.904	7780.88843
706.339	7841.89856
706.774	7930.04411
707.209	7820.93933
707.643	7865.08256
708.078	7966.22639
708.512	7866.30768
708.946	8029.16586
709.38	8055.20344
709.814	8113.09178
710.248	8067.33201
710.682	8148.33047
711.116	8082.32844
711.549	7917.42671
711.983	7965.01799
712.416	8139.27588
712.85	8069.38133
713.283	8035.15767
713.716	8042.3618
714.149	7923.98785
714.582	7994.95203
715.015	7909.21464
715.448	7868.32605
715.881	7839.66803
716.313	7812.93683
716.746	7961.10456
717.178	7829.07344
717.61	8017.47071
718.043	7846.2039
718.475	7793.09109
718.907	7759.20866
719.339	7752.77868
719.77	7774.02051
720.202	7554.13259
720.634	7647.06986
721.065	7517.79745
721.497	7550.00674
721.928	7450.9569
722.359	7433.93858
722.79	7381.82596
723.221	7427.0342
723.652	7352.15879
724.083	7345.50503
724.514	7223.56208
724.945	7187.64617
725.375	7374.70132
725.806	7303.95551
726.236	7110.16477
726.666	7143.67029
727.096	7191.88829
727.526	7315.25138
727.956	7313.56866
728.386	7173.8967
728.816	7131.18576
729.246	7129.94392
729.675	7028.84769
730.105	7069.86521
730.534	6956.57235
730.964	6926.98535
731.393	6967.86579
731.822	7110.16228
732.251	6937.1114
732.68	7024.53768
733.109	6894.91897
733.537	6939.86993
733.966	6955.0049
734.395	6888.52427
734.823	6848.27759
735.251	7011.74883
735.68	6884.90191
736.108	6822.99795
736.536	6786.58218
736.964	6681.52649
737.392	6678.01462
737.82	6689.70094
738.247	6629.69447
738.675	6670.60065
739.102	6516.03192
739.53	6479.29308
739.957	6498.33608
740.384	6416.7942
740.811	6425.02421
741.238	6408.94714
741.665	6233.7048
742.092	6082.57546
742.519	6139.12055
742.945	6159.95922
743.372	6121.13296
743.798	6043.3879
744.225	5896.84045
744.651	5893.2622
745.077	5908.23214
745.503	5793.02754
745.929	5857.04741
746.355	5639.15473
746.781	5606.24991
747.207	5503.07001
747.632	5582.37754
748.058	5452.56388
748.483	5498.82406
748.908	5437.46608
749.334	5389.41107
749.759	5302.19886
750.184	5107.39469
750.609	5144.47786
751.033	5108.12072
751.458	5107.80934
751.883	5055.55805
752.307	4950.28725
752.732	4918.98994
753.156	4700.7678
753.58	4838.34792
754.005	4673.93043
754.429	4617.5425
754.853	4523.97269
755.277	4510.60758
755.7	4560.91377
756.124	4305.0651
756.548	4395.61515
756.971	4342.88974
757.394	4305.28006
757.818	4255.39716
758.241	4144.32196
758.664	4108.27887
759.087	4099.4636
759.51	4041.10766
759.933	4042.98357
760.356	3905.55068
760.778	3797.18974
761.201	3851.02919
761.623	3653.98821
762.046	3645.86494
762.468	3795.98175
762.89	3616.17962
763.312	3653.21437
763.734	3525.14211
764.156	3455.32587
764.578	3340.80146
765	3373.24601
765.421	3280.60715
765.843	3136.78301
766.264	3222.06492
766.686	3060.39197
767.107	3032.25034
767.528	3038.6636
767.949	3032.5536
768.37	2944.41135
768.791	2860.17097
769.212	2757.49813
769.632	2811.05627
770.053	2640.68487
770.473	2666.18562
770.894	2678.30159
771.314	2519.03121
771.734	2504.9736
772.154	2473.4705
772.575	2553.91465
772.994	2477.81476
773.414	2303.00843
773.834	2293.25429
774.254	2309.15163
774.673	2316.18449
775.093	2176.20864
775.512	2147.14706
775.931	2182.30392
776.351	2106.17551
776.77	2091.08897
777.189	2022.88351
777.607	1918.15013
778.026	1938.04854
778.445	1938.14699
778.864	1837.03624
779.282	1768.71548
779.701	1798.96311
780.119	1708.93504
780.537	1663.80537
780.955	1670.87231
781.373	1569.68257
781.791	1659.46259
782.209	1494.28361
782.627	1563.93913
783.045	1430.25292
783.462	1431.65624
783.88	1437.72118
784.297	1392.5563
784.715	1397.65544
785.132	1335.33376
785.549	1294.40648
785.966	1297.43521
786.383	1186.23765
786.8	1241.11671
787.217	1204.1659
787.633	1173.27706
788.05	1127.98022
788.466	1152.01201
788.883	1100.22952
789.299	1016.88857
789.715	1090.06505
790.131	973.94058
790.547	970.93861
790.963	1017.99567
791.379	908.87733
791.795	923.64371
792.21	921.70191
792.626	847.61874
793.041	881.76909
793.457	847.70621
793.872	852.60672
794.287	796.603
794.702	790.58507
795.117	792.65191
795.532	716.54077
795.947	698.39252
796.362	709.38536
796.776	660.27636
797.191	710.47417
797.605	629.28343
798.02	648.34708
798.434	667.24345
798.848	662.41958
799.262	587.26804
799.676	660.37389
800.09	559.20025
800.504	512.08667
800.918	542.07684
801.331	477.09017
801.745	505.00623
802.158	414.92498
802.572	513.09376
802.985	476.00661
803.398	438.92882
803.811	423.9593
804.224	433.95324
804.637	437.93499
805.05	409.83987
805.462	411.9033
805.875	383.91076
806.288	395.86741
806.7	342.77801
807.112	350.72732
807.525	342.75689
807.937	336.76343
808.349	317.7245
808.761	317.71983
809.173	344.76449
809.584	330.7419
809.996	260.59029
810.408	267.65128
810.819	286.62028
811.231	296.73851
811.642	322.73726
812.053	337.75344
812.464	335.72267
812.875	307.72952
813.286	330.79064
813.697	247.51912
814.108	202.4603
814.519	352.71451
814.929	276.65095
815.34	220.49259
815.75	216.5209
816.16	177.41041
816.571	234.5675
816.981	213.46266
817.391	204.45621
817.801	206.48285
818.211	201.44699
818.62	216.48901
819.03	227.51737
819.44	171.41527
819.849	166.39108
820.259	164.39296
820.668	205.47533
821.077	178.42179
821.486	135.30396
821.895	158.36309
822.304	160.40227
822.713	164.36343
823.122	154.36323
823.531	97.21599
823.939	156.36136
824.348	160.3646
824.756	152.35851
825.164	163.38572
825.573	160.38046
825.981	157.36577
826.389	152.36102
826.797	199.47764
827.205	129.28283
827.612	155.3594
828.02	101.22471
828.428	142.34323
828.835	140.35426
829.243	148.3303
829.65	114.27295
830.057	98.22584
830.464	162.37779
830.871	173.39127
831.278	125.2872
831.685	126.26406
832.092	120.27632
832.499	176.36134
832.905	115.27572
833.312	106.2246
833.718	153.36374
834.124	135.29211
834.531	109.25944
834.937	122.29989
835.343	119.27013
835.749	127.27598
836.155	94.23642
836.561	114.26753
836.966	101.23457
837.372	111.26825
837.777	74.17786
838.183	123.25635
838.588	127.30205
838.993	101.23475
839.399	117.27366
839.804	57.13411
840.209	92.22756
840.613	93.19607
841.018	97.23362
841.423	104.25555
841.828	73.17855
842.232	72.16791
842.637	149.33548
843.041	81.20069
843.445	91.21668
843.849	96.22828
844.253	123.27592
844.657	42.10301
845.061	143.31141
845.465	84.1942
845.869	53.11821
846.272	55.1297
846.676	57.12992
847.079	107.26238
847.483	81.19302
847.886	118.26976
848.289	90.23436
848.692	91.21901
849.095	101.22983
849.498	72.17246
849.901	69.14975
850.304	102.23159
850.707	64.15645
851.109	92.22137
851.512	82.19356
851.914	71.17346
852.316	138.33545
852.718	70.17896
853.121	61.1438
853.523	103.22687
853.925	58.14781
854.326	61.14792
854.728	67.16661
855.13	88.2203
855.531	51.11756
855.933	69.15689
856.334	64.15487
856.736	76.16406
857.137	101.22545
857.538	66.16092
857.939	86.20662
858.34	46.10669
858.741	93.23227
859.142	74.16904
859.542	82.20979
859.943	47.11251
860.343	64.15353
860.744	92.21413
861.144	98.23025
861.544	71.16607
861.945	16.03953
862.345	81.18842
862.745	80.19206
863.145	89.1985
863.544	80.19461
863.944	90.20244
864.344	16.03797
864.743	133.31206
865.143	94.23353
865.542	9.01991
865.941	55.13156
866.34	37.08416
866.74	76.19689
867.139	118.27215
867.537	63.1526
867.936	97.22349
868.335	48.11751
868.734	56.13826
869.132	52.11423
869.531	64.14637
869.929	79.17255
870.327	63.14475
870.726	51.12102
871.124	63.13958
871.522	42.10294
871.92	122.28563
872.318	60.13965
872.715	61.14262
873.113	22.05151
873.511	34.0815
873.908	59.14602
874.306	58.14004
874.703	50.11917
875.1	37.09006
875.497	35.08048
875.894	78.18669
876.291	101.2367
876.688	46.11478
877.085	80.18179
877.482	65.15614
877.878	111.25759
878.275	50.12286
878.671	-10.02084
879.068	70.16158
879.464	62.14357
879.86	89.20039
880.256	30.07024
880.652	47.11525
881.048	36.08504
881.444	22.04973
881.84	68.16573
882.236	70.16863
882.631	88.20748
883.027	92.21117
883.422	43.10541
883.817	77.18714
884.213	76.1873
884.608	48.11602
885.003	49.11245
885.398	37.08952
885.793	45.10834
886.188	16.03846
886.582	71.17307
886.977	105.23458
887.371	65.15667
887.766	46.11098
888.16	45.10616
888.554	77.18067
888.949	71.17081
889.343	81.18782
889.737	26.06801
890.131	82.19694
890.525	92.22681
890.918	33.08014
891.312	68.15377
891.706	31.0786
892.099	63.15352
892.492	26.05338
892.886	47.11028
893.279	52.12726
893.672	51.12608
894.065	57.13739
894.458	43.1031
894.851	87.20173
895.244	16.03961
895.637	84.19374
896.029	71.16737
896.422	44.10201
896.814	29.06937
897.206	76.17549
897.599	66.15622
897.991	97.22483
898.383	84.18956
898.775	123.26501
899.167	125.27983
899.559	42.10152
899.951	57.12729
900.342	42.10194
900.734	75.18296
901.125	57.14308
901.517	58.13696
901.908	45.1019
902.299	64.15055
902.69	94.21299
903.082	65.15072
903.473	102.23619
903.863	36.08817
904.254	74.16597
904.645	61.14352
905.036	91.21468
905.426	52.11192
905.817	57.13322
906.207	-21.0481
906.597	81.18253
906.987	55.13607
907.378	70.17092
907.768	50.12819
908.158	53.12372
908.547	78.19639
908.937	36.08803
909.327	50.11628
909.717	59.1414
910.106	72.16434
910.495	7.01673
910.885	90.21853
911.274	33.07945
911.663	62.14964
912.052	53.12397
912.441	69.16989
912.83	36.07865
913.219	83.20744
913.608	100.23413
913.997	39.09532
914.385	71.16202
914.774	59.13735
915.162	137.31175
915.55	59.13556
915.939	37.09093
916.327	41.0977
916.715	102.2523
917.103	78.1799
917.491	94.22068
917.878	90.2103
918.266	20.05005
918.654	107.26297
919.041	89.22589
919.429	98.21943
919.816	46.11215
920.203	64.15025
920.591	94.22275
920.978	63.14776
921.365	71.17995
921.752	31.06991
922.139	94.19273
922.525	63.1455
922.912	37.08647
923.299	18.04336
923.685	32.07999
924.072	3.0065
924.458	91.21618
924.844	30.07169
925.231	25.05541
925.617	55.13627
926.003	48.11777
926.389	33.08032
926.774	21.05129
927.16	78.18476
927.546	84.20899
927.931	51.12144
928.317	50.10923
928.702	84.18801
929.088	66.15289
929.473	93.22814
929.858	71.1675
930.243	73.16934
930.628	87.20421
931.013	53.12644
931.398	50.10784
931.783	40.10061
932.167	85.2006
932.552	82.19566
932.937	45.1067
933.321	79.1915
933.705	31.07452
934.09	11.02633
934.474	67.15024
934.858	34.08552
935.242	12.02673
935.626	48.11912
936.009	60.15565
936.393	83.20527
936.777	30.0748
937.16	86.21638
937.544	51.11295
937.927	63.15455
938.311	88.20296
938.694	63.16104
939.077	65.14875
939.46	52.11955
939.843	86.16444
940.226	29.07151
940.609	99.21815
940.991	14.0343
941.374	77.18109
941.757	90.21063
942.139	115.24447
942.522	30.06767
942.904	49.11304
943.286	73.17702
943.668	132.32865
944.05	83.19535
944.432	43.1016
944.814	93.21565
945.196	10.02381
945.578	89.20514
945.959	40.08886
946.341	64.1472
946.722	89.19702
947.104	61.13954
947.485	93.20536
947.866	92.22338
948.247	62.15184
948.628	25.05753
949.009	31.07675
949.39	47.11165
949.771	40.08683
950.152	92.2154
950.532	94.22721
950.913	115.262
951.293	85.22297
951.674	52.1206
952.054	61.14803
952.434	79.18782
952.814	59.13246
953.194	53.13175
953.574	34.0802
953.954	45.10124
954.334	71.1712
954.714	65.15251
955.093	55.1296
955.473	82.19843
955.853	50.12485
956.232	63.16644
956.611	90.2021
956.99	49.11904
957.37	48.1169
957.749	17.03842
958.128	74.17981
958.506	46.11541
958.885	37.08965
959.264	74.1759
959.643	119.25694
960.021	40.09621
960.4	96.20537
960.778	29.0677
961.156	47.11281
961.535	25.05537
961.913	135.29898
962.291	55.13776
962.669	49.1202
963.047	57.14076
963.424	67.16661
963.802	77.18137
964.18	38.09099
964.557	59.12881
964.935	72.16235
965.312	73.18377
965.69	65.1543
966.067	19.04407
966.444	36.08359
966.821	104.25611
967.198	41.09424
967.575	57.13322
967.952	105.23322
968.329	79.18471
968.705	137.27625
969.082	116.28756
969.458	83.19269
969.835	60.13976
970.211	87.21618
970.587	131.30928
970.963	31.07608
971.339	67.16915
971.715	39.094
972.091	74.17386
972.467	31.07333
972.843	53.12799
973.219	104.23383
973.594	40.10115
973.97	30.06662
974.345	24.05562
974.721	12.02759
975.096	107.24781
975.471	44.09954
975.846	53.1209
976.221	46.1127
976.596	99.22956
976.971	117.27602
977.346	71.1558
977.72	13.0319
978.095	57.14159
978.469	81.18298
978.844	94.22361
979.218	86.19961
979.593	76.17249
979.967	64.14596
980.341	68.14988
980.715	83.20044
981.089	81.19346
981.463	58.12703
981.837	69.16341
982.21	15.0326
982.584	60.13938
982.957	41.09927
983.331	15.03359
983.704	91.21593
984.078	45.10633
984.451	17.04011
984.824	56.13168
985.197	7.01615
985.57	23.05472
985.943	65.15042
986.316	20.04653
986.688	74.16972
987.061	48.1081
987.434	92.23272
987.806	73.16612
988.179	35.07887
988.551	62.15009
988.923	61.14285
989.295	47.11213
989.667	60.13943
990.039	74.17806
990.411	35.07583
990.783	62.13384
991.155	28.06512
991.527	63.14516
991.898	33.07969
992.27	73.17455
992.641	84.19959
993.012	42.09191
993.384	43.09773
993.755	71.17462
994.126	98.22593
994.497	-7.01667
994.868	68.14654
995.239	24.05582
995.61	35.085
995.98	16.03743
996.351	72.17187
996.722	85.18958
997.092	26.05958
997.462	62.14014
997.833	72.16082
998.203	27.06194
998.573	75.17934
998.943	65.14623
999.313	64.14749
999.683	36.08333
1000.053	-15.03254
1000.423	67.15413
1000.792	13.03226
1001.162	7.01653
1001.531	65.15364
1001.901	36.08587
1002.27	38.07925
1002.639	18.04412
1003.009	53.12017
1003.378	53.13059
1003.747	17.03837
1004.116	47.10747
1004.485	66.15034
1004.853	10.02415
1005.222	-39.09415
1005.591	113.25224
1005.959	83.17806
1006.328	33.07141
1006.696	24.05544
1007.064	11.02648
1007.433	14.03351
1007.801	-2.00466
1008.169	27.06501
1008.537	50.1052
1008.905	93.20691
1009.273	76.17752
1009.64	67.15474
1010.008	75.1697
1010.375	51.11615
1010.743	46.0979
1011.11	88.20199
1011.478	38.09116
1011.845	52.116
1012.212	83.18029
1012.579	73.17141
1012.946	85.1895
1013.313	68.15258
1013.68	84.17729
1014.047	16.03671
1014.414	58.13046
1014.78	70.16709
1015.147	38.08694
1015.513	90.20592
1015.88	40.09767
1016.246	41.09579
1016.612	84.18017
1016.978	78.18355
1017.344	43.10231
1017.71	52.12041
1018.076	75.16603
1018.442	56.13892
1018.808	81.19531
1019.174	23.05529
1019.539	25.05257
1019.905	56.12689
1020.27	8.01904
1020.636	62.13963
1021.001	88.20077
1021.366	58.13382
1021.731	89.22196
1022.096	56.13704
1022.461	72.16268
1022.826	66.15089
1023.191	67.16897
1023.556	39.08691
1023.92	40.09339
1024.285	0
1024.649	50.11651
1025.014	24.05652
1025.378	70.16958
1025.742	52.12256
1026.107	57.12207
1026.471	78.17141
1026.835	63.14938
1027.199	34.07879
1027.562	30.06601
1027.926	53.12314
1028.29	51.12409
1028.654	78.16917
1029.017	84.19721
1029.381	80.18245
1029.744	39.09588
1030.107	67.15086
1030.471	62.14254
1030.834	25.05347
1031.197	117.26548
1031.56	93.20639
1031.923	69.17146
1032.286	95.21092
1032.648	86.19201
1033.011	86.18995
1033.374	76.16744
1033.736	21.05357
1034.099	48.11221
1034.461	50.12245
1034.823	62.14856
1035.185	34.08153
1035.548	49.11483
1035.91	74.16822
1036.272	132.28312
1036.634	113.26119
1036.995	66.14626
1037.357	57.13343
1037.719	55.12819
1038.08	126.28422
1038.442	90.20202
1038.803	75.16818
1039.165	37.08935
1039.526	51.11802
1039.887	23.05282
1040.248	98.23375
1040.609	38.08907
1040.97	18.04223
1041.331	95.23088
1041.692	86.19423
1042.053	62.13309
1042.413	53.11684
1042.774	93.21522
1043.134	76.16933
1043.495	61.14675
1043.855	81.18923
1044.215	36.08531
1044.576	79.18108
1044.936	64.1384
1045.296	78.18555
1045.656	18.04204
1046.016	75.17108
1046.375	86.19819
1046.735	125.27129
1047.095	75.16679
1047.454	67.13205
1047.814	103.23457
1048.173	35.07881
1048.533	60.13069
1048.892	14.03255
1049.251	52.12408
1049.61	70.16472
1049.969	16.03612
1050.328	66.13526
1050.687	40.09262
1051.046	41.09526
1051.405	-8.01908
1051.763	65.14389
1052.122	27.06473
1052.48	70.16434
1052.839	99.22437
1053.197	46.1033
1053.555	26.05531
1053.914	33.07722
1054.272	50.11279
1054.63	70.16376
1054.988	93.21163
1055.345	47.09442
1055.703	97.22162
1056.061	90.22384
1056.419	81.2042
1056.776	24.05489
1057.134	11.02399
1057.491	88.20998
1057.848	12.02864
1058.206	15.0333
1058.563	49.10226
1058.92	107.23083
1059.277	83.19482
1059.634	102.22283
1059.991	115.26063
1060.348	80.17188
1060.704	91.21092
1061.061	95.2038
1061.418	41.09548
1061.774	55.13
1062.131	63.1629
1062.487	46.10198
1062.843	65.15477
1063.199	44.10511
1063.555	89.19719
1063.911	62.14885
1064.267	39.07567
1064.623	92.21489
1064.979	41.08913
1065.335	59.13306
1065.691	18.04079
1066.046	108.22173
1066.402	56.12001
1066.757	79.19049
1067.112	48.11221
1067.468	63.14394
1067.823	38.08551
1068.178	19.04387
1068.533	121.27645
1068.888	68.15364
1069.243	29.06887
1069.598	18.04178
1069.952	103.22383
1070.307	69.16411
1070.662	63.14464
1071.016	106.22706
1071.371	95.20512
1071.725	53.11973
1072.079	40.0924
1072.434	41.09594
1072.788	81.18021
1073.142	70.16447
1073.496	26.05901
1073.85	87.19026
1074.203	96.22106
1074.557	27.07044
1074.911	54.12191
1075.265	51.11285
1075.618	49.11466
1075.971	53.12012
1076.325	64.1572
1076.678	47.10257
1077.031	-7.0149
1077.385	71.14699
1077.738	48.10277
1078.091	78.16975
1078.444	56.12198
1078.796	60.14174
1079.149	74.17603
1079.502	44.10023
1079.855	83.18366
1080.207	64.1499
1080.56	29.0729
1080.912	67.15511
1081.264	97.22233
1081.617	94.21835
1081.969	68.1653
1082.321	35.08167
1082.673	65.14347
1083.025	12.02719
1083.377	31.06971
1083.728	97.21222
1084.08	-30.07235
1084.432	35.08055
1084.783	35.07667
1085.135	104.24882
1085.486	24.05299
1085.838	71.1675
1086.189	77.17968
1086.54	70.15816
1086.891	118.28898
1087.242	109.25605
1087.593	35.08032
1087.944	95.20486
1088.295	68.14597
1088.646	117.27355
1088.996	36.08379
1089.347	12.02819
1089.698	89.20195
1090.048	4.01001
1090.398	66.14419
1090.749	45.10186
1091.099	69.16832
1091.449	89.212
1091.799	66.15791
1092.149	51.12106
1092.499	64.14908
1092.849	76.18502
1093.199	76.17989
1093.548	79.18275
1093.898	44.10519
1094.248	39.09542
1094.597	34.0849
1094.947	55.14177
1095.296	52.12379
1095.645	45.11215
1095.994	48.11022
1096.343	102.24497
1096.692	66.16968
1097.041	32.08543
1097.39	37.08864
1097.739	74.18411
1098.088	43.11038
1098.437	62.15923
1098.785	23.05959
1099.134	37.09321
1099.482	63.16794
1099.83	65.16422
1100.179	64.16379
1100.527	5.01275
1100.875	56.14387
1101.223	51.13164
1101.571	-21.05659
1101.919	75.19272
1102.267	39.10769
1102.615	2.00642
1102.962	-1.00321
1103.31	10.03209
1103.658	6.01922
