Data from N3 R4 sample 11_Subt2__3__12-11-12-227.txt Node

Date: Thu Sep 18 12:11:12 PDT 2025
User: uwsun
Spectrometer: HDX01956
Trigger mode: 0
Integration Time (sec): 5.000000E-1
Scans to average: 1
Nonlinearity correction enabled: true
Boxcar width: 0
Storing dark spectrum: false
XAxis mode: Wavelengths
Number of Pixels in Spectrum: 2068
>>>>>Begin Spectral Data<<<<<
194.03	37.10684
194.578	46.14876
195.127	28.08947
195.676	35.11215
196.225	57.15079
196.773	51.14141
197.321	70.19387
197.87	135.34555
198.418	169.43318
198.966	210.54662
199.513	178.44977
200.061	140.3559
200.609	163.42814
201.156	206.44545
201.704	129.32544
202.251	149.39534
202.798	159.41069
203.345	182.44785
203.892	155.39103
204.438	201.47159
204.985	152.36088
205.532	165.43193
206.078	185.44826
206.624	207.51415
207.17	207.48035
207.716	190.4627
208.262	225.43888
208.808	209.51969
209.354	224.54672
209.899	192.4789
210.445	192.47664
210.99	177.43
211.535	179.41981
212.08	177.40863
212.625	189.46808
213.17	202.50967
213.715	218.49194
214.259	232.53314
214.804	188.45681
215.348	243.55181
215.892	288.68109
216.436	141.32189
216.98	164.35843
217.524	202.4781
218.068	203.50679
218.612	197.49626
219.155	173.40669
219.698	208.4883
220.242	158.3878
220.785	218.50437
221.328	174.42627
221.871	230.57595
222.414	192.4688
222.956	129.30822
223.499	196.43053
224.041	129.29426
224.583	135.28374
225.126	158.344
225.668	186.44618
226.21	195.48717
226.751	200.43895
227.293	138.31078
227.835	187.45259
228.376	154.34738
228.918	158.38995
229.459	145.3599
230	234.54997
230.541	159.36254
231.082	181.43559
231.622	135.30396
232.163	163.3893
232.704	213.52403
233.244	156.38402
233.784	154.36999
234.324	210.46458
234.864	209.46305
235.404	158.36846
235.944	158.36861
236.484	158.39109
237.023	152.35545
237.563	207.47293
238.102	195.45394
238.641	147.36673
239.18	181.41969
239.719	180.44489
240.258	137.30644
240.797	188.4429
241.335	129.31246
241.874	245.46426
242.412	196.46945
242.95	216.51262
243.488	172.38147
244.026	172.39621
244.564	185.37561
245.102	196.43777
245.64	158.37368
246.177	153.33714
246.715	217.51131
247.252	149.33562
247.789	265.47397
248.326	152.36407
248.863	220.4745
249.4	207.46072
249.936	240.49073
250.473	254.58532
251.009	166.37628
251.546	196.43162
252.082	163.34847
252.618	175.38724
253.154	178.42358
253.69	181.40068
254.226	199.46927
254.761	177.39264
255.297	165.35687
255.832	181.4255
256.367	182.42226
256.903	200.43803
257.438	223.51174
257.972	204.44641
258.507	174.39458
259.042	178.38276
259.576	231.50068
260.111	157.35754
260.645	223.47137
261.179	220.50556
261.713	218.47886
262.247	145.32915
262.781	221.45649
263.315	141.34011
263.849	191.47182
264.382	197.44537
264.915	192.44845
265.449	154.37336
265.982	225.50036
266.515	193.46693
267.048	182.38125
267.58	176.37504
268.113	194.4134
268.646	153.37156
269.178	151.33539
269.71	248.53512
270.243	264.59524
270.775	228.57403
271.307	154.36323
271.838	235.54208
272.37	179.43339
272.902	167.37462
273.433	268.57728
273.965	220.52412
274.496	221.53688
275.027	194.4765
275.558	210.50432
276.089	187.46177
276.62	164.40951
277.15	180.43721
277.681	190.40294
278.211	150.36339
278.741	230.50032
279.272	212.47703
279.802	181.44482
280.332	191.44533
280.861	219.51342
281.391	214.47778
281.921	182.4296
282.45	213.51861
282.98	202.51857
283.509	218.48751
284.038	257.57318
284.567	196.45041
285.096	276.65069
285.625	191.42388
286.153	240.56165
286.682	255.57154
287.21	204.47779
287.739	196.45672
288.267	205.49204
288.795	181.46734
289.323	219.50558
289.851	238.54845
290.378	219.47893
290.906	227.54546
291.433	218.53406
291.961	248.55391
292.488	253.6123
293.015	203.47293
293.542	300.74822
294.069	235.57132
294.596	200.48159
295.122	253.59312
295.649	202.43549
296.175	213.50403
296.702	275.65475
297.228	243.5719
297.754	245.53895
298.28	245.55207
298.806	227.53716
299.332	248.54315
299.857	217.48558
300.383	247.60744
300.908	225.54414
301.433	262.62727
301.958	247.55361
302.483	193.47255
303.008	265.64351
303.533	228.57732
304.058	221.50613
304.582	267.61515
305.107	205.52618
305.631	269.59373
306.155	221.50674
306.679	257.59093
307.203	247.56158
307.727	291.66937
308.251	266.64049
308.775	312.73526
309.298	250.59032
309.822	238.58629
310.345	311.71965
310.868	258.60874
311.391	269.64636
311.914	265.64857
312.437	273.60836
312.96	270.6207
313.482	256.58805
314.005	243.5943
314.527	223.57017
315.049	287.7071
315.571	287.62868
316.093	300.72124
316.615	232.54697
317.137	302.63793
317.659	284.66955
318.18	227.53196
318.702	338.76331
319.223	316.62122
319.744	298.65154
320.265	319.75249
320.786	295.71742
321.307	295.70828
321.828	323.70395
322.348	357.8067
322.869	350.80264
323.389	321.60859
323.909	346.75999
324.43	378.86336
324.95	348.76631
325.47	382.90716
325.989	350.79942
326.509	363.78038
327.029	360.79007
327.548	301.66296
328.067	374.87071
328.587	365.88029
329.106	308.67312
329.625	364.91074
330.144	365.81535
330.662	410.9168
331.181	398.89657
331.7	370.8243
332.218	382.79239
332.736	447.98859
333.255	426.95257
333.773	415.93161
334.291	425.00919
334.808	418.89531
335.326	415.88562
335.844	432.96478
336.361	479.1616
336.879	461.02221
337.396	475.0882
337.913	436.95521
338.43	468.99286
338.947	472.06032
339.464	474.9595
339.981	477.0617
340.497	470.08728
341.014	488.11558
341.53	441.94151
342.046	529.23245
342.562	510.18789
343.078	530.15914
343.594	530.17085
344.11	541.2029
344.626	492.16656
345.141	553.16898
345.657	564.17587
346.172	549.22828
346.687	587.23501
347.202	550.16289
347.717	579.27153
348.232	588.34936
348.747	560.19491
349.261	578.16559
349.776	624.35468
350.29	580.34213
350.805	631.42356
351.319	624.32131
351.833	618.2989
352.347	653.39876
352.861	629.34555
353.374	624.29079
353.888	658.46187
354.401	655.34744
354.915	649.32909
355.428	651.47767
355.941	648.36861
356.454	647.30108
356.967	607.29451
357.48	609.26
357.993	683.51714
358.505	624.38569
359.018	734.60791
359.53	724.58399
360.042	679.36741
360.554	744.62573
361.066	657.45028
361.578	767.4925
362.09	749.5839
362.602	724.43711
363.113	737.54627
363.625	774.54864
364.136	755.46215
364.647	770.61664
365.158	753.55417
365.669	733.56152
366.18	766.59481
366.691	757.46114
367.201	828.7347
367.712	786.58283
368.222	906.78636
368.733	817.54324
369.243	869.67286
369.753	821.65075
370.263	881.84135
370.773	844.79078
371.282	908.86311
371.792	892.77681
372.301	876.83049
372.811	924.09523
373.32	958.74093
373.829	909.83543
374.338	944.77098
374.847	1008.94412
375.356	981.94843
375.865	1114.92422
376.373	1117.06154
376.882	1126.34843
377.39	1136.23376
377.898	1142.29066
378.407	1239.21382
378.915	1309.19763
379.423	1366.42989
379.93	1495.57289
380.438	1370.53201
380.946	1499.57846
381.453	1567.75439
381.96	1706.87463
382.468	1780.88047
382.975	1927.16766
383.482	1860.75315
383.989	1978.42516
384.495	2058.0474
385.002	2127.64579
385.509	2272.26225
386.015	2369.60875
386.521	2449.09388
387.028	2662.12514
387.534	2682.82585
388.04	2725.44624
388.546	2827.98323
389.051	3015.95452
389.557	3212.20523
390.063	3451.99905
390.568	3566.35767
391.073	3580.85089
391.578	3872.36034
392.084	3973.83702
392.589	4081.46721
393.093	4449.93429
393.598	4735.49366
394.103	5271.43089
394.607	5820.23412
395.112	6219.21961
395.616	6530.05039
396.12	7125.69057
396.624	7909.1799
397.128	8336.63837
397.632	9544.58894
398.136	10206.41646
398.639	10797.43006
399.143	12049.91369
399.646	13706.2426
400.15	14982.56539
400.653	16911.5117
401.156	18949.59006
401.659	21981.34407
402.162	26922.06723
402.664	35727.87165
403.167	51013.38156
403.67	61916.92105
404.172	63919.58413
404.674	63858.43483
405.176	63738.15102
405.678	63977.72923
406.18	64011.81569
406.682	63863.44694
407.184	63926.60148
407.686	63841.39382
408.187	64025.8516
408.688	63892.51763
409.19	61825.56307
409.691	49648.94921
410.192	42376.43493
410.693	36579.69761
411.194	33468.65529
411.694	31556.30422
412.195	29088.919
412.696	26360.38412
413.196	24459.12915
413.696	23986.96593
414.196	24127.17971
414.696	23726.28742
415.196	22293.18438
415.696	20320.75999
416.196	16225.20809
416.695	12781.70512
417.195	11012.20944
417.694	10421.40395
418.194	9835.42991
418.693	9282.99738
419.192	8924.36162
419.691	8662.93184
420.19	8515.82768
420.688	8188.56125
421.187	7857.67008
421.685	7407.84709
422.184	6795.8363
422.682	5772.60204
423.18	4946.36518
423.678	4436.60455
424.176	4010.80612
424.674	3921.68094
425.172	3726.1072
425.669	3481.45994
426.167	3235.15604
426.664	2970.056
427.161	2757.1264
427.659	2562.38568
428.156	2419.71509
428.652	2242.45975
429.149	2168.22893
429.646	2110.81904
430.143	2057.1048
430.639	1880.93505
431.135	1757.05299
431.632	1637.60353
432.128	1618.7618
432.624	1552.95867
433.12	1441.4102
433.616	1447.2962
434.111	1359.44154
434.607	1367.47467
435.103	1297.02138
435.598	1299.00699
436.093	1222.21404
436.588	1124.00297
437.083	1055.9036
437.578	1078.00961
438.073	1016.10663
438.568	990.02352
439.062	923.63016
439.557	881.73823
440.051	860.62976
440.546	816.5816
441.04	918.8515
441.534	824.79003
442.028	810.67904
442.522	762.58929
443.015	724.34225
443.509	776.6364
444.002	763.62408
444.496	742.38663
444.989	680.45885
445.482	698.52514
445.975	771.53729
446.468	692.30642
446.961	706.3329
447.454	636.26336
447.947	688.44685
448.439	696.50539
448.931	692.39267
449.424	714.60211
449.916	663.43486
450.408	686.37551
450.9	599.30669
451.392	664.5002
451.884	569.17659
452.375	559.25428
452.867	588.18144
453.358	549.13618
453.849	557.06835
454.341	571.15752
454.832	604.15784
455.323	594.33209
455.814	566.16384
456.304	575.19486
456.795	547.12749
457.285	522.03992
457.776	555.13888
458.266	520.12286
458.756	465.01011
459.247	500.09297
459.737	520.14633
460.226	535.1032
460.716	491.07439
461.206	474.04127
461.695	428.98382
462.185	456.99944
462.674	491.02411
463.163	505.02957
463.653	478.92908
464.142	455.01683
464.63	451.00787
465.119	453.97131
465.608	472.01425
466.096	426.85405
466.585	424.89717
467.073	385.84937
467.561	385.86428
468.05	386.82999
468.538	410.93303
469.026	386.85567
469.513	319.63614
470.001	403.86151
470.489	426.93921
470.976	414.89899
471.463	337.79339
471.951	323.76074
472.438	289.64694
472.925	356.78819
473.412	315.72485
473.899	346.74687
474.385	325.75353
474.872	335.73722
475.359	317.73964
475.845	384.73889
476.331	297.59998
476.817	304.70331
477.303	332.72863
477.789	272.61929
478.275	286.6774
478.761	285.64508
479.247	300.63509
479.732	306.72617
480.218	291.72854
480.703	239.56686
481.188	217.45406
481.673	282.61838
482.158	272.56145
482.643	244.60018
483.128	305.67572
483.612	313.70787
484.097	285.6553
484.581	253.56169
485.066	272.63778
485.55	257.5449
486.034	245.51015
486.518	304.69213
487.002	185.43744
487.486	178.42081
487.969	199.46909
488.453	206.4966
488.936	226.49079
489.42	228.48627
489.903	194.46873
490.386	133.27053
490.869	293.61037
491.352	230.5334
491.835	213.4208
492.318	174.38125
492.8	218.43584
493.283	205.50751
493.765	169.4044
494.247	231.51818
494.73	175.37769
495.212	135.31427
495.694	190.43558
496.175	131.30976
496.657	195.44838
497.139	174.29028
497.62	226.52495
498.102	176.42733
498.583	97.23557
499.064	245.52468
499.545	175.38885
500.026	204.44754
500.507	131.29665
500.988	226.54584
501.469	100.24635
501.949	198.47461
502.43	138.32688
502.91	212.43525
503.39	152.36892
503.87	181.41703
504.35	126.29014
504.83	145.31107
505.31	135.31972
505.79	112.2613
506.269	121.27367
506.749	122.27475
507.228	122.28317
507.707	175.38093
508.187	158.36962
508.666	142.34556
509.145	124.28576
509.623	133.30632
510.102	169.3993
510.581	187.43926
511.059	154.37994
511.538	128.32482
512.016	166.38895
512.494	134.31667
512.972	123.2904
513.45	129.29639
513.928	159.37859
514.406	121.29275
514.884	141.35736
515.361	106.25099
515.839	134.30387
516.316	168.39932
516.793	97.24252
517.27	126.29857
517.747	109.27656
518.224	88.20134
518.701	161.34807
519.178	156.38275
519.654	124.28952
520.131	94.23089
520.607	87.21097
521.083	73.16477
521.56	101.23577
522.036	128.27454
522.512	154.37294
522.987	179.42096
523.463	88.20716
523.939	193.46658
524.414	98.22233
524.89	134.31483
525.365	105.23487
525.84	87.20779
526.315	135.32194
526.79	114.25421
527.265	147.33369
527.74	88.21207
528.215	128.29415
528.689	86.1874
529.164	70.14975
529.638	51.12912
530.112	77.18024
530.587	82.17474
531.061	90.21631
531.534	118.28081
532.008	149.35587
532.482	101.23011
532.956	78.19787
533.429	158.37916
533.903	121.26171
534.376	106.23206
534.849	84.19204
535.322	126.29315
535.795	72.17318
536.268	147.34961
536.741	87.20517
537.213	133.30105
537.686	107.25917
538.158	135.30247
538.631	90.21648
539.103	113.25255
539.575	116.236
540.047	68.14805
540.519	149.34959
540.991	125.30072
541.463	61.14653
541.934	92.20651
542.406	144.3403
542.877	135.3001
543.348	156.36966
543.82	110.26468
544.291	183.41692
544.762	123.28927
545.233	147.36646
545.703	125.27475
546.174	110.25269
546.645	109.26133
547.115	138.32827
547.585	117.26624
548.056	104.25385
548.526	151.35262
548.996	123.29062
549.466	141.33753
549.935	188.43877
550.405	130.2822
550.875	111.26135
551.344	128.30144
551.814	171.38391
552.283	228.48162
552.752	222.50505
553.221	193.416
553.69	237.51829
554.159	203.49279
554.628	167.37185
555.096	175.43642
555.565	184.39771
556.033	203.472
556.502	136.32389
556.97	201.43585
557.438	171.39352
557.906	204.4688
558.374	207.4674
558.842	198.46265
559.31	183.40071
559.777	178.42618
560.245	151.34082
560.712	179.40105
561.18	194.41897
561.647	167.36321
562.114	211.4702
562.581	257.60979
563.048	234.51854
563.514	290.698
563.981	281.61658
564.448	211.46358
564.914	247.55339
565.381	273.59878
565.847	249.55924
566.313	203.45837
566.779	272.58715
567.245	206.46391
567.711	270.62094
568.176	262.56508
568.642	287.69301
569.108	271.64027
569.573	285.63089
570.038	291.57976
570.504	330.70654
570.969	313.73919
571.434	359.75018
571.899	324.72961
572.363	369.79566
572.828	427.91162
573.293	395.84624
573.757	400.86786
574.222	409.85351
574.686	401.86169
575.15	463.02836
575.614	463.00789
576.078	403.88386
576.542	428.90524
577.006	443.92569
577.469	412.94705
577.933	436.92095
578.396	429.94562
578.86	396.87235
579.323	430.96468
579.786	429.86146
580.249	456.99397
580.712	355.81557
581.175	422.97042
581.637	374.80108
582.1	393.799
582.563	379.75262
583.025	406.92431
583.487	379.72874
583.95	336.68016
584.412	418.81322
584.874	392.89713
585.336	352.78908
585.797	387.78681
586.259	353.77976
586.721	346.76765
587.182	376.81371
587.643	436.91772
588.105	364.81027
588.566	405.78399
589.027	481.08432
589.488	407.87156
589.949	458.02755
590.41	473.85308
590.87	452.95599
591.331	472.94627
591.791	440.94446
592.252	505.07388
592.712	453.00277
593.172	511.05788
593.632	566.12932
594.092	518.04678
594.552	534.04315
595.011	531.10181
595.471	639.28084
595.931	628.25615
596.39	571.23658
596.849	649.33628
597.308	644.20198
597.768	710.61852
598.227	722.51443
598.685	775.5131
599.144	768.56143
599.603	865.70263
600.062	862.50517
600.52	922.72115
600.978	914.80047
601.437	1019.87028
601.895	1108.85016
602.353	1140.94432
602.811	1226.11388
603.269	1217.24559
603.727	1333.41897
604.184	1389.32394
604.642	1411.58938
605.099	1553.56941
605.557	1635.79323
606.014	1673.39173
606.471	1704.98817
606.928	1864.63428
607.385	1891.15186
607.842	1988.83228
608.299	2112.98336
608.755	2139.16512
609.212	2266.83768
609.668	2285.89647
610.125	2406.26252
610.581	2478.13947
611.037	2526.91882
611.493	2544.1302
611.949	2606.38649
612.405	2666.47566
612.861	2764.07925
613.316	2789.31734
613.772	2911.06092
614.227	2913.34764
614.683	2958.63371
615.138	2902.19524
615.593	2997.13098
616.048	3015.04558
616.503	3060.40438
616.958	3035.61098
617.412	3056.26622
617.867	3055.91387
618.321	3057.47468
618.776	2971.83158
619.23	2983.18216
619.684	2932.90298
620.138	2962.04222
620.592	2890.39181
621.046	2918.2357
621.5	2804.33517
621.954	2785.85644
622.407	2755.85642
622.861	2689.36895
623.314	2712.97724
623.768	2666.20788
624.221	2602.30584
624.674	2559.06685
625.127	2557.09863
625.58	2541.91282
626.033	2505.77572
626.485	2389.20069
626.938	2465.20301
627.39	2392.08507
627.843	2306.9842
628.295	2345.99746
628.747	2327.16092
629.199	2261.90748
629.651	2293.95206
630.103	2301.95683
630.555	2265.56006
631.006	2198.97807
631.458	2239.05323
631.909	2303.83979
632.361	2227.9522
632.812	2347.0138
633.263	2316.70103
633.714	2224.56658
634.165	2366.19628
634.616	2305.10028
635.067	2370.77697
635.518	2394.14708
635.968	2417.28416
636.419	2480.76176
636.869	2478.16682
637.319	2578.08329
637.769	2630.9243
638.219	2705.19108
638.669	2780.24261
639.119	2807.28202
639.569	2878.30328
640.019	3008.07736
640.468	3119.88738
640.918	3156.22019
641.367	3295.84081
641.816	3447.75468
642.265	3452.06184
642.714	3629.88938
643.163	3776.89055
643.612	3865.27444
644.061	3946.31876
644.51	4173.65413
644.958	4221.37842
645.406	4357.85563
645.855	4448.9259
646.303	4554.50226
646.751	4700.43485
647.199	4806.22518
647.647	4841.37815
648.095	4997.15705
648.543	5082.38089
648.99	5154.45434
649.438	5164.16149
649.885	5333.65055
650.333	5380.00723
650.78	5379.37475
651.227	5434.44365
651.674	5397.94763
652.121	5413.47604
652.568	5498.41847
653.015	5469.50618
653.461	5530.16878
653.908	5520.92195
654.354	5450.21897
654.801	5461.10304
655.247	5350.62213
655.693	5372.98733
656.139	5397.26168
656.585	5430.25
657.031	5323.19332
657.477	5389.6646
657.922	5295.96442
658.368	5292.54546
658.813	5367.9266
659.259	5298.43988
659.704	5280.28092
660.149	5265.08044
660.594	5201.3274
661.039	5255.00611
661.484	5307.25155
661.929	5336.13711
662.373	5264.73209
662.818	5334.57069
663.262	5404.3583
663.707	5367.79219
664.151	5457.38945
664.595	5621.24531
665.039	5674.41731
665.483	5758.58085
665.927	5920.88309
666.371	5904.91457
666.814	6046.91972
667.258	6186.97762
667.701	6323.18581
668.145	6321.16517
668.588	6476.09039
669.031	6675.70215
669.474	6725.82155
669.917	6816.30575
670.36	6983.07223
670.803	7107.8716
671.245	7161.09918
671.688	7347.95541
672.13	7403.6085
672.573	7368.18302
673.015	7594.99639
673.457	7880.77576
673.899	7834.14013
674.341	7959.20775
674.783	8120.3197
675.225	8227.52429
675.666	8314.58843
676.108	8381.32389
676.549	8512.66205
676.991	8600.67114
677.432	8644.65632
677.873	8573.70015
678.314	8621.86446
678.755	8683.04784
679.196	8882.19436
679.637	8713.00674
680.078	8710.95013
680.518	8795.05129
680.959	8841.19135
681.399	8988.51312
681.839	9105.68018
682.28	8911.39971
682.72	8976.36375
683.16	9052.63837
683.6	9053.50562
684.039	8888.13457
684.479	9041.59775
684.919	9236.9
685.358	9209.91265
685.798	9263.09894
686.237	9353.15313
686.676	9521.54488
687.115	9489.45593
687.554	9750.09605
687.993	9802.32605
688.432	9744.12009
688.871	9913.59271
689.309	10051.93219
689.748	10183.706
690.186	10313.81247
690.625	10447.25718
691.063	10460.25949
691.501	10673.91207
691.939	10804.33301
692.377	10751.26884
692.815	10858.64737
693.253	10972.22613
693.69	10978.66573
694.128	11091.6321
694.565	11221.32851
695.003	11193.82179
695.44	11131.92911
695.877	11340.91396
696.314	11334.59133
696.751	11405.46295
697.188	11529.92428
697.625	11647.78767
698.061	11785.00713
698.498	11575.02966
698.934	11722.70041
699.371	11731.85539
699.807	11666.50046
700.243	11859.34418
700.679	11926.34545
701.115	11798.28008
701.551	11796.30291
701.987	11841.0363
702.422	11892.60511
702.858	12011.26092
703.294	11984.43536
703.729	11814.05432
704.164	11902.66855
704.599	12034.95177
705.035	12069.11496
705.47	11946.7743
705.904	11869.72842
706.339	12074.9566
706.774	11942.03691
707.209	12013.48209
707.643	12032.36567
708.078	11973.91252
708.512	11948.53411
708.946	11981.17045
709.38	11943.93339
709.814	11934.2807
710.248	11977.88589
710.682	11773.93798
711.116	11824.09555
711.549	11450.97287
711.983	11592.28859
712.416	11580.03618
712.85	11393.88653
713.283	11333.88573
713.716	11323.56478
714.149	11074.82271
714.582	11044.8436
715.015	11011.27306
715.448	10733.08369
715.881	10770.89299
716.313	10731.3533
716.746	10545.60139
717.178	10510.4266
717.61	10466.13084
718.043	10382.92454
718.475	10283.63757
718.907	10133.1265
719.339	10107.22146
719.77	9812.26376
720.202	9744.07089
720.634	9778.15995
721.065	9559.62482
721.497	9599.71888
721.928	9301.05742
722.359	9252.95769
722.79	9245.9261
723.221	9225.92683
723.652	9076.70113
724.083	8794.00743
724.514	8841.11693
724.945	8670.8748
725.375	8737.97692
725.806	8463.73679
726.236	8435.84397
726.666	8236.33606
727.096	8241.47053
727.526	8269.72671
727.956	8086.0868
728.386	8006.27187
728.816	7904.42479
729.246	7925.25205
729.675	7650.02076
730.105	7655.0348
730.534	7525.73837
730.964	7453.05949
731.393	7390.93532
731.822	7349.19082
732.251	7272.13018
732.68	7280.59972
733.109	7151.93263
733.537	7056.87574
733.966	6965.00486
734.395	7027.54029
734.823	6787.27159
735.251	6751.74542
735.68	6647.92254
736.108	6555.0369
736.536	6446.61431
736.964	6261.59135
737.392	6231.12729
737.82	6088.83607
738.247	6062.83168
738.675	6073.72822
739.102	5896.24624
739.53	5940.49632
739.957	5775.62747
740.384	5635.08458
740.811	5616.34821
741.238	5665.23515
741.665	5556.97462
742.092	5298.91785
742.519	5160.60118
742.945	5192.41819
743.372	5143.61683
743.798	4978.94669
744.225	5005.29097
744.651	4850.8194
745.077	4826.80864
745.503	4630.65238
745.929	4632.70146
746.355	4484.78839
746.781	4373.92663
747.207	4307.72782
747.632	4256.10105
748.058	4290.20035
748.483	4226.52025
748.908	4057.20477
749.334	4151.0837
749.759	3945.925
750.184	3903.02751
750.609	3859.14371
751.033	3754.82867
751.458	3712.55004
751.883	3574.26828
752.307	3448.00539
752.732	3480.60703
753.156	3379.32359
753.58	3350.02811
754.005	3307.46468
754.429	3265.10757
754.853	3159.44701
755.277	3140.1324
755.7	3064.41916
756.124	2944.43312
756.548	2991.10011
756.971	2847.30145
757.394	2842.59647
757.818	2849.67157
758.241	2720.54859
758.664	2652.48726
759.087	2656.85056
759.51	2614.3243
759.933	2489.19946
760.356	2521.59013
760.778	2501.28156
761.201	2440.15778
761.623	2284.01903
762.046	2319.93923
762.468	2294.05636
762.89	2288.15077
763.312	2238.16151
763.734	2199.06387
764.156	2113.13513
764.578	2066.72292
765	2052.03111
765.421	1984.22086
765.843	1979.33201
766.264	1865.76974
766.686	1871.98004
767.107	1859.87453
767.528	1864.15575
767.949	1826.04982
768.37	1757.89885
768.791	1734.72298
769.212	1684.90112
769.632	1661.58853
770.053	1617.97191
770.473	1654.67613
770.894	1503.60174
771.314	1560.50588
771.734	1538.44949
772.154	1494.73207
772.575	1468.34103
772.994	1436.25599
773.414	1463.43797
773.834	1367.49338
774.254	1348.40264
774.673	1349.42227
775.093	1311.4328
775.512	1295.38407
775.931	1251.41048
776.351	1214.31065
776.77	1144.16974
777.189	1182.12185
777.607	1181.33055
778.026	1163.232
778.445	1124.23592
778.864	1071.13965
779.282	1038.93336
779.701	1058.09565
780.119	1029.08397
780.537	996.98146
780.955	1000.02284
781.373	937.8713
781.791	1000.77798
782.209	975.71688
782.627	899.96415
783.045	911.64822
783.462	886.86608
783.88	877.88626
784.297	822.72439
784.715	858.8434
785.132	742.49823
785.549	770.61735
785.966	801.68658
786.383	745.55689
786.8	747.44249
787.217	764.52861
787.633	716.54077
788.05	748.44339
788.466	700.36742
788.883	674.49868
789.299	664.34115
789.715	654.37044
790.131	623.34246
790.547	585.27234
790.963	630.34798
791.379	594.31353
791.795	567.10171
792.21	598.19328
792.626	506.04587
793.041	533.15516
793.457	539.16172
793.872	522.06308
794.287	501.07645
794.702	471.01362
795.117	473.05539
795.532	485.09469
795.947	444.93908
796.362	500.02467
796.776	458.92966
797.191	411.91126
797.605	428.91435
798.02	387.85235
798.434	440.86744
798.848	448.00425
799.262	342.77863
799.676	405.89198
800.09	372.83219
800.504	401.87318
800.918	328.68525
801.331	293.69572
801.745	335.69506
802.158	333.75646
802.572	347.76779
802.985	310.68064
803.398	322.70014
803.811	244.57347
804.224	300.67889
804.637	294.6485
805.05	251.53381
805.462	268.60673
805.875	234.5724
806.288	260.58718
806.7	196.45905
807.112	189.40686
807.525	199.45355
807.937	199.46471
808.349	197.46112
808.761	264.60593
809.173	242.54921
809.584	225.51674
809.996	168.38854
810.408	201.49634
810.819	206.4544
811.231	224.56618
811.642	258.59833
812.053	245.55816
812.464	202.44819
812.875	190.46167
813.286	205.50286
813.697	206.43687
814.108	179.40979
814.519	231.48186
814.929	202.48327
815.34	147.3341
815.75	185.44876
816.16	126.29511
816.571	134.33108
816.981	149.32805
817.391	136.30841
817.801	150.35544
818.211	182.40634
818.62	176.4017
819.03	137.31792
819.44	102.25091
819.849	151.35678
820.259	103.24967
820.668	137.32194
821.077	160.38046
821.486	120.27102
821.895	115.26655
822.304	115.29147
822.713	114.25526
823.122	92.21961
823.531	39.08788
823.939	127.29588
824.348	139.31809
824.756	134.31716
825.164	106.25361
825.573	136.32488
825.981	118.27702
826.389	146.34717
826.797	130.31612
827.205	114.25073
827.612	94.2206
828.02	70.15674
828.428	94.22927
828.835	128.32459
829.243	107.24082
829.65	73.17615
830.057	97.22358
830.464	148.34609
830.871	104.23852
831.278	121.27823
831.685	79.16728
832.092	87.20165
832.499	162.33365
832.905	97.23336
833.312	65.13896
833.718	130.31043
834.124	129.27949
834.531	107.25478
834.937	94.23226
835.343	104.2368
835.749	92.20141
836.155	83.20917
836.561	110.25834
836.966	99.23001
837.372	66.16086
837.777	98.23447
838.183	157.32473
838.588	109.26014
838.993	120.27787
839.399	82.19311
839.804	75.17584
840.209	115.28325
840.613	76.16082
841.018	56.13592
841.423	59.14618
841.828	88.21463
842.232	41.0962
842.637	107.24299
843.041	75.18603
843.445	41.09856
843.849	76.18142
844.253	99.22318
844.657	60.14667
845.061	151.32827
845.465	62.14396
845.869	94.20787
846.272	86.20159
846.676	60.13667
847.079	65.16063
847.483	89.21175
847.886	115.26306
848.289	104.27017
848.692	50.12127
849.095	93.21197
849.498	102.24292
849.901	49.1068
850.304	110.24935
850.707	101.24519
851.109	60.14525
851.512	103.24214
851.914	46.11291
852.316	79.19415
852.718	116.29416
853.121	60.14147
853.523	46.10253
853.925	93.23554
854.326	81.19568
854.728	65.16169
855.13	72.18077
855.531	44.10156
855.933	89.20154
856.334	79.19063
856.736	90.1937
857.137	102.22764
857.538	94.22798
857.939	87.20898
858.34	64.1479
858.741	61.15323
859.142	90.20492
859.542	75.19211
859.943	69.16449
860.343	55.13217
860.744	59.13822
861.144	138.3217
861.544	82.19138
861.945	40.0984
862.345	77.17925
862.745	67.16125
863.145	98.21817
863.544	80.19461
863.944	65.14695
864.344	27.06394
864.743	119.27997
865.143	111.27491
865.542	43.09444
865.941	94.22318
866.34	52.11792
866.74	91.23513
867.139	113.26088
867.537	68.16455
867.936	87.20085
868.335	53.12963
868.734	47.11624
869.132	34.07497
869.531	61.1396
869.929	71.15534
870.327	55.12657
870.726	28.06674
871.124	92.2026
871.522	26.06391
871.92	76.17954
872.318	62.14425
872.715	31.07291
873.113	25.0585
873.511	39.0934
873.908	52.12886
874.306	53.12809
874.703	46.10972
875.1	7.01713
875.497	61.13954
875.894	67.1607
876.291	90.21137
876.688	32.08005
877.085	44.10071
877.482	92.21986
877.878	71.16607
878.275	41.10091
878.671	25.05169
879.068	55.12733
879.464	48.11146
879.86	21.04794
880.256	52.12122
880.652	5.01236
881.048	47.11079
881.444	34.07666
881.84	31.07608
882.236	72.17338
882.631	108.25365
883.027	58.13404
883.422	24.05904
883.817	45.11002
884.213	81.19944
884.608	91.21818
885.003	25.05765
885.398	52.12546
885.793	6.01455
886.188	1.00241
886.582	25.06146
886.977	57.1286
887.371	24.0583
887.766	79.18941
888.16	16.03796
888.554	44.1039
888.949	83.19922
889.343	38.08886
889.737	8.02099
890.131	29.07035
890.525	74.18304
890.918	44.10664
891.312	54.12246
891.706	70.17625
892.099	83.20149
892.492	89.18012
892.886	55.12885
893.279	56.13694
893.672	30.07445
894.065	61.14692
894.458	9.02172
894.851	81.18804
895.244	26.06424
895.637	78.18011
896.029	86.20214
896.422	36.08359
896.814	21.05031
897.206	81.18685
897.599	122.28563
897.991	78.18147
898.383	79.17846
898.775	103.22287
899.167	63.14284
899.559	62.1493
899.951	44.09852
900.342	21.05117
900.734	77.18777
901.125	32.08069
901.517	79.18579
901.908	88.19753
902.299	48.11326
902.69	114.25726
903.082	125.2864
903.473	98.2271
903.863	49.11971
904.254	96.21434
904.645	81.18983
905.036	109.25625
905.426	74.15851
905.817	62.14476
906.207	-3.00685
906.597	96.21567
906.987	74.18244
907.378	84.20457
907.768	49.12565
908.158	78.18119
908.547	57.14406
908.937	65.15809
909.327	46.10707
909.717	35.08427
910.106	32.07363
910.495	42.09972
910.885	67.16338
911.274	85.20263
911.663	39.09454
912.052	34.07982
912.441	90.22074
912.83	25.05474
913.219	31.07821
913.608	114.26617
913.997	68.1653
914.385	94.21351
914.774	70.1626
915.162	57.1318
915.55	29.06703
915.939	47.1153
916.327	55.13071
916.715	71.17662
917.103	73.16853
917.491	70.16511
917.878	101.23549
918.266	58.14415
918.654	79.19516
919.041	38.09732
919.429	79.17758
919.816	70.1699
920.203	93.2171
920.591	96.2274
920.978	71.16626
921.365	70.17745
921.752	22.04971
922.139	76.15646
922.525	40.09281
922.912	46.10732
923.299	38.09119
923.685	24.06008
924.072	9.01948
924.458	26.06254
924.844	51.12139
925.231	33.07302
925.617	37.09197
926.003	40.09829
926.389	61.1477
926.774	43.10459
927.16	76.18009
927.546	79.19673
927.931	64.15201
928.317	57.12434
928.702	82.18361
929.088	97.22332
929.473	69.17002
929.858	42.09964
930.243	80.18532
930.628	102.23871
931.013	22.0528
931.398	77.16512
931.783	12.03033
932.167	112.26294
932.552	21.05069
932.937	48.11374
933.321	57.13874
933.705	32.07691
934.09	62.14698
934.474	10.02269
934.858	74.18478
935.242	62.13665
935.626	100.24581
936.009	47.1222
936.393	100.24654
936.777	72.17816
937.16	75.18908
937.544	53.11733
937.927	50.12295
938.311	81.18708
938.694	55.14078
939.077	50.11477
939.46	54.1241
939.843	84.16069
940.226	44.1082
940.609	96.21168
940.991	37.09026
941.374	61.14391
941.757	53.12494
942.139	88.18817
942.522	69.15441
942.904	88.20142
943.286	73.17702
943.668	69.17376
944.05	0
944.432	43.1016
944.814	71.16535
945.196	39.09233
945.578	71.16424
945.959	25.05571
946.341	58.13356
946.722	32.07168
947.104	50.11463
947.485	55.12242
947.866	67.16345
948.247	102.24794
948.628	22.05066
949.009	34.08413
949.39	26.06202
949.771	29.0631
950.152	84.19697
950.532	91.22009
950.913	41.09481
951.293	62.16327
951.674	57.13207
952.054	86.20772
952.434	82.19484
952.814	40.09016
953.194	54.13421
953.574	58.13617
953.954	21.04748
954.334	89.21387
954.714	53.12465
955.093	64.15055
955.473	67.16259
955.853	53.13227
956.232	49.12976
956.611	55.1244
956.99	46.11182
957.37	33.08059
957.749	32.0721
958.128	35.08567
958.506	63.15757
958.885	40.09687
959.264	89.21094
959.643	85.18487
960.021	78.18626
960.4	97.20746
960.778	57.13233
961.156	19.04585
961.535	54.11887
961.913	109.24271
962.291	78.19456
962.669	52.12749
963.047	80.19672
963.424	126.30995
963.802	57.13478
964.18	64.15248
964.557	81.17602
964.935	42.09528
965.312	44.11134
965.69	47.11196
966.067	22.051
966.444	56.12952
966.821	92.22706
967.198	64.14643
967.575	66.15398
967.952	99.22017
968.329	128.29639
968.705	129.2606
969.082	101.25106
969.458	52.12146
969.835	74.1719
970.211	89.22107
970.587	92.21885
970.963	37.0907
971.339	39.09895
971.715	55.13217
972.091	51.12036
972.467	20.04741
972.843	74.17799
973.219	84.18964
973.594	46.1162
973.97	21.04672
974.345	64.14714
974.721	16.03676
975.096	112.25914
975.471	71.15973
975.846	-12.02773
976.221	47.11513
976.596	93.2159
976.971	83.1971
977.346	32.0708
977.72	-3.00738
978.095	24.05997
978.469	85.19186
978.844	45.10805
979.218	102.236
979.593	95.21478
979.967	15.03455
980.341	62.13682
980.715	68.16468
981.089	35.08433
981.463	29.0639
981.837	76.17975
982.21	48.10357
982.584	28.06545
982.957	53.12804
983.331	61.13532
983.704	76.18086
984.078	55.1297
984.451	20.04716
984.824	70.16415
985.197	80.18193
985.57	4.00955
985.943	59.1367
986.316	44.10189
986.688	71.16294
987.061	128.28353
987.434	84.21279
987.806	48.10978
988.179	44.09897
988.551	61.1477
988.923	23.05426
989.295	61.14514
989.667	59.13713
990.039	83.19938
990.411	41.08872
990.783	28.06088
991.155	21.04891
991.527	86.19724
991.898	86.2056
992.27	51.12246
992.641	48.11484
993.012	36.07888
993.384	58.13142
993.755	84.2061
994.126	84.1942
994.497	24.05683
994.868	27.0587
995.239	49.1134
995.61	11.02683
995.98	22.05141
996.351	46.11035
996.722	74.16542
997.092	60.13656
997.462	69.15574
997.833	48.10774
998.203	31.07106
998.573	50.12013
998.943	60.13512
999.313	92.21083
999.683	48.11084
1000.053	38.0815
1000.423	85.19483
1000.792	36.08895
1001.162	18.04242
1001.531	81.19087
1001.901	52.12365
1002.27	58.12042
1002.639	49.1194
1003.009	60.13584
1003.378	45.11104
1003.747	48.10766
1004.116	35.08022
1004.485	48.10973
1004.853	11.02656
1005.222	36.08567
1005.591	70.15764
1005.959	54.11657
1006.328	86.18398
1006.696	29.06693
1007.064	21.05046
1007.433	58.13765
1007.801	17.03948
1008.169	23.05542
1008.537	80.16721
1008.905	25.05641
1009.273	29.06836
1009.64	80.18429
1010.008	64.14513
1010.375	34.0777
1010.743	58.12311
1011.11	96.22
1011.478	59.14097
1011.845	65.14461
1012.212	94.2037
1012.579	45.10624
1012.946	104.23095
1013.313	87.19444
1013.68	72.15236
1014.047	25.05726
1014.414	39.08806
1014.78	66.15767
1015.147	54.12315
1015.513	47.10846
1015.88	37.0904
1016.246	48.11198
1016.612	80.17173
1016.978	87.20437
1017.344	57.13525
1017.71	47.10894
1018.076	69.15294
1018.442	80.19759
1018.808	109.26143
1019.174	24.05768
1019.539	27.05675
1019.905	42.09544
1020.27	16.03802
1020.636	43.09722
1021.001	77.17607
1021.366	64.14749
1021.731	78.19491
1022.096	23.05663
1022.461	95.21364
1022.826	76.1734
1023.191	49.12397
1023.556	8.01794
1023.92	16.03753
1024.285	58.13366
1024.649	54.12574
1025.014	14.03303
1025.378	71.17198
1025.742	26.06159
1026.107	87.18511
1026.471	80.17573
1026.835	74.17508
1027.199	54.12464
1027.562	44.09653
1027.926	25.05841
1028.29	27.06599
1028.654	32.07009
1029.017	65.15317
1029.381	4.00926
1029.744	46.11295
1030.107	98.21925
1030.471	84.19227
1030.834	26.0556
1031.197	89.2031
1031.56	67.1495
1031.923	12.03013
1032.286	47.10539
1032.648	49.11024
1033.011	108.23744
1033.374	54.11952
1033.736	36.09158
1034.099	23.05403
1034.461	42.10301
1034.823	51.12246
1035.185	42.10056
1035.548	63.14724
1035.91	80.18164
1036.272	89.19266
1036.634	121.27924
1036.995	34.07585
1037.357	63.1473
1037.719	89.20604
1038.08	128.28861
1038.442	96.21522
1038.803	52.11715
1039.165	42.10133
1039.526	33.07664
1039.887	62.14128
1040.248	47.1132
1040.609	29.0681
1040.97	48.11194
1041.331	106.25709
1041.692	91.20531
1042.053	76.16266
1042.413	73.16025
1042.774	37.08658
1043.134	50.112
1043.495	88.21062
1043.855	104.24187
1044.215	82.19259
1044.576	40.0924
1044.936	41.0891
1045.296	41.09823
1045.656	70.16183
1046.016	19.04383
1046.375	60.13899
1046.735	56.12332
1047.095	54.12061
1047.454	23.0458
1047.814	64.1469
1048.173	37.08327
1048.533	43.094
1048.892	-11.0257
1049.251	55.13116
1049.61	63.14845
1049.969	50.1121
1050.328	62.12718
1050.687	56.12926
1051.046	53.12285
1051.405	38.08984
1051.763	82.18088
1052.122	40.09567
1052.48	79.18514
1052.839	62.14157
1053.197	56.1255
1053.555	52.10999
1053.914	47.10967
1054.272	29.0657
1054.63	31.07308
1054.988	80.18252
1055.345	74.14774
1055.703	89.20367
1056.061	87.2165
1056.419	80.20172
1056.776	-5.0115
1057.134	13.02833
1057.491	80.19118
1057.848	47.11144
1058.206	31.0686
1058.563	64.13312
1058.92	63.13719
1059.277	44.10406
1059.634	43.09511
1059.991	144.32442
1060.348	37.08023
1060.704	77.17897
1061.061	57.12328
1061.418	32.07466
1061.774	74.17427
1062.131	44.11415
1062.487	11.02456
1062.843	107.25272
1063.199	41.098
1063.555	81.17976
1063.911	33.07966
1064.267	89.17063
1064.623	67.15726
1064.979	20.04367
1065.335	91.20389
1065.691	43.09694
1066.046	52.10811
1066.402	47.10092
1066.757	107.25663
1067.112	90.20865
1067.468	84.19111
1067.823	18.04067
1068.178	92.20931
1068.533	91.20917
1068.888	45.10215
1069.243	60.14163
1069.598	47.10846
1069.952	113.24503
1070.307	50.11935
1070.662	72.165
1071.016	116.24794
1071.371	86.18605
1071.725	65.14647
1072.079	75.17205
1072.434	48.11216
1072.788	44.09864
1073.142	75.17604
1073.496	41.09277
1073.85	46.10147
1074.203	71.16431
1074.557	101.26016
1074.911	111.24767
1075.265	42.09311
1075.618	83.19292
1075.971	70.1581
1076.325	20.04953
1076.678	78.1691
1077.031	-22.04698
1077.385	87.17946
1077.738	76.16174
1078.091	66.144
1078.444	52.11336
1078.796	36.08544
1079.149	104.24597
1079.502	67.15191
1079.855	45.10037
1080.207	69.16145
1080.56	37.09288
1080.912	59.13681
1081.264	85.1953
1081.617	55.12874
1081.969	9.02212
1082.321	36.08399
1082.673	72.15869
1083.025	8.01814
1083.377	48.10757
1083.728	28.06215
1084.08	38.09047
1084.432	40.09196
1084.783	35.07667
1085.135	71.17094
1085.486	52.11413
1085.838	68.16052
1086.189	101.23457
1086.54	80.18039
1086.891	74.18271
1087.242	137.32006
1087.593	42.09625
1087.944	84.18157
1088.295	123.26091
1088.646	80.1884
1088.996	49.11376
1089.347	39.09115
1089.698	49.11209
1090.048	49.12158
1090.398	94.20414
1090.749	35.07939
1091.099	41.10054
1091.449	57.13661
1091.799	75.17913
1092.149	66.15622
1092.499	35.08199
1092.849	40.09803
1093.199	64.15183
1093.548	99.2281
1093.898	43.10282
1094.248	4.00985
1094.597	66.16385
1094.947	51.13155
1095.296	53.12615
1095.645	29.07248
1095.994	67.15326
1096.343	59.14286
1096.692	48.12379
1097.041	33.08809
1097.39	46.11001
1097.739	38.09516
1098.088	44.11292
1098.437	45.11591
1098.785	51.13151
1099.134	2.00507
1099.482	87.231
1099.83	45.1141
1100.179	66.16885
1100.527	-1.00255
1100.875	30.07742
1101.223	69.17755
1101.571	5.01342
1101.919	70.18003
1102.267	22.06091
1102.615	4.01285
1102.962	5.01603
1103.31	6.01926
1103.658	-4.01283
