Data from N3 R4 sample 6_Subt2__0__12-07-35-732.txt Node

Date: Thu Sep 18 12:07:35 PDT 2025
User: uwsun
Spectrometer: HDX01956
Trigger mode: 0
Integration Time (sec): 5.000000E-1
Scans to average: 1
Nonlinearity correction enabled: true
Boxcar width: 0
Storing dark spectrum: false
XAxis mode: Wavelengths
Number of Pixels in Spectrum: 2068
>>>>>Begin Spectral Data<<<<<
194.03	178.50325
194.578	195.61952
195.127	210.65615
195.676	201.6311
196.225	221.56843
196.773	245.65844
197.321	339.8987
197.87	485.16208
198.418	514.2347
198.966	543.32931
199.513	569.33407
200.061	485.15457
200.609	512.2619
201.156	487.98965
201.704	527.23163
202.251	488.21807
202.798	476.15884
203.345	527.21139
203.892	507.19547
204.438	517.13566
204.985	532.16793
205.532	488.20399
206.078	495.12684
206.624	633.44664
207.17	579.24219
207.716	589.32438
208.262	559.00258
208.808	536.25049
209.354	569.29659
209.899	505.18522
210.445	514.19816
210.99	561.26187
211.535	577.24534
212.08	554.18056
212.625	534.23605
213.17	583.36746
213.715	596.23884
214.259	599.27301
214.804	492.12474
215.348	555.17834
215.892	590.31119
216.436	540.13124
216.98	553.10717
217.524	570.25043
218.068	569.32315
218.612	596.39063
219.155	539.17414
219.698	513.13017
220.242	445.03158
220.785	490.07017
221.328	477.10022
221.871	514.21833
222.414	458.06031
222.956	440.98832
223.499	466.96533
224.041	473.00178
224.583	489.94752
225.126	447.91334
225.668	464.05168
226.21	498.17309
226.751	523.06778
227.293	459.96549
227.835	474.08265
228.376	478.00467
228.918	448.04408
229.459	511.18064
230	506.1238
230.541	479.01938
231.082	487.10145
231.622	466.97784
232.163	418.94931
232.704	486.13279
233.244	444.0323
233.784	495.10957
234.324	517.06841
234.864	459.96379
235.404	503.09096
235.944	538.15882
236.484	527.21332
237.023	444.97847
237.563	517.10517
238.102	553.19398
238.641	452.0625
239.18	512.10697
239.719	492.14365
240.258	487.00855
240.797	512.12773
241.335	503.12984
241.874	554.97089
242.412	542.20986
242.95	518.15526
243.488	426.8947
244.026	525.12181
244.564	585.07789
245.102	519.07974
245.64	465.03195
246.177	478.98133
246.715	539.18804
247.252	468.98507
247.789	550.91184
248.326	495.10548
248.863	550.10039
249.4	535.10765
249.936	539.02579
250.473	619.32013
251.009	515.08235
251.546	597.20204
252.082	486.96624
252.618	584.17987
253.154	501.11567
253.69	539.102
254.226	523.1532
254.761	551.12505
255.297	486.97884
255.832	510.11956
256.367	512.10792
256.903	587.17862
257.438	543.16385
257.972	578.16292
258.507	545.14047
259.042	547.08098
259.576	581.16333
260.111	503.06312
260.645	531.04488
261.179	527.13436
261.713	567.15202
262.247	529.10498
262.781	535.02558
263.315	535.19151
263.849	571.309
264.382	551.15356
264.915	527.14747
265.449	537.20535
265.982	561.15847
266.515	584.30589
267.048	565.08164
267.58	571.11055
268.113	630.21359
268.646	539.21133
269.178	523.06972
269.71	608.20877
270.243	623.29936
270.775	559.32079
271.307	538.17171
271.838	548.18292
272.37	533.20174
272.902	618.25553
273.433	625.24118
273.965	572.26798
274.496	562.27521
275.027	586.33188
275.558	583.29802
276.089	549.26253
276.62	554.28241
277.15	578.29617
277.681	543.06101
278.211	564.25696
278.741	601.20233
279.272	552.15336
279.802	593.34318
280.332	566.21974
280.861	594.28783
281.391	627.27818
281.921	597.29297
282.45	580.31238
282.98	572.37002
283.509	672.35981
284.038	651.33139
284.567	604.27222
285.096	638.39568
285.625	549.12553
286.153	671.43488
286.682	609.26337
287.21	563.22339
287.739	587.25992
288.267	594.31736
288.795	601.4349
289.323	676.41597
289.851	649.37043
290.378	587.18187
290.906	619.37372
291.433	639.43986
291.961	667.35861
292.488	614.38207
293.015	656.38916
293.542	693.60162
294.069	643.44062
294.596	609.34982
295.122	710.5128
295.649	635.23996
296.175	631.3696
296.702	699.52572
297.228	633.37395
297.754	640.28906
298.28	704.43506
298.806	645.40002
299.332	726.42768
299.857	703.41322
300.383	690.55456
300.908	702.54164
301.433	668.47244
301.958	707.43237
302.483	660.47238
303.008	759.66864
303.533	673.56521
304.058	688.42526
304.582	708.48504
305.107	654.54277
305.631	732.45706
306.155	714.4726
306.679	777.59803
307.203	735.50342
307.727	721.51333
308.251	725.59052
308.775	803.70854
309.298	730.56017
309.822	690.55456
310.345	754.58857
310.868	833.74249
311.391	793.71207
311.914	772.70752
312.437	810.60208
312.96	770.59036
313.482	773.58908
314.005	755.66678
314.527	776.78606
315.049	850.8723
315.571	868.66654
316.093	848.82269
316.615	819.70715
317.137	807.51465
317.659	875.82235
318.18	839.72721
318.702	915.82057
319.223	833.43799
319.744	928.75714
320.265	882.84953
320.786	963.04215
321.307	912.92843
321.828	931.76583
322.348	1011.97736
322.869	952.91663
323.389	1050.64045
323.909	947.81541
324.43	977.95937
324.95	1011.91504
325.47	1008.09928
325.989	1063.0748
326.509	1039.90803
327.029	1066.99051
327.548	1020.90633
328.067	1093.17866
328.587	1142.34202
329.106	1048.93085
329.625	1096.3702
330.144	1145.14276
330.662	1114.12598
331.181	1156.1968
331.7	1129.11687
332.218	1171.00208
332.736	1166.18912
333.255	1202.2547
333.773	1247.31824
334.291	1247.49189
334.808	1208.14552
335.326	1236.16839
335.844	1343.43351
336.361	1325.70013
336.879	1337.4287
337.396	1319.51163
337.913	1391.43467
338.43	1390.35903
338.947	1373.51815
339.464	1358.19863
339.981	1393.51684
340.497	1416.66256
341.014	1450.67642
341.53	1433.40582
342.046	1461.78009
342.562	1493.80574
343.078	1504.62054
343.594	1482.62912
344.11	1590.77414
344.626	1543.91687
345.141	1573.59566
345.657	1592.57636
346.172	1610.82237
346.687	1560.59164
347.202	1673.68538
347.717	1663.83089
348.232	1631.96516
348.747	1708.75514
349.261	1699.56809
349.776	1773.92391
350.29	1742.1062
350.805	1800.10151
351.319	1778.8358
351.833	1791.81435
352.347	1822.93775
352.861	1881.95926
353.374	1765.7415
353.888	1859.11466
354.401	1802.77481
354.915	1961.86286
355.428	1861.19829
355.941	1860.91005
356.454	1944.78201
356.967	1926.96164
357.48	1920.84175
357.993	1947.20788
358.505	1933.14482
359.018	2012.2436
359.53	2115.30046
360.042	2114.90889
360.554	2143.33164
361.066	1999.19834
361.578	2013.80259
362.09	2079.15329
362.602	2107.88894
363.113	2158.15503
363.625	2137.98133
364.136	2210.86527
364.647	2193.20833
365.158	2181.1122
365.669	2140.20706
366.18	2250.19654
366.691	2255.87055
367.201	2243.28123
367.712	2352.11205
368.222	2317.12692
368.733	2352.87185
369.243	2447.02905
369.753	2422.16457
370.263	2459.42052
370.773	2448.45016
371.282	2644.41573
371.792	2686.26026
372.301	2689.48234
372.811	2764.01368
373.32	2710.91283
373.829	2747.35582
374.338	2913.04444
374.847	2997.25414
375.356	3007.37333
375.865	3213.8178
376.373	3367.11704
376.882	3412.81728
377.39	3476.46644
377.898	3519.58266
378.407	3736.99342
378.915	3859.7141
379.423	4059.01059
379.93	4194.9465
380.438	4329.10956
380.946	4617.72754
381.453	4632.94386
381.96	4867.77638
382.468	5230.45663
382.975	5551.587
383.482	5745.85781
383.989	5818.82945
384.495	6105.98108
385.002	6278.31079
385.509	6735.96525
386.015	7196.26435
386.521	7464.79906
387.028	7709.9127
387.534	7840.7911
388.04	8370.67659
388.546	8435.5057
389.051	8943.29615
389.557	9619.76836
390.063	10272.68911
390.568	10807.42789
391.073	10821.78183
391.578	11332.54465
392.084	11885.72134
392.589	12110.39078
393.093	13073.63689
393.598	14343.14281
394.103	15567.2001
394.607	17181.88377
395.112	18429.94542
395.616	19540.11174
396.12	21377.78402
396.624	23579.80308
397.128	25388.76039
397.632	28421.6112
398.136	30807.52614
398.639	32367.35238
399.143	35778.69254
399.646	40965.7487
400.15	45247.12768
400.653	50036.57176
401.156	56225.88655
401.659	62501.97951
402.162	63494.84686
402.664	62441.93235
403.167	63977.72923
403.67	63769.22307
404.172	63919.58413
404.674	63858.43483
405.176	63738.15102
405.678	63977.72923
406.18	64011.81569
406.682	63863.44694
407.184	63926.60148
407.686	63841.39382
408.187	64025.8516
408.688	63892.51763
409.19	63833.37461
409.691	63977.72923
410.192	63945.6488
410.693	63713.09355
411.194	63812.32447
411.694	63919.58413
412.195	64038.8851
412.696	63881.49072
413.196	63630.90911
413.696	63920.58661
414.196	63735.14409
414.696	63998.78251
415.196	63858.43483
415.696	61811.13781
416.196	50186.25775
416.695	38733.14265
417.195	33279.29393
417.694	31344.55651
418.194	29516.41136
418.693	27313.65416
419.192	26487.20918
419.691	25957.49777
420.19	25439.542
420.688	24898.46065
421.187	23732.89544
421.685	22327.09162
422.184	20320.79164
422.682	17611.47246
423.18	14961.84165
423.678	13253.46703
424.176	12314.20199
424.674	11615.48199
425.172	11167.02874
425.669	10301.63581
426.167	9658.86838
426.664	8942.31418
427.161	8134.23893
427.659	7652.12188
428.156	7267.37921
428.652	6756.24852
429.149	6462.04474
429.646	6292.55084
430.143	5915.14799
430.639	5537.24692
431.135	5273.80438
431.632	4900.34464
432.128	4592.87239
432.624	4529.479
433.12	4225.70136
433.616	4159.47705
434.111	3915.11846
434.607	3834.20403
435.103	3713.40881
435.598	3667.39256
436.093	3500.12253
436.588	3375.94464
437.083	3174.96118
437.578	3057.1681
438.073	2901.64518
438.568	2880.53438
439.062	2700.7522
439.557	2561.17913
440.051	2550.97362
440.546	2466.0089
441.04	2439.28475
441.534	2411.52924
442.028	2378.27656
442.522	2295.22134
443.015	2236.67528
443.509	2242.25916
444.002	2197.26437
444.496	2129.68479
444.989	2148.19286
445.482	2045.22393
445.975	2088.93955
446.468	2064.65077
446.961	2005.63604
447.454	1953.73263
447.947	1918.96961
448.439	1930.09595
448.931	1898.79355
449.424	1953.28254
449.916	1897.04489
450.408	1834.73192
450.9	1811.9547
451.392	1802.13583
451.884	1780.7088
452.375	1708.93812
452.867	1697.56201
453.358	1675.61359
453.849	1635.34674
454.341	1648.53932
454.832	1602.35343
455.323	1704.9589
455.814	1589.53075
456.304	1599.57988
456.795	1526.46729
457.285	1466.29431
457.776	1543.47487
458.266	1540.60968
458.756	1503.55406
459.247	1456.54704
459.737	1471.6035
460.226	1500.43573
460.716	1379.45751
461.206	1382.46225
461.695	1321.49007
462.185	1343.39308
462.674	1348.2849
463.163	1311.19149
463.653	1331.0688
464.142	1245.33161
464.63	1268.35914
465.119	1230.19487
465.608	1253.24465
466.096	1158.93189
466.585	1199.10703
467.073	1105.06769
467.561	1148.16997
468.05	1079.97373
468.538	1124.18432
469.026	1113.09087
469.513	1102.80101
470.001	1131.03566
470.489	1046.00358
470.976	1096.03221
471.463	1055.1309
471.951	1068.14493
472.438	956.84369
472.925	909.77846
473.412	933.87878
473.899	932.75786
474.385	905.85403
474.872	893.73313
475.359	885.83096
475.845	874.48376
476.331	851.50035
476.817	817.69469
477.303	862.67884
477.789	712.47439
478.275	793.6909
478.761	759.54976
479.247	752.43308
479.732	740.60609
480.218	810.8332
480.703	708.5242
481.188	768.40984
481.673	736.45756
482.158	748.37787
482.643	712.59632
483.128	753.51039
483.612	724.49793
484.097	673.42489
484.581	673.36153
485.066	654.41627
485.55	647.25327
486.034	591.13424
486.518	662.39577
487.002	588.27914
487.486	599.29786
487.969	520.14681
488.453	552.24084
488.936	559.12592
489.42	571.12533
489.903	513.16223
490.386	485.90744
490.869	588.14287
491.352	461.01797
491.835	486.89875
492.318	495.00914
492.8	554.01989
493.283	506.18087
493.765	476.06975
494.247	495.04801
494.73	492.98956
495.212	458.9979
495.694	491.05538
496.175	480.0558
496.657	511.09845
497.139	445.68749
497.62	442.98263
498.102	426.98548
498.583	365.84156
499.064	413.85229
499.545	415.87602
500.026	414.86797
500.507	382.82069
500.988	458.05528
501.469	352.8266
501.949	377.87268
502.43	439.979
502.91	438.85335
503.39	354.82643
503.87	368.81611
504.35	382.83446
504.83	361.7383
505.31	375.84667
505.79	290.65279
506.269	321.69633
506.749	318.68732
507.228	351.77761
507.707	396.82143
508.187	386.86243
508.666	344.8053
509.145	331.73117
509.623	340.75058
510.102	291.67124
510.581	402.90447
511.059	328.78316
511.538	340.83007
512.016	333.75462
512.494	326.74161
512.972	352.79394
513.45	323.7132
513.928	310.71662
514.406	319.74284
514.884	321.78734
515.361	333.7537
515.839	328.71439
516.316	347.79624
516.793	301.72461
517.27	285.65452
517.747	282.69337
518.224	324.70598
518.701	298.62534
519.178	348.82326
519.654	283.64003
520.131	277.65723
520.607	242.56966
521.083	270.58483
521.56	264.59646
522.036	253.52798
522.512	280.66192
522.987	328.74888
523.463	256.58286
523.939	334.78587
524.414	274.59932
524.89	274.62611
525.365	289.62184
525.84	279.64177
526.315	304.70136
526.79	343.7285
527.265	316.69264
527.74	276.64133
528.215	254.56895
528.689	203.43135
529.164	249.51202
529.638	258.62898
530.112	248.561
530.587	281.57287
531.061	271.62884
531.534	260.60177
532.008	301.69789
532.482	315.68652
532.956	228.5629
533.429	311.7245
533.903	292.60842
534.376	296.62196
534.849	273.60029
535.322	259.58671
535.795	223.52095
536.268	273.63348
536.741	215.49437
537.213	286.62715
537.686	231.54641
538.158	249.54476
538.631	280.64908
539.103	272.58791
539.575	271.53187
540.047	253.52915
540.519	276.63144
540.991	245.57594
541.463	255.58985
541.934	251.54496
542.406	282.64854
542.877	290.62386
543.348	279.64536
543.82	239.56096
544.291	286.63798
544.762	258.59074
545.233	322.77706
545.703	310.65483
546.174	288.63792
546.645	329.75555
547.115	359.8175
547.585	313.6839
548.056	374.86659
548.526	371.82875
548.996	343.7757
549.466	348.79997
549.935	380.85323
550.405	370.76202
550.875	365.8167
551.344	390.87137
551.814	408.87125
552.283	416.84249
552.752	470.01341
553.221	433.88514
553.69	536.09611
554.159	499.14145
554.628	477.99363
555.096	466.09802
555.565	438.89516
556.033	495.08225
556.502	405.91439
556.97	435.89608
557.438	398.87418
557.906	477.03403
558.374	449.96357
558.842	438.97495
559.31	480.98499
559.777	459.03759
560.245	399.8548
560.712	436.92498
561.18	471.9567
561.647	415.85488
562.114	486.01927
562.581	535.19888
563.048	522.08527
563.514	593.34264
563.981	595.21725
564.448	545.11127
564.914	604.25159
565.381	634.28281
565.847	610.26629
566.313	684.39045
566.779	653.29266
567.245	680.38042
567.711	709.48485
568.176	708.37915
568.642	763.67323
569.108	778.65424
569.573	754.5037
570.038	795.39774
570.504	840.59876
570.969	823.74809
571.434	900.65433
571.899	897.78058
572.363	981.83646
572.828	988.85186
573.293	977.82896
573.757	975.85481
574.222	1007.82233
574.686	1064.95941
575.15	1074.08398
575.614	1156.1491
576.078	1041.97484
576.542	1057.92758
577.006	1032.87478
577.469	1094.16709
577.933	1044.911
578.396	1057.02033
578.86	1059.00568
579.323	1021.0086
579.786	1074.83724
580.249	1088.05127
580.712	990.98227
581.175	967.97847
581.637	979.82191
582.1	962.70231
582.563	901.57138
583.025	977.96476
583.487	968.59881
583.95	864.53721
584.412	995.67123
584.874	887.8253
585.336	789.60745
585.797	873.57771
586.259	855.68844
586.721	823.64263
587.182	793.56146
587.643	835.60193
588.105	822.6539
588.566	795.39482
589.027	825.73031
589.488	786.54367
589.949	765.6093
590.41	785.30249
590.87	806.57111
591.331	821.51224
591.791	725.45884
592.252	761.52927
592.712	714.49566
593.172	733.44316
593.632	838.56792
594.092	722.39181
594.552	763.41083
595.011	734.45495
595.471	802.54776
595.931	806.54657
596.39	720.51023
596.849	808.60483
597.308	748.36065
597.768	818.82432
598.227	775.60678
598.685	860.6456
599.144	819.64597
599.603	760.53252
600.062	890.54277
600.52	951.7627
600.978	905.78647
601.437	928.74176
601.895	936.63559
602.353	952.70465
602.811	993.8179
603.269	1006.95415
603.727	1026.00478
604.184	1077.95426
604.642	1060.11423
605.099	1161.12492
605.557	1155.22297
606.014	1116.86967
606.471	1158.31643
606.928	1274.12871
607.385	1298.50897
607.842	1339.28719
608.299	1332.33516
608.755	1365.48473
609.212	1390.25959
609.668	1451.35491
610.125	1407.5166
610.581	1425.44658
611.037	1403.28278
611.493	1429.43533
611.949	1466.62194
612.405	1558.13227
612.861	1486.44501
613.316	1510.60913
613.772	1477.42409
614.227	1546.6591
614.683	1545.23779
615.138	1528.55189
615.593	1546.53333
616.048	1564.50111
616.503	1561.70698
616.958	1546.80786
617.412	1563.62984
617.867	1569.43105
618.321	1571.17315
618.776	1538.35019
619.23	1471.48735
619.684	1502.35791
620.138	1493.43033
620.592	1446.5768
621.046	1491.53759
621.5	1452.55584
621.954	1424.25492
622.407	1513.33666
622.861	1431.56102
623.314	1501.40018
623.768	1512.55507
624.221	1459.95264
624.674	1448.41478
625.127	1431.4167
625.58	1450.32385
626.033	1400.19519
626.485	1409.48428
626.938	1393.45213
627.39	1407.40911
627.843	1351.30289
628.295	1384.33874
628.747	1351.4074
629.199	1354.2681
629.651	1307.237
630.103	1329.26278
630.555	1340.03296
631.006	1337.3105
631.458	1345.35622
631.909	1291.14967
632.361	1238.17191
632.812	1310.26659
633.263	1326.09978
633.714	1289.99588
634.165	1277.32981
634.616	1246.24971
635.067	1270.07938
635.518	1264.28002
635.968	1316.82932
636.419	1294.0838
636.869	1278.2937
637.319	1293.25293
637.769	1275.14255
638.219	1337.35188
638.669	1308.3406
639.119	1235.26874
639.569	1333.39829
640.019	1352.30522
640.468	1360.22402
640.918	1283.30213
641.367	1350.20878
641.816	1353.19109
642.265	1360.34489
642.714	1313.23897
643.163	1406.36594
643.612	1452.61133
644.061	1387.11547
644.51	1387.32057
644.958	1458.27513
645.406	1442.51194
645.855	1435.55645
646.303	1414.3718
646.751	1530.49449
647.199	1452.34934
647.647	1553.5274
648.095	1427.34274
648.543	1541.08495
648.99	1572.66712
649.438	1586.54089
649.885	1633.87106
650.333	1653.02637
650.78	1583.69951
651.227	1610.77426
651.674	1602.51069
652.121	1684.85702
652.568	1648.81634
653.015	1658.86202
653.461	1699.74429
653.908	1700.61128
654.354	1741.78473
654.801	1713.70266
655.247	1770.44623
655.693	1704.11828
656.139	1769.81575
656.585	1824.86277
657.031	1799.78054
657.477	1861.53784
657.922	1796.64266
658.368	1877.02581
658.813	1865.68905
659.259	1969.03594
659.704	1936.91547
660.149	1970.81303
660.594	2006.96249
661.039	2017.79068
661.484	1996.94569
661.929	2002.88954
662.373	1982.20344
662.818	2012.15416
663.262	2065.08433
663.707	2097.35556
664.151	2035.10156
664.595	2161.13964
665.039	2163.26792
665.483	2139.38208
665.927	2203.01035
666.371	2242.04484
666.814	2259.09499
667.258	2275.17866
667.701	2368.61839
668.145	2299.35513
668.588	2307.33693
669.031	2379.09102
669.474	2280.15324
669.917	2344.73523
670.36	2385.41139
670.803	2441.25405
671.245	2395.43815
671.688	2419.2818
672.13	2482.92118
672.573	2500.5215
673.015	2498.25936
673.457	2489.73019
673.899	2568.29353
674.341	2521.25737
674.783	2548.2365
675.225	2625.40896
675.666	2623.37735
676.108	2583.70449
676.549	2609.08864
676.991	2623.78154
677.432	2702.30456
677.873	2685.9885
678.314	2659.21565
678.755	2760.44537
679.196	2712.99726
679.637	2696.25056
680.078	2773.12073
680.518	2778.021
680.959	2739.2246
681.399	2800.46768
681.839	2777.34372
682.28	2808.49695
682.72	2764.99789
683.16	2844.52542
683.6	2815.9695
684.039	2827.46472
684.479	2800.45364
684.919	2898.1669
685.358	2860.50592
685.798	2896.81218
686.237	2929.24054
686.676	2756.93242
687.115	2939.16902
687.554	2948.26451
687.993	2880.80966
688.432	2862.98058
688.871	2906.00956
689.309	2827.27199
689.748	2944.47864
690.186	2933.11692
690.625	2870.14782
691.063	2920.2381
691.501	3006.46905
691.939	2996.59204
692.377	2980.33689
692.815	2964.3974
693.253	2859.21771
693.69	2921.74183
694.128	2927.34575
694.565	2945.19037
695.003	2958.6855
695.44	2949.19269
695.877	2949.15213
696.314	2921.53209
696.751	2901.92824
697.188	2906.06339
697.625	2866.8563
698.061	2948.25252
698.498	2796.16571
698.934	2822.23441
699.371	2876.14791
699.807	2902.1622
700.243	2895.29691
700.679	2877.83276
701.115	2872.08949
701.551	2778.06186
701.987	2884.71804
702.422	2813.22684
702.858	2815.22234
703.294	2927.9922
703.729	2829.33521
704.164	2770.21643
704.599	2778.84752
705.035	2728.86926
705.47	2708.30886
705.904	2730.03867
706.339	2700.98749
706.774	2662.09418
707.209	2691.06652
707.643	2684.21734
708.078	2708.31566
708.512	2653.49201
708.946	2562.13406
709.38	2591.16157
709.814	2550.89092
710.248	2550.31706
710.682	2584.22325
711.116	2599.30762
711.549	2475.53542
711.983	2503.98808
712.416	2529.14177
712.85	2415.33442
713.283	2462.09118
713.716	2380.32258
714.149	2276.93037
714.582	2390.82362
715.015	2304.23133
715.448	2300.37972
715.881	2243.5716
716.313	2207.9458
716.746	2223.01923
717.178	2207.08874
717.61	2213.38394
718.043	2154.18873
718.475	2126.09046
718.907	2058.18364
719.339	2089.75859
719.77	2004.95948
720.202	2027.17713
720.634	2066.11226
721.065	1981.86473
721.497	1975.03483
721.928	1911.97986
722.359	1872.94074
722.79	1892.87837
723.221	1888.02942
723.652	1857.11127
724.083	1853.58997
724.514	1854.67699
724.945	1771.69256
725.375	1716.64841
725.806	1717.85234
726.236	1727.01607
726.666	1662.62954
727.096	1688.7954
727.526	1665.99554
727.956	1641.50277
728.386	1659.77613
728.816	1691.99354
729.246	1608.76061
729.675	1531.62968
730.105	1528.63488
730.534	1557.49052
730.964	1501.67732
731.393	1512.62221
731.822	1538.81566
732.251	1513.75938
732.68	1457.36866
733.109	1450.58396
733.537	1454.56203
733.966	1376.54188
734.395	1445.35814
734.823	1411.18025
735.251	1414.44878
735.68	1301.39754
736.108	1339.48982
736.536	1322.26221
736.964	1285.19098
737.392	1310.4531
737.82	1271.25962
738.247	1338.33233
738.675	1274.21445
739.102	1262.38491
739.53	1264.49291
739.957	1251.49417
740.384	1256.26439
740.811	1149.21878
741.238	1209.26842
741.665	1210.14909
742.092	1145.99834
742.519	1119.17818
742.945	1197.2272
743.372	1172.25523
743.798	1189.36273
744.225	1149.07975
744.651	1106.17364
745.077	1165.24974
745.503	1116.08885
745.929	1154.15807
746.355	1086.06643
746.781	1073.07464
747.207	1048.96261
747.632	1061.09526
748.058	1084.16816
748.483	1067.90281
748.908	998.00318
749.334	1079.09916
749.759	1086.02158
750.184	1056.0092
750.609	1035.01242
751.033	1064.93012
751.458	1089.85255
751.883	989.95431
752.307	1000.86796
752.732	1011.09392
753.156	979.94174
753.58	997.8628
754.005	960.95574
754.429	967.84134
754.853	878.81121
755.277	939.80178
755.7	938.89793
756.124	970.9538
756.548	918.75423
756.971	947.87123
757.394	881.86893
757.818	904.93396
758.241	902.89565
758.664	883.84716
759.087	876.60288
759.51	854.74356
759.933	871.73694
760.356	883.89998
760.778	842.71903
761.201	806.62167
761.623	754.50579
762.046	810.56173
762.468	812.61278
762.89	772.58239
763.312	844.71534
763.734	770.56195
764.156	783.62843
764.578	729.39086
765	780.59665
765.421	652.45212
765.843	707.59904
766.264	685.38015
766.686	689.46579
767.107	715.47434
767.528	668.49454
767.949	685.49955
768.37	737.55714
768.791	679.38999
769.212	610.34952
769.632	651.31155
770.053	547.27294
770.473	591.24125
770.894	569.22753
771.314	579.18767
771.734	576.16847
772.154	519.18061
772.575	544.0954
772.994	513.0203
773.414	530.1083
773.834	474.05828
774.254	515.11418
774.673	558.20402
775.093	501.11567
775.512	442.98833
775.931	490.11521
776.351	516.14747
776.77	448.99472
777.189	482.01977
777.607	422.98165
778.026	467.04542
778.445	416.96464
778.864	374.86865
779.282	346.75551
779.701	375.8622
780.119	384.89328
780.537	348.79709
780.955	376.87019
781.373	346.78615
781.791	362.75057
782.209	283.58901
782.627	311.76423
783.045	347.71867
783.462	356.83762
783.88	305.73702
784.297	276.64918
784.715	281.67903
785.132	312.69281
785.549	243.57012
785.966	287.67307
786.383	297.68289
786.8	324.6898
787.217	332.73139
787.633	228.54255
788.05	247.53445
788.466	273.58792
788.883	299.71734
789.299	203.45388
789.715	286.64879
790.131	239.55811
790.547	200.47117
790.963	230.5353
791.379	245.58199
791.795	236.49546
792.21	215.4678
792.626	200.44246
793.041	197.45823
793.457	194.44974
793.872	179.39361
794.287	247.56067
794.702	120.2782
795.117	218.51297
795.532	233.55391
795.947	149.33548
796.362	132.29349
796.776	229.48914
797.191	195.45179
797.605	144.32655
798.02	114.26544
798.434	246.5071
798.848	227.533
799.262	113.26917
799.676	239.54471
800.09	169.39388
800.504	163.37286
800.918	129.2814
801.331	74.18311
801.745	162.34911
802.158	122.28899
802.572	164.37673
802.985	131.29846
803.398	180.4032
803.811	94.22738
804.224	120.2815
804.637	126.2877
805.05	119.26035
805.462	143.33197
805.875	110.27527
806.288	128.29686
806.7	92.21986
807.112	72.15889
807.525	77.17982
807.937	84.20059
808.349	86.20568
808.761	154.36125
809.173	115.26771
809.584	113.26534
809.996	59.13941
810.408	99.24904
810.819	110.24752
811.231	172.43878
811.642	236.5497
812.053	224.51249
812.464	143.32118
812.875	220.53155
813.286	186.45787
813.697	137.29492
814.108	97.22572
814.519	133.28348
814.929	137.33183
815.34	72.16613
815.75	136.33294
816.16	91.2146
816.571	57.14282
816.981	80.17869
817.391	82.18799
817.801	100.23925
818.211	101.22927
818.62	84.19528
819.03	102.23834
819.44	64.15854
819.849	67.16088
820.259	71.17314
820.668	86.20411
821.077	138.32953
821.486	100.22677
821.895	80.18671
822.304	79.20151
822.713	88.1981
823.122	81.19376
823.531	81.18096
823.939	139.32307
824.348	92.21252
824.756	90.21483
825.164	76.18287
825.573	89.21452
825.981	79.18688
826.389	128.30542
826.797	134.3256
827.205	115.25288
827.612	79.18594
828.02	83.18535
828.428	77.1884
828.835	82.20964
829.243	93.20991
829.65	63.15231
830.057	86.19866
830.464	120.28216
830.871	122.27879
831.278	107.24673
831.685	83.1756
832.092	72.16738
832.499	108.22514
832.905	59.14296
833.312	40.08598
833.718	122.29177
834.124	112.24354
834.531	34.08209
834.937	83.20549
835.343	72.165
835.749	42.09292
836.155	77.19426
836.561	108.25375
836.966	101.23457
837.372	66.16086
837.777	111.26491
838.183	125.2604
838.588	127.30205
838.993	110.25522
839.399	82.19311
839.804	49.11546
840.209	81.20076
840.613	72.15249
841.018	61.14792
841.423	85.20959
841.828	86.20983
842.232	56.13101
842.637	85.19389
843.041	44.10975
843.445	14.03383
843.849	103.24459
844.253	70.15874
844.657	80.19483
845.061	144.31352
845.465	66.15313
845.869	109.24029
846.272	84.19697
846.676	38.08694
847.079	45.11162
847.483	103.2444
847.886	95.21819
848.289	47.12329
848.692	53.12847
849.095	62.1422
849.498	88.21014
849.901	87.18809
850.304	81.18469
850.707	77.18777
851.109	103.24732
851.512	106.24905
851.914	35.08608
852.316	148.35908
852.718	63.16126
853.121	65.15311
853.523	36.08041
853.925	75.19056
854.326	104.25015
854.728	110.27139
855.13	80.20056
855.531	86.19685
855.933	72.16361
856.334	57.13812
856.736	107.22945
857.137	86.19257
857.538	89.21606
857.939	105.25136
858.34	58.1342
858.741	60.15075
859.142	33.076
859.542	37.09541
859.943	85.202
860.343	75.17954
860.744	77.17975
861.144	115.2693
861.544	57.13369
861.945	33.08128
862.345	39.09147
862.745	57.13744
863.145	81.18096
863.544	56.13684
863.944	81.18253
864.344	30.07101
864.743	71.1686
865.143	121.29913
865.542	27.0595
865.941	106.25109
866.34	33.07512
866.74	43.11203
867.139	86.19961
867.537	2.0049
867.936	98.22575
868.335	54.13205
868.734	46.11378
869.132	43.09464
869.531	85.19358
869.929	72.15749
870.327	46.10605
870.726	42.09983
871.124	90.19828
871.522	100.24244
871.92	60.14218
872.318	60.13965
872.715	84.19551
873.113	83.192
873.511	35.08388
873.908	21.05233
874.306	94.22541
874.703	53.12625
875.1	60.14541
875.497	14.03233
875.894	127.30112
876.291	88.20676
876.688	71.17636
877.085	77.17508
877.482	60.14426
877.878	91.21201
878.275	66.1617
878.671	24.04963
879.068	86.19787
879.464	71.16411
879.86	36.08194
880.256	54.12583
880.652	31.07624
881.048	46.10846
881.444	31.06994
881.84	43.10529
882.236	73.17575
882.631	71.16795
883.027	64.14773
883.422	27.06638
883.817	10.02461
884.213	72.17757
884.608	88.2111
885.003	30.06911
885.398	66.15881
885.793	58.1393
886.188	30.07191
886.582	76.18509
886.977	84.18847
887.371	54.13043
887.766	32.07741
888.16	59.13881
888.554	73.17141
888.949	88.21102
889.343	95.21967
889.737	42.10956
890.131	50.12081
890.525	115.28231
890.918	39.09461
891.312	49.11123
891.706	68.17128
892.099	82.1991
892.492	86.17417
892.886	47.11028
893.279	39.09567
893.672	54.13342
894.065	47.1135
894.458	55.13156
894.851	82.19033
895.244	32.07898
895.637	85.196
896.029	91.21368
896.422	58.13409
896.814	38.09074
897.206	67.15499
897.599	110.25814
897.991	81.18834
898.383	96.21611
898.775	144.30885
899.167	94.21178
899.559	68.16356
899.951	72.16029
900.342	17.04146
900.734	64.15645
901.125	41.10321
901.517	81.19042
901.908	114.25452
902.299	41.09688
902.69	93.21077
903.082	80.18495
903.473	71.16542
903.863	51.12455
904.254	93.20777
904.645	40.09449
905.036	75.17748
905.426	95.20257
905.817	48.11238
906.207	17.03864
906.597	89.20023
906.987	31.07703
907.378	87.21176
907.768	22.05668
908.158	58.13526
908.547	109.27292
908.937	26.0637
909.327	53.12319
909.717	56.13429
910.106	63.14406
910.495	49.11618
910.885	68.16579
911.274	89.212
911.663	63.15202
912.052	14.033
912.441	62.15285
912.83	45.09812
913.219	72.18031
913.608	108.25246
913.997	72.17489
914.385	95.21574
914.774	89.20596
915.162	107.24496
915.55	78.17853
915.939	65.15892
916.327	57.13541
916.715	98.24258
917.103	52.12055
917.491	84.19759
917.878	72.16884
918.266	55.13677
918.654	102.25091
919.041	40.10241
919.429	53.11977
919.816	37.09036
920.203	103.23997
920.591	60.14311
920.978	84.1962
921.365	71.17995
921.752	47.10565
922.139	100.20475
922.525	49.11349
922.912	15.03521
923.299	60.14339
923.685	7.01758
924.072	47.10092
924.458	63.15047
924.844	48.11432
925.231	30.06643
925.617	75.18514
926.003	82.19993
926.389	33.08032
926.774	75.18132
927.16	97.22892
927.546	114.28208
927.931	70.16607
928.317	55.12003
928.702	64.14384
929.088	106.2436
929.473	82.20156
929.858	53.12547
930.243	109.25104
930.628	49.11587
931.013	89.21086
931.398	65.13975
931.783	34.08561
932.167	79.18666
932.552	57.13666
932.937	74.17447
933.321	41.10009
933.705	24.05777
934.09	32.0763
934.474	51.11474
934.858	99.24609
935.242	53.11704
935.626	53.13141
936.009	68.17616
936.393	104.25621
936.777	98.24134
937.16	79.19902
937.544	59.13045
937.927	89.21727
938.311	84.19389
938.694	95.24146
939.077	51.11704
939.46	45.1036
939.843	69.13248
940.226	30.07396
940.609	146.31855
940.991	79.19121
941.374	88.20652
941.757	89.20833
942.139	113.24032
942.522	88.19615
942.904	74.16986
943.286	115.27666
943.668	70.17625
944.05	62.14652
944.432	89.20841
944.814	41.09605
945.196	101.23624
945.578	122.27936
945.959	84.18491
946.341	55.12672
946.722	92.20354
947.104	49.11236
947.485	70.15532
947.866	83.20187
948.247	51.12516
948.628	7.01617
949.009	73.17934
949.39	60.14218
949.771	9.01967
950.152	34.08051
950.532	69.16757
950.913	95.21731
951.293	70.18409
951.674	75.17315
952.054	87.21009
952.434	52.12427
952.814	26.05877
953.194	33.08233
953.574	80.18701
953.954	27.06097
954.334	86.20678
954.714	79.18485
955.093	63.14822
955.473	94.22696
955.853	47.11743
956.232	49.12976
956.611	29.06594
956.99	52.12626
957.37	46.11207
957.749	-6.01362
958.128	94.22756
958.506	65.16252
958.885	53.12804
959.264	68.16182
959.643	110.23797
960.021	47.1129
960.4	80.17173
960.778	71.16437
961.156	37.08898
961.535	75.16437
961.913	113.2514
962.291	45.11292
962.669	71.17346
963.047	67.16515
963.424	104.25687
963.802	52.12308
964.18	80.19001
964.557	68.14818
964.935	53.11997
965.312	32.08115
965.69	61.14491
966.067	39.09011
966.444	70.16145
966.821	57.14159
967.198	58.13286
967.575	90.20898
967.952	100.22234
968.329	75.17549
968.705	192.38225
969.082	67.16758
969.458	80.18583
969.835	72.16732
970.211	87.21618
970.587	116.27467
970.963	56.13679
971.339	24.06106
971.715	76.1819
972.091	38.08991
972.467	56.13183
972.843	103.24638
973.219	60.13612
973.594	48.1212
973.97	4.00893
974.345	60.13805
974.721	59.13437
975.096	34.07988
975.471	67.15086
975.846	65.14791
976.221	44.10784
976.596	125.28835
976.971	122.28753
977.346	55.1211
977.72	61.14836
978.095	55.13667
978.469	61.13836
978.844	90.21426
979.218	71.16529
979.593	91.2059
979.967	2.00462
980.341	84.18452
980.715	69.16707
981.089	64.15336
981.463	70.15292
981.837	82.19371
982.21	72.15456
982.584	59.13708
982.957	84.20174
983.331	85.18762
983.704	93.22059
984.078	46.10867
984.451	67.15653
984.824	73.17108
985.197	15.03456
985.57	44.10427
985.943	6.01405
986.316	72.16579
986.688	96.2192
987.061	63.14144
987.434	68.17275
987.806	45.10298
988.179	54.12121
988.551	73.17635
988.923	66.1544
989.295	77.18264
989.667	76.17605
990.039	103.24648
990.411	17.03697
990.783	34.07384
991.155	36.08359
991.527	42.09718
991.898	78.18676
992.27	63.15093
992.641	73.17382
993.012	24.05272
993.384	65.14707
993.755	50.12345
994.126	99.22819
994.497	19.04503
994.868	33.07165
995.239	75.17267
995.61	42.10187
995.98	54.12539
996.351	63.15064
996.722	81.18081
997.092	40.09141
997.462	28.06373
997.833	42.09439
998.203	28.06422
998.573	62.14862
998.943	72.16175
999.313	84.19281
999.683	60.13822
1000.053	6.01296
1000.423	27.06261
1000.792	36.08895
1001.162	12.02832
1001.531	64.15131
1001.901	32.07639
1002.27	68.14087
1002.639	5.01228
1003.009	81.1826
1003.378	56.13791
1003.747	87.19356
1004.116	59.13458
1004.485	63.14359
1004.853	6.0145
1005.222	-18.04328
1005.591	103.23039
1005.959	49.10589
1006.328	45.09712
1006.696	65.14893
1007.064	28.0672
1007.433	46.10943
1007.801	92.21049
1008.169	20.04822
1008.537	59.12389
1008.905	97.21563
1009.273	20.04723
1009.64	97.22269
1010.008	59.13393
1010.375	76.17221
1010.743	22.04706
1011.11	115.26253
1011.478	111.26257
1011.845	44.09832
1012.212	91.19733
1012.579	14.03325
1012.946	54.12116
1013.313	65.14593
1013.68	85.17936
1014.047	30.06864
1014.414	22.04985
1014.78	55.13166
1015.147	82.18595
1015.513	71.16307
1015.88	55.13392
1016.246	88.20369
1016.612	107.22836
1016.978	93.21821
1017.344	76.17968
1017.71	38.08824
1018.076	-8.01802
1018.442	99.24367
1018.808	90.21664
1019.174	45.10773
1019.539	27.05675
1019.905	102.22896
1020.27	15.03565
1020.636	90.20152
1021.001	67.15351
1021.366	49.11326
1021.731	133.32904
1022.096	32.07866
1022.461	81.18268
1022.826	87.19805
1023.191	60.1515
1023.556	144.31392
1023.92	60.13954
1024.285	51.1177
1024.649	80.18532
1025.014	37.08692
1025.378	45.10953
1025.742	52.12256
1026.107	31.06676
1026.471	123.26774
1026.835	81.19139
1027.199	50.1155
1027.562	63.13766
1027.926	37.08624
1028.29	67.16253
1028.654	49.10693
1029.017	88.20643
1029.381	98.22269
1029.744	82.2
1030.107	110.24549
1030.471	29.06711
1030.834	22.04708
1031.197	48.11044
1031.56	65.14509
1031.923	45.11231
1032.286	78.17379
1032.648	49.11024
1033.011	105.23099
1033.374	77.1696
1033.736	-2.00512
1034.099	27.06338
1034.461	63.15392
1034.823	36.08669
1035.185	-13.03145
1035.548	104.2411
1035.91	71.1615
1036.272	119.25595
1036.634	84.19528
1036.995	84.18545
1037.357	20.04716
1037.719	52.12127
1038.08	148.33234
1038.442	44.0997
1038.803	26.05889
1039.165	59.14189
1039.526	47.10885
1039.887	80.18164
1040.248	84.2009
1040.609	48.11229
1040.97	72.16712
1041.331	56.1371
1041.692	80.1809
1042.053	89.18994
1042.413	104.22682
1042.774	82.19018
1043.134	39.08756
1043.495	31.075
1043.855	104.24187
1044.215	18.0428
1044.576	48.11071
1044.936	57.12344
1045.296	90.2136
1045.656	59.1367
1046.016	64.14631
1046.375	46.10685
1046.735	118.25648
1047.095	56.12503
1047.454	139.26932
1047.814	33.07622
1048.173	86.19161
1048.533	44.09616
1048.892	13.03023
1049.251	15.03605
1049.61	54.12747
1049.969	60.13424
1050.328	92.18743
1050.687	52.12012
1051.046	38.08834
1051.405	24.05689
1051.763	74.16351
1052.122	26.06235
1052.48	56.13183
1052.839	126.28399
1053.197	75.16742
1053.555	63.13294
1053.914	63.14655
1054.272	41.09266
1054.63	38.08946
1054.988	66.15101
1055.345	31.06251
1055.703	63.14493
1056.061	64.15993
1056.419	74.18679
1056.776	-4.0092
1057.134	20.04353
1057.491	47.11303
1057.848	51.12083
1058.206	51.11238
1058.563	17.03573
1058.92	51.11135
1059.277	67.15776
1059.634	43.09511
1059.991	94.21394
1060.348	81.17399
1060.704	124.28553
1061.061	32.06958
1061.418	61.1415
1061.774	55.13
1062.131	62.16034
1062.487	18.04014
1062.843	39.09333
1063.199	68.1617
1063.555	51.11389
1063.911	44.10599
1064.267	58.11203
1064.623	92.21489
1064.979	46.0999
1065.335	75.16859
1065.691	38.08575
1066.046	100.20568
1066.402	54.11577
1066.757	42.10198
1067.112	65.15144
1067.468	79.17991
1067.823	-18.04097
1068.178	71.16222
1068.533	66.15246
1068.888	47.10665
1069.243	43.10184
1069.598	42.09702
1069.952	105.22807
1070.307	61.1453
1070.662	121.27456
1071.016	152.32235
1071.371	92.19877
1071.725	56.12642
1072.079	82.18784
1072.434	95.21993
1072.788	17.03832
1073.142	107.24958
1073.496	44.0995
1073.85	82.17952
1074.203	58.13457
1074.557	102.26269
1074.911	85.19068
1075.265	80.17595
1075.618	76.17689
1075.971	46.1044
1076.325	81.19833
1076.678	82.17762
1077.031	-19.04055
1077.385	67.13883
1077.738	73.15546
1078.091	60.13108
1078.444	79.17123
1078.796	63.14874
1079.149	79.18775
1079.502	45.10248
1079.855	53.11801
1080.207	32.07542
1080.56	87.21642
1080.912	70.16196
1081.264	91.20883
1081.617	78.18176
1081.969	65.15809
1082.321	61.14161
1082.673	43.09535
1083.025	19.04299
1083.377	80.1781
1083.728	77.16918
1084.08	31.0739
1084.432	44.10108
1084.783	2.00441
1085.135	60.14476
1085.486	35.07709
1085.838	43.10199
1086.189	75.17508
1086.54	74.16706
1086.891	102.25054
1087.242	117.27441
1087.593	52.11893
1087.944	102.21962
1088.295	95.20275
1088.646	85.19998
1088.996	73.16867
1089.347	51.11891
1089.698	80.18186
1090.048	23.05734
1090.398	79.17211
1090.749	18.04097
1091.099	46.1127
1091.449	69.16499
1091.799	56.13424
1092.149	51.12106
1092.499	55.12834
1092.849	28.06878
1093.199	37.08824
1093.548	95.21906
1093.898	31.0743
1094.248	19.04666
1094.597	43.1072
1094.947	89.22805
1095.296	74.17542
1095.645	69.17121
1095.994	83.18925
1096.343	74.17867
1096.692	70.17984
1097.041	27.07214
1097.39	78.18541
1097.739	18.04524
1098.088	77.19648
1098.437	59.15161
1098.785	8.02078
1099.134	32.08069
1099.482	82.2179
1099.83	62.15672
1100.179	59.15113
1100.527	50.12648
1100.875	40.10305
1101.223	47.1214
1101.571	-8.02151
1101.919	21.05447
1102.267	44.1214
1102.615	3.00964
1102.962	7.02244
1103.31	8.02568
1103.658	3.00961
