Data from N3 R4 sample 1_Subt2__4__12-50-52-220.txt Node

Date: Thu Sep 18 12:50:52 PDT 2025
User: uwsun
Spectrometer: HDX01956
Trigger mode: 0
Integration Time (sec): 5.000000E-1
Scans to average: 1
Nonlinearity correction enabled: true
Boxcar width: 0
Storing dark spectrum: false
XAxis mode: Wavelengths
Number of Pixels in Spectrum: 2068
>>>>>Begin Spectral Data<<<<<
194.03	200.56355
194.578	209.66286
195.127	198.61959
195.676	195.61272
196.225	214.5511
196.773	257.68933
197.321	324.8611
197.87	479.14898
198.418	535.2801
198.966	542.3271
199.513	527.24558
200.061	468.11766
200.609	484.19891
201.156	503.01665
201.704	491.15545
202.251	500.24536
202.798	520.25574
203.345	550.25853
203.892	547.27993
204.438	542.18443
204.985	502.1089
205.532	505.24211
206.078	548.23435
206.624	582.34357
207.17	594.27031
207.716	543.23229
208.262	540.97471
208.808	543.26511
209.354	555.26821
209.899	582.3457
210.445	511.19186
210.99	578.29564
211.535	598.28494
212.08	526.12759
212.625	489.14181
213.17	554.30669
213.715	586.22073
214.259	587.25072
214.804	545.23284
215.348	613.28526
215.892	585.30141
216.436	545.14047
216.98	578.15063
217.524	560.23104
218.068	596.37865
218.612	550.29474
219.155	500.09803
219.698	557.21597
220.242	489.12392
220.785	580.243
221.328	482.11067
221.871	581.35958
222.414	516.18111
222.956	462.03102
223.499	486.00041
224.041	480.01509
224.583	458.89402
225.126	516.03606
225.668	477.07836
226.21	510.1986
226.751	515.05332
227.293	512.06255
227.835	529.19514
228.376	495.03658
228.918	508.17021
229.459	520.19932
230	500.11183
230.541	499.05741
231.082	492.11165
231.622	467.97972
232.163	476.06626
232.704	544.25376
233.244	494.13746
233.784	450.01783
234.324	594.20669
234.864	474.99199
235.404	484.05392
235.944	504.09337
236.484	514.18641
237.023	489.0655
237.563	518.10707
238.102	495.08179
238.641	489.14136
239.18	514.11083
239.719	507.1751
240.258	499.03068
240.797	520.14346
241.335	490.10352
241.874	567.99029
242.412	574.27295
242.95	540.19894
243.488	502.0348
244.026	574.21371
244.564	556.03178
245.102	536.11097
245.64	492.08587
246.177	493.00688
246.715	600.30583
247.252	516.07278
247.789	499.8389
248.326	562.23803
248.863	582.15592
249.4	563.15844
249.936	587.10433
250.473	591.26797
251.009	519.08981
251.546	567.1494
252.082	515.01524
252.618	554.12684
253.154	515.14359
253.69	512.05309
254.226	530.16695
254.761	513.05634
255.297	548.08625
255.832	509.11759
256.367	515.11371
256.903	573.15417
257.438	567.20909
257.972	573.15417
258.507	504.06407
259.042	529.04974
259.576	645.27263
260.111	507.07065
260.645	550.07751
261.179	568.21201
261.713	585.18378
262.247	525.09758
262.781	603.13727
263.315	529.17959
263.849	599.36558
264.382	572.19205
264.915	634.34953
265.449	478.08567
265.982	631.28285
266.515	620.37622
267.048	579.10475
267.58	565.10043
268.113	555.0881
268.646	488.10797
269.178	562.1395
269.71	652.28315
270.243	617.28854
270.775	611.42929
271.307	558.21019
271.838	592.26603
272.37	528.19166
272.902	566.16332
273.433	619.23097
273.965	524.173
274.496	565.28125
275.027	543.24474
275.558	608.34676
276.089	571.30743
276.62	529.23051
277.15	572.28428
277.681	578.12019
278.211	586.30013
278.741	592.18676
279.272	598.23693
279.802	564.28492
280.332	597.27811
280.861	591.28214
281.391	602.23409
281.921	586.27208
282.45	590.33232
282.98	587.40198
283.509	653.32704
284.038	636.30507
284.567	639.33572
285.096	601.32488
285.625	534.09843
286.153	643.38324
286.682	652.33976
287.21	591.27669
287.739	596.27679
288.267	571.27232
288.795	620.47494
289.323	642.35474
289.851	725.50568
290.378	616.2321
290.906	607.35041
291.433	636.43397
291.961	655.33777
292.488	636.42522
293.015	619.32128
293.542	696.6076
294.069	725.59718
294.596	633.39609
295.122	756.59488
295.649	649.26315
296.175	651.40707
296.702	754.62678
297.228	650.4058
297.754	699.38903
298.28	678.39013
298.806	691.48534
299.332	715.40964
299.857	670.357
300.383	706.58545
300.908	706.54913
301.433	702.53647
301.958	707.43237
302.483	652.45691
303.008	730.61458
303.533	722.66306
304.058	696.43929
304.582	704.47794
305.107	663.5613
305.631	746.48015
306.155	769.56666
306.679	746.54487
307.203	737.50683
307.727	750.56423
308.251	750.63678
308.775	806.71382
309.298	777.64388
309.822	776.7178
310.345	805.6772
310.868	799.68383
311.391	809.74068
311.914	784.72976
312.437	809.60047
312.96	846.71785
313.482	815.65972
314.005	780.71304
314.527	790.81323
315.049	845.86322
315.571	861.65585
316.093	821.77482
316.615	853.76471
317.137	907.66097
317.659	853.78515
318.18	853.75056
318.702	878.76185
319.223	903.53025
319.744	953.79359
320.265	929.92805
320.786	971.05557
321.307	954.99884
321.828	1001.86661
322.348	974.9215
322.869	1012.00807
323.389	1319.90444
323.909	962.83756
324.43	997.99033
324.95	988.88185
325.47	1048.16344
325.989	998.97901
326.509	1082.96583
327.029	1054.97387
327.548	1049.94666
328.067	1087.16968
328.587	1140.33896
329.106	1064.95258
329.625	1104.38346
330.144	1164.16829
330.662	1191.23128
331.181	1207.26577
331.7	1155.152
332.218	1157.98661
332.736	1213.25151
333.255	1246.31238
333.773	1197.25242
334.291	1236.47611
334.808	1281.23309
335.326	1205.13082
335.844	1325.41166
336.361	1350.73569
336.879	1342.43475
337.396	1377.58587
337.913	1342.37845
338.43	1430.4014
338.947	1396.54584
339.464	1396.23665
339.981	1403.52859
340.497	1465.72224
341.014	1433.65604
341.53	1448.42133
342.046	1540.87541
342.562	1489.80092
343.078	1534.65224
343.594	1476.62246
344.11	1520.69963
344.626	1613.99825
345.141	1605.62575
345.657	1597.58093
346.172	1643.85602
346.687	1638.66473
347.202	1722.72703
347.717	1685.85189
348.232	1711.04827
348.747	1687.73684
349.261	1720.58418
349.776	1697.85552
350.29	1741.10519
350.805	1774.07715
351.319	1824.87254
351.833	1799.82065
352.347	1793.91378
352.861	1900.97346
353.374	1856.80962
353.888	1946.18621
354.401	1854.81314
354.915	1907.82809
355.428	1926.25482
355.941	1953.97695
356.454	1954.78802
356.967	1931.96516
357.48	1961.86805
357.993	1992.2429
358.505	2035.22057
359.018	2082.29332
359.53	2093.28595
360.042	2089.89636
360.554	2122.31813
361.066	2100.2683
361.578	2216.89806
362.09	2069.14698
362.602	2143.90613
363.113	2185.16959
363.625	2193.0077
364.136	2202.86212
364.647	2287.25549
365.158	2258.14934
365.669	2305.29384
366.18	2325.23043
366.691	2309.8887
367.201	2311.3147
367.712	2400.12858
368.222	2401.15765
368.733	2394.88296
369.243	2418.02125
369.753	2487.1841
370.263	2575.45959
370.773	2528.47959
371.282	2570.39669
371.792	2662.25625
372.301	2632.46874
372.811	2721.99977
373.32	2785.91494
373.829	2850.36754
374.338	2998.03977
374.847	3124.2461
375.356	3149.36674
375.865	3289.79981
376.373	3369.11658
376.882	3473.80871
377.39	3518.45701
377.898	3523.5818
378.407	3831.95634
378.915	3909.69185
379.423	4011.0321
379.93	4195.94602
380.438	4332.10806
380.946	4533.77365
381.453	4734.88752
381.96	4954.72706
382.468	5268.43553
382.975	5649.53569
383.482	5697.87947
383.989	5862.80734
384.495	6141.96823
385.002	6435.28607
385.509	6767.96185
386.015	7207.26866
386.521	7602.86332
387.028	7784.96044
387.534	8033.96729
388.04	8401.70971
388.546	8506.60121
389.051	8990.38377
389.557	9658.86565
390.063	10425.21161
390.568	10773.29809
391.073	11121.06481
391.578	11713.34418
392.084	11785.1802
392.589	12369.97382
393.093	13076.65783
393.598	14597.41644
394.103	15760.19333
394.607	17334.72044
395.112	18581.92814
395.616	19906.1783
396.12	21328.06505
396.624	23819.25068
397.128	25652.39165
397.632	28512.69915
398.136	30814.59861
398.639	32595.45609
399.143	36527.66586
399.646	40952.62449
400.15	45534.94337
400.653	50762.55947
401.156	57022.0849
401.659	62620.08808
402.162	63487.68356
402.664	62441.93235
403.167	63977.72923
403.67	63769.22307
404.172	63919.58413
404.674	63858.43483
405.176	63738.15102
405.678	63977.72923
406.18	64011.81569
406.682	63863.44694
407.184	63926.60148
407.686	63841.39382
408.187	64025.8516
408.688	63892.51763
409.19	63833.37461
409.691	63977.72923
410.192	63945.6488
410.693	63713.09355
411.194	63812.32447
411.694	63919.58413
412.195	64038.8851
412.696	63881.49072
413.196	63630.90911
413.696	63920.58661
414.196	63735.14409
414.696	63998.78251
415.196	63858.43483
415.696	62438.8241
416.196	50961.07132
416.695	39266.63398
417.195	33809.90955
417.694	32024.03695
418.194	30163.393
418.693	28096.37563
419.192	27045.50534
419.691	26627.42513
420.19	26121.8498
420.688	25397.42498
421.187	24069.69807
421.685	22783.73197
422.184	20771.19976
422.682	17843.40699
423.18	15195.10885
423.678	13244.40057
424.176	12372.55729
424.674	11703.94473
425.172	11166.02433
425.669	10483.22755
426.167	9839.34462
426.664	8887.21713
427.161	8277.38677
427.659	7746.16871
428.156	7231.36517
428.652	6828.23839
429.149	6556.02327
429.646	6249.5613
430.143	5959.12918
430.639	5588.22091
431.135	5274.80382
431.632	4974.30268
432.128	4691.81782
432.624	4450.51851
433.12	4335.64424
433.616	4164.47447
434.111	4010.07823
434.607	3869.19062
435.103	3808.36615
435.598	3757.35298
436.093	3503.12169
436.588	3388.9412
437.083	3159.96378
437.578	3015.17098
438.073	2994.65379
438.568	2936.53937
439.062	2816.75003
439.557	2668.19928
440.051	2535.97102
440.546	2460.00745
441.04	2476.29717
441.534	2406.52696
442.028	2445.30151
442.522	2371.25331
443.015	2271.68537
443.509	2340.30561
444.002	2268.30185
444.496	2122.68203
444.989	2205.22436
445.482	2122.27498
445.975	2193.99105
446.468	2092.66265
446.961	2043.65383
447.454	1986.75116
447.947	1958.9977
448.439	1999.14679
448.931	1996.85442
449.424	1973.29885
449.916	1966.09671
450.408	1915.78607
450.9	1843.98105
451.392	1830.16186
451.884	1817.73603
452.375	1741.96939
452.867	1774.61922
453.358	1747.67115
453.849	1761.43279
454.341	1701.58175
454.832	1723.44152
455.323	1757.00863
455.814	1624.56154
456.304	1604.58441
456.795	1578.5152
457.285	1610.41833
457.776	1544.47579
458.266	1515.58418
458.756	1459.50794
459.247	1506.60081
459.737	1426.55268
460.226	1494.42995
460.716	1433.51898
461.206	1333.40437
461.695	1304.46808
462.185	1369.4234
462.674	1363.30119
463.163	1382.26649
463.653	1345.08227
464.142	1287.38577
464.63	1291.38849
465.119	1207.16635
465.608	1257.24955
466.096	1266.04987
466.585	1199.10703
467.073	1134.10704
467.561	1175.2066
468.05	1144.05758
468.538	1098.14679
469.026	1106.08124
469.513	1082.77802
470.001	1095.99001
470.489	1069.03645
470.976	1100.03763
471.463	1071.1554
471.951	1043.10662
472.438	960.84965
472.925	976.87962
473.412	964.9275
473.899	947.77967
474.385	931.89619
474.872	901.74535
475.359	924.89511
475.845	851.45356
476.331	852.50173
476.817	852.75361
477.303	860.67573
477.789	795.61602
478.275	786.6785
478.761	759.54976
479.247	784.48261
479.732	734.59508
480.218	802.81803
480.703	690.49113
481.188	794.44816
481.673	739.46249
482.158	757.39135
482.643	747.66283
483.128	758.51869
483.612	708.47001
484.097	704.48053
484.581	650.32184
485.066	689.48103
485.55	615.20027
486.034	609.16379
486.518	694.45308
487.002	571.24658
487.486	585.27126
487.969	547.19965
488.453	563.26275
488.936	532.07808
489.42	585.14919
489.903	534.20473
490.386	515.95644
490.869	592.14956
491.352	523.1402
491.835	530.96937
492.318	505.02723
492.8	549.01193
493.283	502.17244
493.765	477.07179
494.247	491.04043
494.73	508.01621
495.212	468.01556
495.694	494.06116
496.175	455.00595
496.657	544.16122
497.139	493.75097
497.62	494.08438
498.102	456.04648
498.583	436.99098
499.064	449.91909
499.545	471.98201
500.026	535.08986
500.507	457.96593
500.988	443.02369
501.469	367.8593
501.949	439.00156
502.43	488.07523
502.91	523.9984
503.39	457.04313
503.87	510.09559
504.35	408.88634
504.83	448.89816
505.31	414.92727
505.79	384.84769
506.269	452.95307
506.749	499.03483
507.228	498.06747
507.707	533.07001
508.187	532.15078
508.666	508.14879
509.145	483.03103
509.623	518.09894
510.102	493.08921
510.581	563.22287
511.059	568.29144
511.538	585.3604
512.016	627.33375
512.494	645.3703
512.972	602.28633
513.45	658.34907
513.928	705.49922
514.406	730.55949
514.884	799.7823
515.361	777.59731
515.839	826.6071
516.316	891.81876
516.793	839.8099
517.27	866.75451
517.747	907.96747
518.224	901.72128
518.701	913.6552
519.178	1001.06306
519.654	982.90204
520.131	992.02305
520.607	897.83845
521.083	915.70763
521.56	911.78406
522.036	967.69833
522.512	959.96474
522.987	898.81195
523.463	880.74801
523.939	894.87059
524.414	781.52339
524.89	832.68479
525.365	764.47432
525.84	746.55313
526.315	744.56337
526.79	760.46588
527.265	732.4618
527.74	632.36275
528.215	627.2944
528.689	613.18447
529.164	611.15239
529.638	560.28555
530.112	563.18964
530.587	602.13621
531.061	527.15864
531.534	577.24906
532.008	563.23531
532.482	522.08575
532.956	479.12542
533.429	546.21077
533.903	464.9298
534.376	446.90613
534.849	406.86773
535.322	500.07499
535.795	460.02232
536.268	505.11577
536.741	365.81401
537.213	428.91039
537.686	431.97982
538.158	430.90469
538.631	412.93
539.103	414.86759
539.575	387.73875
540.047	347.71063
540.519	387.86556
540.991	411.93474
541.463	399.89644
541.934	330.7044
542.406	394.88575
542.877	363.76862
543.348	378.8571
543.82	370.84611
544.291	401.87318
544.762	395.87944
545.233	374.89364
545.703	358.74825
546.174	342.74899
546.645	401.90758
547.115	419.94252
547.585	352.76275
548.056	406.93475
548.526	390.86777
548.996	445.9854
549.466	422.95567
549.935	428.95151
550.405	403.82382
550.875	420.92908
551.344	369.82803
551.814	397.84979
552.283	423.85529
552.752	447.97043
553.221	483.97616
553.69	484.00121
554.159	499.14145
554.628	458.95808
555.096	438.03752
555.565	426.873
556.033	441.97695
556.502	377.85605
556.97	409.84745
557.438	382.84187
557.906	345.77037
558.374	409.8853
558.842	323.73613
559.31	394.82422
559.777	337.78227
560.245	265.58417
560.712	307.66965
561.18	335.70158
561.647	323.67914
562.114	344.74542
562.581	321.7522
563.048	347.7508
563.514	406.9556
563.981	341.73876
564.448	327.70087
564.914	316.69789
565.381	375.80478
565.847	361.79209
566.313	376.81892
566.779	376.79353
567.245	323.70992
567.711	391.87739
568.176	393.82376
568.642	388.91892
569.108	337.78598
569.573	424.9113
570.038	453.86852
570.504	453.94406
570.969	417.96486
571.434	516.03892
571.899	491.06579
572.363	592.21356
572.828	634.29101
573.293	550.13698
573.757	560.17166
574.222	597.19211
574.686	627.27992
575.15	592.28022
575.614	666.38824
576.078	597.25387
576.542	628.26833
577.006	655.30267
577.469	640.40183
577.933	700.39134
578.396	621.3118
578.86	647.34829
579.323	692.46676
579.786	694.307
580.249	711.46411
580.712	636.37666
581.175	626.37862
581.637	604.2276
582.1	683.29539
582.563	638.18899
583.025	587.28534
583.487	685.21904
583.95	601.14126
584.412	704.27527
584.874	610.33268
585.336	635.33849
585.797	628.20509
586.259	592.24035
586.721	548.1627
587.182	547.1386
587.643	573.16793
588.105	556.18637
588.566	521.9806
589.027	604.32789
589.488	513.0715
589.949	513.13819
590.41	534.94812
590.87	520.08159
591.331	535.05524
591.791	526.10623
592.252	520.10223
592.712	521.13727
593.172	476.99485
593.632	570.13626
594.092	510.03247
594.552	455.90692
595.011	459.96931
595.471	530.08871
595.931	424.88932
596.39	411.92187
596.849	427.92426
597.308	399.79086
597.768	456.09186
598.227	407.91403
598.685	445.93769
599.144	419.92049
599.603	418.90999
600.062	434.84395
600.52	443.92569
600.978	390.86345
601.437	444.93332
601.895	418.83065
602.353	447.90506
602.811	486.00221
603.269	394.8774
603.727	441.98224
604.184	389.82979
604.642	454.03189
605.099	495.05715
605.557	442.99729
606.014	438.8704
606.471	458.06324
606.928	511.03143
607.385	531.2133
607.842	470.99101
608.299	529.12159
608.755	500.10816
609.212	513.03832
609.668	520.06381
610.125	545.18974
610.581	493.05605
611.037	466.95842
611.493	445.95992
611.949	481.07681
612.405	445.83135
612.861	428.91197
613.316	491.07665
613.772	480.00533
614.227	483.06486
614.683	466.9023
615.138	434.94281
615.593	424.91286
616.048	511.06118
616.503	415.93849
616.958	454.05103
617.412	460.00495
617.867	425.8802
618.321	479.89754
618.776	447.90506
619.23	482.03222
619.684	449.92076
620.138	446.94
620.592	424.95552
621.046	446.97341
621.5	408.91458
621.954	397.81523
622.407	396.81336
622.861	427.96208
623.314	403.84696
623.768	420.92055
624.221	385.70037
624.674	361.78242
625.127	348.76116
625.58	356.74902
626.033	431.86667
626.485	339.7651
626.938	397.88133
627.39	365.8002
627.843	341.74002
628.295	377.81186
628.747	379.84557
629.199	369.78542
629.651	324.70149
630.103	320.69372
630.555	309.61419
631.006	294.64958
631.458	302.6745
631.909	273.58262
632.361	285.62562
632.812	269.59473
633.263	278.57384
633.714	248.50203
634.165	212.49127
634.616	234.53213
635.067	261.54855
635.518	278.62834
635.968	296.54762
636.419	295.61043
636.869	292.65729
637.319	291.64175
637.769	321.68059
638.219	261.58884
638.669	247.56317
639.119	229.5274
639.569	228.52667
640.019	254.56168
640.468	267.5708
640.918	242.55077
641.367	212.45784
641.816	193.41547
642.265	294.65148
642.714	256.56138
643.163	267.58932
643.612	248.58378
644.061	270.54956
644.51	287.6255
644.958	202.43138
645.406	225.51819
645.855	258.59975
646.303	227.50481
646.751	287.6316
647.199	232.50532
647.647	307.67504
648.095	240.52496
648.543	254.49085
648.99	233.53875
649.438	250.55353
649.885	246.58942
650.333	308.56127
650.78	261.60373
651.227	220.51969
651.674	220.48386
652.121	262.61553
652.568	243.57212
653.015	195.46768
653.461	214.49118
653.908	212.4696
654.354	209.48077
654.801	205.46477
655.247	232.48169
655.693	237.59358
656.139	201.46403
656.585	224.51516
657.031	214.48547
657.477	272.56549
657.922	197.433
658.368	195.4643
658.813	218.47704
659.259	192.45144
659.704	271.61314
660.149	196.43723
660.594	289.65173
661.039	222.48682
661.484	222.50628
661.929	249.55695
662.373	202.49064
662.818	144.34833
663.262	242.56167
663.707	219.5378
664.151	233.54602
664.595	193.45229
665.039	192.4618
665.483	209.514
665.927	200.45353
666.371	205.4661
666.814	187.43051
667.258	276.63398
667.701	239.48702
668.145	259.61666
668.588	248.58923
669.031	190.43278
669.474	192.44599
669.917	275.5716
670.36	230.55235
670.803	246.5696
671.245	179.35413
671.688	210.49299
672.13	259.55873
672.573	234.56793
673.015	223.51747
673.457	256.53056
673.899	246.56982
674.341	203.47219
674.783	210.48529
675.225	235.55544
675.666	236.55467
676.108	221.45813
676.549	199.44732
676.991	252.52695
677.432	219.4158
677.873	191.42123
678.314	200.45942
678.755	288.67476
679.196	218.47866
679.637	188.43514
680.078	230.51498
680.518	217.47837
680.959	230.52494
681.399	223.53055
681.839	258.59738
682.28	256.608
682.72	241.52637
683.16	231.55338
683.6	289.62131
684.039	250.48984
684.479	230.54521
684.919	252.56586
685.358	183.44091
685.798	183.46166
686.237	206.47282
686.676	267.57278
687.115	277.61906
687.554	278.63141
687.993	266.5577
688.432	231.50389
688.871	296.64032
689.309	258.58955
689.748	260.51161
690.186	250.55676
690.625	258.57672
691.063	217.49677
691.501	282.66174
691.939	248.59715
692.377	205.47816
692.815	326.74971
693.253	262.59242
693.69	218.45626
694.128	241.55902
694.565	233.52739
695.003	289.70073
695.44	311.69302
695.877	301.66741
696.314	265.52624
696.751	311.66054
697.188	315.68535
697.625	256.54266
698.061	277.62799
698.498	254.57035
698.934	307.69006
699.371	283.62933
699.807	314.69551
700.243	301.68434
700.679	293.61335
701.115	309.6763
701.551	260.57231
701.987	269.55364
702.422	316.7081
702.858	285.64219
703.294	350.74612
703.729	317.72362
704.164	316.70723
704.599	306.64014
705.035	295.62137
705.47	305.69652
705.904	279.60936
706.339	331.70822
706.774	293.64562
707.209	310.67663
707.643	305.68556
708.078	317.72304
708.512	292.69161
708.946	312.69223
709.38	336.74485
709.814	293.62204
710.248	335.76624
710.682	361.80576
711.116	351.79702
711.549	247.60048
711.983	292.63356
712.416	316.70256
712.85	298.69463
713.283	287.6377
713.716	301.70148
714.149	247.54175
714.582	304.63877
715.015	252.58627
715.448	295.70074
715.881	303.60563
716.313	319.69553
716.746	285.63509
717.178	263.59844
717.61	285.68506
718.043	255.59687
718.475	301.686
718.907	292.68627
719.339	230.49543
719.77	330.73764
720.202	257.61002
720.634	276.64007
721.065	263.58486
721.497	302.69397
721.928	253.58569
722.359	209.48691
722.79	289.6504
723.221	221.52296
723.652	216.52425
724.083	281.59214
724.514	290.62413
724.945	253.55959
725.375	225.50036
725.806	260.60559
726.236	261.63166
726.666	235.5252
727.096	275.63358
727.526	274.66823
727.956	252.54398
728.386	265.61298
728.816	276.66808
729.246	273.63624
729.675	181.42334
730.105	252.58256
730.534	245.53918
730.964	242.5721
731.393	248.57446
731.822	230.55968
732.251	208.50445
732.68	207.45537
733.109	256.59721
733.537	248.57491
733.966	215.5125
734.395	276.59859
734.823	195.40984
735.251	229.52171
735.68	223.52218
736.108	209.49782
736.536	179.40071
736.964	224.49162
737.392	226.53655
737.82	224.50671
738.247	209.47326
738.675	195.43617
739.102	221.52418
739.53	204.50236
739.957	200.49595
740.384	193.4429
740.811	136.3265
741.238	210.49126
741.665	268.59289
742.092	138.30505
742.519	192.45637
742.945	215.49793
743.372	220.5205
743.798	200.48906
744.225	175.39579
744.651	187.4473
745.077	167.39977
745.503	179.41291
745.929	263.60062
746.355	206.47623
746.781	143.33827
747.207	179.40731
747.632	240.56561
748.058	220.52834
748.483	217.47235
748.908	209.49629
749.334	206.48436
749.759	224.50671
750.184	206.47339
750.609	162.38076
751.033	213.47033
751.458	231.48443
751.883	168.39594
752.307	214.47778
752.732	198.48489
753.156	171.40325
753.58	227.50523
754.005	154.37125
754.429	228.5124
754.853	215.50975
755.277	191.43286
755.7	213.50267
756.124	166.39624
756.548	145.32915
756.971	239.55087
757.394	185.45213
757.818	152.37803
758.241	193.46904
758.664	163.3954
759.087	203.43492
759.51	155.36679
759.933	187.4324
760.356	175.43388
760.778	220.51284
761.201	170.39239
761.623	155.35285
762.046	157.35045
762.468	205.46515
762.89	193.44769
763.312	218.50657
763.734	176.40575
764.156	165.39061
764.578	151.32883
765	190.44117
765.421	148.36433
765.843	149.37549
766.264	161.36384
766.686	138.32903
767.107	167.38707
767.528	185.45549
767.949	173.41997
768.37	173.41097
768.791	138.31739
769.212	186.44839
769.632	183.40882
770.053	145.36462
770.473	120.27853
770.894	115.27256
771.314	185.4138
771.734	151.3365
772.154	123.30262
772.575	170.37233
772.994	144.31152
773.414	138.31409
773.834	151.36023
774.254	124.29111
774.673	181.42268
775.093	141.33792
775.512	132.314
775.931	151.3678
776.351	119.28683
776.77	111.26369
777.189	157.35639
777.607	113.27884
778.026	133.31875
778.445	116.28493
778.864	105.25681
779.282	107.24545
779.701	76.18516
780.119	108.26489
780.537	89.21444
780.955	97.23689
781.373	138.32676
781.791	179.38632
782.209	78.16975
782.627	39.10063
783.045	119.25903
783.462	121.2977
783.88	102.2559
784.297	71.17366
784.715	110.27438
785.132	74.17244
785.549	80.19366
785.966	136.32836
786.383	122.29032
786.8	152.33571
787.217	171.38943
787.633	136.32935
788.05	107.23845
788.466	86.19264
788.883	125.30981
789.299	81.18566
789.715	123.28826
790.131	81.19501
790.547	92.22129
790.963	79.18933
791.379	94.22978
791.795	97.20989
792.21	77.17245
792.626	86.19479
793.041	105.24867
793.457	88.20829
793.872	39.08828
794.287	113.26347
794.702	47.11054
795.117	63.15271
795.532	84.20541
795.947	126.28503
796.362	94.21065
796.776	70.15467
797.191	71.16854
797.605	58.13382
798.02	73.17135
798.434	121.25644
798.848	123.29467
799.262	70.16812
799.676	127.296
800.09	71.16867
800.504	107.24752
800.918	56.12405
801.331	43.10701
801.745	66.14516
802.158	77.18398
802.572	111.25769
802.985	82.18867
803.398	55.12637
803.811	77.18686
804.224	78.18448
804.637	110.25198
805.05	83.18297
805.462	84.19728
805.875	52.13149
806.288	74.17346
806.7	44.10612
807.112	92.20218
807.525	35.08241
807.937	73.17469
808.349	69.16556
808.761	104.24635
809.173	90.21055
809.584	82.19371
809.996	55.13006
810.408	79.19944
810.819	101.22769
811.231	169.43136
811.642	169.39884
812.053	235.53646
812.464	210.46517
812.875	197.47805
813.286	122.30387
813.697	123.26558
814.108	95.22116
814.519	177.37365
814.929	105.25586
815.34	54.12504
815.75	77.19057
816.16	66.1564
816.571	96.23885
816.981	48.10792
817.391	79.18122
817.801	57.13749
818.211	77.17564
818.62	105.24308
819.03	92.2154
819.44	76.18785
819.849	44.10612
820.259	50.12241
820.668	86.20411
821.077	58.14062
821.486	92.20897
821.895	78.18212
822.304	56.14342
822.713	51.11568
823.122	100.23834
823.531	82.18316
823.939	66.15561
824.348	94.21706
824.756	56.13454
825.164	78.18761
825.573	68.16455
825.981	95.22403
826.389	92.22104
826.797	122.29711
827.205	80.17721
827.612	83.1952
828.02	15.03397
828.428	70.1715
828.835	53.13619
829.243	87.19661
829.65	87.20938
830.057	76.17591
830.464	95.22447
830.871	143.3254
831.278	81.18775
831.685	74.15687
832.092	51.11905
832.499	74.15543
832.905	85.20496
833.312	80.17048
833.718	139.33135
834.124	93.20304
834.531	53.12751
834.937	62.15409
835.343	57.13102
835.749	99.21642
836.155	49.12424
836.561	62.14698
836.966	65.15203
837.372	63.15363
837.777	40.09676
838.183	72.15176
838.588	79.18962
838.993	115.26655
839.399	99.23237
839.804	36.08504
840.209	67.16649
840.613	103.21667
841.018	52.12631
841.423	78.19258
841.828	77.18819
842.232	95.22055
842.637	120.27179
843.041	72.17868
843.445	45.1081
843.849	69.16493
844.253	104.23421
844.657	86.20921
845.061	198.42614
845.465	80.1851
845.869	79.17525
846.272	41.09695
846.676	19.04364
847.079	87.21413
847.483	85.20239
847.886	115.26306
848.289	104.27017
848.692	57.13806
849.095	114.25873
849.498	88.21014
849.901	79.17109
850.304	82.18693
850.707	42.10309
851.109	78.18818
851.512	108.25365
851.914	48.11777
852.316	87.2135
852.718	96.24431
853.121	99.23165
853.523	68.15088
853.925	76.19307
854.326	69.16707
854.728	94.2326
855.13	43.10852
855.531	59.13578
855.933	75.17032
856.334	38.09241
856.736	89.19159
857.137	93.20794
857.538	84.20411
857.939	126.30042
858.34	90.20691
858.741	22.05565
859.142	65.14875
859.542	100.25503
859.943	50.11963
860.343	77.18426
860.744	91.21184
861.144	125.29214
861.544	101.23485
861.945	72.17607
862.345	118.27248
862.745	108.2579
863.145	84.18754
863.544	40.09803
863.944	67.15141
864.344	30.07101
864.743	99.23383
865.143	119.29429
865.542	-12.02666
865.941	28.06732
866.34	39.08867
866.74	69.17897
867.139	68.1584
867.537	32.07796
867.936	92.21219
868.335	69.16826
868.734	64.15778
869.132	46.10117
869.531	62.14185
869.929	73.15965
870.327	60.13794
870.726	55.13041
871.124	59.13083
871.522	43.10537
871.92	109.25585
872.318	79.18318
872.715	67.15647
873.113	56.13024
873.511	41.09815
873.908	49.12149
874.306	55.13287
874.703	47.11208
875.1	56.13582
875.497	52.11917
875.894	65.15596
876.291	87.20445
876.688	57.14195
877.085	64.1459
877.482	74.17745
877.878	90.20972
878.275	48.11799
878.671	86.17537
879.068	94.21593
879.464	100.22981
879.86	31.07063
880.256	19.04458
880.652	66.16128
881.048	25.05918
881.444	34.07666
881.84	102.24701
882.236	46.11132
882.631	102.23984
883.027	107.24486
883.422	28.06883
883.817	95.23011
884.213	59.14586
884.608	61.14709
885.003	43.0988
885.398	54.13023
885.793	55.13217
886.188	29.06953
886.582	74.18029
886.977	52.11744
887.371	32.07761
887.766	63.15151
888.16	30.07098
888.554	87.20373
888.949	82.19686
889.343	102.23553
889.737	58.15088
890.131	66.15899
890.525	68.16839
890.918	59.14259
891.312	89.20039
891.706	58.14635
892.099	101.24436
892.492	69.14029
892.886	82.19108
893.279	47.11513
893.672	60.14809
894.065	67.16119
894.458	30.07211
894.851	104.24034
895.244	9.02231
895.637	130.29708
896.029	89.20907
896.422	47.1089
896.814	88.20813
897.206	119.27243
897.599	125.29248
897.991	69.16082
898.383	66.14949
898.775	101.21864
899.167	71.16071
899.559	49.11829
899.951	72.16029
900.342	76.18329
900.734	70.17092
901.125	71.17777
901.517	83.19505
901.908	58.13099
902.299	74.17373
902.69	98.22187
903.082	86.19859
903.473	105.24299
903.863	65.15833
904.254	114.25358
904.645	90.21055
905.036	85.20076
905.426	82.17534
905.817	70.16318
906.207	44.09946
906.597	77.17366
906.987	50.12381
907.378	65.15886
907.768	72.18388
908.158	80.18576
908.547	93.23353
908.937	3.00738
909.327	89.20539
909.717	70.16741
910.106	107.2425
910.495	81.19087
910.885	106.2566
911.274	56.13424
911.663	56.13531
912.052	62.14476
912.441	73.17961
912.83	121.25958
913.219	99.24672
913.608	99.23183
913.997	51.12437
914.385	96.21797
914.774	96.22185
915.162	99.22701
915.55	104.2368
915.939	48.11773
916.327	63.14949
916.715	91.22554
917.103	84.1935
917.491	53.12542
917.878	76.17808
918.266	87.21508
918.654	124.30379
919.041	75.19083
919.429	71.15986
919.816	70.1699
920.203	133.30803
920.591	120.28293
920.978	83.19391
921.365	64.16241
921.752	77.17202
922.139	106.21674
922.525	62.14322
922.912	89.20588
923.299	105.24877
923.685	23.05759
924.072	41.08815
924.458	87.20684
924.844	58.13787
925.231	49.10807
925.617	117.28659
926.003	67.16381
926.389	72.17397
926.774	44.107
927.16	59.14027
927.546	95.23589
927.931	92.21734
928.317	80.17366
928.702	86.19241
929.088	96.22106
929.473	117.28574
929.858	86.20229
930.243	95.21941
930.628	86.2019
931.013	79.18753
931.398	72.15456
931.783	30.07559
932.167	127.29728
932.552	67.16033
932.937	58.13718
933.321	77.18672
933.705	26.06256
934.09	72.17035
934.474	78.17451
934.858	51.12788
935.242	41.09076
935.626	22.05486
936.009	53.13766
936.393	96.23685
936.777	68.16839
937.16	90.22628
937.544	62.13699
937.927	77.1884
938.311	103.23685
938.694	75.1913
939.077	82.18701
939.46	50.115
939.843	80.15319
940.226	36.08866
940.609	125.27394
940.991	51.12409
941.374	74.17414
941.757	91.21293
942.139	82.17557
942.522	107.23756
942.904	69.15854
943.286	44.10728
943.668	101.25289
944.05	54.12781
944.432	53.12499
944.814	73.16994
945.196	81.1902
945.578	87.20061
945.959	105.23011
946.341	62.14265
946.722	95.21004
947.104	107.2425
947.485	64.14218
947.866	71.17307
948.247	90.21927
948.628	45.10315
949.009	65.15993
949.39	61.14452
949.771	41.08898
950.152	114.26575
950.532	106.25564
950.913	108.2464
951.293	55.14501
951.674	63.14579
952.054	80.19345
952.434	71.16906
952.814	68.15239
953.194	51.12682
953.574	110.25562
953.954	59.13235
954.334	159.37699
954.714	53.12465
955.093	121.28146
955.473	93.22458
955.853	68.16925
956.232	39.10345
956.611	110.246
956.99	85.20511
957.37	63.153
957.749	32.0721
958.128	74.17981
958.506	61.15263
958.885	63.15191
959.264	77.18292
959.643	109.23585
960.021	82.19566
960.4	80.17173
960.778	61.1415
961.156	17.04104
961.535	41.0905
961.913	133.29467
962.291	114.2825
962.669	78.19031
963.047	107.2618
963.424	132.32435
963.802	50.11839
964.18	30.07194
964.557	123.2649
964.935	97.2176
965.312	67.16885
965.69	79.18702
966.067	60.13805
966.444	58.13409
966.821	97.23918
967.198	94.21377
967.575	89.2067
967.952	70.15661
968.329	125.28962
968.705	143.28795
969.082	111.27542
969.458	93.21548
969.835	109.25144
970.211	70.17448
970.587	78.18605
970.963	66.16092
971.339	66.16666
971.715	90.21483
972.091	33.07815
972.467	50.11784
972.843	131.31168
973.219	105.23603
973.594	57.1437
973.97	75.16499
974.345	76.17431
974.721	45.10277
975.096	93.21599
975.471	92.20609
975.846	103.23258
976.221	57.13936
976.596	136.31304
976.971	90.21343
977.346	116.25213
977.72	85.20581
978.095	81.20032
978.469	76.17186
978.844	114.27014
979.218	100.23146
979.593	96.21699
979.967	8.01845
980.341	115.25097
980.715	74.17901
981.089	103.24497
981.463	61.13352
981.837	95.22386
982.21	70.15033
982.584	89.20555
982.957	50.12086
983.331	53.11777
983.704	128.30156
984.078	83.19467
984.451	64.14961
984.824	67.1572
985.197	99.22428
985.57	49.116
985.943	82.18912
986.316	87.19973
986.688	94.21472
987.061	114.25326
987.434	102.25756
987.806	57.13013
988.179	80.17861
988.551	82.19776
988.923	73.17054
989.295	103.24308
989.667	65.1509
990.039	116.27689
990.411	72.15476
990.783	122.25997
991.155	47.1089
991.527	56.12921
991.898	66.15839
992.27	50.12008
992.641	107.25311
993.012	57.12434
993.384	63.14261
993.755	69.16977
994.126	86.19874
994.497	28.06625
994.868	3.00656
995.239	69.15904
995.61	55.13307
995.98	22.05141
996.351	92.21877
996.722	83.1852
997.092	49.11177
997.462	76.1713
997.833	55.12328
998.203	40.09152
998.573	58.13914
998.943	102.22773
999.313	90.20633
999.683	81.18581
1000.053	21.04521
1000.423	39.09022
1000.792	34.08404
1001.162	55.12869
1001.531	89.20939
1001.901	47.11187
1002.27	82.16934
1002.639	55.13387
1003.009	88.1981
1003.378	109.2658
1003.747	52.11653
1004.116	30.06883
1004.485	82.18618
1004.853	54.12934
1005.222	55.13041
1005.591	84.18863
1005.959	50.10803
1006.328	70.15027
1006.696	60.13761
1007.064	53.12659
1007.433	81.19139
1007.801	48.11079
1008.169	56.13408
1008.537	91.18974
1008.905	101.22433
1009.273	60.14059
1009.64	122.27868
1010.008	60.13617
1010.375	79.1789
1010.743	92.19383
1011.11	135.30695
1011.478	79.18803
1011.845	54.12042
1012.212	128.27537
1012.579	98.22899
1012.946	70.15655
1013.313	101.22508
1013.68	86.18143
1014.047	87.19677
1014.414	56.12601
1014.78	40.09603
1015.147	50.11412
1015.513	89.20367
1015.88	80.19388
1016.246	71.16489
1016.612	104.2221
1016.978	123.2869
1017.344	128.29956
1017.71	118.26965
1018.076	83.18343
1018.442	84.20732
1018.808	81.19531
1019.174	12.02891
1019.539	77.16005
1019.905	67.15147
1020.27	65.15299
1020.636	71.1596
1021.001	120.27201
1021.366	54.12469
1021.731	142.35072
1022.096	39.09574
1022.461	62.14037
1022.826	126.28457
1023.191	44.11142
1023.556	85.18762
1023.92	81.1876
1024.285	61.14049
1024.649	52.12113
1025.014	77.17947
1025.378	82.19821
1025.742	59.13887
1026.107	83.17675
1026.471	121.2635
1026.835	82.19371
1027.199	94.21524
1027.562	35.07693
1027.926	48.11163
1028.29	70.16971
1028.654	88.19046
1029.017	89.20874
1029.381	63.14417
1029.744	92.22397
1030.107	96.21487
1030.471	82.18777
1030.834	4.00859
1031.197	123.27876
1031.56	67.1495
1031.923	59.14687
1032.286	112.24778
1032.648	22.04977
1033.011	133.29086
1033.374	75.16527
1033.736	16.04085
1034.099	77.17897
1034.461	70.1708
1034.823	32.07712
1035.185	59.14081
1035.548	69.16107
1035.91	69.15701
1036.272	124.26642
1036.634	80.18613
1036.995	94.20709
1037.357	31.07293
1037.719	109.25134
1038.08	108.24451
1038.442	54.12211
1038.803	50.1127
1039.165	37.08935
1039.526	78.17954
1039.887	68.15477
1040.248	85.20325
1040.609	76.17682
1040.97	56.13039
1041.331	81.19738
1041.692	87.19645
1042.053	120.25438
1042.413	86.18828
1042.774	72.16732
1043.134	85.18903
1043.495	87.20827
1043.855	127.29402
1044.215	44.1041
1044.576	58.1335
1044.936	105.22506
1045.296	97.2299
1045.656	62.14357
1046.016	85.1935
1046.375	62.14357
1046.735	108.23524
1047.095	87.193
1047.454	74.14561
1047.814	91.20774
1048.173	58.12998
1048.533	50.10914
1048.892	47.10855
1049.251	82.19454
1049.61	47.1111
1049.969	50.1121
1050.328	109.22121
1050.687	40.09262
1051.046	22.05131
1051.405	40.09453
1051.763	106.23265
1052.122	14.03365
1052.48	75.1759
1052.839	123.2774
1053.197	94.209
1053.555	65.1371
1053.914	83.19231
1054.272	20.04539
1054.63	84.19597
1054.988	91.20716
1055.345	36.07251
1055.703	81.18566
1056.061	76.1895
1056.419	120.30041
1056.776	16.03665
1057.134	30.06515
1057.491	44.10587
1057.848	64.15125
1058.206	53.11674
1058.563	50.10432
1058.92	91.19699
1059.277	91.21326
1059.634	79.17343
1059.991	102.23178
1060.348	53.11454
1060.704	96.22229
1061.061	63.13609
1061.418	75.1735
1061.774	44.10423
1062.131	74.19098
1062.487	63.13918
1062.843	71.16886
1063.199	30.07186
1063.555	88.19501
1063.911	52.12508
1064.267	121.23018
1064.623	92.21489
1064.979	0
1065.335	85.19068
1065.691	48.1081
1066.046	121.24769
1066.402	77.16426
1066.757	102.24487
1067.112	95.22002
1067.468	99.22455
1067.823	29.06538
1068.178	68.15546
1068.533	120.27422
1068.888	77.17366
1069.243	84.19736
1069.598	61.14038
1069.952	137.29555
1070.307	67.15941
1070.662	105.23903
1071.016	104.22287
1071.371	125.26816
1071.725	66.1487
1072.079	107.24388
1072.434	34.07967
1072.788	32.07192
1073.142	92.21523
1073.496	79.17737
1073.85	59.12979
1074.203	104.2391
1074.557	94.24242
1074.911	94.21048
1075.265	52.11504
1075.618	138.31726
1075.971	81.18253
1076.325	58.14262
1076.678	66.14345
1077.031	36.07591
1077.385	88.18149
1077.738	82.17428
1078.091	96.20813
1078.444	89.1925
1078.796	91.21368
1079.149	87.20644
1079.502	84.18979
1079.855	55.12242
1080.207	84.19597
1080.56	47.11777
1080.912	87.20061
1081.264	123.28046
1081.617	91.21151
1081.969	59.14366
1082.321	56.13013
1082.673	103.22554
1083.025	62.13906
1083.377	72.16055
1083.728	82.17997
1084.08	18.04302
1084.432	58.13286
1084.783	38.08319
1085.135	98.23474
1085.486	23.05079
1085.838	86.20229
1086.189	121.2799
1086.54	114.25526
1086.891	92.2264
1087.242	159.36985
1087.593	2.00462
1087.944	116.24901
1088.295	112.23815
1088.646	149.34618
1088.996	80.18458
1089.347	43.10042
1089.698	87.19749
1090.048	63.15592
1090.398	53.1161
1090.749	35.07939
1091.099	43.10541
1091.449	94.22369
1091.799	60.14372
1092.149	64.15154
1092.499	76.17661
1092.849	73.17782
1093.199	73.17289
1093.548	124.28428
1093.898	65.15477
1094.248	53.12934
1094.597	55.13682
1094.947	77.19772
1095.296	113.26586
1095.645	75.18589
1095.994	72.16454
1096.343	88.21191
1096.692	64.1646
1097.041	72.19095
1097.39	60.14311
1097.739	63.15706
1098.088	56.14342
1098.437	58.14906
1098.785	13.03374
1099.134	52.13065
1099.482	87.231
1099.83	74.18666
1100.179	96.24431
1100.527	31.07868
1100.875	68.17434
1101.223	103.26346
1101.571	19.05087
1101.919	96.24577
1102.267	59.16241
1102.615	13.0417
1102.962	16.05124
1103.31	17.05451
1103.658	3.00961
