Data from N3 R4 sample 9_Subt2__3__12-09-47-731.txt Node

Date: Thu Sep 18 12:09:47 PDT 2025
User: uwsun
Spectrometer: HDX01956
Trigger mode: 0
Integration Time (sec): 5.000000E-1
Scans to average: 1
Nonlinearity correction enabled: true
Boxcar width: 0
Storing dark spectrum: false
XAxis mode: Wavelengths
Number of Pixels in Spectrum: 2068
>>>>>Begin Spectral Data<<<<<
194.03	104.29734
194.578	79.2545
195.127	100.31677
195.676	86.27388
196.225	131.34223
196.773	109.29946
197.321	182.49515
197.87	233.58609
198.418	272.68454
198.966	305.78087
199.513	291.72038
200.061	307.75719
200.609	325.83002
201.156	289.61382
201.704	297.7266
202.251	267.69436
202.798	269.68147
203.345	301.72433
203.892	295.72546
204.438	322.73755
204.985	276.63956
205.532	277.71119
206.078	275.655
206.624	371.89375
207.17	357.80374
207.716	308.73344
208.262	324.61712
208.808	311.75887
209.354	346.82517
209.899	292.71504
210.445	296.7208
210.99	322.76089
211.535	315.71906
212.08	303.68191
212.625	267.65177
213.17	310.76698
213.715	327.72143
214.259	342.76856
214.804	321.76043
215.348	352.78161
215.892	308.72556
216.436	296.65455
216.98	309.65457
217.524	319.73786
218.068	320.78184
218.612	355.86878
219.155	314.71779
219.698	296.68291
220.242	276.66255
220.785	328.74224
221.328	276.6633
221.871	294.72767
222.414	285.68376
222.956	267.62103
223.499	265.57364
224.041	254.56473
224.583	233.47912
225.126	275.58383
225.668	290.68183
226.21	258.63718
226.751	286.61631
227.293	240.52917
227.835	254.60696
228.376	296.64826
228.918	280.67547
229.459	273.66169
230	282.65657
230.541	276.6144
231.082	302.71004
231.622	300.65258
232.163	261.61163
232.704	346.83023
233.244	266.64146
233.784	293.68526
234.324	339.72973
234.864	272.5947
235.404	241.55282
235.944	319.72055
236.484	313.75263
237.023	291.66187
237.563	308.68932
238.102	329.74556
238.641	271.66079
239.18	301.68129
239.719	315.75916
240.258	292.63221
240.797	314.72154
241.335	311.72735
241.874	416.75543
242.412	292.68654
242.95	280.65627
243.488	249.54338
244.026	291.65437
244.564	322.63331
245.102	307.66994
245.64	301.69209
246.177	305.65062
246.715	319.73669
247.252	289.63226
247.789	307.54315
248.326	279.65201
248.863	297.62998
249.4	296.64662
249.936	337.67391
250.473	354.79943
251.009	256.56965
251.546	315.67632
252.082	294.61068
252.618	339.7244
253.154	276.64437
253.69	298.64355
254.226	295.68263
254.761	345.73849
255.297	321.67107
255.832	314.71894
256.367	322.72629
256.903	364.76956
257.438	328.7368
257.972	358.75787
258.507	299.66077
259.042	372.76648
259.576	432.8961
260.111	303.66961
260.645	349.71731
261.179	344.77083
261.713	327.70178
262.247	327.71478
262.781	313.63317
263.315	303.70837
263.849	292.70787
264.382	322.70936
264.915	325.73919
265.449	351.81927
265.982	355.76811
266.515	332.78208
267.048	333.67424
267.58	312.64517
268.113	304.63229
268.646	295.69723
269.178	284.61332
269.71	367.77165
270.243	375.82627
270.775	377.92362
271.307	303.6939
271.838	318.72137
272.37	296.70081
272.902	332.71942
273.433	369.77756
273.965	325.7586
274.496	325.77406
275.027	400.94477
275.558	368.85708
276.089	349.83599
276.62	284.69365
277.15	340.80092
277.681	304.62863
278.211	355.82665
278.741	329.70059
279.272	365.79547
279.802	338.80641
280.332	324.73557
280.861	332.76106
281.391	345.74934
281.921	308.70917
282.45	296.70947
282.98	330.82808
283.509	363.78743
284.038	343.75134
284.567	357.79387
285.096	371.85845
285.625	332.71512
286.153	426.96042
286.682	372.81365
287.21	333.76014
287.739	342.77391
288.267	323.75778
288.795	322.81092
289.323	358.80352
289.851	378.84665
290.378	338.72054
290.906	384.89504
291.433	386.91595
291.961	387.83948
292.488	374.88441
293.015	384.86257
293.542	393.96352
294.069	396.93352
294.596	361.8426
295.122	395.90018
295.649	338.70739
296.175	388.88691
296.702	410.95073
297.228	394.89989
297.754	377.80628
298.28	429.93017
298.806	379.87034
299.332	436.91691
299.857	380.82166
300.383	393.94027
300.908	406.94816
301.433	446.02798
301.958	406.88012
302.483	390.91974
303.008	401.94879
303.533	432.05155
304.058	389.8607
304.582	391.87847
305.107	383.9522
305.631	405.86841
306.155	444.97233
306.679	435.96446
307.203	466.01036
307.727	405.91029
308.251	419.97947
308.775	486.10431
309.298	419.95678
309.822	447.05623
310.345	476.06319
310.868	504.13001
311.391	480.10474
311.914	435.02862
312.437	499.05788
312.96	439.97495
313.482	433.95923
314.005	400.94953
314.527	417.02724
315.049	517.2172
315.571	501.04593
316.093	477.1059
316.615	455.02394
317.137	453.92518
317.659	506.13915
318.18	492.09085
318.702	509.10728
319.223	463.8787
319.744	544.12556
320.265	509.15409
320.786	562.29581
321.307	538.22956
321.828	548.13537
322.348	573.23564
322.869	554.2163
323.389	605.06635
323.909	557.16717
324.43	601.30884
324.95	567.1892
325.47	567.29618
325.989	600.2992
326.509	632.27817
327.029	651.3392
327.548	588.21513
328.067	648.42474
328.587	656.49234
329.106	578.18909
329.625	613.4619
330.144	637.34094
330.662	700.46953
331.181	689.45753
331.7	695.44203
332.218	678.31186
332.736	696.45727
333.255	673.42613
333.773	721.51466
334.291	713.6002
334.808	743.47796
335.326	733.45466
335.844	732.53138
336.361	800.82374
336.879	775.60749
337.396	780.67861
337.913	826.65891
338.43	771.52591
338.947	775.63393
339.464	785.47473
339.981	790.64555
340.497	860.83662
341.014	794.70437
341.53	796.56701
342.046	876.90222
342.562	854.85522
343.078	932.86689
343.594	900.8359
344.11	904.85989
344.626	917.99675
345.141	907.77036
345.657	942.80104
346.172	932.92183
346.687	911.78154
347.202	999.90698
347.717	933.89769
348.232	960.03798
348.747	948.85443
349.261	955.76135
349.776	1061.08941
350.29	1060.21842
350.805	1017.11291
351.319	998.94226
351.833	976.8913
352.347	1066.08018
352.861	1015.99174
353.374	1058.97846
353.888	1079.18739
354.401	1068.99523
354.915	1063.97562
355.428	1102.27203
355.941	1120.12204
356.454	1078.95558
356.967	1075.06075
357.48	1077.99774
357.993	1144.29783
358.505	1118.22807
359.018	1157.30859
359.53	1221.39172
360.042	1195.12398
360.554	1180.34102
361.066	1171.30756
361.578	1285.19682
362.09	1208.2992
362.602	1199.11907
363.113	1253.33172
363.625	1274.25742
364.136	1228.11287
364.647	1329.44931
365.158	1299.35586
365.669	1281.40626
366.18	1313.40413
366.691	1288.17446
367.201	1325.4734
367.712	1383.40802
368.222	1357.39588
368.733	1349.22239
369.243	1423.38119
369.753	1436.48447
370.263	1483.69095
370.773	1445.66782
371.282	1456.62253
371.792	1513.58623
372.301	1477.68002
372.811	1554.07592
373.32	1622.4655
373.829	1609.73687
374.338	1673.59099
374.847	1755.79479
375.356	1745.8632
375.865	1874.61086
376.373	1888.83872
376.882	1915.31083
377.39	1978.14403
377.898	2078.29796
378.407	2150.98589
378.915	2266.87441
379.423	2306.16036
379.93	2420.20326
380.438	2423.36673
380.946	2644.2641
381.453	2654.43375
381.96	2882.44131
382.468	2936.35322
382.975	3173.60214
383.482	3282.03311
383.989	3298.91931
384.495	3521.22895
385.002	3622.56072
385.509	3880.25449
386.015	4130.17674
386.521	4387.68282
387.028	4412.65212
387.534	4574.17327
388.04	4756.87221
388.546	4760.26273
389.051	5062.06935
389.557	5440.18632
390.063	5902.79969
390.568	6124.12047
391.073	6259.57402
391.578	6516.0998
392.084	6669.63685
392.589	6970.39013
393.093	7574.037
393.598	8107.22864
394.103	8863.26554
394.607	9884.43657
395.112	10495.2531
395.616	11037.31036
396.12	12111.94181
396.624	13475.65645
397.128	14629.85205
397.632	16183.72808
398.136	17424.56646
398.639	18446.97161
399.143	20671.01079
399.646	23460.67376
400.15	26048.51456
400.653	28781.41531
401.156	32453.74763
401.659	37488.5232
402.162	45911.04141
402.664	59813.70989
403.167	63402.33969
403.67	63769.22307
404.172	63919.58413
404.674	63858.43483
405.176	63738.15102
405.678	63977.72923
406.18	64011.81569
406.682	63863.44694
407.184	63926.60148
407.686	63841.39382
408.187	64025.8516
408.688	63892.51763
409.19	63833.37461
409.691	63977.72923
410.192	63945.6488
410.693	63267.55521
411.194	57466.88636
411.694	54128.39062
412.195	50111.64884
412.696	45322.82189
413.196	42161.74883
413.696	40756.61794
414.196	40882.10348
414.696	40328.17435
415.196	38540.66503
415.696	35018.8651
416.196	28389.25209
416.695	22096.07495
417.195	18644.05387
417.694	17896.70408
418.194	16953.76198
418.693	15660.73614
419.192	15225.80609
419.691	14983.71209
420.19	14639.989
420.688	14211.97597
421.187	13540.93637
421.685	12812.13267
422.184	11402.04336
422.682	9904.60834
423.18	8486.64558
423.678	7636.84903
424.176	6981.62825
424.674	6667.48276
425.172	6319.8554
425.669	6053.23431
426.167	5570.06783
426.664	5067.18377
427.161	4576.55081
427.659	4360.05526
428.156	4089.32984
428.652	3846.57692
429.149	3676.3563
429.646	3528.85269
430.143	3404.34231
430.639	3213.30159
431.135	3004.65441
431.632	2818.11162
432.128	2678.3691
432.624	2546.74693
433.12	2431.04129
433.616	2421.85086
434.111	2254.16905
434.607	2245.20195
435.103	2098.5557
435.598	2106.53354
436.093	1987.92954
436.588	1907.74063
437.083	1752.61735
437.578	1768.75174
438.073	1660.95715
438.568	1646.87542
439.062	1609.35027
439.557	1522.55969
440.051	1411.32139
440.546	1404.34601
441.04	1417.53457
441.534	1329.57815
442.028	1399.52263
442.522	1318.41271
443.015	1226.99466
443.509	1246.35801
444.002	1255.38716
444.496	1193.98566
444.989	1294.41122
445.482	1168.29895
445.975	1200.15648
446.468	1231.0224
446.961	1179.97298
447.454	1120.97761
447.947	1146.16828
448.439	1107.18425
448.931	1074.97393
449.424	1116.29683
449.916	1105.16609
450.408	1027.89915
450.9	1031.04348
451.392	1039.16726
451.884	1020.89883
452.375	949.95997
452.867	968.77693
453.358	980.83504
453.849	949.65098
454.341	956.76979
454.832	919.62982
455.323	942.96241
455.814	950.78663
456.304	922.76953
456.795	857.64499
457.285	891.62506
457.776	906.71374
458.266	834.68115
458.756	787.59393
459.247	819.6709
459.737	876.78851
460.226	923.73958
460.716	845.71231
461.206	822.67513
461.695	728.57064
462.185	774.58078
462.674	757.48698
463.163	757.45625
463.653	731.33404
464.142	726.53287
464.63	703.49042
465.119	727.46489
465.608	744.5064
466.096	696.30693
466.585	666.33289
467.073	668.3844
467.561	636.35204
468.05	648.31297
468.538	640.38651
469.026	650.35965
469.513	668.22284
470.001	575.18158
470.489	610.29107
470.976	616.2782
471.463	630.39613
471.951	575.28547
472.438	595.24582
472.925	565.19439
473.412	545.19426
473.899	541.1171
474.385	492.1008
474.872	497.05455
475.359	521.16459
475.845	516.9614
476.331	478.92554
476.817	479.06748
477.303	482.02244
477.789	431.94963
478.275	455.04022
478.761	424.93245
479.247	469.95612
479.732	445.02547
480.218	445.08063
480.703	458.03806
481.188	409.8194
481.673	427.90767
482.158	415.82911
482.643	401.95758
483.128	415.89829
483.612	436.96125
484.097	360.8153
484.581	354.76938
485.066	388.88905
485.55	398.81784
486.034	388.78219
486.518	416.92561
487.002	306.70653
487.486	330.75709
487.969	262.61001
488.453	284.67449
488.936	306.65318
489.42	339.70556
489.903	286.67897
490.386	235.46688
490.869	338.69706
491.352	312.71178
491.835	320.61632
492.318	260.55933
492.8	322.62824
493.283	297.72282
493.765	287.67123
494.247	301.66547
494.73	274.57879
495.212	253.57522
495.694	295.662
496.175	255.58844
496.657	332.74242
497.139	293.47288
497.62	266.61297
498.102	267.63717
498.583	205.48773
499.064	251.53683
499.545	248.54269
500.026	311.66687
500.507	249.55028
500.988	250.60106
501.469	201.48592
501.949	281.66286
502.43	251.58152
502.91	292.58866
503.39	227.54318
503.87	233.53125
504.35	249.55924
504.83	212.44822
505.31	233.54132
505.79	195.44749
506.269	207.45995
506.749	229.50439
507.228	181.4152
507.707	280.59587
508.187	267.61122
508.666	259.61642
509.145	211.47779
509.623	192.43698
510.102	239.55701
510.581	288.66313
511.059	257.62198
511.538	260.64424
512.016	257.5914
512.494	199.46434
512.972	218.50517
513.45	249.55832
513.928	253.59149
514.406	264.62144
514.884	268.66382
515.361	275.62979
515.839	289.63467
516.316	317.73178
516.793	247.60071
517.27	291.66749
517.747	268.66066
518.224	282.61995
518.701	247.52416
519.178	255.61412
519.654	266.60367
520.131	270.64149
520.607	212.50196
521.083	224.48997
521.56	224.51022
522.036	260.54175
522.512	267.63278
522.987	267.61711
523.463	173.4005
523.939	275.6545
524.414	239.52664
524.89	245.56312
525.365	201.44068
525.84	202.47181
526.315	225.52728
526.79	230.50054
527.265	303.66597
527.74	205.48304
528.215	181.41153
528.689	206.43744
529.164	214.44352
529.638	186.45955
530.112	182.41724
530.587	228.47042
531.061	182.42977
531.534	179.42096
532.008	207.48889
532.482	187.41862
532.956	172.42902
533.429	248.58492
533.903	200.42526
534.376	172.3713
534.849	156.35146
535.322	191.43866
535.795	159.37611
536.268	207.48662
536.741	164.38095
537.213	195.43581
537.686	183.4369
538.158	195.43149
538.631	196.46193
539.103	181.39884
539.575	167.33581
540.047	196.41512
540.519	232.53548
540.991	181.4308
541.463	159.3748
541.934	167.36907
542.406	207.4832
542.877	193.42386
543.348	250.58161
543.82	135.32329
544.291	204.46279
544.762	182.42309
545.233	252.61619
545.703	177.38479
546.174	185.41858
546.645	186.43938
547.115	223.52177
547.585	202.45173
548.056	229.54587
548.526	260.59412
548.996	229.52992
549.466	262.61265
549.935	256.58946
550.405	304.63539
550.875	256.58569
551.344	225.51984
551.814	263.57928
552.283	293.6101
552.752	332.73843
553.221	290.61204
553.69	306.65941
554.159	337.7974
554.628	297.64345
555.096	302.73568
555.565	316.66369
556.033	311.70764
556.502	303.69836
556.97	269.57483
557.438	253.57266
557.906	321.72034
558.374	253.56589
558.842	259.59791
559.31	353.74516
559.777	223.52933
560.245	214.47679
560.712	224.49721
561.18	249.5314
561.647	271.57634
562.114	358.77344
562.581	318.74561
563.048	290.63512
563.514	338.8061
563.981	300.65563
564.448	322.6909
564.914	317.69996
565.381	379.81266
565.847	366.80222
566.313	337.74007
566.779	351.74484
567.245	277.61471
567.711	326.74131
568.176	321.68356
568.642	367.87273
569.108	395.91071
569.573	341.74601
570.038	318.62957
570.504	429.89882
570.969	367.85761
571.434	449.91951
571.899	409.90494
572.363	509.06266
572.828	514.07478
573.293	452.95641
573.757	502.06355
574.222	502.02413
574.686	502.05335
575.15	524.14938
575.614	543.16234
576.078	475.024
576.542	505.04823
577.006	464.96505
577.469	498.12294
577.933	483.00784
578.396	481.04671
578.86	470.01731
579.323	489.08171
579.786	489.96835
580.249	552.1768
580.712	461.0345
581.175	448.02275
581.637	470.98579
582.1	463.9263
582.563	468.91007
583.025	437.98863
583.487	472.88726
583.95	430.85171
584.412	487.93192
584.874	467.05056
585.336	475.03582
585.797	531.04243
586.259	471.01275
586.721	466.00606
587.182	460.97759
587.643	471.98375
588.105	470.02121
588.566	474.90243
589.027	537.19696
589.488	512.06965
589.949	595.29795
590.41	534.94812
590.87	543.12374
591.331	626.20877
591.791	621.27913
592.252	586.22452
592.712	655.38976
593.172	633.27523
593.632	741.41926
594.092	592.17636
594.552	690.29882
595.011	699.39677
595.471	734.43937
595.931	774.4965
596.39	809.66391
596.849	820.62415
597.308	869.53296
597.768	930.02458
598.227	955.90113
598.685	965.80024
599.144	1063.01621
599.603	1027.9454
600.062	1064.7609
600.52	1180.06327
600.978	1196.20069
601.437	1284.20152
601.895	1367.12398
602.353	1341.16546
602.811	1461.36599
603.269	1497.57364
603.727	1534.64529
604.184	1627.55101
604.642	1653.85408
605.099	1789.77446
605.557	1752.90234
606.014	1908.53767
606.471	2020.26027
606.928	2129.77255
607.385	2156.34553
607.842	2260.96333
608.299	2307.07128
608.755	2327.25949
609.212	2406.87782
609.668	2485.95092
610.125	2520.29999
610.581	2608.16919
611.037	2580.927
611.493	2597.14096
611.949	2717.41046
612.405	2728.47221
612.861	2741.07768
613.316	2766.3147
613.772	2857.06158
614.227	2874.34565
614.683	2805.65022
615.138	2826.19287
615.593	2815.13223
616.048	2810.05166
616.503	2784.39093
616.958	2864.59715
617.412	2825.26485
617.867	2781.93068
618.321	2798.51619
618.776	2716.84241
619.23	2692.16922
619.684	2645.90184
620.138	2582.02366
620.592	2518.32518
621.046	2551.19195
621.5	2475.26722
621.954	2410.81807
622.407	2410.81807
622.861	2409.29057
623.314	2370.91885
623.768	2301.10662
624.221	2244.28717
624.674	2189.95133
625.127	2093.93306
625.58	2198.82091
626.033	2102.66676
626.485	1990.99992
626.938	2063.02501
627.39	1991.90048
627.843	1897.7795
628.295	1935.80377
628.747	1875.90628
629.199	1847.69523
629.651	1785.67924
630.103	1788.68301
630.555	1675.29873
631.006	1613.58962
631.458	1594.6155
631.909	1651.48729
632.361	1519.47436
632.812	1529.49629
633.263	1541.29497
633.714	1465.15445
634.165	1445.52704
634.616	1416.4484
635.067	1478.28408
635.518	1432.47492
635.968	1386.88483
636.419	1371.16108
636.869	1379.41231
637.319	1367.33653
637.769	1365.23904
638.219	1338.35304
638.669	1306.3382
639.119	1279.32412
639.569	1288.34348
640.019	1268.20975
640.468	1327.18952
640.918	1252.26402
641.367	1253.10424
641.816	1322.15908
642.265	1307.28458
642.714	1274.19473
643.163	1281.22726
643.612	1291.41565
644.061	1253.98611
644.51	1253.1715
644.958	1296.11517
645.406	1245.2792
645.855	1252.33387
646.303	1286.23072
646.751	1290.24122
647.199	1261.14755
647.647	1277.2354
648.095	1243.14277
648.543	1257.85571
648.99	1314.38136
649.438	1215.14747
649.885	1342.53529
650.333	1295.78435
650.78	1192.24244
651.227	1218.31381
651.674	1232.13326
652.121	1224.32973
652.568	1175.25832
653.015	1136.22855
653.461	1157.14938
653.908	1155.05367
654.354	1113.09292
654.801	1092.02577
655.247	1174.92883
655.693	1102.31854
656.139	1121.10903
656.585	1064.0313
657.031	1064.99459
657.477	1058.81557
657.922	1051.89444
658.368	1053.08717
658.813	1041.88114
659.259	1066.07332
659.704	1104.07037
660.149	1026.894
660.594	1084.04371
661.039	1027.86897
661.484	1046.98578
661.929	1046.95309
662.373	1028.10226
662.818	1016.04592
663.262	1047.03773
663.707	1027.13654
664.151	1008.99979
664.595	1036.02151
665.039	1080.15221
665.483	1002.09505
665.927	1059.97985
666.371	1123.0747
666.814	1079.03673
667.258	1145.16796
667.701	1136.84651
668.145	1097.18464
668.588	1093.16762
669.031	1108.05148
669.474	1116.11342
669.917	1124.89643
670.36	1174.3054
670.803	1194.23965
671.245	1075.68505
671.688	1137.1799
672.13	1118.96793
672.573	1178.34353
673.015	1149.17239
673.457	1188.95301
673.899	1169.20709
674.341	1142.1586
674.783	1184.20131
675.225	1189.2842
675.666	1248.34809
676.108	1169.91367
676.549	1192.13115
676.991	1237.02559
677.432	1236.77644
677.873	1146.02032
678.314	1202.20297
678.755	1301.43798
679.196	1202.09204
679.637	1182.19109
680.078	1261.22221
680.518	1237.14365
680.959	1242.25268
681.399	1208.32245
681.839	1224.286
682.28	1262.40918
682.72	1279.18069
683.16	1294.46331
683.6	1328.21947
684.039	1255.88422
684.479	1342.49113
684.919	1315.30702
685.358	1300.46049
685.798	1280.5808
686.237	1365.40261
686.676	1311.18198
687.115	1322.31634
687.554	1436.49491
687.993	1329.13755
688.432	1401.30229
688.871	1425.34329
689.309	1364.4201
689.748	1397.02728
690.186	1341.31135
690.625	1424.41836
691.063	1407.44874
691.501	1422.58825
691.939	1457.69536
692.377	1381.47116
692.815	1507.64563
693.253	1406.43741
693.69	1398.17067
694.128	1452.55716
694.565	1396.4111
695.003	1401.67715
695.44	1436.4558
695.877	1406.40165
696.314	1431.08352
696.751	1412.28541
697.188	1458.40651
697.625	1335.16777
698.061	1373.41801
698.498	1369.36982
698.934	1305.33104
699.371	1334.31925
699.807	1356.35152
700.243	1313.37055
700.679	1352.17297
701.115	1407.36827
701.551	1301.23851
701.987	1255.01435
702.422	1297.31788
702.858	1312.33342
703.294	1340.24572
703.729	1266.3334
704.164	1276.28893
704.599	1298.12316
705.035	1252.08493
705.47	1285.35151
705.904	1256.17615
706.339	1233.12432
706.774	1273.22836
707.209	1270.20862
707.643	1243.25393
708.078	1209.25735
708.512	1174.30001
708.946	1252.23314
709.38	1150.11473
709.814	1175.01538
710.248	1177.23195
710.682	1156.15334
711.116	1121.144
711.549	1054.16713
711.983	1115.99478
712.416	1118.06902
712.85	1049.07827
713.283	1087.01098
713.716	1112.17218
714.149	1003.84823
714.582	1069.86822
715.015	1016.00201
715.448	978.01154
715.881	991.6663
716.313	1037.91577
716.746	953.8278
717.178	968.88558
717.61	986.04796
718.043	905.84486
718.475	929.84589
718.907	865.80231
719.339	893.64842
719.77	921.80537
720.202	841.76776
720.634	910.84206
721.065	860.67335
721.497	838.71627
721.928	825.69
722.359	822.68044
722.79	832.66177
723.221	805.6861
723.652	817.7549
724.083	802.49527
724.514	772.48764
724.945	742.47152
725.375	782.5358
725.806	699.48451
726.236	763.66832
726.666	725.45416
727.096	686.44833
727.526	761.68353
727.956	713.38529
728.386	641.36948
728.816	671.50033
729.246	661.42018
729.675	583.25347
730.105	748.55592
730.534	661.32562
730.964	649.41051
731.393	638.361
731.822	696.54253
732.251	602.34895
732.68	639.27612
733.109	644.3851
733.537	627.34184
733.966	649.41529
734.395	592.19551
734.823	570.09728
735.251	575.21609
735.68	564.22998
736.108	565.25114
736.536	560.15303
736.964	548.11866
737.392	520.16212
737.82	508.08051
738.247	575.20282
738.675	572.17778
739.102	526.17168
739.53	513.18855
739.957	512.19443
740.384	484.04366
740.811	449.01124
741.238	511.12246
741.665	488.02798
742.092	418.86977
742.519	464.04274
742.945	497.08434
743.372	482.08016
743.798	458.06366
744.225	434.92957
744.651	451.02196
745.077	440.99804
745.503	423.92811
745.929	519.1219
746.355	443.97566
746.781	448.99679
747.207	455.97728
747.632	476.068
748.058	480.0933
748.483	460.94949
748.908	408.93148
749.334	474.05392
749.759	470.00778
750.184	400.88337
750.609	467.02995
751.033	432.9101
751.458	460.91582
751.883	434.96965
752.307	421.89959
752.732	476.10292
753.156	424.95044
753.58	431.91856
754.005	391.90005
754.429	437.93984
754.853	399.91223
755.277	439.94454
755.7	406.92206
756.124	351.808
756.548	350.76133
756.971	407.90653
757.394	352.83337
757.818	389.92538
758.241	410.95562
758.664	408.94385
759.087	429.87418
759.51	365.82847
759.933	377.83868
760.356	391.93085
760.778	381.85987
761.201	375.83008
761.623	334.73271
762.046	393.83432
762.468	404.87952
762.89	370.82806
763.312	399.89386
763.734	385.85043
764.156	324.74332
764.578	381.78908
765	355.79727
765.421	319.76036
765.843	377.91094
766.264	321.70167
766.686	324.74481
767.107	336.7526
767.528	357.85091
767.949	291.69071
768.37	348.79869
768.791	326.72148
769.212	290.68529
769.632	279.6109
770.053	268.65896
770.473	299.66932
770.894	283.64889
771.314	308.67141
771.734	343.73389
772.154	282.67335
772.575	309.65686
772.994	276.5802
773.414	288.63553
773.834	302.69952
774.254	289.65653
774.673	261.59989
775.093	260.60893
775.512	248.57673
775.931	296.70136
776.351	261.61211
776.77	258.59548
777.189	272.60299
777.607	234.56452
778.026	256.59909
778.445	220.52994
778.864	191.45966
779.282	240.53582
779.701	250.58918
780.119	189.45657
780.537	217.51012
780.955	210.50202
781.373	212.49477
781.791	243.51724
782.209	220.46432
782.627	193.48462
783.045	215.45844
783.462	203.49187
783.88	203.49999
784.297	198.4728
784.715	196.48123
785.132	227.51297
785.549	172.40915
785.966	186.44482
786.383	177.41675
786.8	246.53262
787.217	217.48958
787.633	170.40905
788.05	183.40139
788.466	197.43118
788.883	182.44637
789.299	148.33466
789.715	214.49256
790.131	169.40008
790.547	179.42342
790.963	178.41853
791.379	129.31328
791.795	182.38665
792.21	172.37766
792.626	130.2918
793.041	95.22542
793.457	137.32119
793.872	130.28881
794.287	183.42079
794.702	79.18463
795.117	127.30414
795.532	142.34349
795.947	137.30922
796.362	124.27616
796.776	142.30903
797.191	155.36197
797.605	165.37257
798.02	109.25405
798.434	140.29548
798.848	156.37137
799.262	116.27615
799.676	196.45059
800.09	123.28927
800.504	104.24072
800.918	80.17632
801.331	62.15375
801.745	91.1991
802.158	55.13197
802.572	141.32539
802.985	120.274
803.398	116.26327
803.811	72.17489
804.224	96.22626
804.637	119.2721
805.05	99.21751
805.462	157.36346
805.875	56.14151
806.288	129.29912
806.7	78.1869
807.112	90.19786
807.525	28.06602
807.937	86.20529
808.349	74.17739
808.761	122.28798
809.173	119.27681
809.584	85.20068
809.996	71.16737
810.408	97.2441
810.819	82.18558
811.231	130.3341
811.642	162.38284
812.053	167.38646
812.464	90.20434
812.875	142.34814
813.286	128.31846
813.697	105.22759
814.108	104.24168
814.519	142.30207
814.929	86.2103
815.34	38.08827
815.75	96.23676
816.16	51.1212
816.571	70.17499
816.981	55.12348
817.391	52.11993
817.801	65.15655
818.211	123.27796
818.62	81.18842
819.03	89.20849
819.44	66.16343
819.849	49.11806
820.259	59.1442
820.668	63.15018
821.077	105.25232
821.486	84.19111
821.895	31.07305
822.304	64.16368
822.713	89.20031
823.122	70.1678
823.531	36.08117
823.939	95.22272
824.348	92.21252
824.756	90.21483
825.164	70.16863
825.573	49.119
825.981	88.20781
826.389	100.23989
826.797	98.23974
827.205	110.24214
827.612	56.13239
828.02	72.16115
828.428	55.13512
828.835	64.16414
829.243	88.19883
829.65	69.16663
830.057	66.15307
830.464	132.30965
830.871	156.35405
831.278	114.26251
831.685	94.19839
832.092	62.14442
832.499	143.29578
832.905	42.1021
833.312	64.13685
833.718	100.24016
834.124	86.18804
834.531	64.15365
834.937	75.18596
835.343	43.09912
835.749	63.13877
836.155	99.24877
836.561	18.04303
836.966	85.19803
837.372	34.08336
837.777	79.1897
838.183	85.17865
838.588	112.26714
838.993	73.17061
839.399	83.19543
839.804	80.18737
840.209	69.17139
840.613	59.12532
841.018	10.02448
841.423	95.23382
841.828	99.24097
842.232	86.20001
842.637	101.22964
843.041	46.1147
843.445	16.03865
843.849	70.16729
844.253	81.18327
844.657	69.16839
845.061	121.26473
845.465	42.09791
845.869	64.14242
846.272	41.09695
846.676	3.00691
847.079	81.19958
847.483	86.20474
847.886	99.22719
848.289	68.17774
848.692	27.06577
849.095	66.15125
849.498	91.21718
849.901	41.08951
850.304	82.18693
850.707	30.0738
851.109	100.24026
851.512	75.17728
851.914	28.06895
852.316	105.25681
852.718	76.19409
853.121	37.08763
853.523	33.07375
853.925	44.11241
854.326	61.14792
854.728	67.16661
855.13	28.07085
855.531	86.19685
855.933	36.0824
856.334	64.15487
856.736	116.24826
857.137	92.20575
857.538	75.18255
857.939	103.24666
858.34	39.09058
858.741	33.08331
859.142	59.13518
859.542	44.11332
859.943	109.25784
860.343	20.04838
860.744	86.2004
861.144	92.21641
861.544	69.16145
861.945	55.13492
862.345	44.1031
862.745	71.17074
863.145	21.0475
863.544	69.1682
863.944	99.22227
864.344	35.08276
864.743	106.25002
865.143	71.17713
865.542	18.03974
865.941	86.2045
866.34	65.14701
866.74	68.17641
867.139	107.24732
867.537	32.07796
867.936	47.10937
868.335	38.0932
868.734	55.13582
869.132	48.10553
869.531	72.1644
869.929	31.0684
870.327	-3.00698
870.726	85.20037
871.124	72.15922
871.522	56.13689
871.92	91.21435
872.318	67.15573
872.715	63.14724
873.113	65.1509
873.511	56.13368
873.908	98.2408
874.306	56.13526
874.703	63.14978
875.1	44.10696
875.497	43.09872
875.894	92.21961
876.291	56.13239
876.688	35.08751
877.085	84.19072
877.482	50.12045
877.878	103.2394
878.275	63.15443
878.671	38.07833
879.068	52.12046
879.464	59.1367
879.86	31.07063
880.256	28.06558
880.652	36.08846
881.048	13.03085
881.444	-16.03645
881.84	72.17535
882.236	43.10412
882.631	106.24905
883.027	57.13175
883.422	39.09567
883.817	52.12697
884.213	53.13117
884.608	92.22053
885.003	45.10335
885.398	54.13023
885.793	42.10118
886.188	36.0862
886.582	59.14414
886.977	70.15751
887.371	35.08484
887.766	19.04607
888.16	35.08273
888.554	76.17835
888.949	95.22751
889.343	65.1512
889.737	40.10438
890.131	74.17799
890.525	68.16839
890.918	71.1712
891.312	37.0842
891.706	58.14635
892.099	79.19193
892.492	59.12023
892.886	13.0307
893.279	50.12241
893.672	58.1432
894.065	64.15406
894.458	28.06732
894.851	106.24486
895.244	65.15945
895.637	57.13217
896.029	110.25734
896.422	61.14094
896.814	43.10258
897.206	72.16639
897.599	102.23974
897.991	109.25204
898.383	52.11811
898.775	115.2482
899.167	81.18298
899.559	86.20615
899.951	72.16029
900.342	56.13557
900.734	72.17574
901.125	62.15549
901.517	75.17652
901.908	20.04552
902.299	26.06161
902.69	105.23738
903.082	99.22801
903.473	101.23392
903.863	51.12455
904.254	100.22308
904.645	82.19213
905.036	133.3112
905.426	86.18374
905.817	45.10542
906.207	-12.02743
906.597	96.21567
906.987	28.06961
907.378	54.13225
907.768	57.14596
908.158	50.11679
908.547	70.1765
908.937	41.10017
909.327	74.17128
909.717	39.09383
910.106	50.11463
910.495	38.09029
910.885	88.21375
911.274	55.13187
911.663	14.0341
912.052	46.10774
912.441	103.25201
912.83	61.13256
913.219	66.16546
913.608	67.15788
913.997	90.21787
914.385	120.27113
914.774	55.12814
915.162	99.22701
915.55	38.08768
915.939	59.14441
916.327	29.06926
916.715	92.22798
917.103	64.14802
917.491	122.28485
917.878	22.05209
918.266	17.04257
918.654	66.16343
919.041	75.19083
919.429	75.16873
919.816	92.22238
920.203	63.14793
920.591	63.15018
920.978	61.14313
921.365	72.18245
921.752	8.01813
922.139	126.25647
922.525	69.15917
922.912	84.19451
923.299	52.12446
923.685	9.02259
924.072	56.12001
924.458	58.13866
924.844	25.0598
925.231	26.05762
925.617	20.04987
926.003	42.10316
926.389	37.08999
926.774	47.11423
927.16	39.09308
927.546	97.24077
927.931	27.06459
928.317	58.12649
928.702	31.07014
929.088	110.25259
929.473	81.19914
929.858	88.20692
930.243	75.17391
930.628	67.15788
931.013	33.07903
931.398	97.20711
931.783	38.09561
932.167	106.24914
932.552	46.11052
932.937	71.1675
933.321	59.14355
933.705	47.11264
934.09	21.05018
934.474	28.06329
934.858	35.08802
935.242	34.07538
935.626	79.19494
936.009	74.19151
936.393	90.22229
936.777	63.15615
937.16	90.22628
937.544	35.07777
937.927	42.10343
938.311	65.1506
938.694	83.21141
939.077	75.17129
939.46	28.06468
939.843	55.10595
940.226	27.0666
940.609	127.27821
940.991	24.05869
941.374	123.28668
941.757	13.03088
942.139	137.28984
942.522	84.18739
942.904	55.12672
943.286	52.12659
943.668	114.28477
944.05	61.14419
944.432	51.12032
944.814	30.07043
945.196	23.05462
945.578	103.23675
945.959	37.08225
946.341	53.12217
946.722	82.18179
947.104	83.18902
947.485	68.15094
947.866	61.14898
948.247	73.17841
948.628	11.02539
949.009	42.10377
949.39	51.12106
949.771	57.12328
950.152	72.16923
950.532	79.1915
950.913	47.10855
951.293	70.18409
951.674	22.05133
952.054	102.24562
952.434	38.09106
952.814	66.14797
953.194	22.055
953.574	120.27831
953.954	49.11015
954.334	94.22567
954.714	53.12465
955.093	82.19221
955.473	75.18173
955.853	63.15695
956.232	68.17949
956.611	4.00914
956.99	52.12626
957.37	28.06845
957.749	29.06538
958.128	56.13653
958.506	31.07798
958.885	30.07279
959.264	52.12413
959.643	121.26115
960.021	111.26339
960.4	54.11657
960.778	26.06073
961.156	16.03863
961.535	28.06197
961.913	126.27957
962.291	72.17979
962.669	87.21192
963.047	67.16515
963.424	93.23016
963.802	46.10901
964.18	71.16893
964.557	75.16319
964.935	78.17566
965.312	62.15639
965.69	55.13081
966.067	27.06253
966.444	15.03497
966.821	51.12682
967.198	83.18918
967.575	87.20213
967.952	69.15441
968.329	127.29413
968.705	111.22516
969.082	50.12544
969.458	46.10757
969.835	62.14436
970.211	83.20639
970.587	46.11039
970.963	35.08583
971.339	67.16915
971.715	77.18426
972.091	30.07109
972.467	56.13183
972.843	72.17325
973.219	73.16517
973.594	40.10115
973.97	36.07984
974.345	73.16753
974.721	72.16354
975.096	45.1055
975.471	117.26074
975.846	90.20376
976.221	86.20913
976.596	118.27258
976.971	121.28523
977.346	45.09929
977.72	41.10009
978.095	58.14404
978.469	49.11141
978.844	71.16964
979.218	86.19961
979.593	73.16578
979.967	4.00923
980.341	66.14553
980.715	45.10945
981.089	42.10106
981.463	69.15077
981.837	94.22154
982.21	54.11637
982.584	67.15542
982.957	35.08484
983.331	48.10677
983.704	101.2392
984.078	47.11101
984.451	24.05654
984.824	72.16877
985.197	32.07348
985.57	8.01909
985.943	43.09994
986.316	19.04421
986.688	88.20126
987.061	36.08127
987.434	78.1978
987.806	41.0939
988.179	3.0068
988.551	87.20962
988.923	25.05896
989.295	87.20596
989.667	25.0585
990.039	90.2159
990.411	49.10585
990.783	59.12745
991.155	-1.00234
991.527	57.13149
991.898	63.15128
992.27	62.14856
992.641	72.17147
993.012	9.01983
993.384	40.09097
993.755	34.08419
994.126	109.25074
994.497	41.09676
994.868	23.05004
995.239	76.17494
995.61	53.12828
995.98	22.05141
996.351	98.23276
996.722	77.17202
997.092	67.15228
997.462	59.13344
997.833	41.09216
998.203	52.11869
998.573	50.12013
998.943	49.1106
999.313	49.11326
999.683	50.11541
1000.053	1.00216
1000.423	79.1813
1000.792	15.03721
1001.162	10.02361
1001.531	108.25315
1001.901	57.13541
1002.27	0
1002.639	10.02454
1003.009	15.03427
1003.378	61.15008
1003.747	70.15629
1004.116	54.1233
1004.485	62.14134
1004.853	5.01209
1005.222	-13.03123
1005.591	47.10634
1005.959	64.13786
1006.328	64.13757
1006.696	0
1007.064	33.07912
1007.433	33.0787
1007.801	29.06719
1008.169	9.02174
1008.537	95.1979
1008.905	72.16089
1009.273	61.1429
1009.64	65.15018
1010.008	75.1697
1010.375	77.17444
1010.743	27.0577
1011.11	117.26699
1011.478	84.19974
1011.845	36.08058
1012.212	121.2607
1012.579	57.13426
1012.946	47.10561
1013.313	35.07906
1013.68	58.12311
1014.047	46.10491
1014.414	52.11711
1014.78	58.13877
1015.147	38.08694
1015.513	29.06717
1015.88	78.18911
1016.246	51.11891
1016.612	82.17595
1016.978	73.17195
1017.344	33.07867
1017.71	76.17514
1018.076	89.19645
1018.442	64.15854
1018.808	60.14525
1019.174	57.13614
1019.539	41.08591
1019.905	97.21796
1020.27	38.08991
1020.636	48.10841
1021.001	71.16254
1021.366	51.11784
1021.731	81.2023
1022.096	48.11764
1022.461	81.18268
1022.826	81.18462
1023.191	31.07868
1023.556	42.09354
1023.92	54.12574
1024.285	9.02094
1024.649	49.11421
1025.014	28.06589
1025.378	63.15283
1025.742	36.08511
1026.107	36.07745
1026.471	69.15192
1026.835	84.19836
1027.199	43.09947
1027.562	30.06601
1027.926	36.08392
1028.29	59.14334
1028.654	59.12848
1029.017	94.22025
1029.381	25.05765
1029.744	43.10564
1030.107	96.21487
1030.471	86.19677
1030.834	46.09794
1031.197	74.16938
1031.56	42.0942
1031.923	50.12467
1032.286	125.27579
1032.648	40.09016
1033.011	66.14638
1033.374	62.13699
1033.736	34.08653
1034.099	42.0983
1034.461	59.14425
1034.823	26.06273
1035.185	25.06005
1035.548	86.20009
1035.91	19.04367
1036.272	75.16284
1036.634	66.15398
1036.995	23.05143
1037.357	27.06357
1037.719	58.1351
1038.08	118.26661
1038.442	77.1733
1038.803	3.00683
1039.165	51.12283
1039.526	48.11115
1039.887	45.1029
1040.248	55.13227
1040.609	52.12156
1040.97	77.17855
1041.331	76.18537
1041.692	95.21416
1042.053	84.17947
1042.413	38.08403
1042.774	81.1879
1043.134	43.09646
1043.495	44.1062
1043.855	81.18923
1044.215	47.11114
1044.576	53.12212
1044.936	45.0977
1045.296	83.19725
1045.656	53.12294
1046.016	62.1418
1046.375	36.08379
1046.735	69.15154
1047.095	55.12282
1047.454	75.14754
1047.814	74.16951
1048.173	51.11446
1048.533	10.02201
1048.892	33.07643
1049.251	18.04323
1049.61	54.12747
1049.969	3.00679
1050.328	89.18144
1050.687	45.1041
1051.046	71.16398
1051.405	23.05453
1051.763	52.11543
1052.122	-15.03625
1052.48	59.13881
1052.839	73.16632
1053.197	32.07207
1053.555	27.05742
1053.914	65.15114
1054.272	6.01366
1054.63	8.01894
1054.988	78.17803
1055.345	58.11623
1055.703	61.14038
1056.061	77.19196
1056.419	83.20917
1056.776	29.06626
1057.134	7.01528
1057.491	55.13207
1057.848	15.03579
1058.206	9.02001
1058.563	84.17394
1058.92	74.16077
1059.277	68.16008
1059.634	53.11699
1059.991	89.20277
1060.348	45.09741
1060.704	73.16981
1061.061	15.03273
1061.418	35.08161
1061.774	52.12299
1062.131	83.21387
1062.487	58.12826
1062.843	59.14065
1063.199	47.11221
1063.555	64.14254
1063.911	25.06044
1064.267	100.19121
1064.623	45.10608
1064.979	24.05236
1065.335	90.20169
1065.691	14.03175
1066.046	71.14699
1066.402	51.10941
1066.757	45.1092
1067.112	53.12377
1067.468	51.1168
1067.823	2.00453
1068.178	48.11018
1068.533	50.11587
1068.888	76.17144
1069.243	92.21582
1069.598	58.13356
1069.952	73.15965
1070.307	64.15236
1070.662	65.14917
1071.016	74.15961
1071.371	63.13696
1071.725	54.12196
1072.079	85.1946
1072.434	69.16057
1072.788	33.07415
1073.142	92.21523
1073.496	41.09277
1073.85	90.1967
1074.203	74.17115
1074.557	118.30305
1074.911	75.16859
1075.265	49.10847
1075.618	126.29037
1075.971	75.16921
1076.325	70.17175
1076.678	80.17336
1077.031	-4.00851
1077.385	29.0606
1077.738	34.07302
1078.091	35.07687
1078.444	55.11982
1078.796	85.19983
1079.149	56.13368
1079.502	74.16754
1079.855	70.15532
1080.207	80.18679
1080.56	57.14257
1080.912	18.04208
1081.264	76.17494
1081.617	43.10089
1081.969	67.1629
1082.321	54.12554
1082.673	54.11947
1083.025	60.13463
1083.377	86.19122
1083.728	66.14535
1084.08	32.07627
1084.432	83.18918
1084.783	51.11135
1085.135	37.08965
1085.486	47.10326
1085.838	88.20692
1086.189	124.28667
1086.54	72.16261
1086.891	92.2264
1087.242	111.26064
1087.593	8.01846
1087.944	107.23014
1088.295	75.16076
1088.646	164.3799
1088.996	60.13899
1089.347	65.15114
1089.698	68.15496
1090.048	17.04243
1090.398	80.17425
1090.749	52.11754
1091.099	27.06638
1091.449	63.15082
1091.799	57.13661
1092.149	37.08807
1092.499	65.15138
1092.849	61.14892
1093.199	72.17055
1093.548	90.20774
1093.898	49.11703
1094.248	43.10513
1094.597	65.1614
1094.947	51.13155
1095.296	87.20572
1095.645	50.12449
1095.994	47.10795
1096.343	52.12607
1096.692	91.23293
1097.041	69.18308
1097.39	72.17134
1097.739	21.05275
1098.088	68.17379
1098.437	59.15161
1098.785	22.05701
1099.134	2.00507
1099.482	48.12828
1099.83	56.14171
1100.179	100.25431
1100.527	17.04326
1100.875	35.09025
1101.223	62.15973
1101.571	-3.00806
1101.919	85.21803
1102.267	29.08021
1102.615	4.01285
1102.962	3.00962
1103.31	4.01285
1103.658	0
