Data from N3 R4 sample 10_Subt2__0__12-10-28-728.txt Node

Date: Thu Sep 18 12:10:28 PDT 2025
User: uwsun
Spectrometer: HDX01956
Trigger mode: 0
Integration Time (sec): 5.000000E-1
Scans to average: 1
Nonlinearity correction enabled: true
Boxcar width: 0
Storing dark spectrum: false
XAxis mode: Wavelengths
Number of Pixels in Spectrum: 2068
>>>>>Begin Spectral Data<<<<<
194.03	94.26915
194.578	114.36574
195.127	99.31364
195.676	107.33989
196.225	152.39566
196.773	164.44662
197.321	185.50307
197.87	289.71961
198.418	321.80072
198.966	357.90562
199.513	337.82719
200.061	312.76881
200.609	316.80832
201.156	312.65934
201.704	268.6592
202.251	301.77818
202.798	275.69593
203.345	343.8188
203.892	286.7045
204.438	293.67504
204.985	342.7821
205.532	298.76229
206.078	278.66176
206.624	363.8758
207.17	352.7933
207.716	352.83111
208.262	359.67798
208.808	356.86135
209.354	384.9091
209.899	343.83194
210.445	341.82336
210.99	362.84875
211.535	348.78909
212.08	342.76351
212.625	311.75293
213.17	360.88248
213.715	345.75827
214.259	344.77273
214.804	326.77153
215.348	375.82869
215.892	352.82209
216.436	307.67731
216.98	317.67034
217.524	344.79173
218.068	347.84353
218.612	343.84129
219.155	339.77103
219.698	314.72183
220.242	296.70785
220.785	333.75278
221.328	305.72895
221.871	363.88703
222.414	302.72219
222.956	275.63863
223.499	293.63045
224.041	302.66475
224.583	296.60001
225.126	273.57983
225.668	299.70176
226.21	313.76517
226.751	345.73402
227.293	260.57087
227.835	288.68372
228.376	291.63798
228.918	284.6846
229.459	254.61785
230	310.71776
230.541	309.68315
231.082	308.7233
231.622	266.58281
232.163	302.70201
232.704	349.83695
233.244	283.68025
233.784	276.64766
234.324	339.72973
234.864	296.64388
235.404	258.58979
235.944	285.64823
236.484	331.79319
237.023	304.68962
237.563	327.72897
238.102	321.72862
238.641	279.67928
239.18	268.61068
239.719	303.73191
240.258	301.65044
240.797	359.8175
241.335	283.66551
241.874	359.66136
242.412	349.8114
242.95	334.77454
243.488	284.61516
244.026	344.76512
244.564	334.65505
245.102	355.76679
245.64	271.62685
246.177	299.63865
246.715	350.80328
247.252	283.61992
247.789	364.63445
248.326	296.68943
248.863	322.67928
249.4	347.74984
249.936	351.69962
250.473	372.83699
251.009	332.72709
251.546	346.73791
252.082	271.5658
252.618	332.71051
253.154	371.84993
253.69	331.70975
254.226	348.79677
254.761	335.71864
255.297	331.69044
255.832	331.75527
256.367	324.7305
256.903	355.75201
257.438	339.75979
257.972	252.54585
258.507	310.6835
259.042	357.73806
259.576	359.75683
260.111	376.81823
260.645	330.68117
261.179	329.7395
261.713	358.76317
262.247	296.65127
262.781	354.70938
263.315	306.71496
263.849	317.76485
264.382	326.71757
264.915	369.83177
265.449	318.74707
265.982	369.796
266.515	363.84993
267.048	354.71332
267.58	319.65861
268.113	318.65935
268.646	296.69946
269.178	297.6396
269.71	392.81967
270.243	371.81814
270.775	381.93273
271.307	337.76648
271.838	366.82214
272.37	371.8656
272.902	342.73951
273.433	373.7853
273.965	338.78692
274.496	324.77183
275.027	387.91638
275.558	390.90437
276.089	364.86942
276.62	343.8285
277.15	353.82943
277.681	371.75565
278.211	370.85902
278.741	369.77893
279.272	363.79145
279.802	372.88172
280.332	345.77991
280.861	375.8522
281.391	383.82514
281.921	366.83293
282.45	309.73879
282.98	382.94954
283.509	409.8785
284.038	394.85375
284.567	391.86332
285.096	381.87984
285.625	342.73508
286.153	481.07018
286.682	353.7752
287.21	350.7962
287.739	374.8408
288.267	417.96026
288.795	362.90508
289.323	375.83873
289.851	398.88777
290.378	349.74221
290.906	378.8821
291.433	371.88291
291.961	415.89483
292.488	372.88002
293.015	447.99106
293.542	456.10263
294.069	404.95089
294.596	383.89008
295.122	413.93777
295.649	431.88345
296.175	418.94969
296.702	415.96137
297.228	399.91039
297.754	437.92245
298.28	438.94786
298.806	435.98771
299.332	404.85561
299.857	416.89257
300.383	451.06488
300.908	458.05653
301.433	447.03009
301.958	406.88012
302.483	438.02113
303.008	462.07803
303.533	404.99066
304.058	392.8668
304.582	445.98868
305.107	370.92207
305.631	449.9536
306.155	399.88209
306.679	432.95841
307.203	457.99467
307.727	454.00812
308.251	438.01793
308.775	501.135
309.298	472.06422
309.822	476.11858
310.345	510.13129
310.868	514.1501
311.391	492.12969
311.914	450.06108
312.437	479.01982
312.96	483.06086
313.482	443.97934
314.005	466.08994
314.527	474.15568
315.049	494.16815
315.571	519.07926
316.093	517.18932
316.615	499.11305
317.137	514.03346
317.659	520.16737
318.18	517.14042
318.702	570.22417
319.223	509.95518
319.744	578.18695
320.265	537.21077
320.786	557.28554
321.307	564.28234
321.828	567.16983
322.348	601.28835
322.869	581.26844
323.389	565.00609
323.909	593.23287
324.43	639.38051
324.95	591.23307
325.47	599.36064
325.989	614.32559
326.509	622.26079
327.029	630.30205
327.548	617.26688
328.067	661.44939
328.587	683.54535
329.106	630.28111
329.625	664.56819
330.144	724.49526
330.662	673.42117
331.181	690.45933
331.7	644.35124
332.218	704.3538
332.736	736.52754
333.255	734.53489
333.773	726.5235
334.291	784.73408
334.808	792.55766
335.326	796.55673
335.844	786.62489
336.361	808.83903
336.879	783.62121
337.396	804.72141
337.913	805.62448
338.43	824.6108
338.947	819.71017
339.464	849.57017
339.981	799.661
340.497	871.85572
341.014	835.77667
341.53	863.67243
342.046	984.08629
342.562	940.00324
343.078	908.8288
343.594	897.83101
344.11	940.91843
344.626	910.98443
345.141	965.85796
345.657	963.83194
346.172	954.95757
346.687	928.80756
347.202	1009.92145
347.717	1033.0522
348.232	955.02955
348.747	1011.94852
349.261	1062.90701
349.776	1031.04443
350.29	1050.20229
350.805	1076.2065
351.319	1049.0156
351.833	1118.0926
352.347	1067.08164
352.861	1100.11434
353.374	1076.00192
353.888	1136.27339
354.401	1081.01175
354.915	1138.07487
355.428	1205.42773
355.941	1114.11371
356.454	1167.06869
356.967	1136.14619
357.48	1131.0688
357.993	1168.33325
358.505	1155.28233
359.018	1241.4287
359.53	1266.45394
360.042	1280.22609
360.554	1318.53203
361.066	1271.44677
361.578	1235.13904
362.09	1251.35662
362.602	1266.19933
363.113	1336.43602
363.625	1346.34144
364.136	1275.16688
364.647	1377.50792
365.158	1364.43377
365.669	1335.47504
366.18	1374.47799
366.691	1369.26175
367.201	1336.48728
367.712	1464.496
368.222	1438.48665
368.733	1438.31225
369.243	1510.46844
369.753	1511.56363
370.263	1536.75052
370.773	1457.68208
371.282	1559.736
371.792	1640.71082
372.301	1602.81698
372.811	1623.16184
373.32	1710.53401
373.829	1681.80566
374.338	1716.62545
374.847	1801.83186
375.356	1876.97052
375.865	1927.64158
376.373	2028.92782
376.882	2066.43492
377.39	2154.26069
377.898	2091.30685
378.407	2273.04019
378.915	2375.90819
379.423	2409.19951
379.93	2563.2445
380.438	2540.40747
380.946	2725.27736
381.453	2770.45623
381.96	2951.44553
382.468	3149.34656
382.975	3413.57578
383.482	3464.98751
383.989	3464.904
384.495	3654.18938
385.002	3832.47101
385.509	4090.16693
386.015	4277.09751
386.521	4545.59704
387.028	4661.51493
387.534	4757.0695
388.04	5019.72358
388.546	5150.04336
389.051	5310.93396
389.557	5747.0343
390.063	6256.6802
390.568	6467.01366
391.073	6605.515
391.578	6928.04305
392.084	7134.66207
392.589	7384.51671
393.093	8031.3113
393.598	8676.91108
394.103	9371.20401
394.607	10498.31174
395.112	11051.32263
395.616	11861.14178
396.12	12684.456
396.624	14127.84657
397.128	15249.66436
397.632	16992.92521
398.136	18415.1218
398.639	19663.35681
399.143	21807.35089
399.646	24717.64734
400.15	27290.80515
400.653	30145.68272
401.156	34045.733
401.659	39521.27746
402.162	48462.69265
402.664	60231.95601
403.167	63679.54207
403.67	63769.22307
404.172	63919.58413
404.674	63858.43483
405.176	63738.15102
405.678	63977.72923
406.18	64011.81569
406.682	63863.44694
407.184	63926.60148
407.686	63841.39382
408.187	64025.8516
408.688	63892.51763
409.19	63833.37461
409.691	63977.72923
410.192	63945.6488
410.693	63713.09355
411.194	60358.64598
411.694	56695.02406
412.195	52819.50794
412.696	47729.00913
413.196	44326.67443
413.696	43495.93202
414.196	43379.28072
414.696	42884.4255
415.196	40518.84002
415.696	36996.66824
416.196	29958.19722
416.695	23240.70786
417.195	19883.87919
417.694	19072.304
418.194	17759.7208
418.693	16629.35183
419.192	15987.62318
419.691	15515.96641
420.19	15468.88841
420.688	14872.80018
421.187	14170.26101
421.685	13440.58774
422.184	12125.78423
422.682	10444.40295
423.18	8920.29789
423.678	8061.15908
424.176	7347.70938
424.674	6970.49554
425.172	6675.78646
425.669	6200.17787
426.167	5855.93511
426.664	5346.03145
427.161	4913.36055
427.659	4570.9444
428.156	4337.19763
428.652	4001.52071
429.149	3891.28164
429.646	3718.78372
430.143	3499.32072
430.639	3306.28752
431.135	3180.65596
431.632	3009.10856
432.128	2787.38667
432.624	2703.80281
433.12	2644.08516
433.616	2477.86221
434.111	2395.22753
434.607	2219.18908
435.103	2251.60386
435.598	2196.56244
436.093	2088.98884
436.588	2014.80314
437.083	1893.71348
437.578	1894.84452
438.073	1721.01796
438.568	1712.94042
439.062	1634.36916
439.557	1612.64674
440.051	1554.45845
440.546	1418.36057
441.04	1459.58216
441.534	1421.69729
442.028	1453.5847
442.522	1391.50054
443.015	1383.15277
443.509	1346.48628
444.002	1284.42542
444.496	1233.02906
444.989	1278.39067
445.482	1251.41506
445.975	1274.24697
446.468	1261.05485
446.961	1278.08099
447.454	1184.05517
447.947	1143.16416
448.439	1203.32109
448.931	1184.11571
449.424	1138.33068
449.916	1152.23357
450.408	1160.07373
450.9	1083.12089
451.392	1086.24199
451.884	1082.9837
452.375	1009.05453
452.867	1039.8737
453.358	1015.88437
453.849	989.70268
454.341	1034.87747
454.832	984.7161
455.323	1072.16776
455.814	966.80966
456.304	984.86064
456.795	968.80896
457.285	901.63919
457.776	935.75621
458.266	890.77118
458.756	876.73844
459.247	870.7546
459.737	932.87891
460.226	896.69975
460.716	849.71886
461.206	818.66848
461.695	807.71186
462.185	797.61935
462.674	782.52714
463.163	769.47511
463.653	786.41474
464.142	755.58407
464.63	749.57216
465.119	765.52814
465.608	770.54987
466.096	693.30224
466.585	710.40666
467.073	616.29128
467.561	652.38128
468.05	696.39495
468.538	703.50273
469.026	648.35606
469.513	654.20138
470.001	697.39341
470.489	643.35122
470.976	652.34217
471.463	627.39034
471.951	577.28942
472.438	558.17777
472.925	596.2515
473.412	522.14931
473.899	608.23686
474.385	526.16878
474.872	556.16481
475.359	560.24186
475.845	571.04783
476.331	491.94775
476.817	466.04125
477.303	506.06784
477.789	446.97959
478.275	423.97524
478.761	450.98422
479.247	472.96158
479.732	431.99803
480.218	486.17132
480.703	394.90641
481.188	471.93009
481.673	430.91345
482.158	422.84173
482.643	468.10103
483.128	482.02644
483.612	495.07586
484.097	398.89437
484.581	448.95417
485.066	417.94992
485.55	393.80847
486.034	332.67791
486.518	436.96608
487.002	312.71953
487.486	337.77206
487.969	334.76657
488.453	303.71697
488.936	366.77107
489.42	342.71133
489.903	307.72587
490.386	298.58334
490.869	353.72554
491.352	331.75223
491.835	231.45444
492.318	298.63583
492.8	338.65695
493.283	320.77544
493.765	275.64468
494.247	275.61129
494.73	291.6124
495.212	236.53842
495.694	314.70188
496.175	294.67316
496.657	336.75074
497.139	304.4891
497.62	282.64776
498.102	282.67103
498.583	223.52872
499.064	252.53885
499.545	240.52607
500.026	300.64481
500.507	233.51665
500.988	323.76576
501.469	209.5045
501.949	254.60232
502.43	240.55725
502.91	312.62608
503.39	205.4926
503.87	277.62595
504.35	218.49274
504.83	230.48435
505.31	217.50574
505.79	159.36751
506.269	187.41724
506.749	184.40911
507.228	209.47673
507.707	285.60585
508.187	265.60689
508.666	228.54588
509.145	209.47346
509.623	204.46316
510.102	257.59683
510.581	216.5045
511.059	245.59429
511.538	213.53233
512.016	209.48557
512.494	215.5001
512.972	227.52509
513.45	179.40715
513.928	199.47018
514.406	224.53139
514.884	225.5617
515.361	196.456
515.839	252.55773
516.316	280.65114
516.793	198.48596
517.27	196.45815
517.747	222.55191
518.224	212.47292
518.701	185.3979
519.178	215.52172
519.654	211.4842
520.131	230.55067
520.607	189.44949
521.083	178.39314
521.56	200.45777
522.036	180.38173
522.512	204.48936
522.987	240.55769
523.463	229.52424
523.939	239.57276
524.414	200.44431
524.89	238.5478
525.365	219.47832
525.84	202.47181
526.315	206.48455
526.79	242.52531
527.265	222.49625
527.74	177.41934
528.215	173.39398
528.689	179.38235
529.164	186.3879
529.638	164.40684
530.112	170.39067
530.587	198.41128
531.061	217.50893
531.534	198.46392
532.008	192.45478
532.482	222.49338
532.956	116.29228
533.429	225.53305
533.903	170.36383
534.376	164.35463
534.849	140.31645
535.322	204.4673
535.795	154.36464
536.268	236.55164
536.741	156.36294
537.213	193.43152
537.686	183.4369
538.158	195.43149
538.631	164.38892
539.103	184.4052
539.575	213.42377
540.047	176.37439
540.519	169.39497
540.991	188.44686
541.463	149.35191
541.934	176.38823
542.406	210.48991
542.877	215.46998
543.348	228.53274
543.82	188.44565
544.291	186.4235
544.762	218.50317
545.233	242.59284
545.703	224.48209
546.174	219.49207
546.645	218.51177
547.115	264.61272
547.585	251.55563
548.056	271.64077
548.526	266.6071
548.996	228.52772
549.466	222.5232
549.935	272.62429
550.405	266.56066
550.875	284.64608
551.344	225.51984
551.814	313.68216
552.283	311.64498
552.752	347.76939
553.221	328.68646
553.69	372.79026
554.159	388.90898
554.628	376.80084
555.096	411.9807
555.565	364.75641
556.033	415.92434
556.502	342.7821
556.97	415.85873
557.438	376.82969
557.906	387.85664
558.374	370.80757
558.842	330.75102
559.31	369.7762
559.777	391.89789
560.245	382.82139
560.712	397.84942
561.18	401.82753
561.647	400.82676
562.114	461.97396
562.581	452.02983
563.048	460.97121
563.514	492.13645
563.981	520.08159
564.448	487.00585
564.914	484.02937
565.381	540.11578
565.847	516.09327
566.313	565.17926
566.779	616.22983
567.245	517.08799
567.711	559.20901
568.176	627.24458
568.642	636.43164
569.108	639.39934
569.573	635.30097
570.038	674.22205
570.504	692.36391
570.969	728.57801
571.434	792.49484
571.899	793.61195
572.363	814.58597
572.828	849.64526
573.293	845.63283
573.757	909.75668
574.222	853.6035
574.686	852.65148
575.15	904.82574
575.614	941.84289
576.078	906.77467
576.542	929.74834
577.006	917.71391
577.469	919.89543
577.933	926.74482
578.396	874.74495
578.86	943.83725
579.323	906.83145
579.786	967.70099
580.249	918.80328
580.712	857.76825
581.175	835.75899
581.637	813.57465
582.1	799.47311
582.563	812.44896
583.025	764.61107
583.487	844.44118
583.95	807.4567
584.412	816.43663
584.874	781.64515
585.336	794.61581
585.797	791.45906
586.259	763.53893
586.721	728.48471
587.182	758.50469
587.643	769.49853
588.105	736.50988
588.566	728.29942
589.027	753.60416
589.488	764.50816
589.949	728.54381
590.41	815.34126
590.87	796.55526
591.331	840.53997
591.791	795.57421
592.252	792.58032
592.712	849.7259
593.172	882.67639
593.632	959.74143
594.092	868.61537
594.552	894.59974
595.011	883.69009
595.471	1018.86424
595.931	911.70435
596.39	1003.9737
596.849	1025.93406
597.308	1081.80342
597.768	1119.33946
598.227	1117.13941
598.685	1187.09344
599.144	1264.28233
599.603	1344.3514
600.062	1384.09287
600.52	1422.33254
600.978	1491.54569
601.437	1538.46332
601.895	1675.37836
602.353	1762.52179
602.811	1844.67857
603.269	1858.8986
603.727	1931.9926
604.184	2004.81694
604.642	2177.26078
605.099	2201.02661
605.557	2261.249
606.014	2381.70981
606.471	2537.53931
606.928	2569.89355
607.385	2679.5733
607.842	2740.07085
608.299	2840.18192
608.755	2997.40027
609.212	2999.91339
609.668	3118.96302
610.125	3230.35054
610.581	3357.14781
611.037	3289.88242
611.493	3380.11142
611.949	3488.37997
612.405	3550.25973
612.861	3589.95385
613.316	3629.2192
613.772	3629.91608
614.227	3700.22104
614.683	3643.43351
615.138	3696.04663
615.593	3686.97916
616.048	3727.86905
616.503	3772.26038
616.958	3692.51944
617.412	3696.13148
617.867	3708.73421
618.321	3622.28705
618.776	3589.67729
619.23	3720.02432
619.684	3632.73716
620.138	3542.92691
620.592	3492.33321
621.046	3428.17313
621.5	3341.30988
621.954	3339.77405
622.407	3288.7876
622.861	3161.39101
623.314	3213.94149
623.768	3125.21861
624.221	3004.24541
624.674	3030.09009
625.127	2884.13159
625.58	2931.92874
626.033	2797.79117
626.485	2730.28487
626.938	2791.26668
627.39	2759.15838
627.843	2615.06128
628.295	2514.04284
628.747	2516.22391
629.199	2508.97649
629.651	2434.995
630.103	2363.97707
630.555	2375.58229
631.006	2282.01237
631.458	2296.0769
631.909	2151.78543
632.361	2201.94135
632.812	2132.92689
633.263	2164.6556
633.714	1992.48547
634.165	2050.04073
634.616	2017.95684
635.067	1983.63558
635.518	2014.96743
635.968	1974.20246
636.419	1974.60022
636.869	1937.91272
637.319	1990.85964
637.769	1927.69044
638.219	1989.92904
638.669	1915.91304
639.119	1839.88415
639.569	1825.88472
640.019	1909.78896
640.468	1922.67406
640.918	1886.88083
641.367	1930.67192
641.816	1942.64989
642.265	1992.88357
642.714	1955.78518
643.163	2049.87534
643.612	1995.10851
644.061	2042.54628
644.51	2099.86492
644.958	2024.66782
645.406	2084.04455
645.855	1995.06076
646.303	2123.9096
646.751	2025.86748
647.199	2095.81024
647.647	2092.91794
648.095	2076.82641
648.543	2159.37354
648.99	2103.0812
649.438	2089.89454
649.885	2095.2576
650.333	2133.20392
650.78	2145.13279
651.227	2110.17423
651.674	2015.80016
652.121	2087.17302
652.568	2044.13811
653.015	1989.14319
653.461	2002.97059
653.908	1972.79865
654.354	1993.97019
654.801	1956.88043
655.247	1863.50161
655.693	1907.31746
656.139	1895.91244
656.585	1905.92296
657.031	1882.84123
657.477	1851.53201
657.922	1806.64961
658.368	1752.92124
658.813	1766.62132
659.259	1773.88572
659.704	1800.81661
660.149	1689.61605
660.594	1711.74545
661.039	1667.55628
661.484	1715.73964
661.929	1752.71715
662.373	1614.87186
662.818	1657.85654
663.262	1708.81652
663.707	1626.94053
664.151	1633.77651
664.595	1647.76035
665.039	1649.86204
665.483	1679.99499
665.927	1681.67272
666.371	1630.64134
666.814	1686.72385
667.258	1701.79646
667.701	1660.31649
668.145	1705.92754
668.588	1688.89433
669.031	1661.66444
669.474	1683.75904
669.917	1678.4205
670.36	1661.89653
670.803	1707.80948
671.245	1673.18766
671.688	1657.78919
672.13	1693.54685
672.573	1664.94472
673.015	1674.77051
673.457	1674.39392
673.899	1683.78932
674.341	1640.73299
674.783	1707.7742
675.225	1673.84955
675.666	1682.83691
676.108	1660.35894
676.549	1624.59067
676.991	1678.42347
677.432	1735.12479
677.873	1648.53785
678.314	1618.66396
678.755	1730.90917
679.196	1573.4782
679.637	1574.64066
680.078	1618.59409
680.518	1629.53959
680.959	1511.55816
681.399	1563.75441
681.839	1545.66227
682.28	1609.81988
682.72	1507.41664
683.16	1558.7802
683.6	1568.45407
684.039	1547.12584
684.479	1545.72673
684.919	1545.55189
685.358	1435.62835
685.798	1475.84314
686.237	1502.55167
686.676	1496.36722
687.115	1541.5494
687.554	1505.56838
687.993	1525.32125
688.432	1449.35033
688.871	1489.40632
689.309	1442.50801
689.748	1474.08992
690.186	1426.40368
690.625	1474.47043
691.063	1440.4849
691.501	1476.65065
691.939	1468.70843
692.377	1448.54745
692.815	1466.6006
693.253	1406.43741
693.69	1403.17534
694.128	1377.4715
694.565	1375.38777
695.003	1444.73118
695.44	1429.4483
695.877	1372.36444
696.314	1320.98672
696.751	1370.24296
697.188	1365.30954
697.625	1302.13328
698.061	1304.33698
698.498	1251.23192
698.934	1307.33344
699.371	1247.21678
699.807	1243.21872
700.243	1255.29872
700.679	1195.00417
701.115	1272.21791
701.551	1235.16156
701.987	1197.95322
702.422	1232.23785
702.858	1212.21027
703.294	1263.16017
703.729	1227.28319
704.164	1127.09761
704.599	1177.98998
705.035	1163.98423
705.47	1133.15142
705.904	1097.98058
706.339	1116.98278
706.774	1148.07425
707.209	1098.99598
707.643	1051.99867
708.078	1088.09122
708.512	1011.05582
708.946	1070.998
709.38	1067.00226
709.814	1049.86006
710.248	1012.99656
710.682	1105.08391
711.116	1010.98424
711.549	960.01505
711.983	948.76803
712.416	1026.94303
712.85	918.87519
713.283	960.83285
713.716	958.9402
714.149	864.6469
714.582	919.66864
715.015	875.78204
715.448	923.92324
715.881	891.53839
716.313	831.6134
716.746	906.75714
717.178	792.60662
717.61	854.82695
718.043	796.66247
718.475	860.736
718.907	807.70294
719.339	780.48006
719.77	809.62734
720.202	765.63468
720.634	816.68697
721.065	756.507
721.497	760.58371
721.928	728.52367
722.359	742.54411
722.79	701.4422
723.221	671.44663
723.652	730.59713
724.083	675.29763
724.514	689.35385
724.945	692.3882
725.375	650.31583
725.806	696.4791
726.236	651.45677
726.666	696.40523
727.096	696.46626
727.526	667.50423
727.956	667.30994
728.386	649.3842
728.816	638.43614
729.246	609.32292
729.675	587.261
730.105	613.31298
730.534	580.18464
730.964	542.20438
731.393	604.29785
731.822	628.41131
732.251	541.22725
732.68	555.12965
733.109	604.3101
733.537	591.27451
733.966	584.29086
734.395	606.21991
734.823	557.07555
735.251	502.07837
735.68	549.20101
736.108	451.02196
736.536	524.0875
736.964	513.05539
737.392	487.09564
737.82	476.01935
738.247	483.03058
738.675	507.05895
739.102	425.96813
739.53	479.11711
739.957	514.19863
740.384	471.0184
740.811	430.97418
741.238	491.08298
741.665	461.97865
742.092	360.75877
742.519	413.93967
742.945	474.03909
743.372	469.05378
743.798	416.97608
744.225	404.87093
744.651	399.91553
745.077	432.98149
745.503	455.99158
745.929	450.98879
746.355	390.86849
746.781	349.79248
747.207	404.87728
747.632	437.99023
748.058	404.93608
748.483	427.88791
748.908	391.89574
749.334	402.90891
749.759	462.99423
750.184	419.92165
750.609	339.76915
751.033	364.77832
751.458	393.79463
751.883	366.82922
752.307	363.78541
752.732	345.82169
753.156	351.79864
753.58	347.75304
754.005	336.78196
754.429	410.8869
754.853	351.81025
755.277	364.79582
755.7	363.83161
756.124	333.76932
756.548	299.65745
756.971	355.79924
757.394	328.78016
757.818	333.80071
758.241	328.77686
758.664	327.76866
759.087	340.70685
759.51	279.64433
759.933	320.72031
760.356	284.69003
760.778	318.72693
761.201	351.78085
761.623	287.63584
762.046	273.59474
762.468	341.75231
762.89	279.63612
763.312	328.74556
763.734	304.68289
764.156	263.61077
764.578	304.64046
765	327.73862
765.421	279.67013
765.843	279.68663
766.264	196.43976
766.686	271.62959
767.107	231.52861
767.528	315.75687
767.949	230.55235
768.37	275.6404
768.791	205.46515
769.212	280.66294
769.632	267.58611
770.053	221.54812
770.473	202.46123
770.894	186.43478
771.314	265.58295
771.734	236.51665
772.154	194.47103
772.575	270.57884
772.994	211.44991
773.414	245.54551
773.834	193.45671
774.254	208.48028
774.673	253.58243
775.093	258.60448
775.512	219.51221
775.931	230.55193
776.351	207.4906
776.77	229.53161
777.189	204.45865
777.607	159.38902
778.026	226.532
778.445	169.41103
778.864	175.42243
779.282	179.40468
779.701	152.36504
780.119	206.49604
780.537	173.41018
780.955	174.41883
781.373	195.45662
781.791	240.51119
782.209	186.39549
782.627	183.46034
783.045	194.41555
783.462	172.41919
783.88	142.35368
784.297	161.38717
784.715	175.43135
785.132	158.36208
785.549	150.35832
785.966	201.47932
786.383	206.48228
786.8	206.44983
787.217	159.36298
787.633	204.48768
788.05	155.34198
788.466	181.3975
788.883	151.37247
789.299	123.27955
789.715	167.38799
790.131	162.38403
790.547	145.34525
790.963	175.41172
791.379	134.32512
791.795	164.34978
792.21	130.28797
792.626	129.28962
793.041	134.31557
793.457	125.29374
793.872	98.21916
794.287	116.27031
794.702	91.21218
795.117	117.28072
795.532	129.31281
795.947	124.28062
796.362	123.27399
796.776	130.28364
797.191	125.29363
797.605	115.26232
798.02	116.26999
798.434	190.3966
798.848	145.34592
799.262	84.2012
799.676	135.31415
800.09	128.30074
800.504	112.25883
800.918	70.15461
801.331	16.04001
801.745	152.32826
802.158	73.17455
802.572	106.24632
802.985	108.2472
803.398	113.25662
803.811	79.19164
804.224	93.21931
804.637	154.34965
805.05	109.23898
805.462	83.19497
805.875	90.22604
806.288	94.21947
806.7	92.21986
807.112	97.21294
807.525	55.129
807.937	48.11541
808.349	77.18447
808.761	160.37489
809.173	136.31529
809.584	97.22848
809.996	11.02623
810.408	99.24904
810.819	84.19002
811.231	147.37666
811.642	128.30448
812.053	150.34829
812.464	125.28179
812.875	129.31703
813.286	120.29899
813.697	96.20848
814.108	61.14296
814.519	143.30413
814.929	90.21992
815.34	44.10209
815.75	82.20276
816.16	66.1564
816.571	78.1947
816.981	85.18966
817.391	48.11079
817.801	56.13511
818.211	132.29775
818.62	60.14015
819.03	87.20389
819.44	26.06485
819.849	41.09894
820.259	65.15868
820.668	52.12422
821.077	92.22162
821.486	78.17767
821.895	59.13827
822.304	16.04126
822.713	76.17151
823.122	70.1678
823.531	35.07894
823.939	94.22042
824.348	89.20572
824.756	54.12979
825.164	67.16149
825.573	48.11659
825.981	74.17522
826.389	108.25869
826.797	95.23253
827.205	105.23138
827.612	78.18362
828.02	19.04299
828.428	63.15455
828.835	89.22725
829.243	61.13858
829.65	76.18329
830.057	75.17363
830.464	62.14743
830.871	64.14796
831.278	82.19003
831.685	37.07907
832.092	56.1306
832.499	61.12849
832.905	51.12376
833.312	46.09875
833.718	80.19286
834.124	95.20732
834.531	17.04118
834.937	74.18351
835.343	77.17628
835.749	50.11043
836.155	39.09906
836.561	72.17035
836.966	53.12426
837.372	72.17528
837.777	80.19206
838.183	108.22584
838.588	106.25312
838.993	33.07773
839.399	42.09968
839.804	45.10612
840.209	48.11969
840.613	80.16914
841.018	55.13352
841.423	101.24831
841.828	53.13011
842.232	43.10085
842.637	105.23854
843.041	25.06257
843.445	14.03383
843.849	58.13893
844.253	90.20326
844.657	60.14667
845.061	168.36391
845.465	31.07242
845.869	57.12703
846.272	76.17849
846.676	59.13442
847.079	51.12636
847.483	108.25602
847.886	68.15702
848.289	77.20096
848.692	33.08029
849.095	105.23874
849.498	51.12265
849.901	64.13905
850.304	52.11926
850.707	55.13467
851.109	95.22846
851.512	77.18194
851.914	30.07385
852.316	129.3141
852.718	77.19661
853.121	61.1438
853.523	39.08706
853.925	45.11495
854.326	80.1933
854.728	67.16661
855.13	61.15345
855.531	77.17656
855.933	60.13667
856.334	67.16204
856.736	57.12355
857.137	75.16832
857.538	44.10772
857.939	106.2537
858.34	40.09288
858.741	59.14826
859.142	101.22946
859.542	56.14392
859.943	57.13619
860.343	57.13692
860.744	103.23921
861.144	73.17235
861.544	74.17298
861.945	45.1106
862.345	84.19528
862.745	53.12789
863.145	41.09235
863.544	98.2376
863.944	80.18031
864.344	49.11555
864.743	79.18731
865.143	81.20171
865.542	18.03974
865.941	109.25804
866.34	64.14478
866.74	35.09131
867.139	91.21101
867.537	44.10696
867.936	78.1804
868.335	99.24007
868.734	46.11378
869.132	48.10553
869.531	105.23816
869.929	66.14455
870.327	83.18994
870.726	61.14447
871.124	79.17445
871.522	72.17548
871.92	75.17721
872.318	65.15114
872.715	91.21151
873.113	45.10488
873.511	61.14547
873.908	64.15825
874.306	69.16625
874.703	68.16151
875.1	18.04397
875.497	41.09417
875.894	109.25934
876.291	59.13941
876.688	50.12467
877.085	58.13238
877.482	67.16088
877.878	60.14064
878.275	62.15201
878.671	51.10482
879.068	94.21593
879.464	93.21402
879.86	62.14037
880.256	41.09579
880.652	15.037
881.048	58.13643
881.444	41.09232
881.84	46.11257
882.236	79.18998
882.631	65.15394
883.027	76.175
883.422	8.01974
883.817	38.09303
884.213	39.09677
884.608	71.17087
885.003	55.12607
885.398	62.1493
885.793	64.15353
886.188	27.06476
886.582	41.1005
886.977	77.17302
887.371	36.08725
887.766	25.06055
888.16	40.09446
888.554	57.13426
888.949	68.16369
889.343	104.24005
889.737	50.13025
890.131	61.14709
890.525	75.18548
890.918	48.11624
891.312	59.13366
891.706	47.11883
892.099	114.27514
892.492	121.24309
892.886	36.08465
893.279	55.13452
893.672	78.19187
894.065	56.135
894.458	25.06014
894.851	77.1789
895.244	15.03714
895.637	99.22765
896.029	107.25047
896.422	44.10201
896.814	46.10968
897.206	102.23431
897.599	105.24665
897.991	69.16082
898.383	110.24691
898.775	133.28594
899.167	99.22282
899.559	72.17305
899.951	84.18654
900.342	35.08506
900.734	76.18537
901.125	74.18519
901.517	59.1393
901.908	72.16215
902.299	71.16678
902.69	127.28583
903.082	76.17584
903.473	64.14931
903.863	50.12213
904.254	99.2209
904.645	54.12722
905.036	107.25164
905.426	109.23172
905.817	41.09612
906.207	-14.03202
906.597	78.17588
906.987	70.1727
907.378	115.27844
907.768	41.10528
908.158	49.11448
908.547	71.17899
908.937	31.07588
909.327	44.10245
909.717	53.12717
910.106	86.19574
910.495	59.13962
910.885	74.18022
911.274	58.13898
911.663	47.11376
912.052	68.15858
912.441	77.18931
912.83	30.06562
913.219	57.14313
913.608	115.26845
913.997	55.13402
914.385	82.18671
914.774	84.19458
915.162	80.18414
915.55	96.21894
915.939	51.12502
916.327	37.08824
916.715	87.21579
917.103	51.11826
917.491	81.19064
917.878	50.11775
918.266	54.13431
918.654	56.13892
919.041	81.20588
919.429	51.1153
919.816	64.15552
920.203	77.18031
920.591	57.13604
920.978	48.11291
921.365	72.18245
921.752	49.1101
922.139	102.20875
922.525	49.11349
922.912	65.15108
923.299	46.11022
923.685	43.10728
924.072	70.14956
924.458	80.19045
924.844	50.11903
925.231	32.07083
925.617	39.09691
926.003	26.06405
926.389	23.05609
926.774	32.07799
927.16	85.20107
927.546	61.15241
927.931	29.06934
928.317	46.10058
928.702	102.22745
929.088	115.2638
929.473	68.16758
929.858	91.21385
930.243	74.17162
930.628	82.19266
931.013	59.14059
931.398	61.13126
931.783	-7.01775
932.167	118.2767
932.552	50.12004
932.937	65.15352
933.321	50.12186
933.705	50.11976
934.09	42.09995
934.474	90.20086
934.858	32.08051
935.242	16.0356
935.626	55.13632
936.009	81.20937
936.393	71.17598
936.777	53.1316
937.16	83.20894
937.544	47.10418
937.927	48.11808
938.311	81.18708
938.694	99.25145
939.077	80.18252
939.46	50.115
939.843	85.16256
940.226	42.10332
940.609	110.24183
940.991	-1.00246
941.374	71.16717
941.757	108.25186
942.139	64.13757
942.522	68.1522
942.904	67.154
943.286	42.10244
943.668	98.24551
944.05	88.20692
944.432	30.07106
944.814	46.10766
945.196	43.10172
945.578	76.17563
945.959	20.04462
946.341	35.08096
946.722	58.12923
947.104	31.07134
947.485	65.14437
947.866	64.15621
948.247	99.24079
948.628	38.08722
949.009	32.07921
949.39	46.1093
949.771	30.06526
950.152	90.2108
950.532	116.27923
950.913	82.18807
951.293	52.13717
951.674	109.24994
952.054	106.25506
952.434	76.18079
952.814	60.13468
953.194	64.15877
953.574	66.15471
953.954	41.09232
954.334	94.22567
954.714	20.04734
955.093	80.18759
955.473	56.13618
955.853	83.20602
956.232	39.10345
956.611	46.10423
956.99	59.14307
957.37	37.09029
957.749	-3.00681
958.128	78.18939
958.506	72.17979
958.885	29.07038
959.264	77.18292
959.643	63.13766
960.021	64.15324
960.4	58.1251
960.778	106.24369
961.156	7.01693
961.535	36.07955
961.913	66.14827
962.291	25.06296
962.669	45.11047
963.047	46.11383
963.424	94.2326
963.802	57.13478
964.18	15.03607
964.557	69.15032
964.935	83.18673
965.312	55.1389
965.69	62.14726
966.067	2.00466
966.444	33.07667
966.821	45.11202
967.198	63.14417
967.575	61.14245
967.952	87.19396
968.329	61.14313
968.705	121.24488
969.082	68.17005
969.458	59.13762
969.835	62.14436
970.211	66.16463
970.587	80.19074
970.963	28.06875
971.339	59.14917
971.715	31.07483
972.091	62.14601
972.467	-1.00238
972.843	59.14232
973.219	101.22722
973.594	40.10115
973.97	15.03341
974.345	69.15847
974.721	17.03904
975.096	84.19543
975.471	95.21267
975.846	53.1209
976.221	38.09324
976.596	101.2341
976.971	116.27371
977.346	70.15364
977.72	11.027
978.095	10.02505
978.469	64.14508
978.844	65.15548
979.218	109.25184
979.593	33.07555
979.967	40.09167
980.341	85.18668
980.715	90.21705
981.089	39.0939
981.463	76.16582
981.837	60.14235
982.21	53.11424
982.584	79.18282
982.957	77.18517
983.331	47.10457
983.704	78.18555
984.078	95.22229
984.451	29.06826
984.824	64.15025
985.197	45.10306
985.57	30.07128
985.943	49.11376
986.316	54.12479
986.688	82.18777
987.061	112.24892
987.434	64.1627
987.806	29.06658
988.179	46.10342
988.551	39.09482
988.923	50.11734
989.295	83.19664
989.667	69.16006
990.039	99.23709
990.411	41.08872
990.783	49.10607
991.155	60.13866
991.527	99.22646
991.898	70.16786
992.27	90.2145
992.641	34.08156
993.012	52.11355
993.384	49.11123
993.755	90.22058
994.126	87.20101
994.497	31.0733
994.868	42.09102
995.239	20.04655
995.61	90.21631
995.98	41.09545
996.351	35.08414
996.722	94.20926
997.092	58.13206
997.462	64.1446
997.833	96.21336
998.203	30.06878
998.573	53.12726
998.943	129.28641
999.313	83.19055
999.683	86.19708
1000.053	36.07725
1000.423	32.07413
1000.792	26.06436
1001.162	23.05416
1001.531	86.20245
1001.901	9.02158
1002.27	49.10194
1002.639	12.02944
1003.009	61.13808
1003.378	72.17679
1003.747	63.14086
1004.116	38.08705
1004.485	20.04598
1004.853	10.02415
1005.222	13.03107
1005.591	72.16208
1005.959	61.13148
1006.328	66.1418
1006.696	20.04624
1007.064	24.05764
1007.433	30.07158
1007.801	69.1586
1008.169	-14.03397
1008.537	114.23648
1008.905	58.12998
1009.273	52.12203
1009.64	85.19561
1010.008	22.05032
1010.375	77.17444
1010.743	68.14402
1011.11	138.31358
1011.478	64.15277
1011.845	46.10275
1012.212	83.18029
1012.579	80.18759
1012.946	79.17634
1013.313	54.12151
1013.68	28.05982
1014.047	25.05726
1014.414	38.08582
1014.78	57.1364
1015.147	56.12766
1015.513	7.01628
1015.88	44.10736
1016.246	7.01646
1016.612	87.18648
1016.978	102.2389
1017.344	76.17968
1017.71	39.09054
1018.076	23.05147
1018.442	62.15364
1018.808	64.15482
1019.174	46.1101
1019.539	38.07967
1019.905	83.18703
1020.27	48.11335
1020.636	27.06124
1021.001	86.19629
1021.366	37.08573
1021.731	72.18012
1022.096	48.11764
1022.461	56.12694
1022.826	128.28897
1023.191	33.08373
1023.556	50.11117
1023.92	71.16476
1024.285	44.10168
1024.649	54.12574
1025.014	21.04948
1025.378	85.20534
1025.742	17.04034
1026.107	60.12841
1026.471	50.11053
1026.835	15.0359
1027.199	8.01863
1027.562	47.10305
1027.926	83.1917
1028.29	90.21738
1028.654	56.12203
1029.017	128.29792
1029.381	84.19142
1029.744	64.15662
1030.107	125.2781
1030.471	108.24601
1030.834	28.05985
1031.197	89.2031
1031.56	37.08307
1031.923	31.07756
1032.286	105.23264
1032.648	18.04075
1033.011	87.19211
1033.374	43.09539
1033.736	29.07387
1034.099	59.13762
1034.461	39.09571
1034.823	33.07951
1035.185	57.13609
1035.548	60.14031
1035.91	46.10516
1036.272	83.1799
1036.634	78.18155
1036.995	33.07363
1037.357	76.17724
1037.719	59.1374
1038.08	108.24451
1038.442	29.06591
1038.803	12.02726
1039.165	68.16325
1039.526	57.13175
1039.887	74.16822
1040.248	82.19619
1040.609	44.10302
1040.97	60.1396
1041.331	96.23327
1041.692	79.17868
1042.053	83.17737
1042.413	78.17105
1042.774	99.22883
1043.134	63.14075
1043.495	84.2012
1043.855	78.18233
1044.215	16.03806
1044.576	67.15394
1044.936	89.19143
1045.296	56.13378
1045.656	35.08148
1046.016	73.16659
1046.375	57.13212
1046.735	89.19464
1047.095	67.14925
1047.454	98.19174
1047.814	62.14237
1048.173	35.07881
1048.533	34.07447
1048.892	33.07643
1049.251	23.05519
1049.61	16.03805
1049.969	61.13645
1050.328	83.16944
1050.687	12.02794
1051.046	63.14574
1051.405	50.11793
1051.763	72.15916
1052.122	23.05519
1052.48	77.18052
1052.839	99.22437
1053.197	43.09662
1053.555	46.09743
1053.914	61.14195
1054.272	-1.00228
1054.63	81.18909
1054.988	73.16679
1055.345	60.12018
1055.703	93.21265
1056.061	66.16487
1056.419	89.22405
1056.776	29.06626
1057.134	47.1017
1057.491	31.07478
1057.848	53.12552
1058.206	13.02887
1058.563	40.08364
1058.92	86.18637
1059.277	107.24997
1059.634	20.04445
1059.991	106.24067
1060.348	31.06731
1060.704	114.26303
1061.061	31.06742
1061.418	48.11163
1061.774	48.11361
1062.131	70.18078
1062.487	47.10418
1062.843	25.05998
1063.199	65.15465
1063.555	90.19936
1063.911	54.12984
1064.267	110.20982
1064.623	82.19191
1064.979	-13.02859
1065.335	50.11297
1065.691	19.04304
1066.046	82.16934
1066.402	61.13058
1066.757	90.21656
1067.112	33.07737
1067.468	79.17991
1067.823	22.04967
1068.178	60.13739
1068.533	84.19335
1068.888	77.17366
1069.243	53.12528
1069.598	32.07407
1069.952	87.1897
1070.307	29.0695
1070.662	102.23234
1071.016	85.1829
1071.371	81.17542
1071.725	38.0861
1072.079	74.16979
1072.434	35.08199
1072.788	19.04282
1073.142	70.16447
1073.496	28.06352
1073.85	63.13848
1074.203	33.07694
1074.557	69.17872
1074.911	109.24331
1075.265	83.18244
1075.618	48.11234
1075.971	61.13802
1076.325	68.1669
1076.678	82.17762
1077.031	7.01486
1077.385	58.12042
1077.738	70.14917
1078.091	37.08123
1078.444	111.23895
1078.796	97.2275
1079.149	62.14783
1079.502	71.16084
1079.855	85.18801
1080.207	94.21887
1080.56	58.14504
1080.912	66.15283
1081.264	65.14994
1081.617	36.08458
1081.969	59.14366
1082.321	57.13243
1082.673	84.18467
1083.025	36.08117
1083.377	76.16933
1083.728	26.05774
1084.08	42.09991
1084.432	46.10563
1084.783	43.09404
1085.135	60.14476
1085.486	60.13147
1085.838	89.20923
1086.189	61.14279
1086.54	30.06834
1086.891	60.14852
1087.242	130.30412
1087.593	45.10306
1087.944	114.24483
1088.295	89.19019
1088.646	151.35068
1088.996	21.04902
1089.347	56.13044
1089.698	59.13469
1090.048	19.0474
1090.398	25.05509
1090.749	52.11754
1091.099	54.1321
1091.449	56.13424
1091.799	55.13187
1092.149	59.13984
1092.499	44.1029
1092.849	46.11261
1093.199	57.13541
1093.548	61.14161
1093.898	30.07191
1094.248	50.12209
1094.597	47.11709
1094.947	52.13411
1095.296	81.19176
1095.645	16.04008
1095.994	55.12612
1096.343	56.13567
1096.692	64.1646
1097.041	71.18833
1097.39	26.06242
1097.739	39.09765
1098.088	36.09252
1098.437	74.18965
1098.785	32.08279
1099.134	32.08069
1099.482	60.16003
1099.83	37.09394
1100.179	102.2593
1100.527	-7.01789
1100.875	57.14642
1101.223	58.14953
1101.571	26.06953
1101.919	59.15203
1102.267	27.0747
1102.615	12.0385
1102.962	16.05124
1103.31	13.0417
1103.658	-5.01604
