Data from N2 R10 sample 7_Subt2__3__13-22-15-246.txt Node

Date: Mon Sep 01 13:22:15 PDT 2025
User: uwsun
Spectrometer: HDX01956
Trigger mode: 0
Integration Time (sec): 5.000000E-1
Scans to average: 1
Nonlinearity correction enabled: true
Boxcar width: 0
Storing dark spectrum: false
XAxis mode: Wavelengths
Number of Pixels in Spectrum: 2068
>>>>>Begin Spectral Data<<<<<
194.03	250.67441
194.578	249.76283
195.127	261.78584
195.676	249.75337
196.225	287.72448
196.773	341.88338
197.321	438.08717
197.87	637.38792
198.418	584.26774
198.966	552.21445
199.513	515.0814
200.061	500.07315
200.609	578.29989
201.156	521.94208
201.704	541.14358
202.251	531.19332
202.798	557.21854
203.345	609.25268
203.892	574.20788
204.438	560.11836
204.985	571.11108
205.532	548.21672
206.078	602.22353
206.624	628.26369
207.17	592.13316
207.716	571.14855
208.262	611.96815
208.808	543.10969
209.354	581.1687
209.899	687.42731
210.445	610.24601
210.99	572.13867
211.535	668.27521
212.08	591.13424
212.625	628.30023
213.17	665.38585
213.715	593.06589
214.259	618.18188
214.804	655.33172
215.348	643.19744
215.892	627.23647
216.436	625.19096
216.98	608.10383
217.524	591.15389
218.068	635.32501
218.612	601.26506
219.155	560.09818
219.698	571.1343
220.242	538.13946
220.785	567.1059
221.328	527.1154
221.871	560.20524
222.414	576.20944
222.956	491.00233
223.499	513.97313
224.041	605.17289
224.583	548.9932
225.126	552.01263
225.668	497.02746
226.21	508.08801
226.751	483.88896
227.293	558.06692
227.835	467.97756
228.376	578.11538
228.918	543.16585
229.459	523.10064
230	582.15323
230.541	540.04491
231.082	532.08742
231.622	524.01776
232.163	530.08088
232.704	521.09209
233.244	558.16231
233.784	583.19966
234.324	517.94153
234.864	511.97454
235.404	613.20769
235.944	580.14658
236.484	548.15612
237.023	534.05647
237.563	509.98863
238.102	535.06019
238.641	558.18755
239.18	546.05907
239.719	552.1661
240.258	526.99025
240.797	575.1396
241.335	583.18997
241.874	552.86024
242.412	587.16614
242.95	579.13952
243.488	555.05015
244.026	530.01573
244.564	617.02081
245.102	602.10068
245.64	563.13399
246.177	590.08304
246.715	567.1342
247.252	608.14475
247.789	623.93799
248.326	591.16209
248.863	510.9276
249.4	583.08764
249.936	582.96814
250.473	570.09254
251.009	615.14065
251.546	573.02986
252.082	607.07603
252.618	554.01018
253.154	564.11698
253.69	524.97825
254.226	604.17793
254.761	554.02091
255.297	580.02886
255.832	575.11622
256.367	589.13529
256.903	582.03509
257.438	603.15731
257.972	589.0641
258.507	553.03309
259.042	601.05045
259.576	561.97309
260.111	595.1216
260.645	598.04382
261.179	582.1043
261.713	578.0402
262.247	644.19247
262.781	546.92473
263.315	562.13015
263.849	583.19589
264.382	662.21611
264.915	595.12545
265.449	515.03
265.982	637.16158
266.515	594.17925
267.048	494.85613
267.58	622.08924
268.113	600.03134
268.646	589.18373
269.178	601.07089
269.71	648.11882
270.243	639.16523
270.775	549.15241
271.307	595.16777
271.838	656.25287
272.37	613.22015
272.902	656.18331
273.433	601.04603
273.965	612.2026
274.496	562.14937
275.027	650.29181
275.558	588.15373
276.089	541.0796
276.62	632.30503
277.15	625.24638
277.681	621.06896
278.211	641.26294
278.741	635.0937
279.272	632.1376
279.802	691.36928
280.332	677.25027
280.861	672.27728
281.391	628.12056
281.921	643.23542
282.45	661.3189
282.98	676.40911
283.509	659.1557
284.038	646.15334
284.567	705.28455
285.096	688.3033
285.625	618.10268
286.153	670.22219
286.682	639.14111
287.21	579.11277
287.739	669.23177
288.267	661.25054
288.795	724.50127
289.323	692.24011
289.851	769.36464
290.378	691.18659
290.906	665.24646
291.433	717.38447
291.961	726.2392
292.488	715.37664
293.015	711.27195
293.542	741.43567
294.069	689.30488
294.596	731.39199
295.122	708.2897
295.649	705.17262
296.175	785.43496
296.702	715.32916
297.228	760.40142
297.754	753.25406
298.28	697.18925
298.806	776.38957
299.332	718.17365
299.857	728.2193
300.383	770.47952
300.908	705.2839
301.433	720.31359
301.958	748.28918
302.483	724.35893
303.008	753.40063
303.533	758.50119
304.058	780.3595
304.582	702.23291
305.107	725.42805
305.631	776.29566
306.155	781.31581
306.679	758.28702
307.203	808.34408
307.727	796.36848
308.251	766.39558
308.775	746.28094
309.298	725.26508
309.822	837.52945
310.345	863.44098
310.868	782.34363
311.391	872.52667
311.914	838.49777
312.437	904.42207
312.96	840.38291
313.482	874.43429
314.005	875.54518
314.527	881.63758
315.049	835.50736
315.571	871.29088
316.093	903.53933
316.615	904.47957
317.137	947.33705
317.659	973.58982
318.18	970.56682
318.702	938.43843
319.223	891.17133
319.744	916.33444
320.265	941.4963
320.786	940.52673
321.307	980.59373
321.828	1011.43068
322.348	1014.50258
322.869	994.46832
323.389	993.87654
323.909	1023.4505
324.43	1060.60737
324.95	1080.47378
325.47	1050.58456
325.989	1073.50944
326.509	1090.36286
327.029	1076.39326
327.548	1113.40892
328.067	1104.54403
328.587	1142.67402
329.106	1145.44684
329.625	1196.88606
330.144	1116.43573
330.662	1103.41837
331.181	1147.47851
331.7	1150.47385
332.218	1222.33927
332.736	1284.55261
333.255	1260.50359
333.773	1240.52344
334.291	1291.71158
334.808	1261.36826
335.326	1304.4185
335.844	1317.4491
336.361	1339.6741
336.879	1284.41818
337.396	1322.51503
337.913	1397.42352
338.43	1492.39381
338.947	1438.50905
339.464	1416.21256
339.981	1376.42757
340.497	1494.60947
341.014	1475.53087
341.53	1448.29241
342.046	1483.5183
342.562	1554.61179
343.078	1489.39031
343.594	1529.43635
344.11	1529.41008
344.626	1607.58086
345.141	1549.26302
345.657	1662.2917
346.172	1630.41739
346.687	1649.25974
347.202	1618.17496
347.717	1729.3581
348.232	1735.49257
348.747	1732.21319
349.261	1666.00396
349.776	1739.24584
350.29	1728.32948
350.805	1871.41354
351.319	1768.18605
351.833	1776.05182
352.347	1820.1671
352.861	1816.11672
353.374	1903.11233
353.888	1782.22326
354.401	1904.04401
354.915	1742.92141
355.428	1881.2286
355.941	1957.99649
356.454	2026.9309
356.967	1926.06019
357.48	2015.95551
357.993	1950.15338
358.505	2027.07767
359.018	2061.07147
359.53	2074.97387
360.042	2103.74438
360.554	2130.98949
361.066	2034.98091
361.578	2118.6347
362.09	2185.86834
362.602	2137.60958
363.113	2207.72018
363.625	2227.5965
364.136	2279.5156
364.647	2107.6026
365.158	2314.60279
365.669	2274.69727
366.18	2304.61954
366.691	2279.41829
367.201	2280.62085
367.712	2290.42626
368.222	2338.39964
368.733	2413.16056
369.243	2400.18401
369.753	2492.2722
370.263	2520.32325
370.773	2527.39
371.282	2538.19537
371.792	2531.94822
372.301	2824.95169
372.811	2749.2255
373.32	2717.54982
373.829	2671.76174
374.338	3032.36688
374.847	2999.37982
375.356	3039.35511
375.865	3123.98282
376.373	3362.92003
376.882	3496.07848
377.39	3473.91856
377.898	3510.78666
378.407	3692.58623
378.915	3854.52698
379.423	4076.52331
379.93	4228.55473
380.438	4291.59546
380.946	4571.84955
381.453	4711.08455
381.96	4823.51342
382.468	5148.66686
382.975	5574.56213
383.482	5736.86387
383.989	5668.19538
384.495	5827.13176
385.002	6199.92042
385.509	6584.77238
386.015	7050.32415
386.521	7453.0107
387.028	7557.12252
387.534	7752.04867
388.04	8286.83456
388.546	8250.98427
389.051	8417.37513
389.557	9253.36341
390.063	10417.9104
390.568	10614.10207
391.073	10591.70011
391.578	10942.53134
392.084	11447.11302
392.589	11389.10052
393.093	11914.14131
393.598	13492.45305
394.103	14671.66177
394.607	16219.50118
395.112	17620.06934
395.616	18386.35931
396.12	19576.49859
396.624	21452.0294
397.128	23515.32036
397.632	26533.38962
398.136	28823.64579
398.639	28822.18478
399.143	30697.1137
399.646	28158.79328
400.15	25083.82847
400.653	20124.16724
401.156	13866.23708
401.659	5169.95759
402.162	1054.15589
402.664	0
403.167	0
403.67	0
404.172	0
404.674	0
405.176	0
405.678	0
406.18	0
406.682	0
407.184	0
407.686	0
408.187	0
408.688	0
409.19	0
409.691	0
410.192	0
410.693	0
411.194	435.30976
411.694	4082.94878
412.195	8864.71461
412.696	12089.80453
413.196	12760.96929
413.696	12863.67595
414.196	13703.56671
414.696	17261.84252
415.196	21764.24417
415.696	29583.19008
416.196	36460.31858
416.695	40057.39798
417.195	35088.86285
417.694	33415.8995
418.194	31947.28548
418.693	28944.37599
419.192	28085.5244
419.691	27405.86994
420.19	27381.16728
420.688	27061.94609
421.187	26057.95089
421.685	24837.28828
422.184	22632.77214
422.682	19442.87337
423.18	15915.92383
423.678	14092.33337
424.176	13098.44784
424.674	12265.88497
425.172	12014.79798
425.669	11366.34672
426.167	10657.94727
426.664	9704.09673
427.161	8691.43852
427.659	8026.95925
428.156	7362.17524
428.652	7106.63009
429.149	6710.49837
429.646	6523.56215
430.143	6292.1005
430.639	5728.19263
431.135	5450.01316
431.632	5037.42353
432.128	4745.85588
432.624	4387.57462
433.12	4213.61139
433.616	4105.5644
434.111	3842.52047
434.607	3795.55128
435.103	3753.54345
435.598	3755.55508
436.093	3570.79267
436.588	3323.93011
437.083	3169.10258
437.578	3060.2779
438.073	2672.66549
438.568	2872.71897
439.062	2748.48205
439.557	2680.86978
440.051	2433.90708
440.546	2356.98174
441.04	2408.14576
441.534	2277.43834
442.028	2344.31722
442.522	2201.37929
443.015	2136.20639
443.509	2172.54047
444.002	1977.60703
444.496	2020.33361
444.989	2000.65981
445.482	1950.72717
445.975	2002.43831
446.468	1947.37346
446.961	1919.39686
447.454	1913.56426
447.947	1829.67893
448.439	1813.8223
448.931	1712.61467
449.424	1797.97359
449.916	1806.8666
450.408	1628.67992
450.9	1628.87257
451.392	1684.00683
451.884	1631.81112
452.375	1478.963
452.867	1517.83041
453.358	1535.7872
453.849	1412.68164
454.341	1385.80925
454.832	1490.72748
455.323	1335.98594
455.814	1482.91526
456.304	1396.92198
456.795	1371.91261
457.285	1421.91272
457.776	1369.98098
458.266	1355.02119
458.756	1396.10115
459.247	1242.00873
459.737	1171.99476
460.226	1195.9077
460.716	1245.0678
461.206	1142.0591
461.695	1206.20963
462.185	1155.05857
462.674	1119.01487
463.163	1169.97134
463.653	1094.85478
464.142	1068.08972
464.63	1058.14374
465.119	921.94526
465.608	1003.0011
466.096	1004.93878
466.585	999.0517
467.073	987.11884
467.561	984.13105
468.05	959.06296
468.538	930.14987
469.026	903.08597
469.513	901.88445
470.001	908.0063
470.489	847.03067
470.976	891.04825
471.463	827.13142
471.951	834.16221
472.438	790.00824
472.925	704.92004
473.412	815.14251
473.899	720.94612
474.385	762.09345
474.872	691.93764
475.359	714.03583
475.845	690.80502
476.331	709.90252
476.817	643.98096
477.303	635.90973
477.789	671.00555
478.275	569.9145
478.761	572.89665
479.247	596.85027
479.732	532.87808
480.218	546.9644
480.703	572.9494
481.188	514.71883
481.673	569.85606
482.158	450.62882
482.643	521.92863
483.128	471.72983
483.612	532.84697
484.097	470.81755
484.581	483.7872
485.066	370.65242
485.55	414.63562
486.034	423.64042
486.518	367.62297
487.002	355.63726
487.486	379.68
487.969	310.56721
488.453	392.74085
488.936	362.59969
489.42	374.60964
489.903	327.63329
490.386	-118.16069
490.869	405.65112
491.352	372.69857
491.835	415.6283
492.318	356.6038
492.8	375.57485
493.283	269.53743
493.765	304.58213
494.247	297.54548
494.73	265.45686
495.212	312.596
495.694	233.43009
496.175	204.38364
496.657	297.55648
497.139	309.41056
497.62	176.33538
498.102	233.46464
498.583	240.48761
499.064	161.29003
499.545	241.44039
500.026	214.38522
500.507	210.3955
500.988	232.47007
501.469	179.36824
501.949	189.38654
502.43	124.24354
502.91	159.26708
503.39	196.40767
503.87	184.35421
504.35	223.43311
504.83	174.31208
505.31	140.28301
505.79	162.32102
506.269	165.32154
506.749	138.26195
507.228	115.22623
507.707	152.27951
508.187	187.37343
508.666	111.23
509.145	105.20676
509.623	105.20861
510.102	138.28243
510.581	142.29114
511.059	35.07564
511.538	121.2682
512.016	138.27923
512.494	96.20003
512.972	123.2495
513.45	28.05562
513.928	98.20284
514.406	42.08662
514.884	115.25309
515.361	118.24084
515.839	27.05334
516.316	72.14936
516.793	97.21249
517.27	134.27871
517.747	54.12051
518.224	114.22633
518.701	146.27578
519.178	38.08186
519.654	66.13709
520.131	65.13987
520.607	102.21962
521.083	90.17726
521.56	34.07034
522.036	67.12789
522.512	91.1959
522.987	45.09291
523.463	55.11417
523.939	83.17775
524.414	100.20067
524.89	74.15323
525.365	104.20339
525.84	42.08693
526.315	76.15949
526.79	93.182
527.265	86.17058
527.74	25.05382
528.215	72.14842
528.689	-7.01376
529.164	124.23261
529.638	73.16538
530.112	11.02294
530.587	55.10223
531.061	20.04262
531.534	37.07962
532.008	64.13496
532.482	68.1374
532.956	30.06762
533.429	94.19952
533.903	68.13248
534.376	49.09553
534.849	22.04539
535.322	58.12091
535.795	81.17437
536.268	14.02999
536.741	61.12973
537.213	66.13477
537.686	40.08624
538.158	8.0159
538.631	90.1932
539.103	14.02786
539.575	127.23007
540.047	53.10308
540.519	64.13573
540.991	94.20318
541.463	92.19622
541.934	73.14727
542.406	77.16148
542.877	87.17244
543.348	95.20231
543.82	141.30235
544.291	144.29324
544.762	80.16662
545.233	125.27325
545.703	96.18507
546.174	184.36735
546.645	120.24759
547.115	164.34005
547.585	182.35846
548.056	115.23904
548.526	156.31304
548.996	279.56129
549.466	293.59923
549.935	267.52328
550.405	270.48678
550.875	221.43866
551.344	298.59108
551.814	355.66188
552.283	374.65499
552.752	340.63879
553.221	347.60146
553.69	400.70422
554.159	391.76739
554.628	438.76307
555.096	386.78781
555.565	457.79682
556.033	499.92626
556.502	469.90702
556.97	441.7807
557.438	457.87239
557.906	482.92212
558.374	490.90162
558.842	506.97132
559.31	506.90678
559.777	491.9573
560.245	576.07641
560.712	557.02876
561.18	621.06383
561.647	648.1212
562.114	596.06663
562.581	724.38298
563.048	700.24804
563.514	780.45634
563.981	787.36126
564.448	798.34198
564.914	862.49568
565.381	982.60771
565.847	980.6625
566.313	968.63501
566.779	1120.7423
567.245	1082.78195
567.711	1109.86547
568.176	1129.73346
568.642	1215.09981
569.108	1271.11156
569.573	1347.0866
570.038	1367.80156
570.504	1427.99611
570.969	1411.32012
571.434	1419.92713
571.899	1496.23055
572.363	1552.1417
572.828	1674.25111
573.293	1712.27025
573.757	1751.29632
574.222	1728.17187
574.686	1734.18558
575.15	1768.41242
575.614	1760.28771
576.078	1842.40952
576.542	1855.32029
577.006	1882.29115
577.469	1923.68811
577.933	1817.22468
578.396	1928.51975
578.86	1847.44268
579.323	1765.42139
579.786	1816.12331
580.249	1826.29805
580.712	1798.55516
581.175	1712.52031
581.637	1707.30153
582.1	1764.17711
582.563	1637.0459
583.025	1574.35521
583.487	1576.82034
583.95	1466.91267
584.412	1544.92337
584.874	1444.25309
585.336	1384.12762
585.797	1390.88911
586.259	1309.05791
586.721	1247.96866
587.182	1297.03306
587.643	1207.85941
588.105	1186.93464
588.566	1176.66228
589.027	1129.90027
589.488	1071.72338
589.949	1123.92188
590.41	1067.39887
590.87	1112.78009
591.331	1069.61579
591.791	972.62493
592.252	971.60069
592.712	979.72305
593.172	969.57709
593.632	940.50281
594.092	885.46006
594.552	874.38659
595.011	867.47858
595.471	910.49689
595.931	827.38371
596.39	848.53049
596.849	831.46119
597.308	871.4012
597.768	784.54191
598.227	825.51507
598.685	869.4995
599.144	795.41892
599.603	837.50251
600.062	751.19254
600.52	790.33138
600.978	787.43138
601.437	780.36737
601.895	808.28079
602.353	826.37939
602.811	834.38594
603.269	807.47452
603.727	851.53709
604.184	804.36387
604.642	795.49428
605.099	870.50721
605.557	886.62203
606.014	851.35036
606.471	791.51009
606.928	869.35538
607.385	924.64761
607.842	1002.63967
608.299	1060.75426
608.755	1005.75145
609.212	1081.66619
609.668	979.53745
610.125	1078.8569
610.581	1098.86542
611.037	1100.78174
611.493	1033.77395
611.949	963.70717
612.405	941.34787
612.861	1032.7727
613.316	977.71684
613.772	932.58764
614.227	1004.72996
614.683	1050.60348
615.138	989.69635
615.593	1048.75819
616.048	1017.70089
616.503	976.79882
616.958	997.86097
617.412	940.66673
617.867	923.5112
618.321	977.47252
618.776	956.57021
619.23	941.66203
619.684	945.60338
620.138	970.69517
620.592	871.6382
621.046	903.62791
621.5	874.64748
621.954	880.52781
622.407	904.53898
622.861	844.60949
623.314	847.50572
623.768	792.46273
624.221	797.21743
624.674	770.41635
625.127	829.53235
625.58	825.49306
626.033	770.36535
626.485	732.42328
626.938	743.43956
627.39	767.44156
627.843	759.4237
628.295	694.32301
628.747	720.40788
629.199	676.27367
629.651	657.24296
630.103	648.24175
630.555	611.08819
631.006	679.33167
631.458	618.23725
631.909	622.21769
632.361	619.22982
632.812	584.15612
633.263	578.06843
633.714	584.07308
634.165	570.20051
634.616	545.13091
635.067	517.0082
635.518	533.1168
635.968	577.9998
636.419	494.95103
636.869	524.10009
637.319	469.96785
637.769	401.81229
638.219	498.06058
638.669	396.85955
639.119	481.05114
639.569	424.92775
640.019	509.04762
640.468	429.86861
640.918	441.96474
641.367	452.91581
641.816	417.84973
642.265	347.74342
642.714	401.84981
643.163	414.86989
643.612	375.82731
644.061	405.78136
644.51	400.83492
644.958	349.71084
645.406	320.7147
645.855	353.80449
646.303	395.85172
646.751	337.71357
647.199	392.82149
647.647	383.81344
648.095	364.7736
648.543	365.69506
648.99	316.70781
649.438	356.78096
649.885	352.81337
650.333	356.64218
650.78	368.8263
651.227	333.75891
651.674	334.71294
652.121	378.85501
652.568	300.68772
653.015	405.95009
653.461	346.76989
653.908	366.79579
654.354	368.82087
654.801	337.74131
655.247	317.65772
655.693	323.79459
656.139	348.783
656.585	391.87306
657.031	284.62828
657.477	373.75074
657.922	335.72577
658.368	362.8388
658.813	403.87381
659.259	372.83527
659.704	345.75636
660.149	325.71612
660.594	349.78026
661.039	325.7008
661.484	357.8044
661.929	341.75389
662.373	314.75174
662.818	357.83458
663.262	318.72664
663.707	347.8312
664.151	342.79121
664.595	299.68804
665.039	362.85074
665.483	343.82725
665.927	386.8546
666.371	298.6576
666.814	334.75858
667.258	328.73619
667.701	414.83652
668.145	384.90137
668.588	337.7866
669.031	340.75779
669.474	347.79337
669.917	352.7406
670.36	340.80217
670.803	388.88369
671.245	376.74858
671.688	332.77326
672.13	363.76996
672.573	377.90716
673.015	336.76961
673.457	349.72281
673.899	386.88411
674.341	381.86968
674.783	349.79569
675.225	333.78184
675.666	320.73503
676.108	376.77368
676.549	391.87594
676.991	374.78169
677.432	367.69275
677.873	392.85739
678.314	365.82847
678.755	367.84819
679.196	322.70698
679.637	390.90294
680.078	373.83013
680.518	384.84982
680.959	373.84868
681.399	429.9993
681.839	403.92655
682.28	369.86499
682.72	390.84436
683.16	398.93678
683.6	474.005
684.039	330.66006
684.479	391.9083
684.919	381.83104
685.358	448.06452
685.798	427.05153
686.237	446.00999
686.676	498.07069
687.115	466.0198
687.554	439.97819
687.993	472.97207
688.432	451.9641
688.871	431.91777
689.309	419.9429
689.748	448.87657
690.186	459.02452
690.625	452.99109
691.063	384.87423
691.501	461.06452
691.939	445.0389
692.377	495.11912
692.815	435.97689
693.253	457.02761
693.69	475.97099
694.128	446.0104
694.565	478.06063
695.003	520.21976
695.44	479.04588
695.877	445.97349
696.314	567.10957
696.751	530.1127
697.188	471.00623
697.625	589.22998
698.061	498.10646
698.498	564.2497
698.934	548.21118
699.371	512.11169
699.807	489.07361
700.243	558.22869
700.679	509.06454
701.115	555.1983
701.551	546.1801
701.987	555.14144
702.422	506.11076
702.858	535.17182
703.294	576.18763
703.729	569.27361
704.164	520.15495
704.599	546.11256
705.035	540.1058
705.47	525.17644
705.904	540.15367
706.339	582.23387
706.774	587.24909
707.209	545.15054
707.643	566.24268
708.078	609.34422
708.512	518.19613
708.946	593.29303
709.38	594.27852
709.814	522.09925
710.248	570.27035
710.682	566.22913
711.116	511.12388
711.549	556.31952
711.983	532.12919
712.416	551.19473
712.85	558.27635
713.283	568.2272
713.716	568.30862
714.149	549.20152
714.582	539.10898
715.015	539.24444
715.448	568.31225
715.881	513.035
716.313	503.09003
716.746	548.1814
717.178	467.0467
717.61	583.35148
718.043	524.20664
718.475	505.13342
718.907	561.30504
719.339	438.93044
719.77	455.00637
720.202	480.13106
720.634	505.1362
721.065	464.02567
721.497	527.1911
721.928	476.08766
722.359	435.9845
722.79	459.02494
723.221	483.13263
723.652	497.19358
724.083	441.93171
724.514	469.00282
724.945	387.86306
725.375	410.89675
725.806	434.01892
726.236	436.05063
726.666	466.02839
727.096	438.00871
727.526	393.94708
727.956	417.8922
728.386	413.96129
728.816	375.90304
729.246	350.8126
729.675	363.8516
730.105	383.8964
730.534	378.84073
730.964	381.91713
731.393	391.92335
731.822	389.94417
732.251	368.89071
732.68	380.85183
733.109	356.83795
733.537	349.80564
733.966	388.91467
734.395	368.80898
734.823	389.8323
735.251	342.7887
735.68	350.8395
736.108	371.89476
736.536	358.80615
736.964	353.78204
737.392	316.76143
737.82	363.83094
738.247	320.73738
738.675	373.84902
739.102	319.76618
739.53	274.67644
739.957	299.74261
740.384	316.75134
740.811	295.72305
741.238	282.66664
741.665	246.55625
742.092	300.69213
742.519	266.63903
742.945	286.66456
743.372	273.65572
743.798	293.72824
744.225	280.64497
744.651	251.61363
745.077	239.58191
745.503	274.64874
745.929	255.5957
746.355	304.7303
746.781	220.53435
747.207	167.38769
747.632	187.44901
748.058	239.58234
748.483	204.46223
748.908	187.45803
749.334	197.47625
749.759	223.51502
750.184	162.38225
750.609	249.59649
751.033	267.61368
751.458	204.45075
751.883	212.5157
752.307	207.47864
752.732	151.3737
753.156	193.46922
753.58	223.51911
754.005	187.46786
754.429	178.4133
754.853	180.43983
755.277	179.4185
755.7	157.38598
756.124	168.41203
756.548	151.35526
756.971	204.48954
757.394	185.46953
757.818	185.46887
758.241	219.54395
758.664	120.30203
759.087	169.37318
759.51	180.44195
759.933	157.37426
760.356	157.39847
760.778	138.33733
761.201	166.39973
761.623	192.459
762.046	222.51628
762.468	179.4249
762.89	188.45732
763.312	163.39406
763.734	108.26007
764.156	149.36496
764.578	148.33862
765	125.30402
765.421	104.26364
765.843	145.37686
766.264	162.38773
766.686	167.41466
767.107	113.2735
767.528	63.1599
767.949	132.33366
768.37	114.27929
768.791	139.3344
769.212	84.21135
769.632	101.23559
770.053	143.37319
770.473	134.32414
770.894	168.41569
771.314	156.36952
771.734	104.24263
772.154	122.31179
772.575	131.30255
772.994	85.19405
773.414	92.22162
773.834	91.22777
774.254	123.29983
774.673	116.28187
775.093	85.21075
775.512	73.1806
775.931	126.31759
776.351	96.23833
776.77	59.14522
777.189	64.15336
777.607	72.18446
778.026	128.31684
778.445	41.10347
778.864	132.33616
779.282	87.20978
779.701	83.20954
780.119	58.14734
780.537	88.21966
780.955	110.27894
781.373	84.20808
781.791	59.13371
782.209	108.24869
782.627	87.22899
783.045	78.18018
783.462	86.21971
783.88	60.15581
784.297	92.23123
784.715	40.10345
785.132	120.28896
785.549	58.14583
785.966	103.25827
786.383	73.18007
786.8	110.25481
787.217	97.22972
787.633	88.21942
788.05	169.3959
788.466	135.31601
788.883	72.18388
789.299	75.18112
789.715	96.23301
790.131	83.20647
790.547	79.19752
790.963	87.21587
791.379	88.22221
791.795	119.27024
792.21	62.14578
792.626	90.21352
793.041	43.10693
793.457	76.18813
793.872	48.11374
794.287	56.13434
794.702	117.28659
795.117	95.23537
795.532	41.10344
795.947	98.23545
796.362	67.1607
796.776	140.32495
797.191	33.08152
797.605	29.06879
798.02	85.20674
798.434	104.23105
798.848	86.21155
799.262	62.15426
799.676	105.25519
800.09	63.15552
800.504	115.2774
800.918	106.24457
801.331	88.23025
801.745	102.23356
802.158	60.15048
802.572	92.2228
802.985	95.22915
803.398	100.2377
803.811	115.29374
804.224	78.19421
804.637	52.12455
805.05	49.11439
805.462	63.15529
805.875	19.04969
806.288	57.13801
806.7	85.21329
807.112	95.21976
807.525	89.21922
807.937	87.21461
808.349	84.21013
808.761	60.14809
809.173	64.15552
809.584	165.4013
809.996	17.04207
810.408	91.23399
810.819	75.17652
811.231	96.24689
811.642	122.2882
812.053	194.45081
812.464	222.51301
812.875	213.53079
813.286	104.26616
813.697	131.3034
814.108	114.27659
814.519	66.1476
814.929	140.35287
815.34	65.15797
815.75	75.19043
816.16	58.14499
816.571	99.25589
816.981	79.18652
817.391	73.17635
817.801	49.1222
818.211	105.24896
818.62	74.17813
819.03	91.22232
819.44	75.19574
819.849	57.14401
820.259	96.24465
820.668	51.1259
821.077	40.09988
821.486	70.16876
821.895	105.25796
822.304	72.19063
822.713	87.20517
823.122	92.22873
823.531	54.12851
823.939	85.20658
824.348	42.10271
824.756	89.2222
825.164	93.23311
825.573	60.1508
825.981	105.25881
826.389	102.25479
826.797	51.12816
827.205	76.17431
827.612	97.23822
828.02	15.03561
828.428	117.29538
828.835	65.17108
829.243	103.24403
829.65	78.19357
830.057	73.17709
830.464	94.22798
830.871	146.34463
831.278	93.22382
831.685	69.15415
832.092	96.23388
832.499	50.10993
832.905	95.23932
833.312	70.15977
833.718	109.26956
834.124	90.20492
834.531	85.2136
834.937	95.24257
835.343	62.14981
835.749	107.24821
836.155	83.21661
836.561	84.20595
836.966	85.2072
837.372	60.15286
837.777	86.21343
838.183	100.22105
838.588	58.1442
838.993	84.20388
839.399	33.08116
839.804	12.02953
840.209	45.1149
840.613	89.19719
841.018	49.12441
841.423	84.21468
841.828	35.08896
842.232	119.29192
842.637	85.19983
843.041	44.11312
843.445	53.13318
843.849	84.20717
844.253	69.16392
844.657	77.19335
845.061	78.17659
845.465	34.08259
845.869	54.12578
846.272	15.03685
846.676	82.19768
847.079	27.06906
847.483	60.14977
847.886	124.29837
848.289	66.17591
848.692	72.182
849.095	83.19862
849.498	159.39609
849.901	81.18521
850.304	80.1906
850.707	73.18574
851.109	121.30296
851.512	50.12313
851.914	60.15118
852.316	80.20164
852.718	-2.00522
853.121	117.28371
853.523	64.14955
853.925	40.10466
854.326	60.14999
854.728	47.12111
855.13	69.17761
855.531	68.16226
855.933	106.25235
856.334	44.10999
856.736	55.12338
857.137	77.17848
857.538	29.07329
857.939	42.10408
858.34	95.23002
858.741	98.2544
859.142	103.24544
859.542	57.15038
859.943	47.11704
860.343	40.09938
860.744	87.2112
861.144	56.13669
861.544	30.07249
861.945	67.17048
862.345	77.1877
862.745	80.19803
863.145	133.31352
863.544	64.16155
863.944	90.21137
864.344	62.15392
864.743	72.17823
865.143	91.23236
865.542	59.13686
865.941	76.18751
866.34	150.35311
866.74	56.1503
867.139	73.17429
867.537	83.21052
867.936	70.16812
868.335	109.27479
868.734	86.21863
869.132	62.14396
869.531	102.24469
869.929	34.07789
870.327	44.10575
870.726	64.15941
871.124	87.20221
871.522	77.19544
871.92	89.21825
872.318	89.2163
872.715	95.23356
873.113	62.15094
873.511	63.15677
873.908	17.04321
874.306	47.11709
874.703	98.24338
875.1	83.21134
875.497	105.24944
875.894	33.08119
876.291	74.18103
876.688	39.10088
877.085	121.28678
877.482	47.11785
877.878	59.14194
878.275	66.16737
878.671	69.15332
879.068	56.13521
879.464	79.19013
879.86	23.05474
880.256	73.17961
880.652	42.10707
881.048	67.1657
881.444	115.27067
881.84	70.17745
882.236	78.19534
882.631	47.11555
883.027	81.19524
883.422	43.11018
883.817	23.05813
884.213	38.0978
884.608	62.15184
885.003	17.04129
885.398	42.10537
885.793	42.10567
886.188	2.00502
886.582	108.27446
886.977	49.11645
887.371	54.1366
887.766	24.06002
888.16	91.22563
888.554	103.25248
888.949	87.21721
889.343	103.24939
889.737	31.08291
890.131	35.08811
890.525	43.11018
890.918	48.12094
891.312	66.15761
891.706	94.24494
892.099	70.17764
892.492	67.14423
892.886	45.11031
893.279	47.11988
893.672	58.14755
894.065	82.20432
894.458	62.15572
894.851	77.18791
895.244	47.12018
895.637	121.28778
896.029	65.15863
896.422	100.24226
896.814	58.1441
897.206	63.14978
897.599	121.29561
897.991	49.1186
898.383	39.09244
898.775	72.16195
899.167	9.02117
899.559	106.26584
899.951	79.18536
900.342	94.23736
900.734	-12.03013
901.125	113.29349
901.517	50.12282
901.908	115.27256
902.299	33.08098
902.69	41.09699
903.082	63.15231
903.473	43.10317
903.863	68.17305
904.254	53.12304
904.645	120.29486
905.036	32.07779
905.426	85.19342
905.817	42.10328
906.207	49.11685
906.597	44.1031
906.987	97.24951
907.378	33.08376
907.768	60.15843
908.158	31.07591
908.547	36.09326
908.937	67.1715
909.327	80.1933
909.717	92.23197
910.106	74.17705
910.495	96.23781
910.885	94.23634
911.274	88.21855
911.663	52.13201
912.052	123.2996
912.441	63.1599
912.83	88.20061
913.219	93.24172
913.608	75.18296
913.997	39.098
914.385	93.22051
914.774	104.25081
915.162	63.14984
915.55	84.20205
915.939	41.10369
916.327	90.22311
916.715	57.14514
917.103	121.29407
917.491	79.19451
917.878	81.19811
918.266	83.21409
918.654	65.16568
919.041	51.13315
919.429	72.1693
919.816	97.24392
920.203	59.14291
920.591	108.26508
920.978	66.16122
921.365	38.09993
921.752	67.15929
922.139	58.1258
922.525	28.06755
922.912	88.21319
923.299	41.1021
923.685	69.17946
924.072	98.22395
924.458	60.14841
924.844	38.09427
925.231	43.10026
925.617	26.06642
926.003	77.19592
926.389	76.19088
926.774	51.12926
927.16	105.25824
927.546	63.16047
927.931	94.23277
928.317	68.15615
928.702	68.16039
929.088	28.06653
929.473	39.09944
929.858	2.00488
930.243	72.17213
930.628	41.09994
931.013	64.15825
931.398	107.24338
931.783	118.30716
932.167	83.20172
932.552	94.2337
932.937	120.2941
933.321	45.11304
933.705	64.16097
934.09	114.28487
934.474	84.19828
934.858	83.21409
935.242	77.17756
935.626	82.20875
936.009	32.08538
936.393	81.20501
936.777	64.16351
937.16	33.08612
937.544	93.21735
937.927	29.07387
938.311	109.26322
938.694	108.28287
939.077	56.13393
939.46	102.24813
939.843	75.15568
940.226	52.13336
940.609	60.1375
940.991	76.19259
941.374	80.19447
941.757	103.25173
942.139	55.12343
942.522	72.1695
942.904	66.15821
943.286	58.14719
943.668	48.12439
944.05	38.09382
944.432	87.21326
944.814	84.20564
945.196	65.15797
945.578	22.05258
945.959	91.21159
946.341	112.27184
946.722	105.24386
947.104	29.06961
947.485	49.11407
947.866	65.16334
948.247	45.11365
948.628	125.30072
949.009	57.1458
949.39	84.20785
949.771	68.15765
950.152	80.19527
950.532	-1.00248
950.913	69.16587
951.293	26.07051
951.674	48.11616
952.054	59.14597
952.434	70.17315
952.814	85.20092
953.194	88.22884
953.574	112.27276
953.954	91.21443
954.334	102.25184
954.714	12.02945
955.093	52.12782
955.473	19.04778
955.853	51.13201
956.232	96.26119
956.611	82.19551
956.99	28.07065
957.37	67.17024
957.749	46.10985
958.128	46.11599
958.506	37.0962
958.885	53.13371
959.264	27.06646
959.643	107.24072
960.021	61.15086
960.4	35.07958
960.778	103.25126
961.156	43.10794
961.535	76.17626
961.913	67.15628
962.291	54.13844
962.669	56.14171
963.047	58.14781
963.424	60.15286
963.802	40.09854
964.18	80.20136
964.557	77.17642
964.935	63.14891
965.312	17.04452
965.69	106.26277
966.067	79.19135
966.444	82.20089
966.821	77.19758
967.198	102.24506
967.575	118.28651
967.952	96.22423
968.329	60.14574
968.705	83.17675
969.082	34.08744
969.458	14.03382
969.835	87.21033
970.211	44.11304
970.587	82.20298
970.963	71.18148
971.339	67.17444
971.715	73.18153
972.091	68.1669
972.467	86.21311
972.843	42.10438
973.219	118.27973
973.594	66.17216
973.97	97.22884
974.345	39.09354
974.721	86.20686
975.096	55.13297
975.471	103.24186
975.846	36.08672
976.221	30.07645
976.596	59.14119
976.971	35.08665
977.346	51.11873
977.72	56.14251
978.095	57.14713
978.469	56.13352
978.844	84.20991
979.218	50.11986
979.593	78.1859
979.967	57.13869
980.341	52.11969
980.715	83.2079
981.089	67.16721
981.463	63.14429
981.837	57.1391
982.21	119.2732
982.584	39.09439
982.957	-2.00504
983.331	51.12055
983.704	60.14716
984.078	52.12811
984.451	79.1963
984.824	39.09518
985.197	53.12867
985.57	79.19709
985.943	90.22066
986.316	106.25776
986.688	94.22481
987.061	75.17494
987.434	52.13546
987.806	65.15721
988.179	24.05692
988.551	93.23412
988.923	44.10848
989.295	83.20617
989.667	10.02407
990.039	31.07686
990.411	77.17628
990.783	74.16958
991.155	1.00242
991.527	88.21519
991.898	86.21288
992.27	27.06707
992.641	65.16263
993.012	74.17332
993.384	25.05992
993.755	106.26756
994.126	50.12027
994.497	4.0099
994.868	85.19389
995.239	84.20228
995.61	43.10833
995.98	44.107
996.351	27.06714
996.722	49.11367
997.092	39.09254
997.462	12.02824
997.833	66.15598
998.203	92.22129
998.573	66.16385
998.943	55.12885
999.313	34.08172
999.683	51.12237
1000.053	95.21661
1000.423	96.23126
1000.792	62.16034
1001.162	53.13035
1001.531	54.13303
1001.901	65.16158
1002.27	68.15145
1002.639	45.11507
1003.009	61.14475
1003.378	46.11769
1003.747	76.17863
1004.116	51.122
1004.485	80.19009
1004.853	62.15672
1005.222	78.19569
1005.591	49.11636
1005.959	22.04985
1006.328	37.08348
1006.696	45.10863
1007.064	47.11828
1007.433	51.12742
1007.801	97.23601
1008.169	65.16369
1008.537	68.15
1008.905	62.14408
1009.273	92.22548
1009.64	51.12162
1010.008	92.2175
1010.375	95.22872
1010.743	84.19265
1011.11	63.14868
1011.478	31.07698
1011.845	86.2008
1012.212	41.09296
1012.579	29.07146
1012.946	74.17529
1013.313	114.26795
1013.68	64.14342
1014.047	34.08125
1014.414	9.02142
1014.78	83.20496
1015.147	112.26765
1015.513	73.17509
1015.88	74.18839
1016.246	85.20844
1016.612	100.22659
1016.978	54.1322
1017.344	85.20867
1017.71	89.21541
1018.076	81.18983
1018.442	78.19962
1018.808	61.15213
1019.174	69.17245
1019.539	154.34709
1019.905	36.08511
1020.27	4.00995
1020.636	70.16716
1021.001	99.23473
1021.366	55.13192
1021.731	85.21719
1022.096	-1.00254
1022.461	50.1183
1022.826	57.13525
1023.191	54.14153
1023.556	42.09856
1023.92	92.22439
1024.285	72.17495
1024.649	91.22125
1025.014	88.21639
1025.378	63.15797
1025.742	57.14133
1026.107	105.23477
1026.471	130.29863
1026.835	67.16551
1027.199	26.06285
1027.562	63.14603
1027.926	86.20882
1028.29	69.17395
1028.654	46.10588
1029.017	86.20991
1029.381	28.06714
1029.744	59.15018
1030.107	60.14163
1030.471	82.19506
1030.834	77.17415
1031.197	81.19391
1031.56	91.21293
1031.923	74.19045
1032.286	82.19131
1032.648	111.26227
1033.011	42.09652
1033.374	53.12445
1033.736	38.10007
1034.099	62.15071
1034.461	24.06088
1034.823	0
1035.185	65.1631
1035.548	28.0684
1035.91	55.13156
1036.272	46.10474
1036.634	69.16814
1036.995	73.17075
1037.357	56.13603
1037.719	61.14798
1038.08	66.15616
1038.442	58.13739
1038.803	69.16499
1039.165	53.13361
1039.526	54.13033
1039.887	26.06247
1040.248	-7.01742
1040.609	71.17469
1040.97	64.15592
1041.331	73.18397
1041.692	16.03758
1042.053	82.18542
1042.413	59.13719
1042.774	74.17907
1043.134	140.32739
1043.495	63.15791
1043.855	73.17622
1044.215	91.22406
1044.576	35.08388
1044.936	78.17774
1045.296	94.2326
1045.656	71.17346
1046.016	72.17299
1046.375	55.13322
1046.735	48.10881
1047.095	95.22028
1047.454	86.18071
1047.814	52.12489
1048.173	89.21094
1048.533	64.14614
1048.892	2.00484
1049.251	97.24129
1049.61	48.11816
1049.969	62.14573
1050.328	56.1212
1050.687	56.13603
1051.046	90.21738
1051.405	75.18562
1051.763	42.09668
1052.122	64.15912
1052.48	68.1661
1052.839	45.10591
1053.197	46.10829
1053.555	107.24102
1053.914	88.21359
1054.272	79.18984
1054.63	58.14152
1054.988	-3.0072
1055.345	64.13733
1055.703	68.163
1056.061	48.12345
1056.419	81.20843
1056.776	80.19279
1057.134	60.13855
1057.491	24.06034
1057.848	113.27792
1058.206	82.19153
1058.563	31.06857
1058.92	73.16739
1059.277	91.22265
1059.634	72.16857
1059.991	94.22318
1060.348	20.04545
1060.704	24.05744
1061.061	112.25687
1061.418	81.19516
1061.774	73.17934
1062.131	20.05311
1062.487	51.11915
1062.843	84.20801
1063.199	42.10454
1063.555	27.06281
1063.911	77.19342
1064.267	85.17581
1064.623	59.14296
1064.979	120.28029
1065.335	82.19469
1065.691	28.06735
1066.046	50.10988
1066.402	41.09326
1066.757	65.16351
1067.112	92.22389
1067.468	20.04747
1067.823	72.17226
1068.178	82.19701
1068.533	48.11633
1068.888	76.18058
1069.243	48.11843
1069.598	58.14062
1069.952	27.06104
1070.307	6.01496
1070.662	48.11392
1071.016	82.1824
1071.371	23.05257
1071.725	107.25301
1072.079	63.15105
1072.434	40.09731
1072.788	66.15658
1073.142	77.18833
1073.496	24.05718
1073.85	82.18882
1074.203	43.10439
1074.557	74.19586
1074.911	93.22
1075.265	115.2637
1075.618	103.24883
1075.971	95.22386
1076.325	86.217
1076.678	45.10294
1077.031	32.07263
1077.385	125.27082
1077.738	44.09937
1078.091	69.15619
1078.444	86.19811
1078.796	66.16134
1079.149	33.08227
1079.502	-2.00477
1079.855	56.13034
1080.207	66.162
1080.56	68.17507
1080.912	73.17682
1081.264	56.1346
1081.617	40.0976
1081.969	16.04057
1082.321	87.21081
1082.673	31.07097
1083.025	65.15364
1083.377	93.19762
1083.728	49.11425
1084.08	42.10492
1084.432	60.14432
1084.783	105.24318
1085.135	56.14009
1085.486	18.04142
1085.838	61.14981
1086.189	65.15721
1086.54	89.21078
1086.891	62.15633
1087.242	85.20542
1087.593	91.21967
1087.944	71.15986
1088.295	96.21602
1088.646	65.15697
1088.996	36.08689
1089.347	47.1153
1089.698	23.0546
1090.048	82.21162
1090.398	105.24067
1090.749	61.14553
1091.099	44.11067
1091.449	55.13677
1091.799	82.20394
1092.149	-17.04193
1092.499	105.25327
1092.849	71.17963
1093.199	108.26763
1093.548	40.09621
1093.898	60.14972
1094.248	64.16391
1094.597	12.03081
1094.947	57.15175
1095.296	59.14532
1095.645	92.23735
1095.994	65.15554
1096.343	56.14065
1096.692	-9.02386
1097.041	60.16204
1097.39	50.12531
1097.739	66.17092
1098.088	104.2759
1098.437	3.00794
1098.785	72.19324
1099.134	70.18508
1099.482	67.18361
1099.83	93.24238
1100.179	44.11477
1100.527	86.22693
1100.875	43.11371
1101.223	62.16415
1101.571	72.1981
1101.919	39.10199
1102.267	65.18241
1102.615	4.01286
1102.962	24.07715
1103.31	12.03853
1103.658	25.08039
