Data from N2 R10 sample 5_Subt2__4__13-18-48-768.txt Node

Date: Mon Sep 01 13:18:48 PDT 2025
User: uwsun
Spectrometer: HDX01956
Trigger mode: 0
Integration Time (sec): 5.000000E-1
Scans to average: 1
Nonlinearity correction enabled: true
Boxcar width: 0
Storing dark spectrum: false
XAxis mode: Wavelengths
Number of Pixels in Spectrum: 2068
>>>>>Begin Spectral Data<<<<<
194.03	96.26546
194.578	91.28454
195.127	103.31675
195.676	96.29642
196.225	143.37026
196.773	125.33586
197.321	209.5415
197.87	291.68139
198.418	241.56211
198.966	222.52299
199.513	147.33423
200.061	181.41586
200.609	235.56639
201.156	228.44314
201.704	216.48981
202.251	222.53132
202.798	227.53196
203.345	211.47351
203.892	230.52134
204.438	204.44169
204.985	197.41806
205.532	255.60154
206.078	213.47191
206.624	239.52465
207.17	290.59646
207.716	228.49555
208.262	224.39453
208.808	146.3257
209.354	234.50902
209.899	301.6799
210.445	205.45778
210.99	212.45803
211.535	286.59724
212.08	270.55908
212.625	243.54711
213.17	240.54799
213.715	165.32965
214.259	257.53514
214.804	264.58526
215.348	225.46308
215.892	271.57985
216.436	276.57125
216.98	306.599
217.524	229.48617
218.068	285.64166
218.612	265.59981
219.155	240.50697
219.698	168.36561
220.242	198.45118
220.785	238.5012
221.328	242.54497
221.871	230.53086
222.414	280.62718
222.956	172.37718
223.499	248.50088
224.041	196.41766
224.583	268.52039
225.126	221.43989
225.668	230.50479
226.21	198.45319
226.751	196.38676
227.293	208.43205
227.835	152.34034
228.376	245.51129
228.918	224.51475
229.459	183.41456
230	163.35511
230.541	179.37687
231.082	236.51556
231.622	203.42515
232.163	147.32637
232.704	177.39983
233.244	176.3983
233.784	231.5137
234.324	157.31206
234.864	156.32317
235.404	215.46382
235.944	220.47226
236.484	246.55421
237.023	183.39242
237.563	205.42705
238.102	211.4505
238.641	263.5965
239.18	181.38226
239.719	233.52739
240.258	226.45686
240.797	238.50958
241.335	206.45707
241.874	177.30612
242.412	191.41505
242.95	180.38807
243.488	207.42565
244.026	225.46371
244.564	247.45113
245.102	245.48902
245.64	267.57525
246.177	211.42488
246.715	254.54571
247.252	229.47195
247.789	340.55544
248.326	181.39081
248.863	201.3943
249.4	211.43055
249.936	220.40253
250.473	228.4738
251.009	212.43328
251.546	226.44303
252.082	258.49954
252.618	262.51384
253.154	221.47349
253.69	244.48714
254.226	198.42394
254.761	243.48345
255.297	216.42002
255.832	212.44782
256.367	238.49811
256.903	236.45803
257.438	249.5194
257.972	224.44305
258.507	194.39523
259.042	204.39441
259.576	165.31633
260.111	256.52344
260.645	196.37895
261.179	188.39155
261.713	268.52139
262.247	280.56628
262.781	230.42295
263.315	231.50068
263.849	228.50588
264.382	239.48636
264.915	192.39953
265.449	217.46472
265.982	315.62203
266.515	229.49402
267.048	145.27463
267.58	273.52264
268.113	219.4154
268.646	244.5301
269.178	219.42941
269.71	262.49951
270.243	307.60765
270.775	257.57508
271.307	244.51926
271.838	322.66555
272.37	282.60534
272.902	247.49278
273.433	234.44743
273.965	245.52377
274.496	259.56688
275.027	246.53558
275.558	222.47388
276.089	184.39822
276.62	236.53125
277.15	283.60998
277.681	265.5002
278.211	275.58917
278.741	206.39599
279.272	198.39659
279.802	232.50961
280.332	247.50584
280.861	264.55228
281.391	236.46438
281.921	258.54236
282.45	251.54914
282.98	250.57105
283.509	256.49709
284.038	249.49077
284.567	273.55251
285.096	247.51889
285.625	237.46514
286.153	240.48605
286.682	285.55618
287.21	239.49766
287.739	260.52849
288.267	226.47363
288.795	289.65812
289.323	231.46365
289.851	258.51916
290.378	258.49499
290.906	207.43237
291.433	236.50879
291.961	258.49643
292.488	227.48886
293.015	254.50852
293.542	218.47563
294.069	265.5545
294.596	306.64354
295.122	273.55276
295.649	261.48781
296.175	219.45804
296.702	249.5171
297.228	313.64245
297.754	259.49055
298.28	287.54439
298.806	257.52227
299.332	267.49211
299.857	269.50775
300.383	314.67025
300.908	247.50264
301.433	263.53593
301.958	315.60626
302.483	261.54637
303.008	287.59627
303.533	319.6973
304.058	306.60071
304.582	267.52303
305.107	254.55629
305.631	332.62252
306.155	231.44801
306.679	258.49786
307.203	279.53231
307.727	262.5153
308.251	313.63636
308.775	266.51601
309.298	227.44867
309.822	322.66555
310.345	279.5411
310.868	291.56627
311.391	363.72119
311.914	357.71787
312.437	309.57038
312.96	302.57214
313.482	352.66231
314.005	301.61168
314.527	299.63671
315.049	347.70516
315.571	207.36946
316.093	311.61528
316.615	284.54593
317.137	299.50971
317.659	427.80483
318.18	365.691
318.702	359.64544
319.223	344.53623
319.744	329.56692
320.265	335.62582
320.786	332.63206
321.307	383.72792
321.828	338.58103
322.348	338.60471
322.869	344.60973
323.389	358.40991
323.909	366.62749
324.43	447.80246
324.95	368.61976
325.47	314.57918
325.989	388.66558
326.509	403.62623
327.029	401.63956
327.548	344.55285
328.067	402.68924
328.587	387.69972
329.106	436.68766
329.625	386.75168
330.144	389.6261
330.662	396.63357
331.181	408.65986
331.7	376.61118
332.218	440.63062
332.736	359.58042
333.255	395.62134
333.773	461.72439
334.291	430.73528
334.808	407.59153
335.326	477.68865
335.844	419.62374
336.361	418.69288
336.879	461.673
337.396	466.70748
337.913	485.68235
338.43	466.63579
338.947	468.68555
339.464	463.57818
339.981	462.6597
340.497	534.79537
341.014	500.72707
341.53	466.60597
342.046	440.64648
342.562	532.78373
343.078	509.68388
343.594	529.71834
344.11	520.69846
344.626	535.76864
345.141	525.647
345.657	604.7264
346.172	524.69499
346.687	489.60255
347.202	529.61367
347.717	555.69965
348.232	595.79068
348.747	585.67477
349.261	522.5444
349.776	567.67018
350.29	559.69341
350.805	589.74831
351.319	598.6751
351.833	517.55656
352.347	613.68022
352.861	605.65421
353.374	668.70414
353.888	614.70329
354.401	672.67937
354.915	534.52496
355.428	588.68104
355.941	596.60622
356.454	730.67859
356.967	656.67474
357.48	600.59767
357.993	679.73053
358.505	682.70566
359.018	693.71329
359.53	696.67748
360.042	771.62851
360.554	666.66654
361.066	726.69777
361.578	671.5323
362.09	742.67451
362.602	688.53351
363.113	764.62737
363.625	667.5291
364.136	817.57244
364.647	710.53772
365.158	708.56502
365.669	841.66462
366.18	740.58665
366.691	706.4858
367.201	751.58914
367.712	765.51472
368.222	761.51022
368.733	749.41944
369.243	791.43865
369.753	771.48912
370.263	802.52726
370.773	846.57365
371.282	824.4823
371.792	783.36181
372.301	740.41847
372.811	920.57174
373.32	790.22882
373.829	873.32251
374.338	934.22594
374.847	919.22357
375.356	954.22062
375.865	932.03105
376.373	1101.02843
376.882	1123.18152
377.39	1058.07513
377.898	1019.99639
378.407	1123.8158
378.915	1135.74217
379.423	1251.71547
379.93	1328.58645
380.438	1260.58447
380.946	1332.46382
381.453	1334.41604
381.96	1297.36883
382.468	1404.24923
382.975	1697.09926
383.482	1650.1246
383.989	1624.13055
384.495	1781.12388
385.002	1740.33475
385.509	1794.33498
386.015	2012.86812
386.521	2086.90371
387.028	2145.30568
387.534	2132.68666
388.04	2336.79565
388.546	2142.47912
389.051	2214.51319
389.557	2548.20738
390.063	3055.26422
390.568	2969.16431
391.073	2908.81138
391.578	3196.91215
392.084	3140.01658
392.589	2710.11728
393.093	2644.41994
393.598	3290.21583
394.103	3889.4328
394.607	4199.80386
395.112	4565.2422
395.616	4847.49081
396.12	5017.85755
396.624	5223.70358
397.128	5892.7674
397.632	6994.1446
398.136	7288.13854
398.639	5907.09921
399.143	6408.55931
399.646	7764.99708
400.15	8112.17201
400.653	7995.72001
401.156	8546.33806
401.659	4031.18631
402.162	892.18208
402.664	0
403.167	0
403.67	0
404.172	0
404.674	0
405.176	0
405.678	0
406.18	0
406.682	0
407.184	0
407.686	0
408.187	0
408.688	0
409.19	0
409.691	0
410.192	0
410.693	0
411.194	435.30976
411.694	4082.94878
412.195	8864.71461
412.696	12089.80453
413.196	12760.96929
413.696	12863.67595
414.196	13703.56671
414.696	17261.84252
415.196	21764.24417
415.696	28756.53626
416.196	23704.43381
416.695	15789.50865
417.195	11878.12414
417.694	11307.5794
418.194	11172.80118
418.693	9816.60792
419.192	9236.53451
419.691	9157.64833
420.19	9251.61728
420.688	9411.52291
421.187	9282.33092
421.685	8856.22764
422.184	8461.0365
422.682	7062.28239
423.18	5436.90635
423.678	4657.03108
424.176	4382.5905
424.674	4032.78513
425.172	4077.67332
425.669	4022.60959
426.167	3968.72955
426.664	3266.818
427.161	3065.61689
427.659	2683.49884
428.156	2466.47525
428.652	2333.96599
429.149	2264.94775
429.646	2254.93625
430.143	2195.88445
430.639	1943.00516
431.135	1884.10409
431.632	1731.19164
432.128	1499.42942
432.624	1353.6116
433.12	1203.5719
433.616	1270.55636
434.111	1050.74247
434.607	1078.80919
435.103	1157.74535
435.598	1252.72906
436.093	1100.99899
436.588	1049.03537
437.083	1007.10762
437.578	974.18212
438.073	784.26997
438.568	843.35234
439.062	830.20529
439.557	783.36238
440.051	660.29804
440.546	625.30302
441.04	635.3758
441.534	656.47108
442.028	673.44329
442.522	592.40901
443.015	664.36154
443.509	548.43657
444.002	631.4847
444.496	596.36948
444.989	487.41953
445.482	491.43909
445.975	470.34309
446.468	477.32151
446.961	428.30053
447.454	553.42089
447.947	430.37503
448.439	477.45102
448.931	378.31569
449.424	467.48908
449.916	425.42307
450.408	388.33735
450.9	383.38667
451.392	310.35168
451.884	388.37396
452.375	300.33515
452.867	423.40724
453.358	344.3312
453.849	373.32413
454.341	325.32283
454.832	283.26662
455.323	239.28259
455.814	275.29999
456.304	328.35491
456.795	329.35445
457.285	314.33841
457.776	349.39251
458.266	220.26751
458.756	326.39964
459.247	162.20394
459.737	241.2976
460.226	252.2878
460.716	251.31901
461.206	221.29085
461.695	282.39418
462.185	249.32307
462.674	256.32481
463.163	208.25547
463.653	264.29536
464.142	217.30067
464.63	187.27288
465.119	166.22413
465.608	172.23285
466.096	156.20176
466.585	234.3235
467.073	207.30525
467.561	174.26186
468.05	243.34499
468.538	174.27357
469.026	170.25954
469.513	111.14636
470.001	186.26464
470.489	156.2376
470.976	154.2312
471.463	132.22203
471.951	115.19772
472.438	108.17078
472.925	83.13151
473.412	131.22426
473.899	94.14984
474.385	146.25041
474.872	114.18423
475.359	76.13238
475.845	109.15493
476.331	161.24412
476.817	61.10927
477.303	105.1756
477.789	93.16401
478.275	68.12492
478.761	43.07782
479.247	134.21912
479.732	49.09176
480.218	72.14294
480.703	72.13607
481.188	43.06927
481.673	68.11782
482.158	-8.01283
482.643	50.10001
483.128	29.05079
483.612	36.0655
484.097	120.22811
484.581	49.08963
485.066	25.04807
485.55	25.04282
486.034	29.04911
486.518	-6.01122
487.002	-31.06119
487.486	-2.00394
487.969	-42.0837
488.453	2.00414
488.936	-48.08858
489.42	44.07839
489.903	38.07869
490.386	-468.71137
490.869	21.03746
491.352	35.07119
491.835	28.04733
492.318	-26.04868
492.8	9.0153
493.283	-69.14866
493.765	-57.11869
494.247	28.05491
494.73	-19.03525
495.212	4.00821
495.694	-41.08089
496.175	-121.24578
496.657	-20.04041
497.139	40.05795
497.62	-100.20336
498.102	-68.14509
498.583	-67.14566
499.064	-80.15304
499.545	0
500.026	-24.04584
500.507	-47.09412
500.988	-24.05148
501.469	-88.19192
501.949	-63.1362
502.43	-97.20045
502.91	-72.1286
503.39	-54.11857
503.87	-65.13264
504.35	-79.1645
504.83	-133.25745
505.31	-86.18286
505.79	-105.22107
506.269	-15.03048
506.749	-111.22351
507.228	-85.1751
507.707	-46.08881
508.187	-33.06927
508.666	-67.14436
509.145	-92.18956
509.623	-79.16369
510.102	-65.13914
510.581	-11.02333
511.059	-90.19969
511.538	-59.13567
512.016	-47.09913
512.494	-66.14248
512.972	-51.10757
513.45	-155.32103
513.928	-84.18094
514.406	-137.2939
514.884	-57.12997
515.361	-68.14465
515.839	-65.13119
516.316	-75.16069
516.793	-47.10609
517.27	-17.03655
517.747	-54.1232
518.224	-54.11142
518.701	-9.01765
519.178	-97.215
519.654	-5.01055
520.131	-105.23419
520.607	-47.10444
521.083	-59.12028
521.56	-78.16542
522.036	-25.04879
522.512	-29.06404
522.987	-121.25913
523.463	-70.14936
523.939	-41.09016
524.414	-35.07243
524.89	-48.10211
525.365	-92.18828
525.84	-70.14852
526.315	-155.34184
526.79	-54.10936
527.265	-68.13973
527.74	-102.22557
528.215	-90.19228
528.689	-84.16809
529.164	-39.07611
529.638	-54.12549
530.112	-92.19622
530.587	-57.10891
531.061	-121.26574
531.534	-72.15856
532.008	-127.27903
532.482	-57.11848
532.956	-133.30974
533.429	-52.11389
533.903	0
534.376	-21.04162
534.849	-84.17744
535.322	-64.13703
535.795	-73.16235
536.268	-20.04316
536.741	-49.10671
537.213	-44.09209
537.686	-76.16793
538.158	-125.25623
538.631	-31.06828
539.103	-11.02202
539.575	-28.05273
540.047	-22.04355
540.519	8.01717
540.991	14.03078
541.463	-16.03492
541.934	3.00615
542.406	-47.10126
542.877	37.0742
543.348	20.04329
543.82	46.10066
544.291	41.08545
544.762	64.13377
545.233	56.1242
545.703	89.17186
546.174	51.10497
546.645	41.0861
547.115	109.22879
547.585	137.27269
548.056	100.20855
548.526	173.34579
548.996	229.46601
549.466	262.5396
549.935	214.42466
550.405	257.46488
550.875	281.54993
551.344	308.60949
551.814	400.73746
552.283	395.68795
552.752	386.717
553.221	480.80275
553.69	484.83345
554.159	484.92909
554.628	550.93
555.096	625.20481
555.565	647.07058
556.033	680.20418
556.502	766.37514
556.97	762.23606
557.438	827.4367
557.906	833.45784
558.374	891.47487
558.842	938.61333
559.31	998.56426
559.777	1080.81306
560.245	1138.83739
560.712	1254.9227
561.18	1323.85381
561.647	1408.96113
562.114	1474.06123
562.581	1649.46515
563.048	1732.29881
563.514	1736.50084
563.981	1872.35098
564.448	2043.34178
564.914	2103.51998
565.381	2179.45664
565.847	2378.62216
566.313	2512.61168
566.779	2584.46668
567.245	2707.63919
567.711	2854.74773
568.176	2975.38692
568.642	3139.95973
569.108	3251.824
569.573	3437.55267
570.038	3660.83916
570.504	3730.1048
570.969	3896.73052
571.434	4010.83643
571.899	4232.21116
572.363	4272.92648
572.828	4499.84944
573.293	4573.79944
573.757	4775.69033
574.222	4848.45541
574.686	4949.41826
575.15	5135.67713
575.614	5147.46364
576.078	5265.53177
576.542	5264.37555
577.006	5321.28127
577.469	5534.7817
577.933	5398.18757
578.396	5454.54456
578.86	5466.4835
579.323	5401.5595
579.786	5317.06446
580.249	5269.3602
580.712	5220.84779
581.175	5025.99904
581.637	5004.61914
582.1	4962.37012
582.563	4890.29962
583.025	4723.05814
583.487	4658.08131
583.95	4521.45463
584.412	4437.42676
584.874	4310.31143
585.336	4268.18353
585.797	4063.77496
586.259	3943.35743
586.721	3872.32823
587.182	3794.39874
587.643	3578.30059
588.105	3522.55019
588.566	3416.98494
589.027	3285.69901
589.488	3227.44764
589.949	3109.80688
590.41	3021.75446
590.87	2969.53342
591.331	2880.28104
591.791	2731.57989
592.252	2644.52693
592.712	2609.79335
593.172	2484.47355
593.632	2492.3817
594.092	2450.43725
594.552	2273.27482
595.011	2202.49573
595.471	2229.41902
595.931	2101.3685
596.39	2077.63316
596.849	2072.52648
597.308	2040.26532
597.768	1867.76615
598.227	1886.57842
598.685	1954.44842
599.144	1835.43444
599.603	1753.43539
600.062	1741.02209
600.52	1713.19487
600.978	1664.37647
601.437	1699.28906
601.895	1674.02606
602.353	1675.17429
602.811	1577.10539
603.269	1642.3882
603.727	1552.31638
604.184	1552.11984
604.642	1542.37982
605.099	1527.1992
605.557	1527.35576
606.014	1536.97863
606.471	1462.34719
606.928	1460.9009
607.385	1511.29702
607.842	1608.20319
608.299	1615.27766
608.755	1559.33181
609.212	1590.0987
609.668	1571.06153
610.125	1605.38857
610.581	1725.45353
611.037	1587.2306
611.493	1613.35476
611.949	1534.32755
612.405	1568.82697
612.861	1642.37656
613.316	1530.31048
613.772	1558.22164
614.227	1510.26109
614.683	1595.05881
615.138	1543.26639
615.593	1471.19091
616.048	1551.22733
616.503	1539.44625
616.958	1399.35599
617.412	1495.27914
617.867	1468.05013
618.321	1486.9119
618.776	1456.06925
619.23	1411.19419
619.684	1386.07856
620.138	1355.13323
620.592	1348.24332
621.046	1384.19482
621.5	1231.11974
621.954	1339.04885
622.407	1261.94542
622.861	1184.07354
623.314	1277.02222
623.768	1144.93031
624.221	1176.6007
624.674	1112.87307
625.127	1169.98065
625.58	1223.99364
626.033	1151.84336
626.485	1145.00966
626.938	1112.96751
627.39	1072.86613
627.843	1111.90634
628.295	1052.83409
628.747	1028.86561
629.199	1016.7572
629.651	990.72297
630.103	964.70851
630.555	965.56441
631.006	970.77348
631.458	932.73213
631.909	1040.83786
632.361	919.6999
632.812	890.63755
633.263	925.56427
633.714	849.4579
634.165	895.75186
634.616	833.61882
635.067	860.54271
635.518	837.63741
635.968	882.40493
636.419	828.4654
636.869	838.63898
637.319	762.46764
637.769	782.44495
638.219	807.6047
638.669	718.44971
639.119	737.52451
639.569	770.55981
640.019	753.46591
640.468	722.3625
640.918	747.52661
641.367	700.33641
641.816	695.32524
642.265	719.41489
642.714	741.45209
643.163	662.31325
643.612	636.32445
644.061	584.07685
644.51	683.33448
644.958	649.23019
645.406	623.30223
645.855	690.46315
646.303	672.36105
646.751	645.27203
647.199	616.22527
647.647	565.15056
648.095	626.25272
648.543	642.1391
648.99	636.32856
649.438	587.22309
649.885	642.39557
650.333	565.96498
650.78	577.2379
651.227	687.4514
651.674	626.24983
652.121	575.24632
652.568	619.32584
653.015	629.40865
653.461	619.29729
653.908	590.21981
654.354	623.31431
654.801	573.19599
655.247	659.26134
655.693	607.41216
656.139	618.31144
656.585	611.30023
657.031	613.26092
657.477	579.10849
657.922	620.25959
658.368	611.34358
658.813	630.29798
659.259	571.22764
659.704	579.20479
660.149	575.19858
660.594	583.23842
661.039	582.18389
661.484	628.33443
661.929	606.26357
662.373	571.29749
662.818	602.33733
663.262	603.29653
663.707	607.37938
664.151	576.26838
664.595	577.25172
665.039	604.35011
665.483	628.43032
665.927	611.28727
666.371	574.19145
666.814	614.31314
667.258	564.20242
667.701	608.17226
668.145	601.34864
668.588	571.26917
669.031	599.2614
669.474	619.33554
669.917	608.2054
670.36	577.29631
670.803	601.30773
671.245	610.14684
671.688	616.35204
672.13	569.15083
672.573	580.33948
673.015	566.23435
673.457	567.11534
673.899	608.3283
674.341	590.28784
674.783	601.29832
675.225	574.28192
675.666	578.25682
676.108	595.16227
676.549	588.2618
676.991	642.26047
677.432	555.99949
677.873	555.17015
678.314	587.2702
678.755	569.26001
679.196	567.17873
679.637	646.41736
680.078	581.23524
680.518	603.2715
680.959	562.22768
681.399	540.2282
681.839	587.29776
682.28	546.23335
682.72	552.15183
683.16	562.2783
683.6	602.24132
684.039	553.04738
684.479	563.2612
684.919	481.02497
685.358	577.33756
685.798	530.28088
686.237	594.30533
686.676	557.18259
687.115	549.18078
687.554	611.31094
687.993	562.13223
688.432	593.22684
688.871	553.14447
689.309	538.17914
689.748	586.10758
690.186	589.27996
690.625	529.13916
691.063	546.20022
691.501	562.27211
691.939	539.23555
692.377	504.13742
692.815	460.0257
693.253	564.24088
693.69	507.02709
694.128	497.11452
694.565	502.10844
695.003	546.27435
695.44	555.19268
695.877	531.13857
696.314	517.02349
696.751	550.14968
697.188	560.17372
697.625	568.19157
698.061	492.09447
698.498	541.20439
698.934	460.035
699.371	482.05311
699.807	520.13436
700.243	529.1718
700.679	539.11993
701.115	555.1983
701.551	483.05774
701.987	545.12336
702.422	466.03139
702.858	513.12875
703.294	521.08728
703.729	523.18156
704.164	495.10502
704.599	475.98507
705.035	472.983
705.47	499.12405
705.904	509.09461
706.339	545.16462
706.774	501.08569
707.209	507.07908
707.643	473.05844
708.078	479.08552
708.512	443.03787
708.946	486.08333
709.38	443.98587
709.814	511.07864
710.248	481.09139
710.682	445.99278
711.116	429.96145
711.549	459.10927
711.983	445.96403
712.416	449.99632
712.85	441.03197
713.283	437.97212
713.716	492.1504
714.149	437.98058
714.582	431.90979
715.015	415.98342
715.448	431.02228
715.881	483.98287
716.313	420.92792
716.746	427.94594
717.178	369.84535
717.61	385.92886
718.043	392.92804
718.475	370.85495
718.907	459.08882
719.339	338.73367
719.77	347.78634
720.202	324.78808
720.634	343.79871
721.065	354.80204
721.497	379.88391
721.928	302.71557
722.359	284.66252
722.79	334.76657
723.221	360.86611
723.652	347.85865
724.083	282.61656
724.514	302.67032
724.945	289.65759
725.375	257.58029
725.806	329.7899
726.236	351.86122
726.666	298.68204
727.096	304.72031
727.526	247.6117
727.956	232.51625
728.386	322.76295
728.816	233.57619
729.246	261.61665
729.675	221.53286
730.105	253.60723
730.534	255.58164
730.964	265.65194
731.393	284.6846
731.822	261.64873
732.251	265.65387
732.68	266.61028
733.109	201.48739
733.537	218.51636
733.966	242.58668
734.395	224.50733
734.823	247.54472
735.251	183.43539
735.68	274.66674
736.108	229.56713
736.536	247.56885
736.964	173.39764
737.392	239.5843
737.82	197.466
738.247	185.43778
738.675	204.48022
739.102	174.42943
739.53	180.45206
739.957	203.51302
740.384	232.56054
740.811	192.47959
741.238	196.47106
741.665	142.32789
742.092	184.43432
742.519	135.33239
742.945	164.39027
743.372	172.42106
743.798	180.4566
744.225	160.37738
744.651	160.39778
745.077	162.40011
745.503	177.42694
745.929	168.39917
746.355	193.47343
746.781	157.38584
747.207	108.25365
747.632	137.33208
748.058	127.31592
748.483	128.29451
748.908	136.33627
749.334	142.34685
749.759	131.30808
750.184	123.29242
750.609	145.35424
751.033	181.42318
751.458	161.35894
751.883	146.35954
752.307	78.18498
752.732	102.2547
753.156	134.32938
753.58	153.36108
754.005	134.33847
754.429	148.34569
754.853	101.25042
755.277	117.27687
755.7	146.35967
756.124	97.24103
756.548	109.25854
756.971	145.35187
757.394	133.34067
757.818	70.18103
758.241	92.2338
758.664	80.2028
759.087	68.15333
759.51	152.37514
759.933	77.18637
760.356	116.29656
760.778	112.2751
761.201	132.3199
761.623	146.3521
762.046	155.36523
762.468	148.35341
762.89	138.33884
763.312	100.24463
763.734	44.10724
764.156	89.22043
764.578	132.30298
765	107.26112
765.421	51.1305
765.843	115.30043
766.264	95.23028
766.686	84.21173
767.107	66.16116
767.528	51.12972
767.949	103.2617
768.37	83.20451
768.791	86.20897
769.212	55.1391
769.632	82.19198
770.053	61.16142
770.473	57.13988
770.894	108.27017
771.314	92.22062
771.734	38.0898
772.154	111.28422
772.575	103.23921
772.994	49.11267
773.414	132.31557
773.834	49.12357
774.254	76.18689
774.673	100.24372
775.093	48.11982
775.512	44.10943
775.931	79.2008
776.351	56.14004
776.77	77.18889
777.189	92.21927
777.607	93.23738
778.026	58.14541
778.445	3.00762
778.864	87.22332
779.282	77.18602
779.701	70.17713
780.119	19.0486
780.537	46.1157
780.955	86.21901
781.373	78.19343
781.791	82.18497
782.209	81.18752
782.627	60.15864
783.045	61.14139
783.462	58.14891
783.88	21.0549
784.297	86.21638
784.715	44.11371
785.132	41.10021
785.549	50.12589
785.966	64.16161
786.383	66.16301
786.8	85.19788
787.217	66.15724
787.633	-24.06106
788.05	136.32065
788.466	131.30688
788.883	65.16621
789.299	68.16443
789.715	80.19476
790.131	45.11272
790.547	82.20491
790.963	74.18405
791.379	47.11955
791.795	83.18986
792.21	90.21047
792.626	63.15024
793.041	67.16588
793.457	79.19545
793.872	44.10435
794.287	24.05792
794.702	70.17296
795.117	44.11003
795.532	44.11095
795.947	125.29878
796.362	79.18905
796.776	102.23853
797.191	36.08888
797.605	25.05935
798.02	37.0908
798.434	125.27649
798.848	32.0795
799.262	27.0676
799.676	79.19293
800.09	57.14086
800.504	47.11483
800.918	40.0935
801.331	74.19408
801.745	66.15222
802.158	45.11316
802.572	105.25366
802.985	81.1959
803.398	77.18384
803.811	69.17767
804.224	73.18192
804.637	56.13403
805.05	96.22203
805.462	61.15042
805.875	23.06011
806.288	29.07059
806.7	54.13626
807.112	31.07262
807.525	77.19008
807.937	17.04247
808.349	45.11337
808.761	56.13832
809.173	51.12423
809.584	48.1193
809.996	-7.0174
810.408	26.06761
810.819	54.12762
811.231	36.09355
811.642	63.15053
812.053	98.23205
812.464	148.34704
812.875	128.3239
813.286	100.2561
813.697	152.35056
814.108	134.3239
814.519	87.19372
814.929	80.20381
815.34	88.21295
815.75	43.1098
816.16	41.10281
816.571	74.1921
816.981	53.12576
817.391	92.22146
817.801	40.09992
818.211	91.21635
818.62	27.06557
819.03	78.19102
819.44	89.23172
819.849	65.16398
820.259	113.28711
820.668	33.08173
821.077	52.12957
821.486	61.14731
821.895	123.30117
822.304	47.12496
822.713	96.22599
823.122	58.14509
823.531	85.20107
823.939	65.15857
824.348	101.24427
824.756	56.14065
825.164	93.23311
825.573	30.07581
825.981	92.22731
826.389	83.20805
826.797	49.12318
827.205	44.10156
827.612	92.22615
828.02	8.01902
828.428	62.15806
828.835	61.16067
829.243	78.18569
829.65	33.08257
830.057	35.08551
830.464	57.13921
830.871	70.16767
831.278	52.12612
831.685	62.13871
832.092	87.21231
832.499	50.10993
832.905	57.14457
833.312	101.22909
833.718	75.18664
834.124	85.19373
834.531	88.22101
834.937	70.17953
835.343	70.16888
835.749	131.30243
836.155	76.19858
836.561	42.10377
836.966	79.19279
837.372	82.20809
837.777	92.22806
838.183	82.18194
838.588	79.19566
838.993	99.23961
839.399	2.00495
839.804	26.06382
840.209	46.11744
840.613	35.07842
841.018	64.16207
841.423	52.13364
841.828	56.14181
842.232	110.27029
842.637	92.21599
843.041	52.1335
843.445	21.05307
843.849	24.05984
844.253	39.09318
844.657	40.10111
845.061	28.06404
845.465	38.09223
845.869	75.17398
846.272	23.05642
846.676	74.17867
847.079	31.07924
847.483	107.26481
847.886	90.21795
848.289	48.12832
848.692	41.10421
849.095	72.17266
849.498	159.39609
849.901	69.15816
850.304	100.23733
850.707	97.24576
851.109	90.22661
851.512	76.18626
851.914	29.07348
852.316	30.07629
852.718	10.02603
853.121	69.16883
853.523	39.09158
853.925	26.06819
854.326	69.17221
854.728	20.05178
855.13	41.10605
855.531	48.11497
855.933	84.20082
856.334	34.08515
856.736	22.04969
857.137	53.12343
857.538	53.13338
857.939	52.12862
858.34	77.18707
858.741	97.25185
859.142	92.21969
859.542	68.17907
859.943	52.12938
860.343	36.0895
860.744	87.2112
861.144	50.12218
861.544	13.03151
861.945	55.14024
862.345	79.1925
862.745	64.15889
863.145	123.29051
863.544	50.12652
863.944	36.08544
864.344	38.09475
864.743	104.25593
865.143	38.09793
865.542	5.01172
865.941	87.21421
866.34	66.15791
866.74	74.19802
867.139	-6.01454
867.537	80.20301
867.936	38.09182
868.335	64.16264
868.734	76.19355
869.132	48.11176
869.531	106.25409
869.929	26.05966
870.327	51.12242
870.726	104.25715
871.124	49.11475
871.522	78.19794
871.92	87.21342
872.318	46.1127
872.715	136.33183
873.113	39.09535
873.511	71.17643
873.908	-16.04091
874.306	68.16876
874.703	46.11532
875.1	84.21385
875.497	61.14614
875.894	33.08119
876.291	55.13502
876.688	34.08802
877.085	47.11299
877.482	70.1748
877.878	64.15382
878.275	75.18989
878.671	95.20995
879.068	109.26053
879.464	63.15208
879.86	24.05711
880.256	61.15042
880.652	38.09695
881.048	71.17546
881.444	70.1662
881.84	64.16241
882.236	52.13084
882.631	87.21231
883.027	56.13562
883.422	76.19362
883.817	41.10329
884.213	50.12841
884.608	44.10812
885.003	74.17779
885.398	19.04787
885.793	47.11815
886.188	2.00502
886.582	85.21689
886.977	112.26294
887.371	67.16909
887.766	38.09479
888.16	69.17177
888.554	99.24286
888.949	75.18765
889.343	84.20411
889.737	14.03755
890.131	28.07058
890.525	76.19362
890.918	59.14837
891.312	73.17409
891.706	66.17281
892.099	68.17262
892.492	40.08661
892.886	49.12003
893.279	48.12241
893.672	36.09194
894.065	84.20922
894.458	57.14329
894.851	114.27628
895.244	40.10241
895.637	66.15863
896.029	86.20905
896.422	76.18495
896.814	64.15883
897.206	20.04794
897.599	124.30277
897.991	69.16638
898.383	29.06887
898.775	42.09505
899.167	28.06563
899.559	73.18417
899.951	86.20151
900.342	65.16498
900.734	-23.05786
901.125	52.13648
901.517	47.11551
901.908	110.26096
902.299	52.12716
902.69	84.19705
903.082	71.17139
903.473	23.0554
903.863	60.15291
904.254	60.1391
904.645	85.21021
905.036	42.1019
905.426	74.16877
905.817	72.17607
906.207	32.07656
906.597	30.07049
906.987	69.17835
907.378	31.07871
907.768	105.27515
908.158	27.06616
908.547	40.10355
908.937	49.12582
909.327	77.18616
909.717	115.28877
910.106	27.06518
910.495	89.22075
910.885	69.17426
911.274	80.19897
911.663	71.17963
912.052	69.16977
912.441	64.16241
912.83	53.12168
913.219	71.18523
913.608	68.1661
913.997	32.08051
914.385	84.19951
914.774	72.17469
915.162	52.12394
915.55	87.20914
915.939	1.00255
916.327	58.14462
916.715	45.11482
917.103	84.20557
917.491	83.20421
917.878	95.23175
918.266	52.13485
918.654	66.1682
919.041	42.10982
919.429	44.10402
919.816	91.22908
920.203	31.07548
920.591	62.15347
920.978	75.18289
921.365	54.14163
921.752	55.13106
922.139	84.18118
922.525	27.06515
922.912	76.18454
923.299	69.17096
923.685	54.14081
924.072	50.11537
924.458	57.14107
924.844	54.13357
925.231	62.14402
925.617	43.10953
926.003	87.22097
926.389	35.08855
926.774	37.09401
927.16	87.21468
927.546	4.01029
927.931	67.16673
928.317	82.18777
928.702	117.27334
929.088	69.16265
929.473	73.18502
929.858	-3.00733
930.243	29.0699
930.628	58.14094
931.013	58.14357
931.398	82.18746
931.783	74.19408
932.167	7.01725
932.552	57.14267
932.937	90.2218
933.321	35.08808
933.705	60.15102
934.09	85.21352
934.474	98.2307
934.858	37.0962
935.242	-4.00937
935.626	43.11022
936.009	21.05613
936.393	59.14991
936.777	61.15592
937.16	76.19689
937.544	44.10382
937.927	62.157
938.311	138.33142
938.694	94.24679
939.077	31.07449
939.46	51.12525
939.843	85.17605
940.226	58.14859
940.609	25.05769
940.991	46.11719
941.374	51.12465
941.757	70.17213
942.139	28.06319
942.522	72.1695
942.904	41.09875
943.286	62.15723
943.668	52.13467
944.05	83.20323
944.432	73.17941
944.814	91.22249
945.196	15.0368
945.578	24.05733
945.959	35.08228
946.341	117.28371
946.722	97.22563
947.104	54.129
947.485	76.17598
947.866	28.07083
948.247	9.02288
948.628	123.29602
949.009	42.10772
949.39	74.18344
949.771	84.19412
950.152	37.09103
950.532	-6.01491
950.913	34.08228
951.293	47.12703
951.674	57.1377
952.054	57.14107
952.434	29.07227
952.814	86.20324
953.194	49.12827
953.574	97.23689
953.954	57.1352
954.334	70.17385
954.714	42.10252
955.093	83.20285
955.473	38.09523
955.853	52.13457
956.232	23.06331
956.611	73.17435
956.99	54.13562
957.37	65.16521
957.749	67.15935
958.128	12.03044
958.506	63.16307
958.885	34.08607
959.264	44.10796
959.643	68.15421
960.021	32.07956
960.4	11.02513
960.778	77.18875
961.156	77.1921
961.535	48.11194
961.913	67.15628
962.291	53.1359
962.669	40.10151
963.047	67.17048
963.424	62.15789
963.802	49.12051
964.18	97.2434
964.557	72.16513
964.935	119.27823
965.312	36.09397
965.69	84.20907
966.067	50.12177
966.444	90.22017
966.821	110.28063
967.198	83.20013
967.575	71.17391
967.952	45.10616
968.329	84.20312
968.705	109.23081
969.082	68.17385
969.458	17.04104
969.835	80.19366
970.211	33.08494
970.587	85.21029
970.963	74.18905
971.339	65.16929
971.715	90.22311
972.091	66.16206
972.467	106.26171
972.843	40.09945
973.219	74.17691
973.594	56.14632
973.97	81.19168
974.345	76.181
974.721	47.11389
975.096	73.17589
975.471	40.09508
975.846	45.10822
976.221	54.13704
976.596	78.18598
976.971	89.21816
977.346	70.16235
977.72	67.17018
978.095	48.12409
978.469	24.05757
978.844	72.18031
979.218	34.08175
979.593	68.16238
979.967	49.1194
980.341	36.08313
980.715	73.18318
981.089	56.14004
981.463	25.05769
981.837	51.1246
982.21	93.21462
982.584	6.01461
982.957	67.16679
983.331	63.14857
983.704	54.13259
984.078	37.0914
984.451	81.2012
984.824	21.05142
985.197	79.19085
985.57	55.13781
985.943	135.32822
986.316	80.19549
986.688	94.22481
987.061	82.19101
987.434	77.19972
987.806	64.15482
988.179	41.09691
988.551	60.15194
988.923	53.13045
989.295	87.21595
989.667	15.03607
990.039	64.15773
990.411	32.07392
990.783	59.13562
991.155	50.12013
991.527	108.26312
991.898	31.07751
992.27	47.11632
992.641	98.24374
993.012	77.18024
993.384	35.08372
993.755	96.24275
994.126	11.02665
994.497	30.07391
994.868	71.16241
995.239	78.18804
995.61	44.11083
995.98	37.09009
996.351	34.08444
996.722	21.04898
997.092	2.00478
997.462	7.01649
997.833	54.12791
998.203	87.20946
998.573	21.05256
998.943	37.08698
999.313	45.10793
999.683	41.09856
1000.053	84.19196
1000.423	100.24071
1000.792	73.18843
1001.162	31.07655
1001.531	66.16224
1001.901	67.16649
1002.27	63.14046
1002.639	56.14292
1003.009	85.20076
1003.378	51.13036
1003.747	46.10875
1004.116	80.19031
1004.485	76.18072
1004.853	70.17669
1005.222	53.13357
1005.591	72.17022
1005.959	19.04308
1006.328	48.10805
1006.696	33.07984
1007.064	35.08827
1007.433	62.1546
1007.801	102.24794
1008.169	54.13626
1008.537	70.15435
1008.905	45.10492
1009.273	80.1965
1009.64	24.05753
1010.008	44.10499
1010.375	104.24996
1010.743	127.28876
1011.11	40.09482
1011.478	72.17744
1011.845	71.16626
1012.212	57.12881
1012.579	68.16635
1012.946	114.26795
1013.313	79.18695
1013.68	100.22244
1014.047	17.04076
1014.414	51.12041
1014.78	80.19767
1015.147	106.25361
1015.513	38.09175
1015.88	110.27825
1016.246	87.21326
1016.612	107.2421
1016.978	84.2045
1017.344	71.17475
1017.71	104.251
1018.076	85.19905
1018.442	86.21979
1018.808	65.16199
1019.174	16.04037
1019.539	126.28561
1019.905	45.1062
1020.27	71.17449
1020.636	106.25138
1021.001	86.20442
1021.366	44.10575
1021.731	63.1616
1022.096	31.07843
1022.461	55.13
1022.826	75.17735
1023.191	51.13374
1023.556	94.21835
1023.92	109.26501
1024.285	49.11958
1024.649	52.12735
1025.014	68.16783
1025.378	38.09571
1025.742	42.10442
1026.107	110.24569
1026.471	124.28519
1026.835	49.12145
1027.199	45.10838
1027.562	67.15517
1027.926	89.21598
1028.29	80.20128
1028.654	68.15583
1029.017	65.15928
1029.381	65.15477
1029.744	42.10723
1030.107	109.25485
1030.471	15.03614
1030.834	93.20965
1031.197	102.2432
1031.56	63.14822
1031.923	53.1369
1032.286	87.20277
1032.648	93.22051
1033.011	18.04156
1033.374	76.17766
1033.736	52.13661
1034.099	66.16032
1034.461	40.10118
1034.823	42.10469
1035.185	95.23709
1035.548	66.16007
1035.91	69.16461
1036.272	75.16977
1036.634	119.28726
1036.995	95.22124
1037.357	44.10712
1037.719	67.16235
1038.08	46.10926
1038.442	47.11157
1038.803	87.20731
1039.165	75.18833
1039.526	31.07514
1039.887	55.13141
1040.248	29.07169
1040.609	73.17954
1040.97	38.09303
1041.331	71.17899
1041.692	29.06794
1042.053	58.1318
1042.413	80.18525
1042.774	62.15037
1043.134	78.18462
1043.495	54.13557
1043.855	45.1092
1044.215	69.17058
1044.576	13.03129
1044.936	76.17326
1045.296	70.17397
1045.656	35.08608
1046.016	108.2577
1046.375	20.04876
1046.735	58.13121
1047.095	65.15162
1047.454	62.13097
1047.814	93.22161
1048.173	89.21094
1048.533	21.04837
1048.892	46.11043
1049.251	61.15274
1049.61	50.12304
1049.969	13.03085
1050.328	54.11692
1050.687	59.14323
1051.046	71.1721
1051.405	59.14645
1051.763	36.08296
1052.122	40.09988
1052.48	107.25946
1052.839	23.05437
1053.197	42.09895
1053.555	114.25642
1053.914	100.24217
1054.272	92.22053
1054.63	40.09793
1054.988	34.08097
1055.345	54.11612
1055.703	91.21718
1056.061	63.1616
1056.419	48.12422
1056.776	63.15231
1057.134	49.1134
1057.491	61.15235
1057.848	79.19552
1058.206	86.20072
1058.563	48.10579
1058.92	103.23476
1059.277	60.14765
1059.634	59.13849
1059.991	91.21618
1060.348	24.05449
1060.704	27.06459
1061.061	62.14362
1061.418	69.16663
1061.774	62.15263
1062.131	38.10061
1062.487	37.08668
1062.843	78.19336
1063.199	63.1562
1063.555	63.1455
1063.911	83.20827
1064.267	61.12685
1064.623	61.14775
1064.979	122.28485
1065.335	80.19001
1065.691	95.2256
1066.046	82.17899
1066.402	33.07518
1066.757	74.18585
1067.112	74.18069
1067.468	43.1016
1067.823	89.21224
1068.178	36.08725
1068.533	50.12113
1068.888	81.19228
1069.243	56.13796
1069.598	74.17887
1069.952	5.01135
1070.307	72.17738
1070.662	54.12801
1071.016	28.06298
1071.371	39.08885
1071.725	88.20885
1072.079	51.12256
1072.434	25.06099
1072.788	81.19161
1073.142	57.13993
1073.496	39.09265
1073.85	48.11128
1074.203	56.13562
1074.557	58.15392
1074.911	97.22928
1075.265	87.20061
1075.618	57.1389
1075.971	50.11885
1076.325	65.16463
1076.678	30.06883
1077.031	49.11083
1077.385	88.19217
1077.738	56.12617
1078.091	23.05255
1078.444	71.16405
1078.796	68.16616
1079.149	31.07731
1079.502	-9.02149
1079.855	60.13954
1080.207	93.22712
1080.56	55.14192
1080.912	64.15528
1081.264	35.08446
1081.617	79.19135
1081.969	44.11102
1082.321	69.16776
1082.673	11.02528
1083.025	52.12322
1083.377	81.17257
1083.728	59.1373
1084.08	47.1173
1084.432	50.12049
1084.783	77.17932
1085.135	21.05287
1085.486	17.03912
1085.838	32.07901
1086.189	47.11406
1086.54	65.15465
1086.891	42.10628
1087.242	42.10232
1087.593	69.16726
1087.944	70.15764
1088.295	82.18505
1088.646	88.21159
1088.996	27.06528
1089.347	51.12502
1089.698	5.01191
1090.048	72.18614
1090.398	107.24516
1090.749	58.13845
1091.099	35.08817
1091.449	77.19071
1091.799	45.11267
1092.149	-1.00246
1092.499	58.14115
1092.849	81.20457
1093.199	87.21642
1093.548	44.10575
1093.898	48.12003
1094.248	90.22944
1094.597	11.02825
1094.947	45.12004
1095.296	63.15506
1095.645	41.10671
1095.994	47.11286
1096.343	95.23692
1096.692	78.20374
1097.041	23.06249
1097.39	58.14515
1097.739	27.07039
1098.088	55.1471
1098.437	31.08162
1098.785	63.16933
1099.134	96.25272
1099.482	50.13739
1099.83	70.18316
1100.179	38.09922
1100.527	47.12483
1100.875	40.10583
1101.223	52.13791
1101.571	21.05824
1101.919	27.07075
1102.267	44.12388
1102.615	10.03213
1102.962	21.06753
1103.31	6.01928
1103.658	15.04829
