Data from N2 R10 sample 2_Subt2__0__13-30-02-748.txt Node

Date: Mon Sep 01 13:30:02 PDT 2025
User: uwsun
Spectrometer: HDX01956
Trigger mode: 0
Integration Time (sec): 5.000000E-1
Scans to average: 1
Nonlinearity correction enabled: true
Boxcar width: 0
Storing dark spectrum: false
XAxis mode: Wavelengths
Number of Pixels in Spectrum: 2068
>>>>>Begin Spectral Data<<<<<
194.03	46.1282
194.578	65.20391
195.127	78.24065
195.676	55.17072
196.225	90.23516
196.773	102.2751
197.321	145.37983
197.87	244.5766
198.418	212.4973
198.966	128.30706
199.513	107.24526
200.061	150.34678
200.609	164.40059
201.156	91.18265
201.704	131.30219
202.251	141.34268
202.798	153.36374
203.345	208.46707
203.892	144.33211
204.438	198.42925
204.985	130.27991
205.532	177.42387
206.078	171.38218
206.624	147.32895
207.17	185.38951
207.716	154.33999
208.262	179.31899
208.808	151.3365
209.354	173.38121
209.899	236.54016
210.445	177.39754
210.99	122.26867
211.535	207.43985
212.08	227.47457
212.625	166.37964
213.17	210.48239
213.715	113.22848
214.259	190.40153
214.804	230.5135
215.348	187.38817
215.892	183.39902
216.436	243.50666
216.98	190.38215
217.524	145.31348
218.068	220.50192
218.612	147.34072
219.155	192.40985
219.698	214.46117
220.242	196.44681
220.785	158.33859
221.328	183.41709
221.871	206.47775
222.414	195.44444
222.956	117.25955
223.499	182.37315
224.041	236.49852
224.583	184.36445
225.126	138.27999
225.668	134.30004
226.21	141.32643
226.751	139.27796
227.293	177.3702
227.835	158.35334
228.376	219.45967
228.918	172.39937
229.459	112.25739
230	123.27024
230.541	171.36066
231.082	179.39576
231.622	163.3444
232.163	133.29615
232.704	180.40636
233.244	163.36986
233.784	152.34357
234.324	101.20338
234.864	134.27896
235.404	218.46999
235.944	158.34371
236.484	194.44171
237.023	172.3697
237.563	140.29587
238.102	152.32869
238.641	150.34802
239.18	136.29006
239.719	196.44699
240.258	163.33427
240.797	193.41725
241.335	172.38433
241.874	136.23777
242.412	133.29258
242.95	163.3527
243.488	151.31442
244.026	115.24287
244.564	203.3749
245.102	145.29615
245.64	179.39295
246.177	123.2527
246.715	213.46167
247.252	188.39103
247.789	231.38889
248.326	113.24754
248.863	175.3454
249.4	172.35408
249.936	153.28468
250.473	171.35987
251.009	111.23206
251.546	155.30895
252.082	161.31897
252.618	170.34066
253.154	139.30308
253.69	117.24048
254.226	182.39103
254.761	215.43054
255.297	121.24062
255.832	140.3004
256.367	175.37137
256.903	179.35214
257.438	202.42577
257.972	185.36926
258.507	128.26469
259.042	189.36673
259.576	115.22314
260.111	228.46915
260.645	226.43381
261.179	151.31708
261.713	163.32505
262.247	158.32849
262.781	152.285
263.315	179.39228
263.849	139.31412
264.382	202.41453
264.915	171.35749
265.449	135.29424
265.982	187.38037
266.515	231.49812
267.048	157.29648
267.58	200.38965
268.113	151.29117
268.646	161.35596
269.178	144.28736
269.71	221.42554
270.243	178.36297
270.775	193.43757
271.307	198.42559
271.838	220.46513
272.37	149.32902
272.902	187.37828
273.433	170.3301
273.965	227.48718
274.496	181.40269
275.027	145.32246
275.558	190.40839
276.089	157.34175
276.62	184.41861
277.15	179.39443
277.681	186.35789
278.211	158.34707
278.741	158.30723
279.272	147.29791
279.802	186.41252
280.332	169.35222
280.861	164.35069
281.391	178.35504
281.921	178.38079
282.45	189.41891
282.98	197.45479
283.509	171.33878
284.038	178.35669
284.567	233.47588
285.096	147.31563
285.625	156.31203
286.153	184.37742
286.682	159.31958
287.21	164.34719
287.739	184.38049
288.267	151.3217
288.795	195.45251
289.323	150.30671
289.851	185.37853
290.378	188.36679
290.906	141.29883
291.433	174.38012
291.961	161.31703
292.488	160.34954
293.015	185.3763
293.542	175.3853
294.069	153.32809
294.596	182.39322
295.122	196.40385
295.649	192.36498
296.175	161.34107
296.702	189.39775
297.228	195.41092
297.754	156.30291
298.28	194.37634
298.806	200.41172
299.332	178.3354
299.857	187.36007
300.383	240.52052
300.908	89.18763
301.433	182.37771
301.958	215.42376
302.483	180.38357
303.008	212.44782
303.533	253.56076
304.058	208.41777
304.582	169.33874
305.107	145.32487
305.631	202.39092
306.155	199.3889
306.679	169.33309
307.203	206.4
307.727	216.42943
308.251	160.33665
308.775	156.31058
309.298	183.36544
309.822	202.42876
310.345	229.44944
310.868	190.37862
311.391	223.45752
311.914	187.39077
312.437	272.50674
312.96	145.28525
313.482	198.38667
314.005	209.43364
314.527	206.44755
315.049	213.44609
315.571	220.39134
316.093	257.51488
316.615	214.41831
317.137	218.37974
317.659	276.53951
318.18	262.5085
318.702	249.46031
319.223	199.32333
319.744	205.36494
320.265	188.364
320.786	237.46162
321.307	233.45902
321.828	229.40514
322.348	235.4316
322.869	234.42663
323.389	-1.0013
323.909	298.52022
324.43	320.59321
324.95	230.40192
325.47	194.36861
325.989	273.48274
326.509	255.4134
327.029	285.46962
327.548	225.37383
328.067	230.41253
328.587	286.53044
329.106	291.47817
329.625	300.59616
330.144	240.40261
330.662	282.46583
331.181	264.44433
331.7	287.47818
332.218	312.46508
332.736	331.53937
333.255	269.43856
333.773	304.4994
334.291	333.58424
334.808	264.40069
335.326	317.48044
335.844	264.41149
336.361	309.52761
336.879	330.5012
337.396	283.45311
337.913	295.44013
338.43	353.49934
338.947	259.40381
339.464	242.3257
339.981	231.35384
340.497	340.53618
341.014	254.39751
341.53	299.41086
342.046	319.48607
342.562	366.56654
343.078	308.44133
343.594	338.48768
344.11	349.49525
344.626	363.54953
345.141	396.51029
345.657	401.51762
346.172	394.5452
346.687	277.36704
347.202	400.48625
347.717	398.5291
348.232	401.56729
348.747	378.46975
349.261	351.39143
349.776	381.48102
350.29	329.44125
350.805	406.54841
351.319	389.47405
351.833	270.31915
352.347	389.46895
352.861	318.38287
353.374	417.48388
353.888	380.47357
354.401	433.48116
354.915	355.37553
355.428	402.49784
355.941	424.46186
356.454	447.46771
356.967	381.43611
357.48	389.42185
357.993	429.50714
358.505	395.4566
359.018	454.51295
359.53	468.49989
360.042	430.40951
360.554	511.54442
361.066	417.4544
361.578	451.39728
362.09	440.45458
362.602	375.33758
363.113	463.4362
363.625	439.38812
364.136	500.41187
364.647	339.3068
365.158	457.41047
365.669	526.48158
366.18	468.42173
366.691	530.40055
367.201	490.43517
367.712	476.37324
368.222	386.31488
368.733	414.28354
369.243	511.33624
369.753	564.40189
370.263	508.39113
370.773	507.41008
371.282	522.36442
371.792	468.26904
372.301	458.30704
372.811	478.37749
373.32	483.18896
373.829	459.23529
374.338	518.19503
374.847	601.20743
375.356	550.19845
375.865	547.0775
376.373	625.09918
376.882	686.20231
377.39	674.12195
377.898	531.0696
378.407	603.97416
378.915	786.8779
379.423	766.90312
379.93	745.84652
380.438	639.85984
380.946	862.70801
381.453	734.73289
381.96	770.6613
382.468	739.62177
382.975	937.51015
383.482	1013.44094
383.989	909.5102
384.495	966.46313
385.002	983.50941
385.509	1008.50069
386.015	1004.67536
386.521	1172.66108
387.028	1174.81543
387.534	1248.01734
388.04	1338.98953
388.546	1019.24635
389.051	988.57064
389.557	1303.32181
390.063	1922.73845
390.568	1542.46601
391.073	1461.1423
391.578	1678.13316
392.084	1462.46506
392.589	1223.70231
393.093	1004.73064
393.598	1337.06172
394.103	1568.51967
394.607	1945.74903
395.112	2325.96311
395.616	2233.39771
396.12	1924.85033
396.624	2064.01808
397.128	2423.0293
397.632	3153.95583
398.136	3414.19851
398.639	1809.56254
399.143	1048.0339
399.646	1834.6897
400.15	1637.25256
400.653	844.23636
401.156	102.68471
401.659	-770.06315
402.162	-119.26816
402.664	0
403.167	0
403.67	0
404.172	0
404.674	0
405.176	0
405.678	0
406.18	0
406.682	0
407.184	0
407.686	0
408.187	0
408.688	0
409.19	0
409.691	0
410.192	0
410.693	0
411.194	435.30976
411.694	4082.94878
412.195	8864.71461
412.696	12089.80453
413.196	12760.96929
413.696	12483.61109
414.196	13341.92081
414.696	16971.84537
415.196	19949.55974
415.696	22108.07153
416.196	18261.44683
416.695	11679.07568
417.195	7762.48829
417.694	7737.43827
418.194	7510.31507
418.693	6228.79128
419.192	5935.19127
419.691	5797.87341
420.19	5999.46064
420.688	6197.0969
421.187	6181.95583
421.685	6258.6116
422.184	5860.83983
422.682	5118.69974
423.18	3622.49578
423.678	2949.20621
424.176	2706.92024
424.674	2479.48459
425.172	2803.58732
425.669	2568.29591
426.167	2555.35051
426.664	2109.22755
427.161	1961.69635
427.659	1759.3033
428.156	1549.36124
428.652	1478.2085
429.149	1506.19094
429.646	1373.25212
430.143	1437.2483
430.639	1306.34809
431.135	1166.50731
431.632	990.6046
432.128	1068.65684
432.624	770.86378
433.12	673.81933
433.616	701.82177
434.111	533.92723
434.607	513.97663
435.103	697.9147
435.598	705.93015
436.093	670.0777
436.588	622.0954
437.083	654.13771
437.578	575.17909
438.073	344.17064
438.568	533.28063
439.062	507.17835
439.557	503.28307
440.051	349.19656
440.546	311.18636
441.04	300.21563
441.534	308.2634
442.028	395.30242
442.522	271.22126
443.015	286.19613
443.509	310.27655
444.002	353.31019
444.496	304.22235
444.989	292.27474
445.482	235.23495
445.975	166.14121
446.468	299.22212
446.961	264.20228
447.454	230.20474
447.947	193.1871
448.439	233.244
448.931	89.08485
449.424	246.28073
449.916	226.24389
450.408	145.14055
450.9	178.19513
451.392	103.12608
451.884	175.18428
452.375	59.07207
452.867	197.20829
453.358	112.11874
453.849	115.11214
454.341	98.10674
454.832	78.08017
455.323	61.07687
455.814	60.07101
456.304	57.06833
456.795	84.09934
457.285	132.15255
457.776	156.18844
458.266	23.02996
458.756	128.16804
459.247	8.01062
459.737	16.02135
460.226	72.08785
460.716	41.05592
461.206	-12.01704
461.695	39.05878
462.185	44.0611
462.674	60.08133
463.163	44.05721
463.653	82.09819
464.142	58.0845
464.63	60.091
465.119	-13.01859
465.608	0
466.096	35.04714
466.585	65.09479
467.073	40.06201
467.561	-22.03507
468.05	60.09013
468.538	67.10861
469.026	22.03507
469.513	-21.02892
470.001	10.01502
470.489	-8.01278
470.976	9.0141
471.463	44.07579
471.951	32.05624
472.438	-25.04105
472.925	-60.09899
473.412	-8.01421
473.899	25.04064
474.385	10.01778
474.872	-12.02008
475.359	-67.12113
475.845	-32.04752
476.331	17.02689
476.817	-54.0996
477.303	-25.0433
477.789	-78.14372
478.275	-57.10801
478.761	-50.09264
479.247	-6.0102
479.732	-85.16446
480.218	-56.1145
480.703	-87.17083
481.188	-50.08268
481.673	-52.09298
482.158	-84.13767
482.643	-29.05907
483.128	-98.1774
483.612	-51.09484
484.097	-43.08499
484.581	-9.0167
485.066	-51.09986
485.55	-76.13371
486.034	-69.11997
486.518	-59.11174
487.002	-160.32537
487.486	-109.22019
487.969	-129.26227
488.453	-97.20531
488.936	-106.19845
489.42	-70.1284
489.903	-53.11198
490.386	-523.80811
490.869	-38.06882
491.352	-44.09111
491.835	-92.16059
492.318	-100.19065
492.8	-60.1039
493.283	-118.25691
493.765	-145.30784
494.247	-33.06565
494.73	-94.17764
495.212	-73.15248
495.694	-126.25354
496.175	-191.39417
496.657	-55.11203
497.139	-4.00587
497.62	-132.27039
498.102	-95.20389
498.583	-104.22787
499.064	-141.27372
499.545	-104.20667
500.026	-120.23457
500.507	-135.27585
500.988	-112.24478
501.469	-111.24326
501.949	-110.24021
502.43	-135.28136
502.91	-169.30944
503.39	-111.24665
503.87	-199.41843
504.35	-133.28027
504.83	-119.22958
505.31	-128.27466
505.79	-141.29922
506.269	-150.31422
506.749	-162.33004
507.228	-176.36999
507.707	-112.21966
508.187	-85.18046
508.666	-159.34934
509.145	-186.39135
509.623	-179.3792
510.102	-174.38125
510.581	-63.13515
511.059	-176.39749
511.538	-118.27453
512.016	-85.18078
512.494	-119.2598
512.972	-115.24596
513.45	-195.40749
513.928	-134.29175
514.406	-190.41226
514.884	-161.37479
515.361	-151.32701
515.839	-154.31717
516.316	-115.24852
516.793	-140.32199
517.27	-135.29761
517.747	-144.33449
518.224	-136.28577
518.701	-143.28928
519.178	-194.43867
519.654	-111.23967
520.131	-203.46192
520.607	-138.31243
521.083	-140.29067
521.56	-202.43998
522.036	-137.27447
522.512	-139.31399
522.987	-209.45609
523.463	-154.33458
523.939	-103.22944
524.414	-136.28779
524.89	-174.38028
525.365	-171.35623
525.84	-157.33942
526.315	-179.39675
526.79	-117.24037
527.265	-157.3291
527.74	-172.38592
528.215	-190.41472
528.689	-156.31738
529.164	-149.29837
529.638	-147.34786
530.112	-193.42064
530.587	-185.36446
531.061	-197.43955
531.534	-151.33804
532.008	-181.40219
532.482	-148.31387
532.956	-186.43768
533.429	-134.29856
533.903	-152.31164
534.376	-137.27892
534.849	-121.25767
535.322	-111.24008
535.795	-173.39271
536.268	-145.32126
536.741	-142.31533
537.213	-110.23359
537.686	-141.31578
538.158	-92.18718
538.631	-101.22573
539.103	-133.27374
539.575	-105.2015
540.047	-121.24511
540.519	-77.16832
540.991	-59.1317
541.463	-89.19727
541.934	-79.16494
542.406	-124.27158
542.877	-88.18157
543.348	-87.1926
543.82	-85.19115
544.291	-37.07845
544.762	-93.20115
545.233	-77.1755
545.703	-70.14034
546.174	-44.0925
546.645	-100.21652
547.115	-26.0562
547.585	3.00616
548.056	-32.06869
548.526	-51.10724
548.996	49.1038
549.466	21.0456
549.935	64.13146
550.405	59.11213
550.875	47.09708
551.344	110.22778
551.814	106.20986
552.283	172.31725
552.752	149.29312
553.221	166.30157
553.69	230.42295
554.159	192.39454
554.628	180.335
555.096	254.53395
555.565	319.57646
556.033	294.5736
556.502	314.6298
556.97	330.60107
557.438	351.68726
557.906	417.81031
558.374	426.79644
558.842	409.80348
559.31	448.8148
559.777	426.84339
560.245	549.0327
560.712	561.03513
561.18	594.02482
561.647	639.10823
562.114	686.1997
562.581	741.40969
563.048	775.35538
563.514	793.4759
563.981	899.50949
564.448	867.43106
564.914	1045.72696
565.381	1014.64555
565.847	1094.79981
566.313	1154.85289
566.779	1182.80629
567.245	1221.93509
567.711	1270.04375
568.176	1295.89375
568.642	1334.2344
569.108	1385.23077
569.573	1491.2157
570.038	1546.92055
570.504	1581.10667
570.969	1664.55088
571.434	1645.07604
571.899	1752.41937
572.363	1744.26496
572.828	1904.3775
573.293	1908.37444
573.757	1977.4078
574.222	1943.27081
574.686	1966.29109
575.15	1992.53168
575.614	2057.42277
576.078	2025.49583
576.542	2014.38829
577.006	2088.36815
577.469	2076.76879
577.933	1972.28997
578.396	2046.57423
578.86	2060.54301
579.323	1992.54368
579.786	1962.17868
580.249	1902.33412
580.712	1941.64088
581.175	1813.59042
581.637	1876.39658
582.1	1867.2253
582.563	1771.11532
583.025	1753.48783
583.487	1715.88397
583.95	1662.03121
584.412	1641.97799
584.874	1552.34823
585.336	1508.23654
585.797	1492.96277
586.259	1433.17473
586.721	1380.09666
587.182	1453.1781
587.643	1339.98498
588.105	1308.06163
588.566	1235.71403
589.027	1205.98711
589.488	1166.8269
589.949	1127.92669
590.41	1103.42902
590.87	1074.73749
591.331	1076.62305
591.791	978.63232
592.252	940.56269
592.712	988.73486
593.172	894.48515
593.632	950.51454
594.092	952.54196
594.552	941.46474
595.011	844.44814
595.471	902.48697
595.931	849.41211
596.39	786.44077
596.849	826.45427
597.308	859.38652
597.768	768.51606
598.227	852.55417
598.685	804.41102
599.144	765.37581
599.603	783.42481
600.062	792.24312
600.52	769.30328
600.978	801.45174
601.437	857.47246
601.895	833.31111
602.353	839.39619
602.811	866.42664
603.269	855.54354
603.727	807.47378
604.184	882.46516
604.642	921.6782
605.099	873.51122
605.557	905.64898
606.014	842.33947
606.471	882.64715
606.928	882.37054
607.385	889.59934
607.842	945.5706
608.299	1078.77534
608.755	1080.84557
609.212	972.54535
609.668	987.54649
610.125	1154.9483
610.581	1086.8509
611.037	1180.86922
611.493	1113.87121
611.949	1109.89277
612.405	1092.49222
612.861	1147.91086
613.316	1137.91586
613.772	1160.85732
614.227	1091.83707
614.683	1152.70736
615.138	1066.79141
615.593	1074.78925
616.048	1134.83707
616.503	1174.05702
616.958	1078.97239
617.412	1067.83058
617.867	1084.69678
618.321	1128.62511
618.776	1091.72605
619.23	1033.7815
619.684	1111.80216
620.138	1176.94602
620.592	1065.909
621.046	1108.8946
621.5	1041.88305
621.954	1031.7197
622.407	1045.71269
622.861	982.8108
623.314	1009.7197
623.768	1000.75233
624.221	1002.43979
624.674	965.6895
625.127	930.67627
625.58	1005.73674
626.033	944.59952
626.485	831.57815
626.938	897.67481
627.39	876.60288
627.843	885.60921
628.295	802.48936
628.747	878.65341
629.199	845.527
629.651	729.35523
630.103	725.36382
630.555	746.28299
631.006	735.42267
631.458	724.41438
631.909	772.45845
632.361	686.34193
632.812	648.26389
633.263	718.28153
633.714	695.24198
634.165	652.34879
634.616	609.24593
635.067	641.21381
635.518	649.32549
635.968	642.09195
636.419	637.18272
636.869	596.23168
637.319	556.12321
637.769	573.11339
638.219	624.29309
638.669	498.05552
639.119	518.12331
639.569	541.15256
640.019	553.1271
640.468	530.04658
640.918	548.16978
641.367	512.02138
641.816	516.02604
642.265	488.01175
642.714	515.06237
643.163	475.98463
643.612	438.95353
644.061	398.76915
644.51	439.90838
644.958	452.89906
645.406	453.98387
645.855	440.98508
646.303	473.00091
646.751	434.89945
647.199	458.94579
647.647	411.86758
648.095	391.82609
648.543	453.84421
648.99	412.90455
649.438	459.98502
649.885	409.93433
650.333	451.79383
650.78	428.94915
651.227	384.8661
651.674	403.84733
652.121	409.91927
652.568	417.93341
653.015	479.10528
653.461	410.90016
653.908	478.01261
654.354	469.02228
654.801	433.93324
655.247	505.00202
655.693	425.02349
656.139	448.98729
656.585	426.94432
657.031	375.8138
657.477	410.81818
657.922	466.98129
658.368	464.05126
658.813	478.01791
659.259	425.94387
659.704	474.00894
660.149	438.94219
660.594	448.98108
661.039	460.96312
661.484	483.05819
661.929	468.00521
662.373	418.98077
662.818	473.07841
663.262	467.03296
663.707	475.10777
664.151	472.06162
664.595	468.03841
665.039	530.20251
665.483	460.0826
665.927	461.00268
666.371	453.96712
666.814	470.03593
667.258	457.99847
667.701	494.97985
668.145	510.16548
668.588	521.16986
669.031	489.05423
669.474	455.01558
669.917	515.04285
670.36	503.14692
670.803	512.13479
671.245	498.96334
671.688	526.17603
672.13	488.00499
672.573	554.28595
673.015	553.20927
673.457	552.0896
673.899	541.19842
674.341	524.15951
674.783	487.07728
675.225	605.34261
675.666	499.10295
676.108	610.18739
676.549	609.30103
676.991	531.06942
677.432	554.99795
677.873	530.12347
678.314	535.17034
678.755	584.28924
679.196	565.17509
679.637	601.33096
680.078	607.28331
680.518	536.14659
680.959	569.24116
681.399	595.33844
681.839	542.20936
682.28	639.41639
682.72	549.14632
683.16	604.36231
683.6	634.29804
684.039	566.06866
684.479	602.33789
684.919	629.29795
685.358	612.40898
685.798	581.39081
686.237	651.41366
686.676	615.28946
687.115	641.35174
687.554	647.37754
687.993	682.33661
688.432	664.35219
688.871	603.2342
689.309	635.36367
689.748	717.3124
690.186	688.46398
690.625	629.32582
691.063	632.3645
691.501	688.51783
691.939	656.46887
692.377	678.47641
692.815	683.45364
693.253	701.49846
693.69	713.37739
694.128	667.44414
694.565	724.52531
695.003	708.60033
695.44	699.45614
695.877	644.34767
696.314	706.33681
696.751	733.4709
697.188	700.42237
697.625	784.56723
698.061	702.49445
698.498	779.64955
698.934	724.542
699.371	692.44569
699.807	744.5469
700.243	718.52854
700.679	757.49746
701.115	746.54556
701.551	765.57685
701.987	765.4999
702.422	776.60778
702.858	731.53569
703.294	758.49979
703.729	837.77091
704.164	746.57996
704.599	733.43098
705.035	725.42337
705.47	752.60723
705.904	716.47211
706.339	769.56453
706.774	762.56047
707.209	706.43849
707.643	767.61351
708.078	733.57638
708.512	679.51823
708.946	753.58681
709.38	755.56945
709.814	788.5636
710.248	778.65997
710.682	733.53584
711.116	690.46124
711.549	736.68657
711.983	726.47661
712.416	742.54411
712.85	735.62193
713.283	733.5284
713.716	729.62609
714.149	773.61261
714.582	736.44805
715.015	733.62761
715.448	662.50114
715.881	725.39258
716.313	691.43818
716.746	702.46402
717.178	723.5362
717.61	731.64531
718.043	674.50611
718.475	666.44596
718.907	735.65162
719.339	684.37339
719.77	573.2367
720.202	662.50539
720.634	633.38735
721.065	691.45603
721.497	630.39439
721.928	639.41286
722.359	595.30069
722.79	646.38762
723.221	641.45731
723.652	643.50186
724.083	602.22519
724.514	623.28843
724.945	557.19647
725.375	543.15232
725.806	596.35573
726.236	597.39542
726.666	614.3137
727.096	571.28072
727.526	527.23548
727.956	533.10991
728.386	582.30729
728.816	556.2906
729.246	513.15046
729.675	546.23285
730.105	522.18624
730.534	512.10509
730.964	508.19111
731.393	527.20946
731.822	540.27117
732.251	501.17993
732.68	493.07741
733.109	476.09203
733.537	513.14338
733.966	505.16121
734.395	509.08381
734.823	547.1285
735.251	446.00508
735.68	500.16274
736.108	494.1614
736.536	433.96003
736.964	447.97084
737.392	419.98983
737.82	435.9813
738.247	442.99363
738.675	455.01641
739.102	370.88003
739.53	426.0199
739.957	396.96602
740.384	488.1196
740.811	399.95899
741.238	386.89404
741.665	335.74372
742.092	381.86478
742.519	320.76084
742.945	379.86442
743.372	332.78846
743.798	339.83548
744.225	333.75891
744.651	322.77676
745.077	295.71071
745.503	344.80341
745.929	322.74229
746.355	363.86222
746.781	333.79159
747.207	237.54255
747.632	306.71804
748.058	306.73622
748.483	268.59932
748.908	304.72836
749.334	283.67302
749.759	233.53704
750.184	276.63677
750.609	300.71166
751.033	308.70209
751.458	275.59859
751.883	260.62676
752.307	225.5184
752.732	210.51408
753.156	245.58982
753.58	224.52134
754.005	236.58521
754.429	252.57654
754.853	223.54052
755.277	248.57195
755.7	204.49717
756.124	175.42864
756.548	239.55262
756.971	251.59693
757.394	193.48914
757.818	201.50796
758.241	205.51048
758.664	187.46499
759.087	134.29806
759.51	188.46091
759.933	160.38119
760.356	207.5207
760.778	155.37769
761.201	209.49916
761.623	210.5003
762.046	196.45815
762.468	211.49776
762.89	192.4667
763.312	190.45699
763.734	152.36296
764.156	152.37211
764.578	172.39162
765	193.46341
765.421	141.35507
765.843	168.43491
766.264	196.46605
766.686	129.32253
767.107	146.35117
767.528	94.23727
767.949	147.37058
768.37	118.28887
768.791	200.47556
769.212	93.23361
769.632	106.24701
770.053	143.37319
770.473	132.31942
770.894	140.34819
771.314	192.45162
771.734	125.29042
772.154	149.37898
772.575	157.36072
772.994	97.22091
773.414	143.34115
773.834	120.29878
774.254	116.28313
774.673	127.30796
775.093	99.24483
775.512	53.1316
775.931	84.21332
776.351	110.27239
776.77	99.24187
777.189	131.30988
777.607	85.21727
778.026	76.18992
778.445	72.1807
778.864	113.28874
779.282	100.24053
779.701	66.16713
780.119	94.23727
780.537	90.22457
780.955	155.38991
781.373	93.23
781.791	80.18053
782.209	105.24193
782.627	46.12191
783.045	119.27265
783.462	72.1844
783.88	74.19171
784.297	83.20894
784.715	19.04932
785.132	101.24409
785.549	95.23726
785.966	85.21383
786.383	42.10419
786.8	118.27291
787.217	69.1643
787.633	70.17511
788.05	127.29996
788.466	107.25184
788.883	62.15862
789.299	122.292
789.715	111.26866
790.131	69.17208
790.547	95.23683
790.963	94.23294
791.379	75.18982
791.795	66.15149
792.21	59.13881
792.626	79.18782
793.041	72.17809
793.457	91.22464
793.872	64.15119
794.287	26.06273
794.702	84.20701
795.117	64.15947
795.532	23.05821
795.947	131.31276
796.362	77.18433
796.776	120.27963
797.191	64.1572
797.605	17.04042
798.02	103.24967
798.434	101.22452
798.848	62.15319
799.262	44.10983
799.676	114.27659
800.09	76.18716
800.504	62.15105
800.918	24.05628
801.331	75.19667
801.745	51.11798
802.158	70.17524
802.572	78.18939
802.985	79.19114
803.398	77.18384
803.811	107.27369
804.224	96.23824
804.637	56.13403
805.05	85.19702
805.462	84.20625
805.875	40.10423
806.288	71.17146
806.7	43.10871
807.112	79.18333
807.525	54.13387
807.937	30.07478
808.349	95.23718
808.761	71.17488
809.173	60.14591
809.584	80.19767
809.996	35.08634
810.408	38.09861
810.819	8.01907
811.231	26.06768
811.642	39.09361
812.053	86.20411
812.464	146.34249
812.875	117.29664
813.286	65.16749
813.697	159.3662
814.108	57.13978
814.519	64.14319
814.929	85.21635
815.34	29.07096
815.75	59.15023
816.16	41.10281
816.571	75.19466
816.981	92.21666
817.391	63.15248
817.801	27.0676
818.211	60.1435
818.62	35.08487
819.03	55.13527
819.44	103.26752
819.849	63.15899
820.259	85.21704
820.668	17.04223
821.077	32.08002
821.486	59.14253
821.895	71.17552
822.304	27.07202
822.713	49.11641
823.122	69.17227
823.531	33.07885
823.939	66.16098
824.348	71.17269
824.756	109.27114
825.164	30.07605
825.573	37.09338
825.981	70.17366
826.389	50.12607
826.797	67.16788
827.205	48.11071
827.612	100.24545
828.02	21.04979
828.428	36.0922
828.835	55.14501
829.243	95.22542
829.65	57.142
830.057	85.20573
830.464	57.13921
830.871	48.11546
831.278	61.1477
831.685	78.17393
832.092	123.29815
832.499	56.12296
832.905	78.1971
833.312	43.09868
833.718	69.17189
834.124	67.15326
834.531	61.15395
834.937	54.13888
835.343	76.18315
835.749	82.19116
836.155	71.18568
836.561	86.21077
836.966	71.17353
837.372	80.20309
837.777	59.14714
838.183	88.19501
838.588	68.16876
838.993	115.2775
839.399	55.13472
839.804	-3.0074
840.209	21.05385
840.613	27.06059
841.018	52.13196
841.423	90.22977
841.828	71.17931
842.232	109.26788
842.637	68.16039
843.041	20.05163
843.445	84.20991
843.849	39.09698
844.253	71.1686
844.657	61.15362
845.061	37.08447
845.465	47.11389
845.869	90.20815
846.272	48.1172
846.676	65.15721
847.079	39.09955
847.483	79.19652
847.886	123.29602
848.289	46.12301
848.692	71.1795
849.095	120.28513
849.498	111.27893
849.901	65.14911
850.304	98.23267
850.707	58.14797
851.109	96.24145
851.512	44.10848
851.914	-17.04342
852.316	44.11162
852.718	2.00521
853.121	53.13006
853.523	24.05652
853.925	43.11245
854.326	59.14752
854.728	65.16696
855.13	33.08548
855.531	64.15283
855.933	61.14647
856.334	62.15448
856.736	36.08107
857.137	38.08876
857.538	23.05819
857.939	57.14086
858.34	73.17748
858.741	81.21089
859.142	60.14415
859.542	60.15822
859.943	50.12445
860.343	30.07467
860.744	71.17288
861.144	85.20635
861.544	59.14178
861.945	60.15286
862.345	67.16363
862.745	33.08239
863.145	87.20692
863.544	97.2434
863.944	92.21599
864.344	62.15392
864.743	108.26557
865.143	57.14642
865.542	44.10237
865.941	75.18507
866.34	120.28414
866.74	61.16358
867.139	47.11277
867.537	73.18548
867.936	50.12054
868.335	88.22268
868.734	45.11523
869.132	44.10253
869.531	63.15225
869.929	21.04823
870.327	69.16505
870.726	106.262
871.124	50.11706
871.522	27.06914
871.92	85.20859
872.318	74.18035
872.715	81.19966
873.113	110.26538
873.511	84.20823
873.908	19.04828
874.306	58.1442
874.703	122.30166
875.1	72.18368
875.497	57.13666
875.894	-5.01239
876.291	71.17378
876.688	33.08545
877.085	86.20521
877.482	56.14019
877.878	52.12527
878.275	52.13219
878.671	124.27238
879.068	88.21118
879.464	42.10179
879.86	43.10196
880.256	83.20383
880.652	72.18258
881.048	43.10681
881.444	97.2291
881.84	50.1272
882.236	58.14577
882.631	73.17861
883.027	76.18336
883.422	92.23371
883.817	-5.0127
884.213	75.19178
884.608	32.07881
885.003	17.04129
885.398	22.05539
885.793	80.19991
886.188	-26.06558
886.582	104.26448
886.977	54.12821
887.371	36.09136
887.766	37.09231
888.16	90.22319
888.554	79.19451
888.949	51.12816
889.343	87.21128
889.737	18.04825
890.131	11.02781
890.525	47.12035
890.918	46.11595
891.312	64.15289
891.706	83.21669
892.099	73.18515
892.492	67.14423
892.886	47.11517
893.279	48.12241
893.672	55.13999
894.065	92.22881
894.458	64.16068
894.851	104.25252
895.244	57.14549
895.637	48.11576
896.029	58.14173
896.422	62.15128
896.814	63.15638
897.206	25.05987
897.599	103.25248
897.991	61.14731
898.383	46.10888
898.775	67.15086
899.167	34.0796
899.559	88.22141
899.951	61.14363
900.342	81.20501
900.734	42.10442
901.125	80.20896
901.517	54.13254
901.908	79.18854
902.299	28.06878
902.69	19.04514
903.082	81.19516
903.473	44.10555
903.863	29.07431
904.254	64.14826
904.645	57.14169
905.036	39.09468
905.426	42.0964
905.817	80.19534
906.207	44.10503
906.597	41.09612
906.987	63.16301
907.378	39.09888
907.768	42.11124
908.158	48.11716
908.547	24.0623
908.937	40.10287
909.327	49.11909
909.717	88.22205
910.106	58.13919
910.495	77.1914
910.885	51.12922
911.274	49.12256
911.663	62.15711
912.052	138.3352
912.441	62.15739
912.83	38.0875
913.219	63.16459
913.608	107.25946
913.997	35.08802
914.385	45.10768
914.774	47.11457
915.162	55.13101
915.55	73.17595
915.939	29.0735
916.327	65.16187
916.715	42.10723
917.103	108.26312
917.491	116.28366
917.878	69.16914
918.266	96.24707
918.654	40.10241
919.041	23.06033
919.429	47.11105
919.816	62.15689
920.203	39.09482
920.591	86.21194
920.978	79.1925
921.365	61.1598
921.752	74.17569
922.139	57.12365
922.525	52.12489
922.912	96.23222
923.299	80.19781
923.685	54.14081
924.072	73.16766
924.458	80.19716
924.844	54.13357
925.231	42.09795
925.617	11.02818
926.003	74.18839
926.389	60.15113
926.774	71.17931
927.16	65.16105
927.546	50.12765
927.931	107.26433
928.317	84.19227
928.702	84.19751
929.088	21.04997
929.473	53.13481
929.858	23.0559
930.243	61.14614
930.628	57.13853
931.013	83.20451
931.398	81.18521
931.783	83.21735
932.167	109.26362
932.552	77.19203
932.937	98.24116
933.321	38.09558
933.705	65.16346
934.09	122.30442
934.474	78.18433
934.858	36.09362
935.242	14.03269
935.626	70.17858
936.009	58.15408
936.393	60.15242
936.777	63.16098
937.16	76.19689
937.544	78.18283
937.927	35.08906
938.311	92.22288
938.694	91.23903
939.077	56.13393
939.46	80.19541
939.843	119.24459
940.226	70.17896
940.609	85.19381
940.991	28.07156
941.374	42.10282
941.757	91.2229
942.139	58.13008
942.522	66.15555
942.904	70.16767
943.286	88.22213
943.668	70.18072
944.05	73.17908
944.432	55.13562
944.814	71.17424
945.196	37.0904
945.578	6.01438
945.959	80.18642
946.341	123.29792
946.722	68.15908
947.104	83.19718
947.485	101.23271
947.866	67.1683
948.247	67.16855
948.628	80.1941
949.009	48.12297
949.39	83.20542
949.771	89.20547
950.152	42.10324
950.532	31.07653
950.913	70.16824
951.293	51.13775
951.674	36.08731
952.054	68.16795
952.434	68.16826
952.814	104.24492
953.194	85.22115
953.574	97.23689
953.954	27.06441
954.334	46.11474
954.714	50.12186
955.093	81.19804
955.473	39.09772
955.853	46.11917
956.232	43.11799
956.611	105.24925
956.99	41.10321
957.37	55.14004
957.749	51.12167
958.128	35.08843
958.506	54.13999
958.885	56.1412
959.264	29.07135
959.643	23.05263
960.021	19.04735
960.4	86.19352
960.778	104.25366
961.156	39.09797
961.535	101.23308
961.913	86.19985
962.291	23.05929
962.669	41.10403
963.047	72.18304
963.424	10.0257
963.802	60.14727
964.18	113.28273
964.557	82.18769
964.935	107.25076
965.312	64.16626
965.69	89.22131
966.067	72.17463
966.444	101.24657
966.821	74.18998
967.198	55.13332
967.575	63.15455
967.952	71.16665
968.329	56.13613
968.705	125.26376
969.082	54.13839
969.458	55.13182
969.835	43.10482
970.211	68.17397
970.587	45.11215
970.963	55.14098
971.339	58.15124
971.715	43.10751
972.091	58.14262
972.467	57.142
972.843	51.12654
973.219	76.18162
973.594	99.25678
973.97	99.23346
974.345	57.13624
974.721	103.24695
975.096	41.09938
975.471	104.24416
975.846	59.14151
976.221	48.12194
976.596	51.12223
976.971	56.13811
977.346	63.14631
977.72	39.09955
978.095	71.18282
978.469	86.20387
978.844	117.29062
979.218	7.01692
979.593	64.15295
979.967	62.15071
980.341	64.14696
980.715	65.16334
981.089	52.13013
981.463	65.14881
981.837	54.13186
982.21	103.23722
982.584	21.051
982.957	34.08515
983.331	108.25246
983.704	49.12043
984.078	45.111
984.451	79.1963
984.824	6.01473
985.197	50.12145
985.57	123.30441
985.943	100.24472
986.316	127.30761
986.688	61.14681
987.061	56.13111
987.434	58.15093
987.806	82.19768
988.179	43.1016
988.551	74.18692
988.923	23.05692
989.295	98.24276
989.667	45.1076
990.039	64.15773
990.411	16.03708
990.783	65.14923
991.155	8.01937
991.527	92.22481
991.898	67.16643
992.27	52.12858
992.641	85.21191
993.012	104.24215
993.384	66.15694
993.755	37.09454
994.126	63.15116
994.497	48.11786
994.868	88.20061
995.239	43.10435
995.61	30.07575
995.98	34.08283
996.351	74.18244
996.722	42.09756
997.092	55.13011
997.462	14.03293
997.833	62.14664
998.203	127.30344
998.573	67.1663
998.943	43.10097
999.313	37.08888
999.683	70.16735
1000.053	57.13097
1000.423	61.14792
1000.792	65.16801
1001.162	68.16678
1001.531	65.15981
1001.901	79.19587
1002.27	75.16679
1002.639	87.22082
1003.009	51.12125
1003.378	68.1733
1003.747	88.20635
1004.116	35.08398
1004.485	54.12895
1004.853	89.22389
1005.222	45.11357
1005.591	58.13749
1005.959	-9.02052
1006.328	42.09466
1006.696	34.08225
1007.064	68.17048
1007.433	84.20861
1007.801	88.21447
1008.169	69.17364
1008.537	35.07774
1008.905	61.14178
1009.273	46.1137
1009.64	38.09085
1010.008	78.18491
1010.375	111.26643
1010.743	147.33288
1011.11	81.1905
1011.478	55.13597
1011.845	63.14776
1012.212	52.11763
1012.579	36.08859
1012.946	87.20556
1013.313	82.19394
1013.68	78.17429
1014.047	42.10022
1014.414	38.08994
1014.78	41.10203
1015.147	105.25126
1015.513	40.09654
1015.88	79.20094
1016.246	51.12585
1016.612	95.21548
1016.978	45.11035
1017.344	47.11619
1017.71	128.30753
1018.076	66.15513
1018.442	41.10561
1018.808	59.14719
1019.174	27.06799
1019.539	136.30765
1019.905	24.05687
1020.27	40.09887
1020.636	66.15773
1021.001	117.27645
1021.366	38.09144
1021.731	68.17427
1022.096	26.06584
1022.461	55.13
1022.826	78.18433
1023.191	64.16746
1023.556	80.18635
1023.92	113.27453
1024.285	91.22033
1024.649	65.1588
1025.014	86.21155
1025.378	24.0606
1025.742	48.11921
1026.107	80.1798
1026.471	63.14666
1026.835	45.11162
1027.199	38.09165
1027.562	43.10006
1027.926	52.12707
1028.29	79.1988
1028.654	67.15357
1029.017	125.30288
1029.381	45.10756
1029.744	75.19036
1030.107	86.20198
1030.471	67.15984
1030.834	78.17638
1031.197	94.22447
1031.56	74.17373
1031.923	27.07006
1032.286	77.17982
1032.648	49.11717
1033.011	49.11245
1033.374	120.27809
1033.736	45.11836
1034.099	70.1699
1034.461	9.02289
1034.823	67.16624
1035.185	62.15566
1035.548	25.0611
1035.91	53.12683
1036.272	42.09571
1036.634	84.20411
1036.995	43.10117
1037.357	48.11677
1037.719	68.16474
1038.08	73.17248
1038.442	13.03106
1038.803	71.16971
1039.165	45.11361
1039.526	59.14226
1039.887	39.09347
1040.248	20.04953
1040.609	64.15767
1040.97	54.13181
1041.331	46.11649
1041.692	21.04927
1042.053	56.1273
1042.413	43.1003
1042.774	49.11913
1043.134	71.16828
1043.495	91.22695
1043.855	75.18098
1044.215	99.2434
1044.576	44.10527
1044.936	103.23353
1045.296	70.17397
1045.656	48.11777
1046.016	77.18482
1046.375	42.10198
1046.735	-22.05058
1047.095	38.08911
1047.454	57.12054
1047.814	78.1864
1048.173	91.2156
1048.533	70.15964
1048.892	33.07942
1049.251	92.22906
1049.61	43.10595
1049.969	25.05918
1050.328	87.18704
1050.687	84.20297
1051.046	59.14334
1051.405	95.23425
1051.763	46.1058
1052.122	76.18854
1052.48	40.09822
1052.839	43.10125
1053.197	18.0426
1053.555	140.31322
1053.914	82.19925
1054.272	100.23934
1054.63	56.13669
1054.988	19.04538
1055.345	43.09269
1055.703	86.20544
1056.061	5.01296
1056.419	29.0753
1056.776	78.18804
1057.134	72.16586
1057.491	88.21871
1057.848	69.17108
1058.206	75.17542
1058.563	49.10798
1058.92	94.21464
1059.277	73.17921
1059.634	68.15933
1059.991	82.19514
1060.348	19.04318
1060.704	37.08834
1061.061	125.28594
1061.418	50.12118
1061.774	71.17449
1062.131	50.13211
1062.487	49.11452
1062.843	103.25417
1063.199	41.10207
1063.555	26.06049
1063.911	73.18351
1064.267	122.25025
1064.623	19.04639
1064.979	101.23679
1065.335	100.2366
1065.691	55.13161
1066.046	65.14239
1066.402	79.17831
1066.757	77.19328
1067.112	103.25014
1067.468	31.07342
1067.823	100.23797
1068.178	78.18754
1068.533	65.15703
1068.888	96.22722
1069.243	65.15987
1069.598	54.13102
1069.952	27.06104
1070.307	42.10404
1070.662	44.10451
1071.016	5.0113
1071.371	43.09789
1071.725	90.21352
1072.079	68.16288
1072.434	59.14302
1072.788	76.17996
1073.142	111.26977
1073.496	29.06903
1073.85	62.14334
1074.203	60.14519
1074.557	57.15129
1074.911	91.21535
1075.265	101.23225
1075.618	80.1941
1075.971	85.20068
1076.325	61.15461
1076.678	25.05742
1077.031	37.08389
1077.385	51.11224
1077.738	62.13951
1078.091	17.03889
1078.444	81.18678
1078.796	7.0173
1079.149	70.17334
1079.502	43.10164
1079.855	61.14184
1080.207	61.14986
1080.56	31.08032
1080.912	57.13848
1081.264	53.12746
1081.617	51.12418
1081.969	54.13601
1082.321	62.15094
1082.673	19.0436
1083.025	36.08557
1083.377	-164.36797
1083.728	90.20815
1084.08	48.11977
1084.432	59.14194
1084.783	90.20906
1085.135	21.05287
1085.486	5.01153
1085.838	58.14252
1086.189	44.10684
1086.54	48.11458
1086.891	27.06851
1087.242	28.0684
1087.593	90.2173
1087.944	47.10634
1088.295	97.21822
1088.646	67.16174
1088.996	28.06768
1089.347	68.16616
1089.698	34.08054
1090.048	46.11946
1090.398	59.13648
1090.749	48.1148
1091.099	22.05555
1091.449	31.07742
1091.799	52.13004
1092.149	15.03678
1092.499	58.14115
1092.849	27.06885
1093.199	79.1968
1093.548	34.08187
1093.898	50.12499
1094.248	65.16644
1094.597	8.02055
1094.947	22.05891
1095.296	50.12336
1095.645	59.15308
1095.994	52.12474
1096.343	81.20252
1096.692	24.06327
1097.041	14.03809
1097.39	50.12531
1097.739	34.08854
1098.088	94.24979
1098.437	20.05276
1098.785	79.21178
1099.134	55.14579
1099.482	68.18632
1099.83	94.24494
1100.179	10.02624
1100.527	48.12747
1100.875	27.07159
1101.223	69.18247
1101.571	25.06929
1101.919	10.02628
1102.267	25.07059
1102.615	-2.00643
1102.962	12.03863
1103.31	5.01607
1103.658	3.00967
