Data from N2 R10 sample 10_Subt2__1__13-15-52-264.txt Node

Date: Mon Sep 01 13:15:52 PDT 2025
User: uwsun
Spectrometer: HDX01956
Trigger mode: 0
Integration Time (sec): 5.000000E-1
Scans to average: 1
Nonlinearity correction enabled: true
Boxcar width: 0
Storing dark spectrum: false
XAxis mode: Wavelengths
Number of Pixels in Spectrum: 2068
>>>>>Begin Spectral Data<<<<<
194.03	-22.06196
194.578	-20.0634
195.127	-17.05309
195.676	-21.06581
196.225	47.12371
196.773	18.04921
197.321	-24.06467
197.87	55.13472
198.418	-3.00733
198.966	-42.104
199.513	-94.22412
200.061	-63.15179
200.609	54.1346
201.156	-42.08689
201.704	-9.02134
202.251	-29.07272
202.798	-28.06888
203.345	8.0187
203.892	-18.04285
204.438	39.08742
204.985	-57.12766
205.532	-62.15521
206.078	5.01156
206.624	-19.04397
207.17	4.00876
207.716	-27.06186
208.262	-2.00373
208.808	-56.13013
209.354	-53.12231
209.899	42.09987
210.445	3.00698
210.99	-45.10257
211.535	13.02879
212.08	12.02628
212.625	11.02594
213.17	-2.00479
213.715	-34.07107
214.259	-11.02427
214.804	45.1043
215.348	-48.10486
215.892	26.05858
216.436	46.10011
216.98	18.03764
217.524	-38.08537
218.068	36.08518
218.612	32.07586
219.155	1.00222
219.698	8.018
220.242	50.11734
220.785	21.04633
221.328	26.06114
221.871	74.1761
222.414	13.03072
222.956	-44.10087
223.499	-45.097
224.041	30.06623
224.583	65.13233
225.126	-3.00628
225.668	25.05723
226.21	-5.01191
226.751	-48.10015
227.293	-29.06342
227.835	4.00923
228.376	40.08727
228.918	52.1236
229.459	-51.12102
230	-3.00677
230.541	-17.03734
231.082	-38.08782
231.622	-9.01973
232.163	16.03649
232.704	-14.03285
233.244	-1.00234
233.784	53.12221
234.324	-54.11262
234.864	-10.02149
235.404	51.11389
235.944	-3.00675
236.484	24.05652
237.023	25.05544
237.563	-25.05474
238.102	11.0245
238.641	-7.01674
239.18	-112.25171
239.719	21.04958
240.258	-36.07715
240.797	13.02919
241.335	18.0415
241.874	5.00904
242.412	29.06519
242.95	-23.05174
243.488	1.00215
244.026	29.0624
244.564	14.02708
245.102	12.02525
245.64	41.09262
246.177	-28.05948
246.715	24.05412
247.252	15.0324
247.789	8.01429
248.326	-53.12017
248.863	-11.02266
249.4	38.08059
249.936	26.04991
250.473	-8.0175
251.009	-43.09296
251.546	-15.03108
252.082	9.01847
252.618	19.0394
253.154	-12.027
253.69	5.01054
254.226	7.01561
254.761	-20.04223
255.297	-35.07213
255.832	-13.02881
256.367	11.02418
256.903	10.02046
257.438	-1.0022
257.972	-7.0146
258.507	-40.08583
259.042	-25.05099
259.576	-68.13772
260.111	-7.01517
260.645	43.08619
261.179	-41.08974
261.713	-7.01451
262.247	6.0129
262.781	13.02521
263.315	-28.06404
263.849	12.02782
264.382	48.10193
264.915	17.03675
265.449	-68.15458
265.982	24.05063
266.515	-21.04773
267.048	-27.05329
267.58	22.04468
268.113	-53.10721
268.646	-20.04589
269.178	-40.08324
269.71	-4.00812
270.243	-11.02339
270.775	-4.00943
271.307	12.02683
271.838	52.11399
272.37	-2.00456
272.902	14.02944
273.433	5.01009
273.965	5.01124
274.496	2.00461
275.027	-3.00688
275.558	-48.10845
276.089	-57.12971
276.62	-7.01654
277.15	-6.01373
277.681	29.05791
278.211	-16.03643
278.741	-89.18326
279.272	-7.01469
279.802	30.06869
280.332	6.01296
280.861	-10.02219
281.391	-40.08383
281.921	22.04865
282.45	4.00921
282.98	2.0048
283.509	-1.00206
284.038	-6.01254
284.567	8.01717
285.096	-9.01997
285.625	-28.05839
286.153	-21.04507
286.682	4.00833
287.21	-11.02418
287.739	-40.08687
288.267	-37.08205
288.795	-6.01448
289.323	-49.10471
289.851	-24.05143
290.378	12.02439
290.906	-27.05932
291.433	-32.07295
291.961	-15.03076
292.488	5.01128
293.015	-51.10932
293.542	-33.07582
294.069	-33.0736
294.596	-17.03829
295.122	-48.10433
295.649	-1.00199
296.175	18.03932
296.702	13.02842
297.228	-9.01982
297.754	-30.06084
298.28	-7.01423
298.806	-36.07805
299.332	-8.01576
299.857	-26.05263
300.383	-37.08498
300.908	-86.18828
301.433	-37.08054
301.958	-26.05415
302.483	-77.17323
303.008	6.01325
303.533	-17.03979
304.058	-19.04016
304.582	-34.07135
305.107	-71.16613
305.631	-3.00609
306.155	-33.06804
306.679	-52.10782
307.203	-2.00408
307.727	4.00835
308.251	-23.05034
308.775	-96.20235
309.298	-80.16951
309.822	-49.1097
310.345	-24.04992
310.868	-40.08398
311.391	-31.06725
311.914	-90.19961
312.437	2.00398
312.96	-79.16362
313.482	-25.05141
314.005	-59.12974
314.527	-55.12612
315.049	-5.01098
315.571	-58.11063
316.093	-34.0727
316.615	-54.11227
317.137	-5.00922
317.659	-30.0629
318.18	-19.03935
318.702	-2.00393
319.223	-39.06763
319.744	-19.03579
320.265	-63.12931
320.786	-105.22117
321.307	-66.13917
321.828	-24.04527
322.348	-62.1224
322.869	-65.12751
323.389	-48.06348
323.909	-27.05119
324.43	13.02595
324.95	-38.07111
325.47	-123.25179
325.989	-84.1624
326.509	-134.24121
327.029	-127.23336
327.548	-113.20534
328.067	-131.25686
328.587	-78.15782
329.106	-68.12297
329.625	-44.09445
330.144	-128.23644
330.662	-117.21477
331.181	-64.11739
331.7	-85.15619
332.218	-40.06603
332.736	-75.13622
333.255	-109.19666
333.773	-106.19414
334.291	-66.12797
334.808	-133.22597
335.326	-104.17761
335.844	-99.17076
336.361	-140.26808
336.879	-170.29706
337.396	-125.22356
337.913	-122.20521
338.43	-110.17867
338.947	-158.27653
339.464	-164.25068
339.981	-152.25945
340.497	-133.23861
341.014	-158.27711
341.53	-212.34029
342.046	-175.3062
342.562	-155.27693
343.078	-152.24954
343.594	-162.27056
344.11	-172.28474
344.626	-180.3172
345.141	-171.26379
345.657	-115.17499
346.172	-138.22415
346.687	-199.30626
347.202	-222.33129
347.717	-182.28947
348.232	-142.23585
348.747	-166.24651
349.261	-200.2713
349.776	-161.24222
350.29	-255.4092
350.805	-193.31287
351.319	-146.21258
351.833	-232.32572
352.347	-244.3628
352.861	-214.30814
353.374	-154.21744
353.888	-216.32664
354.401	-216.30151
354.915	-244.32167
355.428	-236.35946
355.941	-213.29132
356.454	-129.16712
356.967	-200.28007
357.48	-160.21176
357.993	-191.2782
358.505	-246.35401
359.018	-180.25351
359.53	-247.34093
360.042	-190.23119
360.554	-182.24883
361.066	-260.36039
361.578	-227.26484
362.09	-232.30728
362.602	-235.27214
363.113	-227.28071
363.625	-277.32876
364.136	-252.28671
364.647	-356.42742
365.158	-257.30859
365.669	-229.28318
366.18	-231.27655
366.691	-185.19402
367.201	-225.2678
367.712	-274.29996
368.222	-291.31946
368.733	-328.3232
369.243	-280.27327
369.753	-262.27494
370.263	-276.30191
370.773	-258.29087
371.282	-335.35092
371.792	-426.39577
372.301	-382.38615
372.811	-373.42694
373.32	-392.28101
373.829	-427.36594
374.338	-372.26254
374.847	-384.27134
375.356	-447.32641
375.865	-541.2761
376.373	-488.26273
376.882	-458.32527
377.39	-504.29672
377.898	-657.35207
378.407	-587.18808
378.915	-514.1061
379.423	-607.16408
379.93	-626.10149
380.438	-722.1041
380.946	-763.03079
381.453	-851.99512
381.96	-897.89607
382.468	-1012.75387
382.975	-915.75812
383.482	-908.66298
383.989	-1086.6951
384.495	-984.5681
385.002	-1267.35391
385.509	-1262.35502
386.015	-1324.2778
386.521	-1379.24947
387.028	-1452.23461
387.534	-1537.24388
388.04	-1290.3618
388.546	-1692.3388
389.051	-1991.46944
389.557	-2048.74625
390.063	-1551.06687
390.568	-1943.32117
391.073	-2242.01818
391.578	-2222.29328
392.084	-2549.44379
392.589	-2940.37
393.093	-3410.99762
393.598	-3359.02799
394.103	-3623.01121
394.607	-3736.80929
395.112	-3950.49465
395.616	-4382.79992
396.12	-5135.76712
396.624	-5854.2557
397.128	-6220.07895
397.632	-6436.4596
398.136	-7228.01475
398.639	-9183.90717
399.143	-11061.39026
399.646	-11955.30938
400.15	-13342.55276
400.653	-15625.31746
401.156	-18423.3211
401.659	-22131.7755
402.162	-17986.75839
402.664	-3559.08337
403.167	-849.10893
403.67	0
404.172	0
404.674	0
405.176	0
405.678	0
406.18	0
406.682	0
407.184	0
407.686	0
408.187	0
408.688	0
409.19	0
409.691	0
410.192	0
410.693	-4087.00132
411.194	-8814.35531
411.694	-7070.3391
412.195	-5936.68017
412.696	-7009.85604
413.196	-8861.80522
413.696	-9883.3514
414.196	-7681.70383
414.696	-4899.44168
415.196	-2105.14292
415.696	1967.96575
416.196	1604.44284
416.695	-1418.55348
417.195	-3104.28687
417.694	-2748.54538
418.194	-2570.93209
418.693	-2878.7447
419.192	-2811.18322
419.691	-2717.46236
420.19	-2527.60247
420.688	-2064.12273
421.187	-1815.62778
421.685	-1322.49669
422.184	-810.85289
422.682	-965.73834
423.18	-1346.97517
423.678	-1481.8522
424.176	-1345.06028
424.674	-1284.53879
425.172	-1160.99282
425.669	-973.72111
426.167	-633.75017
426.664	-712.64444
427.161	-750.58395
427.659	-709.61002
428.156	-851.53394
428.652	-744.67599
429.149	-765.68468
429.646	-575.752
430.143	-548.83957
430.639	-572.86906
431.135	-639.95525
431.632	-543.95
432.128	-567.0345
432.624	-662.1467
433.12	-689.05108
433.616	-701.07419
434.111	-734.16762
434.607	-732.24803
435.103	-526.11949
435.598	-407.08953
436.093	-446.2173
436.588	-393.19464
437.083	-393.22558
437.578	-440.29936
438.073	-571.48664
438.568	-387.34267
439.062	-451.31798
439.557	-435.40614
440.051	-470.41658
440.546	-504.46595
441.04	-387.3868
441.534	-442.51812
442.028	-386.42041
442.522	-444.49551
443.015	-468.46461
443.509	-402.48026
444.002	-430.52089
444.496	-399.4069
444.989	-411.51063
445.482	-427.54934
445.975	-422.4633
446.468	-434.45352
446.961	-393.40777
447.454	-398.46025
447.947	-419.51654
448.439	-406.5383
448.931	-424.49735
449.424	-382.54194
449.916	-433.59245
450.408	-439.53584
450.9	-429.58468
451.392	-428.62536
451.884	-417.54679
452.375	-500.73564
452.867	-304.38762
453.358	-411.52946
453.849	-377.44724
454.341	-417.54827
454.832	-394.48551
455.323	-434.64315
455.814	-371.50987
456.304	-402.56384
456.795	-409.57312
457.285	-362.49733
457.776	-304.42931
458.266	-417.62567
458.756	-370.5687
459.247	-405.61279
459.737	-447.68977
460.226	-421.60621
460.716	-394.61492
461.206	-376.59607
461.695	-367.62128
462.185	-384.6077
462.674	-336.5155
463.163	-346.51047
463.653	-351.4877
464.142	-378.62586
464.63	-366.62648
465.119	-382.61046
465.608	-348.55293
466.096	-350.53222
466.585	-361.59654
467.073	-344.59388
467.561	-378.66443
468.05	-364.61737
468.538	-332.59919
469.026	-337.59282
469.513	-315.47569
470.001	-337.55965
470.489	-313.54395
470.976	-324.55726
471.463	-306.5766
471.951	-320.61455
472.438	-338.60378
472.925	-367.65745
473.412	-270.51226
473.899	-332.59428
474.385	-307.59086
474.872	-341.62252
475.359	-298.57064
475.845	-276.44051
476.331	-237.40248
476.817	-306.60014
477.303	-288.53388
477.789	-251.48261
478.275	-313.63027
478.761	-304.59903
479.247	-241.43572
479.732	-275.5563
480.218	-285.61297
480.703	-297.61209
481.188	-220.381
481.673	-260.48992
482.158	-293.50838
482.643	-253.54157
483.128	-301.57317
483.612	-283.55673
484.097	-221.45506
484.581	-245.48152
485.066	-250.51257
485.55	-263.48547
486.034	-254.46333
486.518	-294.58887
487.002	-301.63177
487.486	-289.60793
487.969	-276.57994
488.453	-221.48044
488.936	-214.41137
489.42	-237.45305
489.903	-187.4067
490.386	-674.08617
490.869	-270.51802
491.352	-206.44202
491.835	-227.4104
492.318	-263.52129
492.8	-233.42211
493.283	-268.60204
493.765	-235.5087
494.247	-187.3854
494.73	-230.44916
495.212	-230.49713
495.694	-238.49127
496.175	-285.60057
496.657	-150.31213
497.139	-209.32641
497.62	-309.65829
498.102	-267.59425
498.583	-224.5032
499.064	-278.55734
499.545	-223.45545
500.026	-249.50163
500.507	-229.4779
500.988	-239.53634
501.469	-308.70294
501.949	-237.53142
502.43	-275.59096
502.91	-244.45525
503.39	-214.48567
503.87	-246.5226
504.35	-192.40985
504.83	-294.59105
505.31	-241.52971
505.79	-250.54313
506.269	-227.48361
506.749	-250.51952
507.228	-277.59525
507.707	-263.53422
508.187	-201.43752
508.666	-268.60228
509.145	-285.61271
509.623	-256.55143
510.102	-240.53316
510.581	-232.51582
511.059	-284.65549
511.538	-199.47036
512.016	-260.57399
512.494	-223.49756
512.972	-254.55957
513.45	-275.58485
513.928	-251.56003
514.406	-311.69216
514.884	-252.59712
515.361	-269.59721
515.839	-224.46861
516.316	-272.60751
516.793	-223.52136
517.27	-232.52181
517.747	-239.56555
518.224	-218.46635
518.701	-212.43564
519.178	-266.61028
519.654	-232.51389
520.131	-244.55981
520.607	-236.54493
521.083	-267.57006
521.56	-241.52926
522.036	-246.50528
522.512	-217.49797
522.987	-242.5318
523.463	-236.52166
523.939	-158.35596
524.414	-204.43811
524.89	-237.52486
525.365	-256.54337
525.84	-293.65184
526.315	-216.48244
526.79	-192.40113
527.265	-205.43427
527.74	-229.51981
528.215	-221.48555
528.689	-231.478
529.164	-234.47781
529.638	-232.558
530.112	-199.43427
530.587	-243.48526
531.061	-247.5568
531.534	-181.4077
532.008	-214.47877
532.482	-206.4424
532.956	-236.56072
533.429	-191.43057
533.903	-166.34142
534.376	-197.40655
534.849	-213.46266
535.322	-204.44999
535.795	-208.4755
536.268	-168.374
536.741	-158.35203
537.213	-147.31468
537.686	-174.39233
538.158	-213.4453
538.631	-156.35261
539.103	-182.37872
539.575	-150.29098
540.047	-112.22641
540.519	-151.33525
540.991	-143.32474
541.463	-138.309
541.934	-121.25498
542.406	-153.33714
542.877	-113.23446
543.348	-111.24695
543.82	-52.11615
544.291	-70.14949
544.762	-64.13757
545.233	-127.29238
545.703	-68.13626
546.174	-32.06709
546.645	-94.20327
547.115	-29.06272
547.585	43.08746
548.056	-82.17793
548.526	12.02488
548.996	70.14761
549.466	116.24676
549.935	56.11523
550.405	94.17712
550.875	108.22003
551.344	149.30584
551.814	177.34459
552.283	293.52406
552.752	254.48732
553.221	272.48084
553.69	334.59817
554.159	341.67716
554.628	419.73363
555.096	439.8852
555.565	491.84845
556.033	610.0996
556.502	620.15424
556.97	707.16433
557.438	777.36745
557.906	840.46743
558.374	893.47738
558.842	991.68077
559.31	1121.69587
559.777	1168.91468
560.245	1310.01411
560.712	1367.02719
561.18	1481.97469
561.647	1543.05927
562.114	1644.17987
562.581	1809.57983
563.048	1976.42259
563.514	1991.65339
563.981	2201.47151
564.448	2371.41407
564.914	2558.61089
565.381	2702.51022
565.847	2844.64043
566.313	3019.58438
566.779	3187.37607
567.245	3278.5463
567.711	3487.60862
568.176	3618.17338
568.642	3888.72313
569.108	4008.54157
569.573	4216.19809
570.038	4457.40789
570.504	4563.65725
570.969	4943.17321
571.434	4989.29207
571.899	5306.6175
572.363	5490.27426
572.828	5806.1959
573.293	5914.1532
573.757	6199.08737
574.222	6258.91413
574.686	6466.91522
575.15	6633.20094
575.614	6752.0477
576.078	6896.16604
576.542	7023.08578
577.006	7167.09525
577.469	7273.54097
577.933	7268.10778
578.396	7195.32286
578.86	7351.35305
579.323	7267.34382
579.786	7235.99522
580.249	7179.13479
580.712	7107.42487
581.175	7001.43479
581.637	7044.16582
582.1	6925.94628
582.563	6804.83975
583.025	6734.32229
583.487	6529.54544
583.95	6285.76106
584.412	6299.70012
584.874	6217.3967
585.336	6050.30503
585.797	5804.90699
586.259	5845.37648
586.721	5629.40023
587.182	5559.46445
587.643	5446.32199
588.105	5270.64398
588.566	5283.00743
589.027	5050.84053
589.488	4879.63743
589.949	4864.0228
590.41	4728.88414
590.87	4700.76744
591.331	4608.50477
591.791	4574.86313
592.252	4463.8565
592.712	4376.24772
593.172	4283.89403
593.632	4313.75711
594.092	4282.84999
594.552	4284.65507
595.011	4162.05327
595.471	4123.95562
595.931	4218.87766
596.39	4167.31644
596.849	4111.18676
597.308	4234.74197
597.768	4312.64206
598.227	4363.27422
598.685	4403.98128
599.144	4510.99675
599.603	4613.02651
600.062	4589.33316
600.52	4731.57524
600.978	4887.87348
601.437	5023.5955
601.895	5111.11438
602.353	5325.26417
602.811	5424.20575
603.269	5679.52208
603.727	5848.45201
604.184	6000.05313
604.642	6142.48845
605.099	6449.13983
605.557	6614.38831
606.014	6776.82462
606.471	7061.50199
606.928	7263.9861
607.385	7540.55572
607.842	7829.6062
608.299	8104.94539
608.755	8411.39372
609.212	8564.52333
609.668	8801.95955
610.125	9168.72894
610.581	9456.40026
611.037	9413.32291
611.493	9729.13415
611.949	9802.32674
612.405	10045.61059
612.861	10123.34882
613.316	10333.05182
613.772	10533.93429
614.227	10504.72258
614.683	10745.09912
615.138	10662.3713
615.593	10726.65815
616.048	10774.90367
616.503	10794.66437
616.958	10787.57404
617.412	10821.95423
617.867	10696.75479
618.321	10633.75221
618.776	10530.02149
619.23	10387.25886
619.684	10365.29071
620.138	10220.67594
620.592	10016.91386
621.046	9892.59081
621.5	9749.13245
621.954	9655.96377
622.407	9438.39006
622.861	9231.8738
623.314	9197.79348
623.768	9053.48692
624.221	8766.9004
624.674	8513.53103
625.127	8411.41783
625.58	8441.42274
626.033	8277.1449
626.485	7953.97845
626.938	7890.92243
627.39	7730.72312
627.843	7605.62602
628.295	7398.5143
628.747	7146.55148
629.199	7088.33966
629.651	6933.30402
630.103	6743.33133
630.555	6631.98063
631.006	6511.48906
631.458	6353.54989
631.909	6321.44262
632.361	6046.59227
632.812	5984.54811
633.263	5907.20865
633.714	5753.23961
634.165	5682.02769
634.616	5366.05512
635.067	5381.63353
635.518	5157.21451
635.968	5170.19643
636.419	5024.70749
636.869	4981.31326
637.319	4806.21092
637.769	4707.0561
638.219	4639.5652
638.669	4525.59644
639.119	4450.82134
639.569	4344.78951
640.019	4340.52195
640.468	4258.3422
640.918	4324.82314
641.367	4129.44558
641.816	4044.47477
642.265	4070.67711
642.714	3972.72909
643.163	3928.71339
643.612	3897.98755
644.061	3773.27842
644.51	3762.72568
644.958	3733.52538
645.406	3718.06337
645.855	3593.28463
646.303	3738.92992
646.751	3583.79718
647.199	3620.7944
647.647	3620.8633
648.095	3504.88136
648.543	3620.22752
648.99	3562.12859
649.438	3560.04887
649.885	3504.40053
650.333	3473.01375
650.78	3417.25218
651.227	3346.3168
651.674	3399.89968
652.121	3395.31771
652.568	3288.32161
653.015	3384.59926
653.461	3301.19027
653.908	3341.06618
654.354	3270.23948
654.801	3161.1321
655.247	3246.75593
655.693	3143.83732
656.139	3250.27086
656.585	3100.29546
657.031	3120.10522
657.477	3095.69458
657.922	3066.05273
658.368	3071.4888
658.813	3040.14262
659.259	3016.30959
659.704	3049.1346
660.149	2901.14571
660.594	2984.2569
661.039	2880.02659
661.484	2978.31265
661.929	2915.18348
662.373	2869.6242
662.818	2851.52629
663.262	2820.34141
663.707	2807.65714
664.151	2790.43826
664.595	2785.35626
665.039	2822.56028
665.483	2747.68211
665.927	2741.23393
666.371	2741.11603
666.814	2791.32219
667.258	2659.23122
667.701	2760.79636
668.145	2683.55151
668.588	2648.45704
669.031	2648.20493
669.474	2593.33915
669.917	2604.91714
670.36	2598.50839
670.803	2619.36974
671.245	2573.68069
671.688	2517.40236
672.13	2495.95086
672.573	2617.67069
673.015	2501.31144
673.457	2451.81625
673.899	2549.37975
674.341	2547.35527
674.783	2415.27203
675.225	2520.44871
675.666	2463.29713
676.108	2452.81439
676.549	2526.26088
676.991	2436.88064
677.432	2355.42561
677.873	2336.08212
678.314	2422.26832
678.755	2405.35754
679.196	2285.01156
679.637	2375.37813
680.078	2289.12745
680.518	2255.09716
680.959	2236.20925
681.399	2190.35291
681.839	2206.2732
682.28	2109.27601
682.72	2066.91329
683.16	2091.31056
683.6	2169.96117
684.039	2134.56666
684.479	2042.20916
684.919	1982.88799
685.358	2040.3748
685.798	2063.54878
686.237	2051.15902
686.676	2018.96099
687.115	2002.99709
687.554	1976.02326
687.993	1888.68377
688.432	1907.81966
688.871	1817.72636
689.309	1860.96314
689.748	1848.45931
690.186	1819.93856
690.625	1858.88536
691.063	1772.90872
691.501	1797.05666
691.939	1739.03404
692.377	1746.95359
692.815	1802.92129
693.253	1699.86045
693.69	1711.53931
694.128	1719.89904
694.565	1694.8222
695.003	1691.06142
695.44	1676.74821
695.877	1645.69472
696.314	1695.45963
696.751	1661.63613
697.188	1621.61715
697.625	1710.70323
698.061	1595.74608
698.498	1596.78467
698.934	1553.71978
699.371	1521.60275
699.807	1567.67062
700.243	1582.74433
700.679	1609.56291
701.115	1565.6587
701.551	1586.6767
701.987	1573.50927
702.422	1479.5895
702.858	1534.66058
703.294	1520.48217
703.729	1531.75336
704.164	1441.59343
704.599	1418.32722
705.035	1376.29395
705.47	1406.58338
705.904	1402.44318
706.339	1438.48665
706.774	1394.452
707.209	1292.28592
707.643	1423.56608
708.078	1404.58738
708.512	1320.56246
708.946	1365.49345
709.38	1335.42017
709.814	1324.30299
710.248	1293.45253
710.682	1263.33883
711.116	1224.2916
711.549	1271.5993
711.983	1211.19348
712.416	1270.33499
712.85	1244.45339
713.283	1246.3044
713.716	1260.50232
714.149	1170.22669
714.582	1173.07294
715.015	1164.35302
715.448	1116.29683
715.881	1096.92007
716.313	1074.04551
716.746	1089.07665
717.178	1060.08695
717.61	993.11405
718.043	987.06228
718.475	1021.04897
718.907	1063.22714
719.339	952.79477
719.77	955.89409
720.202	931.00071
720.634	996.01565
721.065	913.83089
721.497	933.93549
721.928	817.73986
722.359	845.75048
722.79	836.72296
723.221	883.90972
723.652	874.94922
724.083	802.55886
724.514	816.61547
724.945	794.61948
725.375	733.49188
725.806	791.72885
726.236	742.68538
726.666	743.54585
727.096	758.63542
727.526	677.54108
727.956	648.31537
728.386	713.55892
728.816	691.56157
729.246	673.46024
729.675	608.35571
730.105	683.50208
730.534	599.26914
730.964	662.506
731.393	643.4418
731.822	610.41664
732.251	580.34531
732.68	595.27273
733.109	579.30134
733.537	529.17521
733.966	545.24333
734.395	498.06288
734.823	557.14659
735.251	524.1624
735.68	499.16063
736.108	468.10573
736.536	520.13005
736.964	432.94126
737.392	475.10777
737.82	446.0018
738.247	493.09466
738.675	464.03464
739.102	388.91963
739.53	398.96003
739.957	405.98631
740.384	433.00411
740.811	414.9922
741.238	432.99142
741.665	369.81339
742.092	421.94779
742.519	351.82956
742.945	354.81148
743.372	391.91798
743.798	355.87232
744.225	353.80124
744.651	339.81514
745.077	300.72206
745.503	330.77284
745.929	311.71851
746.355	360.85559
746.781	306.7312
747.207	270.61399
747.632	284.66929
748.058	299.72034
748.483	294.65393
748.908	275.66253
749.334	282.67077
749.759	248.5699
750.184	188.44135
750.609	267.63741
751.033	299.68282
751.458	244.53461
751.883	255.61529
752.307	251.57529
752.732	208.50937
753.156	228.55067
753.58	227.52801
754.005	226.56144
754.429	200.46236
754.853	188.45869
755.277	215.49911
755.7	240.58096
756.124	179.43812
756.548	181.42334
756.971	200.48031
757.394	188.47689
757.818	164.4172
758.241	200.49849
758.664	147.36819
759.087	149.3304
759.51	208.50805
759.933	161.3835
760.356	174.44029
760.778	208.5018
761.201	192.46005
761.623	204.48656
762.046	193.45141
762.468	190.45005
762.89	171.41729
763.312	174.41978
763.734	156.37223
764.156	140.34349
764.578	156.35634
765	138.33482
765.421	108.27358
765.843	161.41729
766.264	133.32008
766.686	154.38329
767.107	108.26164
767.528	82.20743
767.949	126.31884
768.37	123.30084
768.791	148.35544
769.212	122.30486
769.632	77.18045
770.053	104.27322
770.473	109.26491
770.894	133.3312
771.314	147.34881
771.734	91.21285
772.154	116.29677
772.575	126.2913
772.994	73.16706
773.414	139.33186
773.834	105.26214
774.254	118.28791
774.673	118.28662
775.093	102.25211
775.512	80.19767
775.931	124.31266
776.351	72.17953
776.77	117.28488
777.189	78.1864
777.607	99.25243
778.026	108.26831
778.445	67.1683
778.864	118.30125
779.282	90.21689
779.701	106.26651
780.119	55.1398
780.537	64.16045
780.955	104.26401
781.373	107.26394
781.791	50.11352
782.209	168.38221
782.627	118.30895
783.045	74.17108
783.462	76.1945
783.88	57.1481
784.297	64.16166
784.715	42.10858
785.132	75.18214
785.549	51.12839
785.966	108.27056
786.383	56.13857
786.8	101.23438
787.217	57.13604
787.633	42.1056
788.05	125.29535
788.466	145.33875
788.883	42.10783
789.299	125.29901
789.715	71.17314
790.131	73.18192
790.547	119.29537
790.963	107.26452
791.379	60.15226
791.795	80.18311
792.21	84.19667
792.626	55.13136
793.041	77.19029
793.457	82.20276
793.872	86.20229
794.287	42.10102
794.702	85.20944
795.117	91.22563
795.532	70.17568
795.947	118.28242
796.362	110.26167
796.776	119.27735
797.191	53.13045
797.605	33.07821
798.02	77.18756
798.434	120.2657
798.848	54.13362
799.262	49.1222
799.676	104.25281
800.09	63.15552
800.504	68.16548
800.918	74.17183
801.331	126.32754
801.745	73.16813
802.158	57.14303
802.572	88.21327
802.985	84.20304
803.398	80.19089
803.811	119.30375
804.224	79.19666
804.637	71.16945
805.05	106.24467
805.462	86.21108
805.875	48.12491
806.288	42.10198
806.7	24.06088
807.112	74.1719
807.525	52.12895
807.937	36.08963
808.349	42.10586
808.761	65.16028
809.173	111.26734
809.584	83.20496
809.996	58.14247
810.408	45.11664
810.819	46.10888
811.231	26.06768
811.642	0
812.053	43.1029
812.464	103.24365
812.875	78.19913
813.286	82.21067
813.697	122.28306
814.108	100.24326
814.519	52.11663
814.929	85.21635
815.34	64.15557
815.75	35.0895
816.16	93.23101
816.571	70.18184
816.981	70.16556
817.391	80.19301
817.801	57.14195
818.211	60.1435
818.62	72.17338
819.03	94.22952
819.44	99.25731
819.849	79.1988
820.259	79.20193
820.668	17.04223
821.077	19.04763
821.486	85.20433
821.895	93.22898
822.304	91.24016
822.713	85.20053
823.122	64.15993
823.531	68.16139
823.939	45.11019
824.348	76.18467
824.756	87.21728
825.164	104.26016
825.573	47.1184
825.981	103.25398
826.389	72.18083
826.797	85.21229
827.205	84.19234
827.612	76.18737
828.02	27.06394
828.428	61.15554
828.835	33.08733
829.243	63.15041
829.65	13.03264
830.057	56.13628
830.464	51.12469
830.871	131.31012
831.278	22.05366
831.685	62.13871
832.092	57.13988
832.499	60.13163
832.905	99.24922
833.312	62.14174
833.718	97.24042
834.124	71.16228
834.531	66.16642
834.937	73.18712
835.343	61.14742
835.749	96.22318
836.155	58.15202
836.561	35.08659
836.966	84.2048
837.372	38.09718
837.777	45.11251
838.183	91.20153
838.588	82.20298
838.993	71.17275
839.399	26.06403
839.804	11.02707
840.209	33.08444
840.613	44.0984
841.018	60.15205
841.423	60.15399
841.828	40.10158
842.232	84.2074
842.637	53.12537
843.041	36.09268
843.445	48.12073
843.849	40.09945
844.253	96.22687
844.657	36.09107
845.061	71.16098
845.465	66.15935
845.869	42.09806
846.272	51.12446
846.676	76.18343
847.079	69.17519
847.483	109.26966
847.886	120.28896
848.289	36.09643
848.692	37.09411
849.095	65.15608
849.498	100.25178
849.901	59.13551
850.304	62.14822
850.707	65.16562
851.109	116.29071
851.512	47.11581
851.914	38.09612
852.316	75.18921
852.718	28.07266
853.121	93.22653
853.523	50.11716
853.925	32.08384
854.326	61.15246
854.728	64.16442
855.13	36.0932
855.531	40.09596
855.933	65.15596
856.334	42.10503
856.736	63.14109
857.137	63.14643
857.538	44.11091
857.939	34.08438
858.34	76.18467
858.741	81.21089
859.142	91.21735
859.542	60.15822
859.943	91.2248
860.343	20.04987
860.744	99.23979
861.144	71.17282
861.544	36.08689
861.945	90.22807
862.345	78.1901
862.745	50.12445
863.145	90.21393
863.544	55.13905
863.944	41.09721
864.344	59.14655
864.743	119.29203
865.143	63.16166
865.542	44.10237
865.941	56.13867
866.34	107.25399
866.74	60.16093
867.139	34.08178
867.537	103.26031
867.936	82.19649
868.335	67.17018
868.734	61.15576
869.132	64.14855
869.531	51.12353
869.929	34.07789
870.327	31.07469
870.726	87.21579
871.124	44.10314
871.522	74.18792
871.92	77.18924
872.318	79.19236
872.715	74.18264
873.113	72.17495
873.511	61.15185
873.908	-17.04347
874.306	34.0849
874.703	79.19688
875.1	55.14074
875.497	60.14377
875.894	11.02717
876.291	50.12286
876.688	69.17755
877.085	95.22629
877.482	68.16986
877.878	64.15382
878.275	42.10696
878.671	79.17518
879.068	88.21118
879.464	62.1497
879.86	-6.01436
880.256	85.20867
880.652	89.22501
881.048	101.24822
881.444	47.11208
881.84	69.17495
882.236	93.23227
882.631	32.07889
883.027	69.16669
883.422	53.13557
883.817	51.12825
884.213	72.1842
884.608	27.06655
885.003	45.10871
885.398	23.0579
885.793	91.22695
886.188	28.06994
886.582	102.25948
886.977	94.22146
887.371	74.18652
887.766	14.03507
888.16	102.25239
888.554	75.1848
888.949	57.14308
889.343	89.21606
889.737	38.10152
890.131	39.09811
890.525	82.20868
890.918	48.12094
891.312	62.14817
891.706	74.19349
892.099	80.20265
892.492	101.21583
892.886	33.08107
893.279	41.10469
893.672	51.1299
894.065	72.17972
894.458	52.13084
894.851	100.24299
895.244	46.11764
895.637	65.15626
896.029	25.06146
896.422	54.13195
896.814	62.15392
897.206	18.04316
897.599	42.10412
897.991	47.1138
898.383	53.12528
898.775	118.26291
899.167	9.02117
899.559	60.15172
899.951	62.14595
900.342	104.26214
900.734	18.04495
901.125	70.18316
901.517	6.01486
901.908	97.2307
902.299	62.15133
902.69	32.07583
903.082	49.11878
903.473	-3.00726
903.863	64.16299
904.254	63.14597
904.645	99.24421
905.036	42.1019
905.426	56.12818
905.817	41.10084
906.207	50.11922
906.597	41.09612
906.987	62.16045
907.378	35.0888
907.768	51.13487
908.158	63.15334
908.547	37.09584
908.937	86.2194
909.327	77.18616
909.717	83.20962
910.106	26.06278
910.495	104.25725
910.885	68.17177
911.274	59.1473
911.663	106.26651
912.052	106.25902
912.441	61.15488
912.83	65.14887
913.219	105.27234
913.608	89.21655
913.997	20.05043
914.385	67.15966
914.774	66.16032
915.162	43.10266
915.55	74.17833
915.939	72.18109
916.327	63.15695
916.715	63.16024
917.103	90.22
917.491	88.21631
917.878	67.1643
918.266	86.22171
918.654	31.07949
919.041	50.13056
919.429	46.10871
919.816	88.22165
920.203	65.15726
920.591	59.14613
920.978	89.21647
921.365	74.19342
921.752	63.14989
922.139	85.18329
922.525	45.10822
922.912	67.16296
923.299	30.07486
923.685	63.16403
924.072	79.18122
924.458	74.18257
924.844	41.10166
925.231	36.08405
925.617	37.09434
926.003	76.19341
926.389	49.12366
926.774	69.17432
927.16	73.1806
927.546	23.059
927.931	89.22059
928.317	68.15615
928.702	70.16504
929.088	-2.00478
929.473	34.08677
929.858	11.02679
930.243	26.0627
930.628	68.16493
931.013	55.13622
931.398	97.22108
931.783	95.24827
932.167	51.12469
932.552	89.22147
932.937	93.22907
933.321	49.123
933.705	61.15351
934.09	96.24067
934.474	70.16568
934.858	48.12456
935.242	71.16392
935.626	100.25377
936.009	36.09598
936.393	78.19752
936.777	88.22387
937.16	45.1172
937.544	89.20817
937.927	75.18948
938.311	115.2774
938.694	101.26485
939.077	24.05775
939.46	70.1713
939.843	122.25059
940.226	62.15873
940.609	70.16009
940.991	17.04353
941.374	29.07117
941.757	45.11117
942.139	36.08111
942.522	74.17414
942.904	95.22646
943.286	76.19225
943.668	82.21126
944.05	72.17666
944.432	32.07924
944.814	63.15483
945.196	18.04413
945.578	10.02395
945.959	45.10558
946.341	95.23132
946.722	69.16139
947.104	76.18079
947.485	59.13708
947.866	47.11849
948.247	20.05074
948.628	87.21081
949.009	65.16603
949.39	34.0849
949.771	63.1462
950.152	21.05182
950.532	-1.00248
950.913	73.17535
951.293	34.09209
951.674	60.14487
952.054	43.10669
952.434	47.11675
952.814	41.09774
953.194	82.21346
953.574	60.14754
953.954	85.20053
954.334	63.15666
954.714	37.0904
955.093	76.18599
955.473	67.16703
955.853	69.17804
956.232	70.19125
956.611	73.17435
956.99	51.12816
957.37	83.21029
957.749	69.16404
958.128	54.13596
958.506	8.0209
958.885	42.10617
959.264	17.04192
959.643	94.21204
960.021	31.07709
960.4	45.10211
960.778	86.21046
961.156	61.15263
961.535	71.16483
961.913	42.09845
962.291	48.12319
962.669	28.07121
963.047	46.11748
963.424	51.13013
963.802	23.05684
964.18	97.2434
964.557	79.18093
964.935	105.24617
965.312	57.14825
965.69	102.25304
966.067	50.12177
966.444	79.19365
966.821	111.28313
967.198	108.25918
967.575	67.16424
967.952	60.14114
968.329	58.14094
968.705	75.15999
969.082	65.16626
969.458	16.03863
969.835	79.19128
970.211	62.15879
970.587	68.16876
970.963	64.16379
971.339	-8.0211
971.715	89.22067
972.091	44.10848
972.467	93.23016
972.843	65.16087
973.219	85.20278
973.594	52.13597
973.97	121.28412
974.345	44.10543
974.721	112.26806
975.096	66.15923
975.471	52.12332
975.846	47.11299
976.221	61.15461
976.596	43.10321
976.971	58.14299
977.346	74.17149
977.72	65.16515
978.095	66.1701
978.469	100.23642
978.844	76.19019
979.218	78.18598
979.593	82.19529
979.967	102.24608
980.341	43.09915
980.715	66.16582
981.089	72.17953
981.463	51.11709
981.837	52.12702
982.21	82.18965
982.584	29.07032
982.957	40.10006
983.331	78.18341
983.704	78.19067
984.078	32.07912
984.451	106.2621
984.824	76.18419
985.197	42.10217
985.57	68.16999
985.943	57.1406
986.316	99.24106
986.688	86.20599
987.061	82.19101
987.434	66.17151
987.806	73.17629
988.179	52.12265
988.551	68.17195
988.923	45.11092
989.295	61.15213
989.667	23.05523
990.039	34.08425
990.411	58.13329
990.783	114.25915
991.155	18.04351
991.527	116.28219
991.898	69.17133
992.27	59.1457
992.641	74.18485
993.012	101.23531
993.384	52.12398
993.755	53.13505
994.126	55.13217
994.497	47.11543
994.868	32.07377
995.239	69.16663
995.61	63.15814
995.98	28.06829
996.351	36.08937
996.722	59.13659
997.092	25.05948
997.462	42.09826
997.833	63.14897
998.203	100.24016
998.573	27.06751
998.943	77.17961
999.313	33.07933
999.683	48.11524
1000.053	58.13324
1000.423	57.13832
1000.792	44.11415
1001.162	56.13765
1001.531	60.14765
1001.901	73.1812
1002.27	98.2169
1002.639	64.1631
1003.009	79.18681
1003.378	52.1329
1003.747	42.09937
1004.116	33.07921
1004.485	57.13604
1004.853	76.19163
1005.222	80.20063
1005.591	90.21203
1005.959	23.0521
1006.328	3.00682
1006.696	31.07503
1007.064	47.11828
1007.433	38.09516
1007.801	56.1373
1008.169	101.25271
1008.537	63.13912
1008.905	4.0094
1009.273	112.27347
1009.64	40.09559
1010.008	64.15213
1010.375	116.27817
1010.743	142.32188
1011.11	21.04997
1011.478	63.15552
1011.845	42.09891
1012.212	67.1511
1012.579	78.19046
1012.946	67.15892
1013.313	127.29775
1013.68	75.16769
1014.047	18.04315
1014.414	21.04987
1014.78	36.08967
1015.147	69.16625
1015.513	52.12522
1015.88	108.27329
1016.246	93.22772
1016.612	101.22881
1016.978	62.15156
1017.344	21.05216
1017.71	105.25337
1018.076	74.17366
1018.442	100.25494
1018.808	48.11999
1019.174	74.18478
1019.539	125.28341
1019.905	41.09684
1020.27	52.12825
1020.636	104.24673
1021.001	86.20442
1021.366	42.10099
1021.731	82.20964
1022.096	35.08849
1022.461	84.19744
1022.826	81.19131
1023.191	61.15969
1023.556	78.18176
1023.92	61.14964
1024.285	55.13407
1024.649	82.1997
1025.014	77.18973
1025.378	65.16293
1025.742	81.19995
1026.107	101.22601
1026.471	68.15815
1026.835	47.11653
1027.199	35.08446
1027.562	89.20523
1027.926	62.15122
1028.29	95.23838
1028.654	112.2544
1029.017	78.19067
1029.381	29.06953
1029.744	37.09454
1030.107	79.18579
1030.471	79.18803
1030.834	68.15408
1031.197	34.08212
1031.56	92.21523
1031.923	57.14713
1032.286	86.20048
1032.648	69.16436
1033.011	51.11699
1033.374	68.15921
1033.736	54.14182
1034.099	97.23424
1034.461	14.03558
1034.823	89.21994
1035.185	67.16806
1035.548	23.05623
1035.91	86.2045
1036.272	35.07987
1036.634	106.25651
1036.995	82.19146
1037.357	61.14803
1037.719	68.16474
1038.08	73.17248
1038.442	50.11862
1038.803	74.17678
1039.165	42.10609
1039.526	20.04858
1039.887	67.15972
1040.248	28.06923
1040.609	100.24472
1040.97	64.15592
1041.331	93.23353
1041.692	21.04927
1042.053	70.15868
1042.413	115.26444
1042.774	103.24789
1043.134	108.25414
1043.495	53.13309
1043.855	42.10198
1044.215	58.14368
1044.576	-9.02175
1044.936	92.20905
1045.296	83.20579
1045.656	49.1202
1046.016	81.19428
1046.375	53.12842
1046.735	17.03878
1047.095	87.20205
1047.454	90.18895
1047.814	66.15809
1048.173	127.29879
1048.533	16.03689
1048.892	17.04104
1049.251	109.27055
1049.61	37.09127
1049.969	97.22643
1050.328	48.10406
1050.687	55.13362
1051.046	100.24108
1051.405	85.20998
1051.763	47.10808
1052.122	26.06509
1052.48	56.1371
1052.839	35.08254
1053.197	35.08257
1053.555	108.24322
1053.914	69.16807
1054.272	100.23934
1054.63	31.07602
1054.988	25.05964
1055.345	102.21707
1055.703	56.13454
1056.061	51.13109
1056.419	90.23122
1056.776	92.2212
1057.134	49.1134
1057.491	74.18438
1057.848	93.22957
1058.206	68.15927
1058.563	60.13191
1058.92	64.14702
1059.277	95.23227
1059.634	56.13152
1059.991	91.21618
1060.348	50.11293
1060.704	-3.00722
1061.061	118.27031
1061.418	60.14514
1061.774	28.06936
1062.131	50.13211
1062.487	55.12839
1062.843	94.23234
1063.199	63.1562
1063.555	47.1089
1063.911	74.18599
1064.267	122.25025
1064.623	74.1788
1064.979	131.30532
1065.335	124.29202
1065.691	116.27435
1066.046	94.20466
1066.402	32.07292
1066.757	116.28913
1067.112	96.23345
1067.468	34.08048
1067.823	81.19346
1068.178	63.15191
1068.533	86.20693
1068.888	91.2156
1069.243	47.11598
1069.598	48.11659
1069.952	7.01589
1070.307	49.12123
1070.662	33.07855
1071.016	56.12524
1071.371	69.15625
1071.725	45.10768
1072.079	46.11064
1072.434	16.0391
1072.788	70.16594
1073.142	125.303
1073.496	1.00239
1073.85	88.20239
1074.203	77.18574
1074.557	64.16967
1074.911	69.16398
1075.265	25.05836
1075.618	84.20365
1075.971	55.13061
1076.325	61.15461
1076.678	11.02533
1077.031	29.06586
1077.385	75.16423
1077.738	52.11725
1078.091	30.06845
1078.444	76.17542
1078.796	26.06403
1079.149	88.21719
1079.502	23.05458
1079.855	69.16019
1080.207	104.25347
1080.56	57.14703
1080.912	71.17204
1081.264	71.17016
1081.617	35.08548
1081.969	64.16091
1082.321	74.17975
1082.673	27.06186
1083.025	59.13962
1083.377	-178.40053
1083.728	64.14878
1084.08	78.19357
1084.432	68.16331
1084.783	93.2159
1085.135	67.16727
1085.486	51.11657
1085.838	59.14495
1086.189	57.13806
1086.54	74.17576
1086.891	18.04574
1087.242	27.06596
1087.593	57.13848
1087.944	62.13986
1088.295	100.22484
1088.646	34.08259
1088.996	27.06528
1089.347	50.12259
1089.698	2.00477
1090.048	40.10398
1090.398	52.12046
1090.749	54.129
1091.099	0
1091.449	74.18338
1091.799	56.13994
1092.149	7.01719
1092.499	73.17715
1092.849	48.12194
1093.199	63.1574
1093.548	9.02178
1093.898	91.22579
1094.248	70.17909
1094.597	13.03337
1094.947	67.17807
1095.296	30.07429
1095.645	73.18895
1095.994	78.18619
1096.343	80.20006
1096.692	51.13383
1097.041	30.08141
1097.39	73.18219
1097.739	71.18371
1098.088	68.18148
1098.437	3.00794
1098.785	65.17465
1099.134	70.18508
1099.482	65.17819
1099.83	69.18057
1100.179	45.11736
1100.527	68.17998
1100.875	61.16083
1101.223	51.13528
1101.571	63.17358
1101.919	10.02628
1102.267	42.11828
1102.615	4.01286
1102.962	15.04827
1103.31	-4.01287
1103.658	16.0515
