Data from N2 R10 sample 12_Subt2__0__13-08-13-778.txt Node

Date: Mon Sep 01 13:08:13 PDT 2025
User: uwsun
Spectrometer: HDX01956
Trigger mode: 0
Integration Time (sec): 5.000000E-1
Scans to average: 1
Nonlinearity correction enabled: true
Boxcar width: 0
Storing dark spectrum: false
XAxis mode: Wavelengths
Number of Pixels in Spectrum: 2068
>>>>>Begin Spectral Data<<<<<
194.03	-102.29075
194.578	-105.33627
195.127	-103.32512
195.676	-103.32607
196.225	-49.13106
196.773	-64.17725
197.321	-130.35631
197.87	-114.28796
198.418	-133.33289
198.966	-197.50158
199.513	-186.45127
200.061	-193.47641
200.609	-143.36911
201.156	-163.34636
201.704	-202.4967
202.251	-202.52219
202.798	-191.4839
203.345	-102.24357
203.892	-155.37867
204.438	-158.36846
204.985	-227.52613
205.532	-185.47336
206.078	-163.3893
206.624	-194.46449
207.17	-170.38582
207.716	-161.37878
208.262	-140.27016
208.808	-219.52524
209.354	-188.44548
209.899	-125.30675
210.445	-188.45372
210.99	-179.41899
211.535	-127.28946
212.08	-128.28861
212.625	-147.35726
213.17	-146.35914
213.715	-242.52911
214.259	-148.33589
214.804	-133.31911
215.348	-157.35089
215.892	-183.42987
216.436	-131.2958
216.98	-134.28964
217.524	-172.397
218.068	-134.32743
218.612	-125.30527
219.155	-171.39367
219.698	-126.2913
220.242	-82.19738
220.785	-156.35692
221.328	-122.29511
221.871	-145.35951
222.414	-126.30571
222.956	-197.46546
223.499	-152.33515
224.041	-124.28257
224.583	-110.23287
225.126	-98.20956
225.668	-139.32868
226.21	-176.43293
226.751	-173.37097
227.293	-132.29495
227.835	-141.3347
228.376	-129.29152
228.918	-130.31979
229.459	-192.46792
230	-149.34604
230.541	-137.30846
231.082	-170.40314
231.622	-133.29921
232.163	-132.31001
232.704	-152.36629
233.244	-180.43672
233.784	-119.28378
234.324	-182.39036
234.864	-116.25492
235.404	-115.2656
235.944	-141.32617
236.484	-98.23626
237.023	-130.29755
237.563	-121.27032
238.102	-156.3595
238.641	-133.32578
239.18	-184.41962
239.719	-118.28608
240.258	-126.27526
240.797	-163.37915
241.335	-145.34512
241.874	-192.36481
242.412	-147.34234
242.95	-113.2589
243.488	-107.23558
244.026	-179.40237
244.564	-91.18045
245.102	-128.27762
245.64	-109.25375
246.177	-209.4615
246.715	-127.29518
247.252	-140.31244
247.789	-94.17233
248.326	-225.52789
248.863	-160.34065
249.4	-174.38607
249.936	-132.26304
250.473	-183.41507
251.009	-168.37291
251.546	-97.20468
252.082	-184.39396
252.618	-130.27859
253.154	-162.37571
253.69	-188.41296
254.226	-155.35713
254.761	-153.33248
255.297	-169.3588
255.832	-130.29516
256.367	-163.37136
256.903	-160.33991
257.438	-169.38518
257.972	-170.36729
258.507	-213.47407
259.042	-154.32331
259.576	-185.3847
260.111	-141.31422
260.645	-157.32925
261.179	-187.4219
261.713	-191.41222
262.247	-164.3654
262.781	-144.28976
263.315	-198.46827
263.849	-179.43062
264.382	-136.30038
264.915	-198.44772
265.449	-217.50813
265.982	-142.31048
266.515	-215.50778
267.048	-232.47996
267.58	-154.32531
268.113	-171.35528
268.646	-188.44583
269.178	-199.42875
269.71	-154.32331
270.243	-189.41752
270.775	-163.39614
271.307	-149.34412
271.838	-125.28421
272.37	-150.35187
272.902	-156.34037
273.433	-190.40065
273.965	-204.47835
274.496	-173.41303
275.027	-172.40757
275.558	-153.35308
276.089	-233.54901
276.62	-206.50541
277.15	-120.28095
277.681	-138.28627
278.211	-195.46002
278.741	-249.53117
279.272	-224.49245
279.802	-144.34123
280.332	-180.4042
280.861	-179.4111
281.391	-190.41138
281.921	-165.3791
282.45	-147.34854
282.98	-181.44909
283.509	-170.36367
284.038	-191.4154
284.567	-151.33525
285.096	-136.30978
285.625	-180.38807
286.153	-223.49941
286.682	-199.43298
287.21	-200.45703
287.739	-219.49369
288.267	-235.54251
288.795	-196.48976
289.323	-215.47594
289.851	-195.43329
290.378	-169.3577
290.906	-243.55808
291.433	-213.50325
291.961	-202.43175
292.488	-220.51909
293.015	-232.51668
293.542	-213.50696
294.069	-212.4903
294.596	-222.52096
295.122	-221.49799
295.649	-218.45585
296.175	-167.37909
296.702	-160.36253
297.228	-166.3775
297.754	-194.40819
298.28	-230.49138
298.806	-237.53579
299.332	-231.47907
299.857	-243.51634
300.383	-197.4669
300.908	-302.69119
301.433	-259.59029
301.958	-204.44169
302.483	-278.65108
303.008	-192.4414
303.533	-245.59897
304.058	-205.45097
304.582	-274.6054
305.107	-293.71522
305.631	-189.40003
306.155	-248.53604
306.679	-239.51625
307.203	-248.53374
307.727	-269.59522
308.251	-248.56853
308.775	-314.69348
309.298	-302.67088
309.822	-287.67386
310.345	-273.59928
310.868	-245.5376
311.391	-244.5533
311.914	-316.73368
312.437	-252.53068
312.96	-298.64741
313.482	-279.60652
314.005	-258.59098
314.527	-325.78533
315.049	-278.64521
315.571	-337.6864
316.093	-279.62816
316.615	-332.73292
317.137	-247.48339
317.659	-267.58907
318.18	-294.64633
318.702	-305.64215
319.223	-268.49308
319.744	-322.65182
320.265	-382.84046
320.786	-371.82704
321.307	-310.68865
321.828	-325.65835
322.348	-327.68574
322.869	-398.84217
323.389	-254.35936
323.909	-349.71376
324.43	-279.59464
324.95	-359.72522
325.47	-372.80437
325.989	-405.84329
326.509	-394.75667
327.029	-428.84616
327.548	-429.84238
328.067	-437.91881
328.587	-371.801
329.106	-432.85407
329.625	-340.77627
330.144	-429.85231
330.662	-461.91974
331.181	-399.79382
331.7	-435.86988
332.218	-422.77101
332.736	-420.82996
333.255	-499.99046
333.773	-424.83904
334.291	-428.90168
334.808	-482.8967
335.326	-472.88639
335.844	-508.97234
336.361	-569.20023
336.879	-541.0361
337.396	-504.98989
337.913	-533.99777
338.43	-534.97176
338.947	-560.08213
339.464	-612.05932
339.981	-546.02931
340.497	-556.10419
341.014	-608.1908
341.53	-626.12217
342.046	-605.17681
342.562	-581.15044
343.078	-603.11335
343.594	-603.12781
344.11	-625.16327
344.626	-618.21213
345.141	-671.18728
345.657	-595.03447
346.172	-636.17704
346.687	-690.21559
347.202	-626.04804
347.717	-636.14247
348.232	-712.3679
348.747	-695.19857
349.261	-725.15442
349.776	-698.2201
350.29	-777.43176
350.805	-639.16523
351.319	-706.20691
351.833	-772.27204
352.347	-736.25833
352.861	-778.31893
353.374	-695.15086
353.888	-722.25751
354.401	-737.20177
354.915	-798.2504
355.428	-792.40664
355.941	-790.28594
356.454	-738.15742
356.967	-775.28655
357.48	-802.29312
357.993	-772.32782
358.505	-851.45823
359.018	-806.36358
359.53	-785.27385
360.042	-794.17951
360.554	-838.39414
361.066	-898.50411
361.578	-846.2191
362.09	-895.45298
362.602	-893.29476
363.113	-892.36839
363.625	-872.26534
364.136	-851.19323
364.647	-992.47248
365.158	-916.36902
365.669	-905.39292
366.18	-904.35344
366.691	-886.20117
367.201	-981.49892
367.712	-961.34322
368.222	-1006.42221
368.733	-1002.28084
369.243	-1049.37508
369.753	-1031.43069
370.263	-1025.46068
370.773	-1065.5829
371.282	-1051.43158
371.792	-1159.44448
372.301	-1206.65579
372.811	-1174.76337
373.32	-1213.28557
373.829	-1323.64462
374.338	-1286.39967
374.847	-1300.41738
375.356	-1391.56996
375.865	-1389.17921
376.373	-1465.36844
376.882	-1496.71834
377.39	-1495.48858
377.898	-1685.60893
378.407	-1724.30601
378.915	-1729.13381
379.423	-1763.24784
379.93	-1823.08954
380.438	-2036.27155
380.946	-2039.98727
381.453	-2201.00315
381.96	-2385.876
382.468	-2611.61026
382.975	-2520.51276
383.482	-2606.18136
383.989	-2704.50447
384.495	-2804.97382
385.002	-3064.48329
385.509	-3214.58417
386.015	-3389.99438
386.521	-3534.07016
387.028	-3822.9279
387.534	-3862.71639
388.04	-3898.79473
388.546	-4295.59986
389.051	-4572.57997
389.557	-4874.68918
390.063	-4734.72517
390.568	-5076.98571
391.073	-5353.62914
391.578	-5606.85289
392.084	-5988.01531
392.589	-6485.04093
393.093	-7091.81202
393.598	-7519.63497
394.103	-8077.56189
394.607	-8799.9276
395.112	-9391.50156
395.616	-9900.29812
396.12	-11177.82797
396.624	-12433.84022
397.128	-13164.24788
397.632	-14352.06731
398.136	-15976.61949
398.639	-18201.23888
399.143	-21076.15181
399.646	-23253.4059
400.15	-25855.90583
400.653	-29501.50828
401.156	-33639.50252
401.659	-40096.40903
402.162	-39928.62489
402.664	-32114.86182
403.167	-20594.59111
403.67	-2689.10232
404.172	0
404.674	0
405.176	0
405.678	0
406.18	0
406.682	0
407.184	0
407.686	0
408.187	0
408.688	0
409.19	-13480.89904
409.691	-23851.22547
410.192	-29533.77688
410.693	-33660.57685
411.194	-35810.30481
411.694	-33574.98508
412.195	-30644.84903
412.696	-29458.19498
413.196	-30070.62401
413.696	-30557.33844
414.196	-29412.09868
414.696	-26179.45967
415.196	-22598.94786
415.696	-16606.00743
416.196	-13184.52037
416.695	-12743.52912
417.195	-13008.30515
417.694	-12265.3394
418.194	-11199.79483
418.693	-11148.33196
419.192	-10795.26297
419.691	-10546.68855
420.19	-10140.77134
420.688	-9507.86532
421.187	-8868.62702
421.685	-8084.6931
422.184	-6938.57358
422.682	-6053.03854
423.18	-5799.1258
423.678	-5368.80186
424.176	-5031.73875
424.674	-4619.14023
425.172	-4251.62235
425.669	-3900.52546
426.167	-3491.61082
426.664	-3313.7715
427.161	-3169.04418
427.659	-2944.47971
428.156	-2831.33497
428.652	-2712.10709
429.149	-2569.07932
429.646	-2361.96949
430.143	-2293.46392
430.639	-2202.56592
431.135	-2070.83133
431.632	-1936.69102
432.128	-1848.93927
432.624	-1920.3312
433.12	-1958.02036
433.616	-1779.86422
434.111	-1917.28743
434.607	-1772.31142
435.103	-1528.90982
435.598	-1519.95602
436.093	-1451.28987
436.588	-1387.23807
437.083	-1322.25815
437.578	-1249.26871
438.073	-1387.6689
438.568	-1214.508
439.062	-1187.19967
439.557	-1151.43139
440.051	-1177.40076
440.546	-1178.43205
441.04	-1151.53536
441.534	-1148.70757
442.028	-1043.43819
442.522	-1118.58168
443.015	-1024.26352
443.509	-1029.51708
444.002	-1074.61035
444.496	-1028.3306
444.989	-1008.52175
445.482	-1066.67811
445.975	-1017.38314
446.468	-981.25939
446.961	-969.24898
447.454	-965.35831
447.947	-1015.52187
448.439	-966.52439
448.931	-978.38763
449.424	-927.54396
449.916	-883.3869
450.408	-962.39836
450.9	-1006.63343
451.392	-955.62389
451.884	-921.41599
452.375	-963.61906
452.867	-828.24964
453.358	-989.53085
453.849	-840.16836
454.341	-825.23505
454.832	-867.25067
455.323	-854.42786
455.814	-823.2983
456.304	-917.49967
456.795	-868.39596
457.285	-799.25451
457.776	-771.25106
458.266	-862.46727
458.756	-778.33959
459.247	-846.44925
459.737	-809.38089
460.226	-795.27855
460.716	-770.33284
461.206	-763.34345
461.695	-769.44249
462.185	-785.38516
462.674	-753.29748
463.163	-699.14218
463.653	-654.99866
464.142	-735.33594
464.63	-717.34147
465.119	-748.31938
465.608	-705.23398
466.096	-665.1053
466.585	-620.09656
467.073	-661.2359
467.561	-661.24627
468.05	-621.12491
468.538	-639.24188
469.026	-601.1285
469.513	-660.09908
470.001	-652.17548
470.489	-620.16339
470.976	-570.0431
471.463	-591.18939
471.951	-568.15379
472.438	-621.18848
472.925	-614.16798
473.412	-563.14231
473.899	-504.9423
474.385	-527.06574
474.872	-576.11205
475.359	-522.05151
475.845	-531.9098
476.331	-476.86091
476.817	-527.08522
477.303	-493.96075
477.789	-507.03271
478.275	-510.07111
478.761	-458.93518
479.247	-455.86772
479.732	-490.03763
480.218	-490.09767
480.703	-497.06784
481.188	-433.79251
481.673	-455.89849
482.158	-502.91954
482.643	-452.00658
483.128	-486.96714
483.612	-422.85737
484.097	-356.75528
484.581	-367.74206
485.066	-398.84327
485.55	-413.79106
486.034	-438.83631
486.518	-472.98431
487.002	-483.05196
487.486	-443.96338
487.969	-409.88455
488.453	-396.8928
488.936	-430.86964
489.42	-364.71727
489.903	-367.82861
490.386	-833.40368
490.869	-358.70146
491.352	-329.72463
491.835	-344.64057
492.318	-376.76496
492.8	-354.66116
493.283	-397.91531
493.765	-407.91328
494.247	-372.79852
494.73	-364.73347
495.212	-319.7026
495.694	-376.80014
496.175	-395.85245
496.657	-315.67953
497.139	-309.49673
497.62	-412.89732
498.102	-363.82393
498.583	-360.83119
499.064	-377.77311
499.545	-313.65232
500.026	-364.7527
500.507	-344.73619
500.988	-297.67442
501.469	-352.81046
501.949	-358.82263
502.43	-356.77833
502.91	-385.74349
503.39	-339.78878
503.87	-364.79313
504.35	-350.77265
504.83	-368.75244
505.31	-336.75322
505.79	-350.77653
506.269	-338.73742
506.749	-349.74124
507.228	-340.74053
507.707	-294.60141
508.187	-289.64081
508.666	-358.81933
509.145	-352.76763
509.623	-383.84743
510.102	-295.66282
510.581	-267.59794
511.059	-353.82588
511.538	-287.68987
512.016	-282.62542
512.494	-311.7065
512.972	-301.66963
513.45	-373.81015
513.928	-320.72414
514.406	-341.76364
514.884	-274.65199
515.361	-334.75151
515.839	-305.64949
516.316	-301.6763
516.793	-264.62216
517.27	-300.68413
517.747	-255.60527
518.224	-275.59554
518.701	-273.56871
519.178	-322.74702
519.654	-284.63588
520.131	-267.6154
520.607	-252.58372
521.083	-274.58589
521.56	-272.60123
522.036	-232.47502
522.512	-217.49797
522.987	-304.67673
523.463	-276.61517
523.939	-213.48526
524.414	-209.44933
524.89	-242.53649
525.365	-307.65886
525.84	-325.72781
526.315	-277.62646
526.79	-257.54466
527.265	-266.571
527.74	-285.65426
528.215	-283.62985
528.689	-283.59242
529.164	-261.53621
529.638	-248.59828
530.112	-333.74726
530.587	-265.53189
531.061	-321.73452
531.534	-270.61921
532.008	-297.67579
532.482	-226.48744
532.956	-329.79559
533.429	-254.57995
533.903	-226.47111
534.376	-271.56856
534.849	-241.52659
535.322	-271.60615
535.795	-250.57633
536.268	-267.60655
536.741	-254.57714
537.213	-244.53326
537.686	-264.60618
538.158	-295.62792
538.631	-207.47274
539.103	-290.61795
539.575	-214.42149
540.047	-197.406
540.519	-252.57121
540.991	-222.5122
541.463	-245.56064
541.934	-257.55775
542.406	-265.59762
542.877	-252.53908
543.348	-238.54342
543.82	-192.44122
544.291	-203.446
544.762	-289.6512
545.233	-247.58222
545.703	-292.61545
546.174	-189.41
546.645	-251.56096
547.115	-225.507
547.585	-207.44503
548.056	-237.5312
548.526	-203.44112
548.996	-201.44903
549.466	-139.31207
549.935	-214.4671
550.405	-195.39356
550.875	-187.40653
551.344	-144.31512
551.814	-130.2716
552.283	-134.26616
552.752	-155.32678
553.221	-133.26004
553.69	-98.19511
554.159	-128.282
554.628	-55.10835
555.096	-64.14395
555.565	14.02728
556.033	76.15596
556.502	69.14624
556.97	101.19466
557.438	155.31758
557.906	193.39508
558.374	219.43042
558.842	231.47286
559.31	370.68625
559.777	372.74579
560.245	467.89753
560.712	550.01758
561.18	554.96732
561.647	618.07768
562.114	726.2565
562.581	864.59518
563.048	952.58878
563.514	1028.80342
563.981	1155.80696
564.448	1214.81624
564.914	1412.10279
565.381	1481.098
565.847	1682.33288
566.313	1795.38181
566.779	1986.35565
567.245	2069.52887
567.711	2233.68004
568.176	2475.42691
568.642	2538.96096
569.108	2853.87977
569.573	3074.65124
570.038	3365.97056
570.504	3507.20327
570.969	3834.75758
571.434	4031.82519
571.899	4283.18352
572.363	4484.80741
572.828	4836.65875
573.293	5184.46277
573.757	5403.35984
574.222	5716.04617
574.686	6013.97369
575.15	6278.23268
575.614	6607.03607
576.078	6690.14128
576.542	7019.08454
577.006	7228.12312
577.469	7508.64233
577.933	7704.41473
578.396	7890.76188
578.86	8085.93614
579.323	8045.9108
579.786	8269.02485
580.249	8373.23835
580.712	8320.30333
581.175	8350.35689
581.637	8359.24813
582.1	8339.15516
582.563	8329.11907
583.025	8228.16689
583.487	8224.90636
583.95	8026.68682
584.412	8088.74779
584.874	8027.95762
585.336	7892.75997
585.797	7650.30832
586.259	7529.48397
586.721	7333.3376
587.182	7183.29683
587.643	7028.11045
588.105	6767.23632
588.566	6732.75744
589.027	6573.29717
589.488	6312.07408
589.949	6195.4218
590.41	6080.41111
590.87	5842.21292
591.331	5750.95641
591.791	5506.36905
592.252	5336.38151
592.712	5228.77188
593.172	5055.46249
593.632	4877.43945
594.092	4771.57371
594.552	4606.47261
595.011	4508.86036
595.471	4288.86499
595.931	4202.88648
596.39	3993.40517
596.849	3881.3029
597.308	3808.96855
597.768	3671.93325
598.227	3530.66511
598.685	3517.41798
599.144	3363.54236
599.603	3307.63852
600.062	3293.99881
600.52	3123.34714
600.978	3041.70203
601.437	3049.52511
601.895	2913.1716
602.353	2878.40239
602.811	2802.40226
603.269	2767.77183
603.727	2676.76906
604.184	2777.45502
604.642	2619.87785
605.099	2613.61533
605.557	2560.85421
606.014	2502.26829
606.471	2488.92237
606.928	2518.22635
607.385	2436.76663
607.842	2474.52512
608.299	2496.62654
608.755	2439.75906
609.212	2500.39397
609.668	2402.35309
610.125	2438.7873
610.581	2571.77305
611.037	2440.58182
611.493	2481.73728
611.949	2513.79551
612.405	2425.02348
612.861	2531.74371
613.316	2494.77208
613.772	2551.61047
614.227	2480.72075
614.683	2539.33205
615.138	2489.68917
615.593	2516.66755
616.048	2539.6262
616.503	2616.98554
616.958	2467.0341
617.412	2422.75794
617.867	2389.44138
618.321	2417.2165
618.776	2296.46989
619.23	2290.71365
619.684	2339.58169
620.138	2326.71128
620.592	2194.85328
621.046	2092.68422
621.5	2060.80408
621.954	2087.53206
622.407	2008.45791
622.861	1951.76054
623.314	1962.5297
623.768	1846.54683
624.221	1807.98367
624.674	1700.42266
625.127	1696.47838
625.58	1692.40959
626.033	1654.28469
626.485	1530.42288
626.938	1622.50026
627.39	1464.29115
627.843	1501.31391
628.295	1381.2031
628.747	1398.30302
629.199	1339.12112
629.651	1248.02619
630.103	1288.09388
630.555	1259.87673
631.006	1264.14177
631.458	1127.99465
631.909	1168.99652
632.361	1114.96189
632.812	996.78455
633.263	1060.72823
633.714	1031.68591
634.165	1005.9166
634.616	978.83578
635.067	986.71238
635.518	911.75132
635.968	947.48098
636.419	932.60554
636.869	864.67955
637.319	862.62085
637.769	790.45685
638.219	832.64488
638.669	747.49834
639.119	757.55895
639.569	760.54304
640.019	790.52457
640.468	723.36405
640.918	713.46823
641.367	658.26884
641.816	728.3772
642.265	668.33011
642.714	689.36658
643.163	658.30652
643.612	588.23739
644.061	614.12379
644.51	646.27311
644.958	592.13753
645.406	633.32024
645.855	676.4378
646.303	606.24566
646.751	561.12788
647.199	536.0857
647.647	561.14343
648.095	573.16052
648.543	622.10926
648.99	563.19483
649.438	557.1682
649.885	549.21668
650.333	555.95043
650.78	526.14069
651.227	539.17513
651.674	498.02332
652.121	454.00896
652.568	483.06441
653.015	517.18411
653.461	488.05185
653.908	509.07112
654.354	477.03799
654.801	435.93715
655.247	459.92212
655.693	433.04122
656.139	391.87198
656.585	442.97651
657.031	351.76562
657.477	412.82178
657.922	375.80548
658.368	376.86881
658.813	457.97946
659.259	354.7978
659.704	361.78876
660.149	341.74885
660.594	363.80921
661.039	361.7724
661.484	402.89743
661.929	357.78662
662.373	333.79433
662.818	360.8411
663.262	316.72236
663.707	301.72735
664.151	358.82559
664.595	306.70316
665.039	333.78703
665.483	279.68106
665.927	326.7308
666.371	265.58882
666.814	293.671
667.258	241.5506
667.701	358.73266
668.145	341.80718
668.588	260.61607
669.031	259.58695
669.474	290.67066
669.917	293.62448
670.36	261.62524
670.803	279.64945
671.245	271.55273
671.688	249.58944
672.13	217.47496
672.573	268.65823
673.015	252.58696
673.457	205.43826
673.899	248.58378
674.341	261.61019
674.783	200.4697
675.225	237.56689
675.666	211.49524
676.108	216.46048
676.549	230.53234
676.991	194.42166
677.432	167.3307
677.873	191.4355
678.314	251.5829
678.755	207.49362
679.196	228.51051
679.637	232.55397
680.078	241.55104
680.518	211.48381
680.959	227.53175
681.399	202.49156
681.839	172.4137
682.28	189.45864
682.72	203.45706
683.16	177.43451
683.6	222.49748
684.039	182.37653
684.479	165.4004
684.919	139.31873
685.358	180.4506
685.798	192.49428
686.237	187.44662
686.676	219.49994
687.115	196.4542
687.554	149.35191
687.993	196.42872
688.432	185.41824
688.871	140.31696
689.309	119.28422
689.748	175.36456
690.186	175.41428
690.625	176.40834
691.063	128.30647
691.501	185.45145
691.939	174.42864
692.377	101.24703
692.815	127.30321
693.253	183.43539
693.69	155.33983
694.128	160.38426
694.565	131.31216
695.003	148.3729
695.44	126.29615
695.877	115.26909
696.314	173.37065
696.751	191.43163
697.188	118.27182
697.625	133.30619
698.061	111.26684
698.498	164.39416
698.934	168.40132
699.371	76.18058
699.807	155.36481
700.243	162.38684
700.679	134.30399
701.115	118.27897
701.551	133.31327
701.987	174.38912
702.422	113.26896
702.858	170.40159
703.294	124.28199
703.729	94.23123
704.164	116.27965
704.599	108.24232
705.035	120.26947
705.47	85.20797
705.904	112.26181
706.339	136.31679
706.774	101.2379
707.209	115.26602
707.643	133.31899
708.078	131.31837
708.512	91.22826
708.946	166.39518
709.38	93.22195
709.814	114.26198
710.248	109.2664
710.682	88.21078
711.116	15.03647
711.549	88.22789
711.983	51.11976
712.416	114.27056
712.85	125.31117
713.283	98.2333
713.716	136.3407
714.149	152.36102
714.582	79.17962
715.015	106.26613
715.448	85.21543
715.881	166.36218
716.313	104.24492
716.746	84.19936
717.178	83.20104
717.61	94.23922
718.043	114.28435
718.475	88.21471
718.907	126.31861
719.339	34.07857
719.77	100.23797
720.202	69.17581
720.634	46.11337
721.065	110.26157
721.497	105.25805
721.928	65.16105
722.359	39.09535
722.79	67.16198
723.221	104.26232
723.652	137.35202
724.083	83.1891
724.514	80.18576
724.945	82.19439
725.375	45.106
725.806	102.25544
726.236	108.27688
726.666	53.12726
727.096	101.24868
727.526	84.21422
727.956	97.22189
728.386	71.17636
728.816	79.20087
729.246	78.19081
729.675	68.16869
730.105	120.2953
730.534	103.24214
730.964	90.22855
731.393	114.28363
731.822	116.29593
732.251	64.16374
732.68	98.23241
733.109	59.14687
733.537	60.14645
733.966	88.2195
734.395	89.20711
734.823	111.25177
735.251	64.15575
735.68	135.33704
736.108	66.16832
736.536	63.15041
736.964	73.17115
737.392	101.25325
737.82	89.21492
738.247	66.15977
738.675	119.28476
739.102	49.12371
739.53	73.18686
739.957	92.2371
740.384	136.33454
740.811	86.21894
741.238	84.20618
741.665	58.13617
742.092	115.27509
742.519	35.08776
742.945	87.21009
743.372	68.16968
743.798	65.16825
744.225	65.15614
744.651	71.17938
745.077	125.31083
745.503	54.13328
745.929	89.21468
746.355	141.34921
746.781	117.28967
747.207	14.03348
747.632	27.0668
748.058	74.18585
748.483	88.20409
748.908	52.13055
749.334	69.17083
749.759	57.13598
750.184	56.13485
750.609	80.19781
751.033	119.28161
751.458	91.20582
751.883	77.19203
752.307	68.16157
752.732	41.10351
753.156	66.16427
753.58	89.21265
754.005	56.14342
754.429	109.25655
754.853	64.15976
755.277	68.16244
755.7	93.23134
756.124	20.05039
756.548	41.09852
756.971	75.18439
757.394	99.2551
757.818	103.26485
758.241	62.1584
758.664	83.21029
759.087	35.07945
759.51	50.12571
759.933	63.15288
760.356	53.137
760.778	89.21954
761.201	106.25815
761.623	100.24326
762.046	122.28932
762.468	114.27399
762.89	103.25454
763.312	87.21334
763.734	55.13377
764.156	57.142
764.578	81.18782
765	71.17443
765.421	0
765.843	78.20506
766.264	109.26352
766.686	114.2858
767.107	66.16116
767.528	79.19994
767.949	53.13586
768.37	42.10427
768.791	76.18502
769.212	78.19646
769.632	49.11546
770.053	86.22662
770.473	57.13988
770.894	90.22588
771.314	117.27923
771.734	31.07336
772.154	51.13196
772.575	87.20269
772.994	52.1195
773.414	69.16694
773.834	41.10355
774.254	91.22315
774.673	79.19329
775.093	52.12971
775.512	56.13898
775.931	101.25571
776.351	52.13013
776.77	51.12571
777.189	45.10822
777.607	26.06715
778.026	61.15285
778.445	18.04561
778.864	116.29625
779.282	21.05127
779.701	61.15461
780.119	45.11458
780.537	37.09321
780.955	89.22653
781.373	101.24941
781.791	30.06839
782.209	98.22611
782.627	44.11665
783.045	75.17336
783.462	70.17934
783.88	51.13265
784.297	12.03059
784.715	51.13164
785.132	75.18214
785.549	41.1034
785.966	52.13159
786.383	54.13367
786.8	113.26161
787.217	40.09577
787.633	54.13548
788.05	125.29535
788.466	94.2218
788.883	51.13073
789.299	60.1453
789.715	64.15627
790.131	59.14741
790.547	81.20245
790.963	77.1914
791.379	97.24454
791.795	68.15602
792.21	62.14578
792.626	43.10294
793.041	73.18054
793.457	117.28744
793.872	66.15585
794.287	20.04831
794.702	55.13627
795.117	67.16685
795.532	69.1732
795.947	89.21419
796.362	86.20552
796.776	152.35196
797.191	70.17175
797.605	7.01667
798.02	70.17073
798.434	103.22887
798.848	73.18001
799.262	33.08254
799.676	126.30502
800.09	62.15308
800.504	79.19186
800.918	75.17412
801.331	90.2354
801.745	63.14539
802.158	56.14055
802.572	104.25129
802.985	104.25044
803.398	81.19324
803.811	111.28373
804.224	92.22848
804.637	78.1859
805.05	67.15585
805.462	56.13821
805.875	49.12749
806.288	54.13082
806.7	39.09867
807.112	84.19474
807.525	41.10188
807.937	21.05243
808.349	90.2249
808.761	62.15297
809.173	63.15311
809.584	123.30151
809.996	32.07898
810.408	33.08571
810.819	50.11826
811.231	-30.07884
811.642	-42.10236
812.053	59.14076
812.464	42.10053
812.875	55.14098
813.286	50.12917
813.697	120.27853
814.108	82.20015
814.519	78.174
814.929	103.26133
815.34	77.18672
815.75	64.16282
816.16	94.23345
816.571	62.16128
816.981	107.25125
817.391	78.18825
817.801	46.11478
818.211	68.16238
818.62	71.171
819.03	64.15715
819.44	88.22915
819.849	73.1839
820.259	84.21452
820.668	22.0546
821.077	26.06509
821.486	119.28422
821.895	100.2459
822.304	77.20369
822.713	73.17262
823.122	91.22629
823.531	40.09545
823.939	68.16579
824.348	86.20858
824.756	79.19759
825.164	121.30176
825.573	31.07832
825.981	95.2346
826.389	128.31823
826.797	68.17036
827.205	95.21705
827.612	90.22131
828.02	11.02613
828.428	37.09474
828.835	30.07943
829.243	52.12441
829.65	61.15185
830.057	79.19142
830.464	40.098
830.871	98.23348
831.278	73.17635
831.685	47.10548
832.092	53.13016
832.499	57.12513
832.905	82.20706
833.312	60.13722
833.718	73.18173
834.124	83.18925
834.531	121.30209
834.937	75.19218
835.343	65.15697
835.749	95.22089
836.155	78.20374
836.561	61.15019
836.966	74.18076
837.372	73.18555
837.777	83.20609
838.183	60.13374
838.588	47.11709
838.993	89.21582
839.399	53.12987
839.804	59.14393
840.209	47.11997
840.613	72.16009
841.018	79.19952
841.423	56.14382
841.828	64.16184
842.232	124.3039
842.637	81.19057
843.041	20.05163
843.445	90.22466
843.849	43.10685
844.253	119.27997
844.657	38.09609
845.061	59.13409
845.465	79.19027
845.869	82.18995
846.272	54.13171
846.676	103.24732
847.079	8.02053
847.483	124.30593
847.886	116.27954
848.289	22.05906
848.692	120.30073
849.095	49.11802
849.498	151.37671
849.901	68.1559
850.304	58.13877
850.707	94.23829
851.109	89.22413
851.512	87.21279
851.914	8.02034
852.316	85.21406
852.718	18.04679
853.121	86.20976
853.523	82.19093
853.925	20.05251
854.326	45.1128
854.728	83.21253
855.13	33.08548
855.531	48.11497
855.933	129.30574
856.334	43.10751
856.736	38.08554
857.137	54.12574
857.538	8.02029
857.939	66.16283
858.34	75.18228
858.741	59.15419
859.142	55.13227
859.542	90.23612
859.943	107.26355
860.343	16.03992
860.744	68.16567
861.144	45.11006
861.544	20.04842
861.945	80.20309
862.345	77.1877
862.745	77.19071
863.145	123.29051
863.544	60.15156
863.944	77.1813
864.344	90.22229
864.743	110.27039
865.143	88.22482
865.542	55.12768
865.941	83.20451
866.34	103.24469
866.74	74.19802
867.139	79.1884
867.537	79.20051
867.936	77.18468
868.335	56.14251
868.734	38.09742
869.132	78.18054
869.531	102.24469
869.929	45.10286
870.327	50.12004
870.726	87.21579
871.124	75.17473
871.522	61.15527
871.92	80.1965
872.318	65.15868
872.715	90.22147
873.113	64.15575
873.511	108.26655
873.908	12.03053
874.306	76.18833
874.703	83.20669
875.1	69.17612
875.497	47.1129
875.894	39.09585
876.291	76.18585
876.688	52.1342
877.085	85.20286
877.482	86.21413
877.878	53.12765
878.275	29.07402
878.671	117.25739
879.068	87.20882
879.464	67.16161
879.86	40.0949
880.256	98.24
880.652	33.08426
881.048	74.18277
881.444	98.23142
881.84	64.16241
882.236	68.1706
882.631	101.24583
883.027	111.26602
883.422	73.18607
883.817	6.01521
884.213	60.15383
884.608	23.05674
885.003	49.11829
885.398	56.14014
885.793	85.21221
886.188	24.06
886.582	118.29934
886.977	116.27212
887.371	84.21135
887.766	24.06002
888.16	121.29836
888.554	121.29561
888.949	82.20491
889.343	90.21845
889.737	11.02952
890.131	61.15285
890.525	109.27607
890.918	63.15831
891.312	94.22326
891.706	38.09997
892.099	98.24746
892.492	87.18648
892.886	81.19723
893.279	72.18284
893.672	104.26242
894.065	96.23859
894.458	68.1706
894.851	125.30231
895.244	40.10241
895.637	89.21298
896.029	58.14173
896.422	64.1561
896.814	64.15883
897.206	61.14508
897.599	93.22839
897.991	22.05352
898.383	97.22732
898.775	50.11297
899.167	27.0633
899.559	69.1742
899.951	68.15989
900.342	136.34083
900.734	9.02251
901.125	71.18574
901.517	102.24813
901.908	90.21434
902.299	84.20419
902.69	65.15305
903.082	62.14992
903.473	13.03137
903.863	49.12512
904.254	63.14597
904.645	82.2029
905.036	23.056
905.426	107.2424
905.817	53.13006
906.207	12.02882
906.597	63.14707
906.987	86.22164
907.378	58.14656
907.768	51.13487
908.158	72.17495
908.547	35.09069
908.937	78.19927
909.327	93.22416
909.717	117.29369
910.106	65.15578
910.495	121.29836
910.885	71.17925
911.274	64.15964
911.663	46.1169
912.052	85.20851
912.441	31.07913
912.83	48.11031
913.219	50.13091
913.608	89.21655
913.997	38.09551
914.385	70.16671
914.774	57.13869
915.162	39.09318
915.55	112.26796
915.939	53.13376
916.327	33.08266
916.715	55.14009
917.103	96.23441
917.491	104.25489
917.878	75.18364
918.266	69.17841
918.654	68.17324
919.041	14.03678
919.429	70.16466
919.816	53.13433
920.203	71.17159
920.591	97.23857
920.978	49.12007
921.365	46.12081
921.752	112.26397
922.139	92.19809
922.525	38.09151
922.912	109.26302
923.299	23.05746
923.685	59.15372
924.072	118.26857
924.458	58.14352
924.844	42.10412
925.231	71.16463
925.617	36.09181
926.003	85.21597
926.389	45.11365
926.774	76.19177
927.16	86.21226
927.546	46.11752
927.931	85.21083
928.317	71.16294
928.702	124.28929
929.088	65.15334
929.473	71.18002
929.858	-4.00977
930.243	31.07469
930.628	24.05869
931.013	60.14847
931.398	94.21438
931.783	61.16034
932.167	58.14162
932.552	92.22881
932.937	89.21938
933.321	67.16764
933.705	81.20311
934.09	118.29465
934.474	128.29956
934.858	25.06513
935.242	57.13196
935.626	91.2313
936.009	56.14881
936.393	83.20999
936.777	44.11281
937.16	66.17128
937.544	77.18052
937.927	87.21933
938.311	136.32674
938.694	48.127
939.077	52.12446
939.46	108.26243
939.843	113.23257
940.226	44.113
940.609	65.14881
940.991	74.18759
941.374	61.14881
941.757	87.21326
942.139	26.0587
942.522	111.25932
942.904	82.19596
943.286	81.20471
943.668	60.15517
944.05	39.09627
944.432	81.19878
944.814	109.2656
945.196	35.08554
945.578	13.03112
945.959	120.27742
946.341	97.2361
946.722	53.12435
947.104	70.16671
947.485	60.13938
947.866	83.2079
948.247	79.1983
948.628	110.26538
949.009	35.08987
949.39	72.17855
949.771	68.15765
950.152	84.20488
950.532	-7.0174
950.913	80.19191
951.293	22.0597
951.674	73.17582
952.054	27.06719
952.434	72.17803
952.814	92.21717
953.194	102.26461
953.574	52.12806
953.954	49.11641
954.334	90.2227
954.714	50.12186
955.093	103.2508
955.473	58.14483
955.853	74.19078
956.232	56.15334
956.611	113.26782
956.99	87.21721
957.37	61.15516
957.749	87.20612
958.128	30.07586
958.506	44.11426
958.885	80.20085
959.264	35.08602
959.643	98.22088
960.021	65.16063
960.4	78.1758
960.778	122.29656
961.156	46.11541
961.535	81.18767
961.913	43.10077
962.291	28.07211
962.669	42.10655
963.047	60.15286
963.424	78.19808
963.802	74.18116
964.18	117.29253
964.557	117.26591
964.935	104.24387
965.312	60.15597
965.69	72.17959
966.067	117.28137
966.444	103.25136
966.821	85.2178
967.198	90.21672
967.575	76.18599
967.952	93.21735
968.329	96.23161
968.705	72.15369
969.082	53.13586
969.458	43.10329
969.835	48.1169
970.211	54.13849
970.587	79.19566
970.963	115.29167
971.339	75.195
971.715	80.19868
972.091	63.15478
972.467	97.23989
972.843	51.12654
973.219	87.20747
973.594	48.12559
973.97	135.31613
974.345	49.1173
974.721	80.19264
975.096	58.14014
975.471	94.22111
975.846	59.14151
976.221	58.14708
976.596	27.06501
976.971	79.19401
977.346	138.31574
977.72	55.13999
978.095	90.23098
978.469	59.14059
978.844	118.29305
979.218	37.08891
979.593	119.28139
979.967	74.17948
980.341	89.20334
980.715	98.2448
981.089	51.12765
981.463	49.11254
981.837	66.1608
982.21	79.18282
982.584	77.18503
982.957	61.15202
983.331	80.18803
983.704	46.11312
984.078	77.18882
984.451	109.26937
984.824	51.12418
985.197	46.11182
985.57	101.25097
985.943	123.29972
986.316	94.2291
986.688	134.31802
987.061	112.25934
987.434	83.21506
987.806	92.22137
988.179	19.0451
988.551	44.11174
988.923	84.20557
989.295	89.22083
989.667	24.05762
990.039	67.16503
990.411	87.19877
990.783	73.16732
991.155	21.05073
991.527	98.2392
991.898	77.19092
992.27	41.10158
992.641	46.11549
993.012	97.22617
993.384	88.20837
993.755	76.19286
994.126	78.18662
994.497	44.10812
994.868	51.11713
995.239	35.08506
995.61	60.15069
995.98	20.04885
996.351	41.10169
996.722	9.02104
997.092	32.07603
997.462	52.12141
997.833	69.16297
998.203	76.18336
998.573	88.21759
998.943	75.17501
999.313	73.17415
999.683	76.18148
1000.053	84.19196
1000.423	82.19806
1000.792	38.09868
1001.162	85.20782
1001.531	73.17921
1001.901	95.23486
1002.27	70.15584
1002.639	73.18574
1003.009	56.13301
1003.378	43.11007
1003.747	72.16936
1004.116	37.08874
1004.485	102.24133
1004.853	73.18417
1005.222	69.17339
1005.591	106.24895
1005.959	40.0903
1006.328	38.08572
1006.696	31.07503
1007.064	76.19026
1007.433	88.21839
1007.801	114.27649
1008.169	67.16867
1008.537	87.19115
1008.905	18.04219
1009.273	69.16983
1009.64	42.10033
1010.008	83.19657
1010.375	72.1741
1010.743	134.30424
1011.11	68.16033
1011.478	49.12127
1011.845	84.1962
1012.212	61.13774
1012.579	93.22645
1012.946	83.19626
1013.313	64.15189
1013.68	92.20498
1014.047	35.08363
1014.414	54.12742
1014.78	69.17083
1015.147	104.24892
1015.513	73.17509
1015.88	83.21096
1016.246	78.19152
1016.612	141.31682
1016.978	59.14431
1017.344	89.21833
1017.71	104.251
1018.076	85.19905
1018.442	61.15658
1018.808	84.20861
1019.174	57.14277
1019.539	143.32303
1019.905	54.12722
1020.27	69.16964
1020.636	91.21643
1021.001	69.16455
1021.366	44.10575
1021.731	87.22223
1022.096	22.05575
1022.461	75.17659
1022.826	61.14463
1023.191	86.22417
1023.556	63.14724
1023.92	85.20759
1024.285	90.21795
1024.649	58.14189
1025.014	100.24536
1025.378	69.17283
1025.742	90.2218
1026.107	101.22601
1026.471	101.23336
1026.835	80.19716
1027.199	58.13935
1027.562	85.19616
1027.926	92.22313
1028.29	43.10891
1028.654	87.19861
1029.017	84.20511
1029.381	70.16652
1029.744	68.17281
1030.107	52.12294
1030.471	60.14333
1030.834	82.18527
1031.197	92.21978
1031.56	117.27237
1031.923	62.1599
1032.286	93.2165
1032.648	96.22749
1033.011	47.1079
1033.374	124.28713
1033.736	47.12358
1034.099	85.20573
1034.461	30.07602
1034.823	35.08735
1035.185	74.18539
1035.548	50.12163
1035.91	83.19748
1036.272	47.10699
1036.634	72.17535
1036.995	77.17996
1037.357	46.11194
1037.719	44.10708
1038.08	98.23043
1038.442	71.16776
1038.803	72.17206
1039.165	59.14858
1039.526	88.21102
1039.887	65.15501
1040.248	48.11825
1040.609	119.29019
1040.97	87.21105
1041.331	61.15406
1041.692	43.10046
1042.053	84.18987
1042.413	85.19663
1042.774	82.19813
1043.134	89.21021
1043.495	76.19005
1043.855	80.19286
1044.215	30.0747
1044.576	28.0672
1044.936	89.20236
1045.296	124.30514
1045.656	105.2549
1046.016	95.22725
1046.375	97.23309
1046.735	0
1047.095	50.11697
1047.454	116.24214
1047.814	112.26591
1048.173	106.25041
1048.533	34.0781
1048.892	71.16964
1049.251	132.32626
1049.61	109.26531
1049.969	70.16427
1050.328	49.10621
1050.687	75.18153
1051.046	86.20788
1051.405	80.19781
1051.763	57.13081
1052.122	92.22756
1052.48	54.13225
1052.839	20.0473
1053.197	80.18708
1053.555	102.22999
1053.914	92.22313
1054.272	103.24638
1054.63	67.1632
1054.988	70.16556
1055.345	45.09696
1055.703	91.21718
1056.061	69.17681
1056.419	45.11652
1056.776	94.22593
1057.134	61.14083
1057.491	76.1893
1057.848	83.20527
1058.206	52.12218
1058.563	73.16005
1058.92	86.19669
1059.277	68.16709
1059.634	98.22827
1059.991	71.16932
1060.348	34.07704
1060.704	58.13792
1061.061	129.29485
1061.418	49.11878
1061.774	45.11113
1062.131	40.10587
1062.487	47.10989
1062.843	65.16152
1063.199	66.16355
1063.555	34.07898
1063.911	85.21321
1064.267	97.20009
1064.623	29.07067
1064.979	106.24827
1065.335	76.18065
1065.691	100.23724
1066.046	83.18113
1066.402	75.16942
1066.757	97.24261
1067.112	124.29995
1067.468	30.07106
1067.823	51.12251
1068.178	70.16856
1068.533	80.19272
1068.888	117.2758
1069.243	39.09638
1069.598	43.10455
1069.952	5.01135
1070.307	23.05717
1070.662	92.21649
1071.016	66.1473
1071.371	34.07754
1071.725	104.24606
1072.079	74.17705
1072.434	59.14302
1072.788	101.23799
1073.142	124.30063
1073.496	60.14196
1073.85	89.20465
1074.203	36.08751
1074.557	96.25315
1074.911	99.23392
1075.265	54.12534
1075.618	94.22747
1075.971	89.20996
1076.325	64.16212
1076.678	57.13007
1077.031	43.09737
1077.385	112.24333
1077.738	67.15061
1078.091	22.05028
1078.444	95.21845
1078.796	66.16134
1079.149	63.1562
1079.502	64.15066
1079.855	97.22394
1080.207	125.30345
1080.56	99.2535
1080.912	78.18875
1081.264	49.11793
1081.617	88.21279
1081.969	41.10351
1082.321	51.12441
1082.673	39.08914
1083.025	41.09736
1083.377	85.18093
1083.728	120.27588
1084.08	59.14693
1084.432	34.08218
1084.783	84.19536
1085.135	59.14752
1085.486	66.1504
1085.838	62.15223
1086.189	55.13327
1086.54	79.18746
1086.891	35.08868
1087.242	62.15049
1087.593	76.18398
1087.944	67.15098
1088.295	60.13601
1088.646	111.26572
1088.996	22.05324
1089.347	53.12987
1089.698	37.08759
1090.048	41.10656
1090.398	124.28314
1090.749	77.18313
1091.099	12.03036
1091.449	69.17114
1091.799	81.20149
1092.149	11.02699
1092.499	51.12427
1092.849	85.21452
1093.199	95.23597
1093.548	76.18155
1093.898	72.17927
1094.248	84.21437
1094.597	6.01542
1094.947	70.18595
1095.296	61.15019
1095.645	63.16335
1095.994	38.0914
1096.343	36.09074
1096.692	15.0396
1097.041	7.01907
1097.39	82.20432
1097.739	57.14784
1098.088	87.23146
1098.437	9.02378
1098.785	88.23556
1099.134	117.30691
1099.482	69.18903
1099.83	37.09735
1100.179	52.13546
1100.527	82.21652
1100.875	57.15038
1101.223	88.23197
1101.571	55.15173
1101.919	-19.05018
1102.267	44.12388
1102.615	-8.02576
1102.962	18.0579
1103.31	7.02249
1103.658	10.03221
