Data from N2 R10 sample 1_Subt2__1__13-28-43-249.txt Node

Date: Mon Sep 01 13:28:43 PDT 2025
User: uwsun
Spectrometer: HDX01956
Trigger mode: 0
Integration Time (sec): 5.000000E-1
Scans to average: 1
Nonlinearity correction enabled: true
Boxcar width: 0
Storing dark spectrum: false
XAxis mode: Wavelengths
Number of Pixels in Spectrum: 2068
>>>>>Begin Spectral Data<<<<<
194.03	103.2845
194.578	96.29999
195.127	102.31372
195.676	86.26588
196.225	148.38287
196.773	145.38832
197.321	189.49137
197.87	238.56308
198.418	244.56878
198.966	170.40454
199.513	156.35405
200.061	193.44237
200.609	258.61911
201.156	180.35385
201.704	202.45937
202.251	185.44589
202.798	223.523
203.345	268.59437
203.892	253.57079
204.438	250.53596
204.985	194.41196
205.532	198.47225
206.078	258.56624
206.624	235.51631
207.17	304.62328
207.716	225.48934
208.262	222.39121
208.808	171.37949
209.354	222.48415
209.899	233.53361
210.445	256.56563
210.99	240.51541
211.535	307.63811
212.08	222.46463
212.625	258.5791
213.17	285.64482
213.715	210.41517
214.259	286.59168
214.804	283.62489
215.348	291.59001
215.892	316.66955
216.436	328.67096
216.98	288.56617
217.524	249.52633
218.068	258.58409
218.612	274.61905
219.155	241.50897
219.698	254.54266
220.242	274.61475
220.785	258.54093
221.328	167.38185
221.871	242.55722
222.414	229.51834
222.956	209.45474
223.499	235.47604
224.041	254.53442
224.583	262.50947
225.126	237.46998
225.668	241.5277
226.21	192.43999
226.751	154.30688
227.293	250.51442
227.835	157.35118
228.376	265.55057
228.918	265.60396
229.459	187.42328
230	202.43643
230.541	210.43912
231.082	238.51971
231.622	275.56675
232.163	217.47476
232.704	262.58155
233.244	216.48483
233.784	291.63906
234.324	170.33688
234.864	174.35901
235.404	244.5231
235.944	218.46817
236.484	314.69754
237.023	204.43546
237.563	229.4745
238.102	223.47488
238.641	235.53603
239.18	163.3456
239.719	246.55534
240.258	231.46643
240.797	228.48922
241.335	184.41012
241.874	183.31599
242.412	256.54859
242.95	216.46208
243.488	213.4374
244.026	222.45784
244.564	285.51554
245.102	185.37441
245.64	260.56101
246.177	226.45351
246.715	245.5274
247.252	225.46413
247.789	281.46663
248.326	192.41358
248.863	226.44072
249.4	277.55675
249.936	212.38867
250.473	211.44014
251.009	207.42354
251.546	264.51287
252.082	217.42428
252.618	303.5885
253.154	284.60017
253.69	238.47582
254.226	218.46474
254.761	246.48908
255.297	199.38853
255.832	218.45989
256.367	252.52578
256.903	242.46901
257.438	280.58004
257.972	213.42238
258.507	231.46665
259.042	309.5824
259.576	243.4571
260.111	280.5694
260.645	236.45191
261.179	245.50379
261.713	239.46818
262.247	237.48404
262.781	234.42987
263.315	233.5048
263.849	209.46556
264.382	263.53227
264.915	252.51737
265.449	143.31114
265.982	260.52005
266.515	264.56524
267.048	227.42132
267.58	285.54402
268.113	256.48119
268.646	259.56089
269.178	224.43869
269.71	291.5509
270.243	253.5071
270.775	250.56022
271.307	285.6011
271.838	270.56458
272.37	246.53217
272.902	294.58015
273.433	224.42934
273.965	272.57809
274.496	275.59986
275.027	249.54177
275.558	251.53241
276.089	234.50101
276.62	222.50117
277.15	249.54062
277.681	289.54229
278.211	280.59924
278.741	230.43957
279.272	220.43841
279.802	295.63939
280.332	224.46113
280.861	240.50475
281.391	220.43453
281.921	271.56806
282.45	230.50543
282.98	312.70374
283.509	307.58887
284.038	280.54785
284.567	285.57521
285.096	298.61899
285.625	225.44284
286.153	280.56187
286.682	224.44347
287.21	231.48186
287.739	258.52466
288.267	212.44566
288.795	272.62154
289.323	229.45985
289.851	282.56431
290.378	290.55209
290.906	197.4124
291.433	322.68136
291.961	276.52876
292.488	309.65372
293.015	292.57945
293.542	228.4964
294.069	280.58394
294.596	317.66506
295.122	250.50886
295.649	288.53468
296.175	273.56415
296.702	348.70671
297.228	306.62908
297.754	265.50118
298.28	249.47669
298.806	243.4954
299.332	261.48177
299.857	268.50599
300.383	343.72754
300.908	281.56739
301.433	270.54931
301.958	376.71304
302.483	323.66687
303.008	313.64652
303.533	306.67072
304.058	292.57512
304.582	255.50094
305.107	265.57903
305.631	337.63112
306.155	306.58284
306.679	283.54283
307.203	273.52162
307.727	295.57569
308.251	328.66458
308.775	285.55036
309.298	266.52095
309.822	321.66364
310.345	322.61809
310.868	343.6592
311.391	334.66806
311.914	318.6452
312.437	365.66432
312.96	278.52976
313.482	325.61557
314.005	280.57174
314.527	327.6921
315.049	406.81396
315.571	264.46426
316.093	394.76434
316.615	355.67075
317.137	403.66782
317.659	410.77601
318.18	383.72189
318.702	376.67306
319.223	392.60253
319.744	348.59662
320.265	373.69026
320.786	330.62855
321.307	376.71583
321.828	377.64133
322.348	361.64204
322.869	340.60327
323.389	343.39494
323.909	362.6213
324.43	423.76405
324.95	428.70907
325.47	386.69916
325.989	359.62061
326.509	388.60555
327.029	465.72814
327.548	433.67839
328.067	412.70449
328.587	458.81313
329.106	449.70552
329.625	490.93063
330.144	428.68128
330.662	414.65898
331.181	467.74277
331.7	445.70938
332.218	486.68659
332.736	503.78038
333.255	426.66412
333.773	440.69558
334.291	531.88348
334.808	469.66865
335.326	460.6676
335.844	479.70017
336.361	498.80734
336.879	509.73215
337.396	500.75145
337.913	514.71653
338.43	509.68479
338.947	555.79144
339.464	475.59068
339.981	507.7138
340.497	562.83002
341.014	515.74543
341.53	513.65654
342.046	557.78929
342.562	554.81069
343.078	557.73662
343.594	563.75607
344.11	604.78901
344.626	552.78889
345.141	558.6797
345.657	622.74323
346.172	582.75712
346.687	552.66514
347.202	560.64222
347.717	632.77563
348.232	613.80976
348.747	632.71634
349.261	589.59783
349.776	631.72855
350.29	537.67124
350.805	679.83619
351.319	753.80097
351.833	601.62582
352.347	613.68022
352.861	640.68266
353.374	728.74922
353.888	636.72254
354.401	678.68375
354.915	605.5771
355.428	657.74167
355.941	735.70556
356.454	797.71936
356.967	695.70363
357.48	742.69598
357.993	703.74929
358.505	657.68663
359.018	770.76807
359.53	821.75747
360.042	750.61758
360.554	792.75181
361.066	633.63256
361.578	780.58575
362.09	741.6739
362.602	748.56264
363.113	785.63814
363.625	839.60978
364.136	881.59608
364.647	697.53139
365.158	866.63821
365.669	825.65711
366.18	833.63035
366.691	790.51864
367.201	731.57915
367.712	852.54561
368.222	805.52647
368.733	864.44832
369.243	910.46612
369.753	880.52304
370.263	868.54939
370.773	931.60184
371.282	916.5058
371.792	832.37039
372.301	893.4562
372.811	1004.5933
373.32	848.23003
373.829	919.32561
374.338	1008.22115
374.847	1083.20997
375.356	1076.20947
375.865	1047.00356
376.373	1104.02765
376.882	1237.16013
377.39	1229.03207
377.898	1108.97136
378.407	1225.7735
378.915	1379.62685
379.423	1352.66781
379.93	1329.58593
380.438	1304.56158
380.946	1455.39518
381.453	1599.26585
381.96	1496.25624
382.468	1545.17505
382.975	1892.00942
383.482	1836.05131
383.989	1900.01118
384.495	1892.09527
385.002	1885.33322
385.509	2050.34927
386.015	2164.95925
386.521	2362.09757
387.028	2369.52827
387.534	2470.12617
388.04	2598.15566
388.546	2347.83722
389.051	2426.01111
389.557	2682.62804
390.063	3444.85335
390.568	3322.73343
391.073	3215.36857
391.578	3507.68381
392.084	3364.45317
392.589	2959.8297
393.093	3087.94457
393.598	3582.05594
394.103	4101.84414
394.607	4766.09679
395.112	5325.67253
395.616	5216.74117
396.12	5402.45117
396.624	5709.56485
397.128	6342.68798
397.632	7601.84374
398.136	8025.99607
398.639	7026.57146
399.143	6907.60784
399.646	8053.16251
400.15	8677.52009
400.653	8972.91287
401.156	8978.92443
401.659	4055.65019
402.162	993.6515
402.664	0
403.167	0
403.67	0
404.172	0
404.674	0
405.176	0
405.678	0
406.18	0
406.682	0
407.184	0
407.686	0
408.187	0
408.688	0
409.19	0
409.691	0
410.192	0
410.693	0
411.194	435.30976
411.694	4082.94878
412.195	8864.71461
412.696	12089.80453
413.196	12760.96929
413.696	12863.67595
414.196	13703.56671
414.696	17261.84252
415.196	21764.24417
415.696	29583.19008
416.196	25684.22279
416.695	17524.44066
417.195	12830.93953
417.694	12329.52688
418.194	12350.17832
418.693	10699.55081
419.192	10282.19738
419.691	10440.39043
420.19	10371.89281
420.688	10362.08397
421.187	10103.52137
421.685	9571.53017
422.184	9119.57139
422.682	7854.80297
423.18	5944.22716
423.678	5165.31615
424.176	4780.45478
424.674	4258.11672
425.172	4332.95169
425.669	4254.54288
426.167	4037.9559
426.664	3653.66059
427.161	3317.98368
427.659	2998.70654
428.156	2883.72077
428.652	2539.95818
429.149	2335.93736
429.646	2434.91037
430.143	2378.82052
430.639	2118.92265
431.135	1913.08826
431.632	1836.13309
432.128	1730.29939
432.624	1431.57162
433.12	1294.5236
433.616	1404.48446
434.111	1207.67006
434.607	1183.76551
435.103	1350.65545
435.598	1292.71073
436.093	1303.93433
436.588	1224.98647
437.083	1102.08898
437.578	1096.16604
438.073	921.27636
438.568	982.36489
439.062	895.20344
439.557	891.37935
440.051	902.33333
440.546	775.33527
441.04	746.41133
441.534	752.51257
442.028	815.49388
442.522	675.44514
443.015	724.37861
443.509	673.50331
444.002	608.47249
444.496	599.37067
444.989	581.4787
445.482	605.51332
445.975	574.39604
446.468	594.37413
446.961	570.3694
447.454	568.42899
447.947	456.39292
448.439	520.48252
448.931	517.40326
449.424	529.5403
449.916	495.47841
450.408	403.34796
450.9	330.34049
451.392	446.48015
451.884	468.43567
452.375	363.39579
452.867	462.43737
453.358	298.2926
453.849	427.36177
454.341	411.3936
454.832	334.30766
455.323	341.38821
455.814	376.39409
456.304	335.36149
456.795	330.35539
457.285	413.42785
457.776	453.48945
458.266	349.40488
458.756	295.36562
459.247	264.32058
459.737	193.24238
460.226	284.32044
460.716	296.37037
461.206	216.28474
461.695	258.3634
462.185	290.37104
462.674	272.3432
463.163	276.33082
463.653	240.27098
464.142	228.31479
464.63	282.39949
465.119	220.29178
465.608	207.27702
466.096	214.27131
466.585	257.35267
467.073	209.30801
467.561	220.32651
468.05	232.33052
468.538	279.42536
469.026	213.32104
469.513	206.26298
470.001	167.23903
470.489	161.24485
470.976	124.18784
471.463	170.28299
471.951	228.38017
472.438	160.24922
472.925	95.15
473.412	178.30088
473.899	136.21419
474.385	94.16348
474.872	82.13371
475.359	66.11527
475.845	113.16041
476.331	93.14388
476.817	111.19627
477.303	110.18371
477.789	103.18117
478.275	22.04088
478.761	140.24709
479.247	132.21597
479.732	14.02644
480.218	49.0978
480.703	97.18219
481.188	52.08356
481.673	68.11782
482.158	6.00959
482.643	64.1276
483.128	44.07676
483.612	44.07989
484.097	86.16484
484.581	63.11483
485.066	79.14992
485.55	-33.05741
486.034	3.00512
486.518	15.0279
487.002	12.02345
487.486	14.02748
487.969	-31.06162
488.453	48.09837
488.936	10.01819
489.42	27.04831
489.903	-21.04406
490.386	-447.67517
490.869	17.03036
491.352	70.14125
491.835	-3.00511
492.318	-16.02988
492.8	-1.0017
493.283	-26.0555
493.765	-16.03301
494.247	18.03539
494.73	-1.00185
495.212	-41.08503
495.694	-66.13097
496.175	-93.1877
496.657	4.00804
497.139	6.00878
497.62	-98.1992
498.102	-58.12349
498.583	-16.03441
499.064	-79.15109
499.545	-6.01165
500.026	-58.11171
500.507	-53.10628
500.988	-5.01068
501.469	-64.13887
501.949	-73.15816
502.43	-131.27278
502.91	-78.13954
503.39	-48.10526
503.87	-73.14923
504.35	-39.08049
504.83	-68.12958
505.31	-95.2024
505.79	-88.18459
506.269	-67.13777
506.749	-87.17422
507.228	-108.22363
507.707	-80.15571
508.187	-81.17182
508.666	-98.21255
509.145	-120.24882
509.623	-137.28756
510.102	-83.17837
510.581	-45.09616
511.059	-117.26106
511.538	-72.16599
512.016	-52.1098
512.494	-47.10105
512.972	-81.17197
513.45	-107.21923
513.928	-102.22057
514.406	-136.2917
514.884	-91.20892
515.361	-62.13172
515.839	-47.09447
516.316	-73.15634
516.793	-33.07427
517.27	-55.11921
517.747	-125.28927
518.224	-90.1872
518.701	-98.1962
519.178	-137.30619
519.654	-46.09794
520.131	-91.20238
520.607	-82.18353
521.083	-96.19736
521.56	-118.25243
522.036	-125.24973
522.512	-80.17854
522.987	-135.28999
523.463	-83.1776
523.939	-59.13023
524.414	-57.11853
524.89	-69.14745
525.365	-112.23025
525.84	-97.20702
526.315	-119.26046
526.79	-98.20047
527.265	-78.16065
527.74	-119.26409
528.215	-92.19664
528.689	-116.23385
529.164	-58.1137
529.638	-86.20111
530.112	-144.31059
530.587	-143.27893
531.061	-131.2883
531.534	-74.16303
532.008	-128.28129
532.482	-85.17778
532.956	-93.21488
533.429	-113.25067
533.903	-105.21299
534.376	-77.15462
534.849	-77.16241
535.322	-62.13269
535.795	-60.13307
536.268	-80.17484
536.741	-51.11111
537.213	-49.10267
537.686	-84.18592
538.158	-70.1417
538.631	-60.13296
539.103	-94.19177
539.575	-30.05653
540.047	-13.02568
540.519	-42.09113
540.991	-7.01546
541.463	-43.0944
541.934	-34.07028
542.406	-29.06224
542.877	-26.0529
543.348	-1.00217
543.82	42.09199
544.291	66.13679
544.762	8.01693
545.233	71.15698
545.703	12.0236
546.174	87.17761
546.645	47.09856
547.115	73.15444
547.585	158.31295
548.056	82.1717
548.526	140.28197
548.996	176.36248
549.466	254.52406
549.935	166.33311
550.405	192.35307
550.875	245.48357
551.344	292.57999
551.814	313.58965
552.283	332.58785
552.752	327.61633
553.221	363.62652
553.69	417.73089
554.159	401.78516
554.628	429.74917
555.096	464.93023
555.565	495.85445
556.033	562.02532
556.502	576.08386
556.97	604.02273
557.438	605.11203
557.906	719.29555
558.374	657.15702
558.842	693.26902
559.31	711.20604
559.777	755.37862
560.245	882.52563
560.712	885.50289
561.18	981.52196
561.647	1019.59318
562.114	1027.6383
562.581	1155.98001
563.048	1206.87579
563.514	1276.09504
563.981	1351.99689
564.448	1420.99689
564.914	1486.16518
565.381	1601.18571
565.847	1671.32546
566.313	1695.3207
566.779	1803.27384
567.245	1811.40665
567.711	1956.56913
568.176	1836.26197
568.642	2036.79009
569.108	2085.73155
569.573	2212.61922
570.038	2309.16919
570.504	2370.40428
570.969	2458.95337
571.434	2530.31401
571.899	2570.70144
572.363	2714.49458
572.828	2852.52356
573.293	2845.51774
573.757	2897.51536
574.222	2907.34869
574.686	2992.34719
575.15	2958.66363
575.614	3039.46935
576.078	3140.56121
576.542	3171.41124
577.006	3080.37449
577.469	3097.91029
577.933	3054.32815
578.396	3097.66565
578.86	3145.60527
579.323	3021.6702
579.786	2971.20214
580.249	2972.44636
580.712	2932.84942
581.175	2896.88914
581.637	2837.5697
582.1	2842.34001
582.563	2779.25691
583.025	2654.80061
583.487	2612.99199
583.95	2537.23774
584.412	2531.17826
584.874	2460.79539
585.336	2381.67014
585.797	2383.28411
586.259	2319.66094
586.721	2146.56707
587.182	2135.58695
587.643	2113.44481
588.105	2026.57092
588.566	2032.14928
589.027	1895.55544
589.488	1860.35797
589.949	1857.57939
590.41	1765.80478
590.87	1746.31319
591.331	1754.13582
591.791	1672.2806
592.252	1665.23806
592.712	1587.36288
593.172	1584.15031
593.632	1577.08193
594.092	1462.03906
594.552	1383.88497
595.011	1372.03039
595.471	1370.97452
595.931	1316.91591
596.39	1332.11295
596.849	1315.026
597.308	1308.85175
597.768	1265.20969
598.227	1298.10554
598.685	1226.91926
599.144	1198.92066
599.603	1235.9954
600.062	1182.65191
600.52	1191.79389
600.978	1164.91866
601.437	1139.8127
601.895	1120.62051
602.353	1200.80376
602.811	1161.75989
603.269	1145.91689
603.727	1176.95136
604.184	1168.79107
604.642	1174.00349
605.099	1258.96059
605.557	1196.02053
606.014	1226.74228
606.471	1201.06784
606.928	1220.71415
607.385	1302.09912
607.842	1300.95522
608.299	1350.05916
608.755	1364.15672
609.212	1306.88376
609.668	1360.908
610.125	1425.2328
610.581	1438.22428
611.037	1414.09317
611.493	1369.14435
611.949	1271.07585
612.405	1285.64943
612.861	1414.18683
613.316	1360.15525
613.772	1318.01704
614.227	1272.03779
614.683	1318.85785
615.138	1322.06957
615.593	1299.03271
616.048	1327.0351
616.503	1323.22968
616.958	1278.22144
617.412	1234.02344
617.867	1208.82455
618.321	1260.74291
618.776	1205.84546
619.23	1176.95243
619.684	1207.90623
620.138	1210.98387
620.592	1135.99847
621.046	1106.89217
621.5	1133.00094
621.954	1089.78808
622.407	1098.77351
622.861	1085.94991
623.314	1032.74819
623.768	1033.79473
624.221	940.37633
624.674	970.69606
625.127	963.72131
625.58	973.69553
626.033	942.59698
626.485	954.75819
626.938	888.66165
627.39	925.67191
627.843	962.71554
628.295	900.63117
628.747	869.64004
629.199	835.51273
629.651	826.49905
630.103	793.46714
630.555	783.33352
631.006	770.4781
631.458	743.44504
631.909	813.52069
632.361	770.47668
632.812	724.38698
633.263	730.29897
633.714	739.30585
634.165	753.5229
634.616	710.41977
635.067	740.36788
635.518	712.43363
635.968	740.22592
636.419	619.15437
636.869	693.40141
637.319	656.29527
637.769	589.14019
638.219	640.32157
638.669	607.25641
639.119	662.39211
639.569	646.34531
640.019	646.28922
640.468	628.21205
640.918	648.35366
641.367	622.20965
641.816	609.18516
642.265	614.23774
642.714	613.23714
643.163	619.24012
643.612	600.25935
644.061	588.08316
644.51	523.06005
644.958	562.08756
645.406	552.17171
645.855	588.27426
646.303	648.31956
646.751	508.03358
647.199	590.18056
647.647	598.20875
648.095	574.16228
648.543	591.06228
648.99	547.16486
649.438	638.31449
649.885	600.31577
650.333	598.0109
650.78	614.30691
651.227	536.16932
651.674	603.21024
652.121	575.24632
652.568	528.15282
653.015	573.29783
653.461	504.08268
653.908	625.28218
654.354	578.23125
654.801	567.18502
655.247	639.2289
655.693	588.37302
656.139	583.24648
656.585	602.28355
657.031	532.11396
657.477	580.11014
657.922	524.0875
658.368	572.26798
658.813	623.28555
659.259	595.27273
659.704	620.27849
660.149	597.23844
660.594	628.3211
661.039	595.2068
661.484	632.34177
661.929	602.25633
662.373	559.27326
662.818	576.28639
663.262	589.27019
663.707	561.28656
664.151	608.32998
664.595	584.26505
665.039	552.24692
665.483	546.26387
665.927	583.23573
666.371	505.06409
666.814	556.2038
667.258	563.20055
667.701	651.2424
668.145	597.34075
668.588	568.26328
669.031	555.17988
669.474	588.27697
669.917	593.17972
670.36	621.38273
670.803	590.28676
671.245	581.09999
671.688	567.25714
672.13	548.1136
672.573	589.35786
673.015	584.26881
673.457	565.11192
673.899	607.32639
674.341	616.33729
674.783	550.20092
675.225	604.34067
675.666	529.16207
676.108	542.07183
676.549	612.3066
676.991	627.23532
677.432	558.00258
677.873	542.14595
678.314	549.19747
678.755	566.25414
679.196	536.12186
679.637	581.29196
680.078	535.14865
680.518	547.16739
680.959	541.18697
681.399	588.32456
681.839	598.31909
682.28	558.25742
682.72	556.15917
683.16	584.32251
683.6	591.22161
684.039	565.06703
684.479	538.2113
684.919	568.1879
685.358	564.31074
685.798	544.3113
686.237	565.24906
686.676	611.28219
687.115	555.19216
687.554	582.25642
687.993	586.17417
688.432	557.16151
688.871	601.23065
689.309	565.23138
689.748	616.15587
690.186	598.29707
690.625	576.22804
691.063	543.19437
691.501	586.32005
691.939	559.27634
692.377	584.29676
692.815	558.21944
693.253	601.31216
693.69	607.20202
694.128	551.22213
694.565	565.23138
695.003	528.23663
695.44	581.24167
695.877	547.1689
696.314	547.07542
696.751	610.25841
697.188	571.19392
697.625	580.21357
698.061	556.2207
698.498	604.32734
698.934	609.32909
699.371	556.19611
699.807	607.30011
700.243	560.23259
700.679	621.26708
701.115	593.27008
701.551	558.20299
701.987	603.22695
702.422	572.23849
702.858	617.32838
703.294	624.27292
703.729	613.35982
704.164	590.29165
704.599	576.16581
705.035	552.12735
705.47	562.24992
705.904	556.1838
706.339	627.31639
706.774	590.25467
707.209	549.15798
707.643	604.31566
708.078	582.29178
708.512	552.26615
708.946	576.26043
709.38	595.28041
709.814	601.24398
710.248	602.3329
710.682	600.29367
711.116	524.14938
711.549	584.37859
711.983	520.10655
712.416	582.25373
712.85	580.32089
713.283	591.2707
713.716	581.33514
714.149	667.42386
714.582	612.23879
715.015	575.31818
715.448	571.31841
715.881	582.15592
716.313	558.19527
716.746	552.18902
717.178	552.21597
717.61	570.3247
718.043	552.26413
718.475	495.11321
718.907	598.38109
719.339	493.03284
719.77	560.21196
720.202	526.22857
720.634	498.12203
721.065	504.10497
721.497	577.29101
721.928	489.1145
722.359	470.05409
722.79	535.17625
723.221	563.29992
723.652	501.20229
724.083	482.0073
724.514	492.04687
724.945	461.01033
725.375	478.02849
725.806	511.18204
726.236	494.1776
726.666	515.1251
727.096	509.15596
727.526	470.11389
727.956	472.99785
728.386	496.13344
728.816	429.02027
729.246	466.05494
729.675	450.03557
730.105	509.15969
730.534	484.0508
730.964	518.21223
731.393	488.12854
731.822	492.1688
732.251	476.12639
732.68	523.13586
733.109	467.07327
733.537	443.00136
733.966	440.0246
734.395	436.94474
734.823	464.97665
735.251	399.90966
735.68	484.12901
736.108	397.95274
736.536	446.98617
736.964	386.84926
737.392	418.98766
737.82	422.95451
738.247	376.85672
738.675	449.00422
739.102	415.97848
739.53	385.93097
739.957	378.92522
740.384	456.05275
740.811	409.98115
741.238	373.86616
741.665	356.78688
742.092	360.8206
742.519	355.83836
742.945	326.75151
743.372	335.79512
743.798	345.84932
744.225	323.73761
744.651	340.81738
745.077	330.78974
745.503	346.80776
745.929	337.77454
746.355	370.87766
746.781	302.72219
747.207	238.54473
747.632	202.48364
748.058	302.72715
748.483	343.75514
748.908	280.67394
749.334	258.61652
749.759	264.60472
750.184	273.63023
750.609	295.70047
751.033	298.68067
751.458	315.67982
751.883	274.65875
752.307	283.64446
752.732	227.55393
753.156	253.60815
753.58	285.6553
754.005	262.64658
754.429	239.54823
754.853	206.50092
755.277	226.5235
755.7	267.64302
756.124	182.44521
756.548	191.44585
756.971	253.60145
757.394	217.54761
757.818	224.56376
758.241	231.5725
758.664	178.44334
759.087	122.27205
759.51	228.55482
759.933	139.33249
760.356	180.45498
760.778	176.42717
761.201	207.49457
761.623	219.52084
762.046	193.45141
762.468	217.51131
762.89	215.52035
763.312	217.51925
763.734	190.4504
764.156	135.33153
764.578	142.32528
765	169.40764
765.421	150.37713
765.843	178.45999
766.264	178.42472
766.686	168.41706
767.107	139.33478
767.528	102.2571
767.949	109.27665
768.37	132.32231
768.791	144.3461
769.212	89.22373
769.632	103.24016
770.053	141.3681
770.473	162.3898
770.894	127.31661
771.314	173.40844
771.734	87.20365
772.154	121.30929
772.575	135.31154
772.994	111.25207
773.414	180.42636
773.834	107.26704
774.254	91.22315
774.673	165.39724
775.093	108.26665
775.512	118.28952
775.931	131.32989
776.351	92.22856
776.77	77.18889
777.189	109.25894
777.607	92.23487
778.026	124.30716
778.445	68.17078
778.864	108.2762
779.282	46.11178
779.701	106.26651
780.119	60.15237
780.537	64.16045
780.955	119.30128
781.373	82.2032
781.791	85.19162
782.209	126.28909
782.627	98.25746
783.045	114.26146
783.462	72.1844
783.88	45.11716
784.297	72.18161
784.715	56.14442
785.132	68.16536
785.549	58.14583
785.966	90.2262
786.383	60.14836
786.8	83.1933
787.217	84.19944
787.633	31.0781
788.05	124.29304
788.466	86.20324
788.883	87.2216
789.299	100.24035
789.715	60.14661
790.131	81.20157
790.547	81.20245
790.963	96.23781
791.379	73.18482
791.795	80.18311
792.21	98.22881
792.626	116.27382
793.041	64.15854
793.457	90.22221
793.872	56.1325
794.287	37.08908
794.702	94.23123
795.117	79.1963
795.532	81.20289
795.947	105.25193
796.362	95.22664
796.776	142.32946
797.191	101.24639
797.605	34.08057
798.02	78.18996
798.434	113.25057
798.848	76.1873
799.262	60.14934
799.676	93.22653
800.09	67.16527
800.504	97.23477
800.918	86.19922
801.331	109.28417
801.745	69.15904
802.158	55.13806
802.572	137.32896
802.985	114.27399
803.398	65.15554
803.811	132.33616
804.224	111.27471
804.637	27.06498
805.05	60.13976
805.462	94.23038
805.875	39.10164
806.288	47.11401
806.7	68.17115
807.112	84.19474
807.525	108.26508
807.937	29.0723
808.349	47.11836
808.761	81.19914
809.173	90.21763
809.584	126.30869
809.996	55.13517
810.408	27.0702
810.819	83.19505
811.231	43.11161
811.642	58.13871
812.053	127.29903
812.464	135.31737
812.875	147.37071
813.286	109.27871
813.697	176.40397
814.108	138.33331
814.519	84.18716
814.929	106.2688
815.34	102.24618
815.75	52.13257
816.16	102.25295
816.571	129.3317
816.981	105.24665
817.391	59.14291
817.801	82.20328
818.211	76.18121
818.62	74.17813
819.03	115.2797
819.44	102.26497
819.849	92.23098
820.259	52.13355
820.668	60.14787
821.077	72.17875
821.486	116.27721
821.895	109.26759
822.304	74.19586
822.713	59.13989
823.122	81.20179
823.531	95.22429
823.939	69.1682
824.348	104.25138
824.756	95.23692
825.164	114.28466
825.573	61.15329
825.981	100.24672
826.389	72.18083
826.797	69.17283
827.205	76.17431
827.612	71.1752
828.02	67.15745
828.428	81.20581
828.835	63.16588
829.243	43.10306
829.65	67.16661
830.057	80.19381
830.464	58.14162
830.871	98.23348
831.278	15.03663
831.685	66.14754
832.092	41.10091
832.499	57.12513
832.905	98.24675
833.312	72.16427
833.718	92.22823
834.124	67.15326
834.531	97.24322
834.937	51.13123
835.343	93.2234
835.749	92.21405
836.155	68.17792
836.561	39.09642
836.966	95.23114
837.372	72.18304
837.777	51.12737
838.183	92.20371
838.588	80.1981
838.993	86.20866
839.399	77.18784
839.804	15.03689
840.209	89.22549
840.613	32.07174
841.018	25.06375
841.423	64.16414
841.828	66.16683
842.232	69.17083
842.637	57.13473
843.041	46.11822
843.445	53.13318
843.849	56.13882
844.253	80.18965
844.657	47.11866
845.061	67.15203
845.465	77.18553
845.869	74.17169
846.272	33.0808
846.676	67.16198
847.079	40.10208
847.483	95.23563
847.886	112.27011
848.289	69.18382
848.692	76.19197
849.095	78.18683
849.498	146.36457
849.901	43.09908
850.304	112.2652
850.707	54.13786
851.109	99.24886
851.512	59.14506
851.914	22.05581
852.316	36.09145
852.718	3.00782
853.121	37.09107
853.523	59.138
853.925	21.05512
854.326	39.09786
854.728	49.12622
855.13	21.05451
855.531	52.12446
855.933	90.21492
856.334	14.03519
856.736	43.0967
857.137	40.09339
857.538	35.08836
857.939	39.0967
858.34	77.18707
858.741	48.12568
859.142	85.20325
859.542	43.11371
859.943	48.11951
860.343	41.10184
860.744	71.17288
861.144	68.16561
861.544	21.05083
861.945	53.13519
862.345	100.24272
862.745	42.10469
863.145	75.17879
863.544	35.0888
863.944	100.2344
864.344	87.215
864.743	52.12919
865.143	60.15404
865.542	61.14145
865.941	58.14357
866.34	111.26329
866.74	102.27168
867.139	38.09133
867.537	79.20051
867.936	14.03398
868.335	40.10208
868.734	68.17342
869.132	43.10022
869.531	72.17371
869.929	55.12546
870.327	15.03625
870.726	89.22067
871.124	68.15864
871.522	83.21044
871.92	67.16497
872.318	67.16351
872.715	85.20936
873.113	56.13648
873.511	55.13707
873.908	8.02037
874.306	49.12203
874.703	76.1895
875.1	71.18117
875.497	48.11528
875.894	5.01237
876.291	68.16653
876.688	43.11115
877.085	86.20521
877.482	87.21658
877.878	69.16568
878.275	55.13975
878.671	86.19042
879.068	76.1828
879.464	56.13536
879.86	18.04288
880.256	97.2376
880.652	53.13486
881.048	74.18277
881.444	87.20588
881.84	61.15488
882.236	61.15323
882.631	63.15443
883.027	83.19998
883.422	21.05402
883.817	25.06316
884.213	70.17915
884.608	31.07636
885.003	29.07027
885.398	53.13271
885.793	52.1306
886.188	30.07491
886.582	88.22442
886.977	71.16802
887.371	57.14411
887.766	26.065
888.16	81.2012
888.554	129.31469
888.949	51.12816
889.343	95.23037
889.737	36.09621
890.131	46.11557
890.525	56.14317
890.918	18.0456
891.312	92.2186
891.706	78.20381
892.099	60.15253
892.492	117.24916
892.886	44.10788
893.279	42.10723
893.672	53.13495
894.065	92.22881
894.458	62.15572
894.851	84.20472
895.244	32.08204
895.637	74.17759
896.029	60.14656
896.422	61.14886
896.814	37.09228
897.206	43.10262
897.599	117.28605
897.991	61.14731
898.383	54.12762
898.775	70.15751
899.167	9.02117
899.559	72.18168
899.951	61.14363
900.342	100.25224
900.734	2.00501
901.125	81.21154
901.517	24.05923
901.908	70.16735
902.299	60.14651
902.69	86.20166
903.082	41.09953
903.473	16.03859
903.863	67.17054
904.254	80.18473
904.645	113.27802
905.036	22.05358
905.426	59.13496
905.817	58.1422
906.207	66.15688
906.597	33.07749
906.987	67.17324
907.378	62.15655
907.768	56.14797
908.158	98.23697
908.547	46.11896
908.937	70.17909
909.327	52.12631
909.717	104.26167
910.106	70.16761
910.495	49.12242
910.885	61.15428
911.274	29.0728
911.663	102.25664
912.052	76.18675
912.441	39.09941
912.83	61.13982
913.219	89.23148
913.608	73.17815
913.997	36.09051
914.385	105.24838
914.774	84.20335
915.162	51.12158
915.55	120.28666
915.939	25.06341
916.327	89.22067
916.715	62.15773
917.103	105.25595
917.491	80.19694
917.878	63.1546
918.266	56.14513
918.654	106.26823
919.041	28.07339
919.429	56.13209
919.816	95.23898
920.203	81.19538
920.591	84.20709
920.978	87.21168
921.365	61.1598
921.752	66.15694
922.139	45.09787
922.525	8.01937
922.912	57.1389
923.299	56.13908
923.685	23.06029
924.072	94.21498
924.458	48.11899
924.844	52.12867
925.231	51.11873
925.617	35.08928
926.003	90.22847
926.389	70.176
926.774	47.11921
927.16	81.2001
927.546	23.059
927.931	103.25463
928.317	53.12207
928.702	70.16504
929.088	35.08305
929.473	40.10198
929.858	-1.00244
930.243	34.08187
930.628	72.1745
931.013	47.11658
931.398	114.25894
931.783	64.16814
932.167	34.08339
932.552	51.12779
932.937	98.24116
933.321	30.07556
933.705	57.14354
934.09	120.29954
934.474	63.14932
934.858	37.0962
935.242	53.1228
935.626	47.12039
936.009	52.13828
936.393	98.24728
936.777	63.16098
937.16	23.06013
937.544	105.24482
937.927	66.16701
938.311	94.22764
938.694	81.21313
939.077	61.14575
939.46	79.19301
939.843	65.13523
940.226	57.14606
940.609	46.10571
940.991	52.13233
941.374	36.08823
941.757	99.24214
942.139	48.10788
942.522	46.10884
942.904	82.19596
943.286	74.18726
943.668	65.16795
944.05	53.1305
944.432	79.19394
944.814	87.21287
945.196	36.08797
945.578	-4.00961
945.959	74.17264
946.341	107.25995
946.722	86.20048
947.104	67.15966
947.485	50.11638
947.866	38.09595
948.247	80.20078
948.628	70.17016
949.009	63.16098
949.39	98.24187
949.771	79.18275
950.152	56.1373
950.532	0
950.913	63.15162
951.293	24.06511
951.674	64.15441
952.054	62.1533
952.434	43.10689
952.814	51.12134
953.194	84.21859
953.574	87.21287
953.954	66.15628
954.334	74.18365
954.714	28.06852
955.093	54.13269
955.473	39.09772
955.853	34.08826
956.232	50.13704
956.611	81.19317
956.99	65.16293
957.37	47.11984
957.749	60.14289
958.128	54.13596
958.506	67.1733
958.885	65.16363
959.264	47.11525
959.643	43.09801
960.021	14.03492
960.4	45.10211
960.778	75.18392
961.156	49.12287
961.535	60.1396
961.913	93.21582
962.291	47.12064
962.669	38.09647
963.047	44.11241
963.424	53.13519
963.802	49.12051
964.18	93.23353
964.557	75.17191
964.935	77.18151
965.312	29.07579
965.69	89.22131
966.067	60.14585
966.444	38.09386
966.821	107.27312
967.198	95.22855
967.575	72.17633
967.952	87.20357
968.329	82.19836
968.705	138.29036
969.082	47.1206
969.458	14.03382
969.835	67.16259
970.211	27.06957
970.587	56.13928
970.963	59.15113
971.339	57.14866
971.715	48.1199
972.091	57.14019
972.467	67.16661
972.843	45.11178
973.219	109.25884
973.594	66.17216
973.97	132.30929
974.345	32.07685
974.721	127.30309
975.096	61.14731
975.471	41.09744
975.846	67.16045
976.221	69.17463
976.596	62.14828
976.971	64.15761
977.346	62.14402
977.72	81.20522
978.095	65.16755
978.469	83.19687
978.844	100.24916
979.218	16.0386
979.593	83.19763
979.967	50.12182
980.341	37.08542
980.715	92.23006
981.089	110.27239
981.463	27.06228
981.837	38.09306
982.21	78.18054
982.584	42.1016
982.957	45.11247
983.331	54.12757
983.704	71.17378
984.078	49.12078
984.451	109.26937
984.824	62.15066
985.197	49.11904
985.57	85.21183
985.943	119.29019
986.316	96.23388
986.688	71.17055
987.061	84.19559
987.434	45.11736
987.806	47.11406
988.179	42.09926
988.551	62.15695
988.923	52.12801
989.295	97.24033
989.667	-14.03385
990.039	31.07686
990.411	60.13783
990.783	57.13107
991.155	49.11775
991.527	118.28694
991.898	36.08993
992.27	34.08435
992.641	82.20454
993.012	93.21701
993.384	25.05992
993.755	72.18284
994.126	69.16537
994.497	20.04936
994.868	50.11486
995.239	75.18091
995.61	65.1631
995.98	37.09009
996.351	38.0943
996.722	17.03968
997.092	31.07367
997.462	-11.026
997.833	28.06666
998.203	75.18098
998.573	66.16385
998.943	88.20482
999.313	80.1906
999.683	21.05067
1000.053	117.26559
1000.423	79.19092
1000.792	70.18078
1001.162	73.17888
1001.531	105.25624
1001.901	67.16649
1002.27	106.23422
1002.639	44.11253
1003.009	74.17515
1003.378	74.18839
1003.747	81.1902
1004.116	43.10302
1004.485	55.13131
1004.853	85.21398
1005.222	41.10355
1005.591	93.21897
1005.959	26.05887
1006.328	64.1436
1006.696	12.02915
1007.064	106.26392
1007.433	65.16199
1007.801	80.19527
1008.169	84.21082
1008.537	96.21052
1008.905	25.05852
1009.273	99.24232
1009.64	9.02164
1010.008	85.20123
1010.375	94.22636
1010.743	67.15419
1011.11	29.06889
1011.478	60.1482
1011.845	78.1824
1012.212	60.13551
1012.579	101.24556
1012.946	106.24953
1013.313	90.21253
1013.68	70.15668
1014.047	67.15911
1014.414	54.12742
1014.78	53.1316
1015.147	93.22306
1015.513	62.14902
1015.88	96.24344
1016.246	87.21326
1016.612	91.20657
1016.978	85.20689
1017.344	99.24241
1017.71	87.21065
1018.076	36.08511
1018.442	86.21979
1018.808	49.12247
1019.174	39.098
1019.539	143.32303
1019.905	38.0898
1020.27	12.02981
1020.636	124.29304
1021.001	86.20442
1021.366	49.11766
1021.731	67.17174
1022.096	16.04059
1022.461	41.09718
1022.826	81.19131
1023.191	58.15191
1023.556	38.08925
1023.92	61.14964
1024.285	91.22033
1024.649	60.14672
1025.014	103.25258
1025.378	20.05054
1025.742	58.14378
1026.107	69.15542
1026.471	102.23562
1026.835	66.16307
1027.199	29.07006
1027.562	91.20975
1027.926	92.22313
1028.29	88.22109
1028.654	47.10816
1029.017	77.18826
1029.381	41.09808
1029.744	55.14009
1030.107	77.18116
1030.471	37.08878
1030.834	67.15184
1031.197	97.2315
1031.56	49.1156
1031.923	40.10355
1032.286	95.22107
1032.648	90.21352
1033.011	124.28028
1033.374	98.22809
1033.736	40.1053
1034.099	71.1723
1034.461	26.06593
1034.823	38.09479
1035.185	70.17549
1035.548	45.10957
1035.91	68.16226
1036.272	75.16977
1036.634	102.24701
1036.995	52.12213
1037.357	41.09987
1037.719	83.20051
1038.08	76.17947
1038.442	65.15376
1038.803	103.24469
1039.165	89.22292
1039.526	64.15417
1039.887	38.09109
1040.248	26.06431
1040.609	95.2327
1040.97	80.19432
1041.331	51.12903
1041.692	29.06794
1042.053	85.19209
1042.413	117.26893
1042.774	50.12154
1043.134	86.20324
1043.495	82.20483
1043.855	68.16431
1044.215	77.19008
1044.576	37.08864
1044.936	78.17774
1045.296	66.16415
1045.656	71.17346
1046.016	130.30889
1046.375	63.15237
1046.735	28.06373
1047.095	46.1077
1047.454	93.19512
1047.814	89.21224
1048.173	67.15947
1048.533	41.09405
1048.892	-1.00242
1049.251	58.1453
1049.61	41.10106
1049.969	34.08035
1050.328	52.11264
1050.687	2.00491
1051.046	64.15534
1051.405	96.23667
1051.763	45.10352
1052.122	45.11227
1052.48	53.12982
1052.839	50.11757
1053.197	40.09427
1053.555	47.10717
1053.914	81.19686
1054.272	71.17087
1054.63	43.10521
1054.988	38.09043
1055.345	80.17107
1055.703	90.21483
1056.061	63.1616
1056.419	59.1524
1056.776	103.24713
1057.134	63.14539
1057.491	73.18192
1057.848	44.10959
1058.206	51.11985
1058.563	84.18374
1058.92	83.18994
1059.277	101.24666
1059.634	65.15239
1059.991	77.18342
1060.348	75.16852
1060.704	53.12615
1061.061	99.22765
1061.418	74.17853
1061.774	51.1258
1062.131	50.13211
1062.487	53.12377
1062.843	72.17868
1063.199	54.13411
1063.555	53.12265
1063.911	59.14869
1064.267	68.14119
1064.623	37.09003
1064.979	79.18601
1065.335	75.17831
1065.691	70.16703
1066.046	69.15103
1066.402	42.09552
1066.757	103.25734
1067.112	87.21192
1067.468	38.08987
1067.823	38.09151
1068.178	75.18043
1068.533	55.13312
1068.888	56.13357
1069.243	58.14283
1069.598	94.22636
1069.952	1.00227
1070.307	50.12368
1070.662	47.11157
1071.016	41.09198
1071.371	47.10691
1071.725	82.19484
1072.079	103.24506
1072.434	38.09248
1072.788	61.14486
1073.142	71.17385
1073.496	42.09972
1073.85	72.16613
1074.203	73.17622
1074.557	40.10647
1074.911	107.25243
1075.265	48.11154
1075.618	80.1941
1075.971	54.12826
1076.325	33.08406
1076.678	12.02763
1077.031	58.13094
1077.385	40.08824
1077.738	33.0747
1078.091	12.02748
1078.444	89.2049
1078.796	57.13957
1079.149	72.17823
1079.502	50.11803
1079.855	68.1579
1080.207	80.19585
1080.56	19.04933
1080.912	66.16007
1081.264	78.18669
1081.617	35.08548
1081.969	83.20797
1082.321	27.06616
1082.673	14.03216
1083.025	29.06903
1083.377	132.2781
1083.728	78.18083
1084.08	71.17643
1084.432	71.17042
1084.783	93.2159
1085.135	56.14009
1085.486	26.05973
1085.838	33.08146
1086.189	49.11887
1086.54	92.21776
1086.891	63.15882
1087.242	42.10232
1087.593	101.24335
1087.944	56.12648
1088.295	73.16504
1088.646	64.15458
1088.996	8.01941
1089.347	95.23097
1089.698	46.10871
1090.048	88.22687
1090.398	50.11587
1090.749	80.19016
1091.099	42.10567
1091.449	53.13184
1091.799	49.1226
1092.149	-12.02957
1092.499	76.18433
1092.849	23.05869
1093.199	77.19189
1093.548	49.11766
1093.898	74.18418
1094.248	44.11308
1094.597	10.02568
1094.947	39.10414
1095.296	69.16964
1095.645	64.16591
1095.994	77.18384
1096.343	83.20744
1096.692	41.10777
1097.041	13.03538
1097.39	73.18219
1097.739	67.17348
1098.088	87.23146
1098.437	31.08162
1098.785	78.20913
1099.134	58.15366
1099.482	44.12102
1099.83	80.20896
1100.179	42.10959
1100.527	68.17998
1100.875	7.01862
1101.223	62.16415
1101.571	51.14079
1101.919	60.15635
1102.267	46.12947
1102.615	7.0225
1102.962	18.0579
1103.31	1.00321
1103.658	13.04186
