Data from N2 R10 sample 11_Subt2__2__13-08-37-277.txt Node

Date: Mon Sep 01 13:08:37 PDT 2025
User: uwsun
Spectrometer: HDX01956
Trigger mode: 0
Integration Time (sec): 5.000000E-1
Scans to average: 1
Nonlinearity correction enabled: true
Boxcar width: 0
Storing dark spectrum: false
XAxis mode: Wavelengths
Number of Pixels in Spectrum: 2068
>>>>>Begin Spectral Data<<<<<
194.03	-66.18712
194.578	-49.15588
195.127	-71.22323
195.676	-70.22071
196.225	18.04761
196.773	-45.12426
197.321	-79.21477
197.87	-87.2187
198.418	-106.26402
198.966	-91.22736
199.513	-174.42121
200.061	-136.3322
200.609	-71.18097
201.156	-153.3244
201.704	-151.3678
202.251	-130.33188
202.798	-108.26958
203.345	-87.20716
203.892	-153.37365
204.438	-65.14881
204.985	-175.40143
205.532	-165.42071
206.078	-100.23596
206.624	-154.36591
207.17	-124.27879
207.716	-124.28963
208.262	-112.21467
208.808	-163.38677
209.354	-163.38438
209.899	-62.15037
210.445	-150.35942
210.99	-156.36351
211.535	-78.17602
212.08	-107.24023
212.625	-83.1993
213.17	-71.17223
213.715	-180.3884
214.259	-91.20414
214.804	-105.25059
215.348	-151.33706
215.892	-79.1818
216.436	-89.19924
216.98	-73.15573
217.524	-129.29521
218.068	-97.23539
218.612	-58.13988
219.155	-68.15333
219.698	-80.18326
220.242	-97.23415
220.785	-105.23777
221.328	-122.29511
221.871	-70.17118
222.414	-53.12683
222.956	-105.24366
223.499	-59.12756
224.041	-19.04238
224.583	-64.13413
225.126	-71.15094
225.668	-80.18701
226.21	-87.21049
226.751	-158.33771
227.293	-65.14323
227.835	-103.24271
228.376	-34.07535
228.918	-80.19498
229.459	-107.25663
230	-80.18326
230.541	-96.21434
231.082	-107.25066
231.622	-74.16447
232.163	-97.22626
232.704	-86.20466
233.244	-101.24141
233.784	-58.1367
234.324	-140.29755
234.864	-66.14351
235.404	-62.14168
235.944	-67.15271
236.484	-38.09057
237.023	-70.15829
237.563	-116.25888
238.102	-106.24184
238.641	-98.23849
239.18	-114.25631
239.719	-100.24162
240.258	-90.19512
240.797	-83.19002
241.335	-65.15233
241.874	-51.09357
242.412	-112.25903
242.95	-142.32724
243.488	-41.08902
244.026	-103.22792
244.564	-87.17236
245.102	-85.18267
245.64	-84.19458
246.177	-76.16315
246.715	-81.18656
247.252	-101.22359
247.789	-43.07782
248.326	-103.2359
248.863	-103.21658
249.4	-99.21623
249.936	-99.19577
250.473	-100.22299
251.009	-96.2099
251.546	-80.16818
252.082	-87.18237
252.618	-107.22816
253.154	-91.20808
253.69	-77.16519
254.226	-69.15625
254.761	-42.08911
255.297	-122.25636
255.832	-130.29516
256.367	-111.25023
256.903	-102.21395
257.438	-83.18589
257.972	-146.31382
258.507	-176.38872
259.042	-102.21168
259.576	-133.27337
260.111	-97.2142
260.645	-58.11897
261.179	-151.33817
261.713	-93.1965
262.247	-90.19745
262.781	-112.22371
263.315	-98.22728
263.849	-75.17687
264.382	-79.1724
264.915	-110.24427
265.449	-159.36809
265.982	-85.18361
266.515	-72.16533
267.048	-152.30882
267.58	-57.11784
268.113	-106.21703
268.646	-125.29283
269.178	-184.39516
269.71	-50.10256
270.243	-51.10941
270.775	-104.24996
271.307	-89.2031
271.838	-73.16423
272.37	-115.26792
272.902	-78.16737
273.433	-119.24702
273.965	-128.29568
274.496	-117.27634
275.027	-117.2743
275.558	-97.22135
276.089	-163.37885
276.62	-91.21851
277.15	-118.27616
277.681	-111.22887
278.211	-77.17748
278.741	-142.29588
279.272	-119.25584
279.802	-94.2206
280.332	-139.3095
280.861	-102.23065
281.391	-110.2341
281.921	-98.22215
282.45	-96.22538
282.98	-94.22952
283.509	-107.22578
284.038	-135.29011
284.567	-83.18167
285.096	-94.2123
285.625	-151.32352
286.153	-121.26529
286.682	-174.37658
287.21	-129.29057
287.739	-124.2741
288.267	-170.38738
288.795	-136.33615
289.323	-152.33206
289.851	-131.28721
290.378	-157.33143
290.906	-154.34738
291.433	-129.29983
291.961	-159.33668
292.488	-102.23516
293.015	-165.36237
293.542	-161.37937
294.069	-143.32619
294.596	-109.25014
295.122	-136.30113
295.649	-120.24548
296.175	-89.19883
296.702	-139.31361
297.228	-104.23354
297.754	-174.36449
298.28	-146.30625
298.806	-189.4231
299.332	-169.34563
299.857	-174.36417
300.383	-134.31373
300.908	-218.49053
301.433	-174.38976
301.958	-100.2117
302.483	-241.56035
303.008	-171.39147
303.533	-161.38747
304.058	-115.2482
304.582	-195.42374
305.107	-213.51221
305.631	-152.31911
306.155	-212.4547
306.679	-218.46878
307.203	-201.42822
307.727	-177.38414
308.251	-182.41171
308.775	-244.531
309.298	-230.5033
309.822	-156.35692
310.345	-216.46847
310.868	-191.41434
311.391	-170.37971
311.914	-199.45136
312.437	-190.39466
312.96	-213.45438
313.482	-197.42079
314.005	-210.4764
314.527	-267.63815
315.049	-181.41203
315.571	-245.48857
316.093	-170.37421
316.615	-227.49012
317.137	-192.37086
317.659	-231.50581
318.18	-223.48293
318.702	-232.48061
319.223	-203.36738
319.744	-279.55922
320.265	-245.52354
320.786	-301.6613
321.307	-242.53001
321.828	-220.43494
322.348	-241.49579
322.869	-309.64112
323.389	-390.57578
323.909	-229.4556
324.43	-241.50942
324.95	-261.51539
325.47	-268.56661
325.989	-268.54102
326.509	-331.62601
327.029	-296.56708
327.548	-341.65567
328.067	-338.69518
328.587	-272.57481
329.106	-300.57474
329.625	-278.6268
330.144	-285.54719
330.662	-316.60921
331.181	-339.66502
331.7	-356.69886
332.218	-289.51023
332.736	-316.60921
333.255	-355.68094
333.773	-371.72504
334.291	-314.64494
334.808	-326.58294
335.326	-299.53755
335.844	-422.79091
336.361	-405.82528
336.879	-367.67475
337.396	-369.70165
337.913	-431.78646
338.43	-395.69341
338.947	-451.85049
339.464	-471.78618
339.981	-455.84036
340.497	-430.83059
341.014	-486.92618
341.53	-478.82575
342.046	-493.93519
342.562	-421.80405
343.078	-483.86666
343.594	-463.8376
344.11	-438.77882
344.626	-494.94234
345.141	-430.71436
345.657	-453.75944
346.172	-450.7956
346.687	-548.93114
347.202	-475.76374
347.717	-507.88218
348.232	-500.9131
348.747	-517.8507
349.261	-547.82787
349.776	-543.91192
350.29	-619.09507
350.805	-561.00256
351.319	-560.92126
351.833	-611.96315
352.347	-560.91358
352.861	-590.95071
353.374	-503.78999
353.888	-604.01886
354.401	-586.91649
354.915	-633.94563
355.428	-599.01013
355.941	-623.96793
356.454	-566.84463
356.967	-633.00925
357.48	-572.86343
357.993	-621.0246
358.505	-665.08223
359.018	-612.98229
359.53	-635.98833
360.042	-671.96081
360.554	-661.04561
361.066	-725.1564
361.578	-662.90024
362.09	-646.97648
362.602	-676.91512
363.113	-710.03001
363.625	-716.98984
364.136	-656.86351
364.647	-786.0929
365.158	-747.05879
365.669	-695.00286
366.18	-738.04895
366.691	-701.89353
367.201	-760.08444
367.712	-774.01636
368.222	-777.01792
368.733	-816.97687
369.243	-828.00343
369.753	-760.96335
370.263	-775.01666
370.773	-840.16238
371.282	-835.05612
371.792	-945.08785
372.301	-965.22007
372.811	-982.38895
373.32	-996.96343
373.829	-1051.17956
374.338	-999.96429
374.847	-1087.08433
375.356	-1140.16143
375.865	-1148.86069
376.373	-1191.97569
376.882	-1134.12297
377.39	-1218.06828
377.898	-1408.17831
378.407	-1363.83355
378.915	-1418.75571
379.423	-1482.88192
379.93	-1495.70281
380.438	-1640.7697
380.946	-1640.54772
381.453	-1886.63714
381.96	-1984.44043
382.468	-2168.17927
382.975	-2116.14284
383.482	-2203.87757
383.989	-2266.09206
384.495	-2370.67619
385.002	-2592.25941
385.509	-2674.28315
386.015	-2783.85619
386.521	-2810.8607
387.028	-3138.72711
387.534	-3150.62605
388.04	-3217.64869
388.546	-3621.53141
389.051	-3850.59951
389.557	-4116.73766
390.063	-3854.91154
390.568	-4223.17455
391.073	-4582.87643
391.578	-4684.14133
392.084	-5006.40628
392.589	-5489.50571
393.093	-6111.30096
393.598	-6395.25101
394.103	-6897.20892
394.607	-7403.59266
395.112	-7904.12584
395.616	-8367.66814
396.12	-9471.68969
396.624	-10565.82185
397.128	-11318.34851
397.632	-12163.75836
398.136	-13534.7334
398.639	-15707.05089
399.143	-18228.63917
399.646	-20229.7193
400.15	-22352.13191
400.653	-25655.8697
401.156	-29707.94621
401.659	-35224.29496
402.162	-33875.57518
402.664	-24346.57134
403.167	-9568.66797
403.67	-1551.23426
404.172	0
404.674	0
405.176	0
405.678	0
406.18	0
406.682	0
407.184	0
407.686	0
408.187	0
408.688	0
409.19	-263.37676
409.691	-12736.56359
410.192	-20310.33741
410.693	-25601.09739
411.194	-28938.13218
411.694	-26409.01282
412.195	-24103.62401
412.696	-23358.03608
413.196	-24103.52069
413.696	-25114.57572
414.196	-23396.99132
414.696	-20411.29502
415.196	-17073.85183
415.696	-11701.9864
416.196	-9519.25279
416.695	-9824.42161
417.195	-10413.32801
417.694	-9832.78765
418.194	-8943.51225
418.693	-8993.32932
419.192	-8815.46771
419.691	-8587.99801
420.19	-8091.46705
420.688	-7650.2855
421.187	-6998.89952
421.685	-6240.18752
422.184	-5291.74255
422.682	-4741.58363
423.18	-4672.74699
423.678	-4390.29653
424.176	-4037.1924
424.674	-3771.49366
425.172	-3383.88418
425.669	-3048.66334
426.167	-2796.6834
426.664	-2645.7665
427.161	-2516.93255
427.659	-2411.26118
428.156	-2247.18131
428.652	-2111.70604
429.149	-2042.74268
429.646	-1956.74338
430.143	-1795.06656
430.639	-1775.19614
431.135	-1739.48685
431.632	-1536.3284
432.128	-1535.59725
432.624	-1587.88902
433.12	-1640.65593
433.616	-1486.55734
434.111	-1665.95084
434.607	-1477.91701
435.103	-1281.63912
435.598	-1271.67558
436.093	-1144.87116
436.588	-1092.84104
437.083	-1069.90389
437.578	-1075.01143
438.073	-1266.45529
438.568	-966.09356
439.062	-956.87283
439.557	-898.0159
440.051	-938.01745
440.546	-1000.13673
441.04	-967.20992
441.534	-930.29094
442.028	-858.11142
442.522	-939.25227
443.015	-912.07986
443.509	-868.21603
444.002	-881.24338
444.496	-910.12973
444.989	-847.21637
445.482	-900.34824
445.975	-902.17991
446.468	-860.05747
446.961	-836.02777
447.454	-839.13302
447.947	-907.31516
448.439	-801.20331
448.931	-873.19702
449.424	-764.21498
449.916	-779.18631
450.408	-830.15661
450.9	-817.25549
451.392	-807.31701
451.884	-784.15613
452.375	-829.34246
452.867	-751.10694
453.358	-819.20391
453.849	-763.03463
454.341	-750.09703
454.832	-728.00412
455.323	-789.29546
455.814	-695.05545
456.304	-743.15551
456.795	-730.12762
457.285	-640.95987
457.776	-637.99608
458.266	-746.22976
458.756	-689.1579
459.247	-757.26558
459.737	-713.18531
460.226	-675.04821
460.716	-688.16472
461.206	-677.16497
461.695	-678.24306
462.185	-614.03465
462.674	-570.93564
463.163	-658.06271
463.653	-596.89431
464.142	-629.11222
464.63	-587.06265
465.119	-638.09273
465.608	-597.01495
466.096	-586.95443
466.585	-544.94484
467.073	-548.99775
467.561	-593.09922
468.05	-533.9456
468.538	-507.95612
469.026	-517.95251
469.513	-585.95574
470.001	-574.01397
470.489	-527.96802
470.976	-527.95586
471.463	-510.00701
471.951	-489.97741
472.438	-510.95164
472.925	-539.00638
473.412	-475.94635
473.899	-454.8383
474.385	-467.93344
474.872	-504.95815
475.359	-469.93526
475.845	-436.72793
476.331	-382.67428
476.817	-460.935
477.303	-445.8573
477.789	-413.82512
478.275	-457.9507
478.761	-412.83248
479.247	-393.73819
479.732	-462.97458
480.218	-431.95599
480.703	-405.85491
481.188	-428.78237
481.673	-409.79893
482.158	-443.79936
482.643	-342.74615
483.128	-422.82726
483.612	-390.78658
484.097	-371.78968
484.581	-359.72456
485.066	-388.82029
485.55	-375.71167
486.034	-384.72359
486.518	-419.86351
487.002	-403.86486
487.486	-386.82928
487.969	-347.74053
488.453	-349.7793
488.936	-367.73152
489.42	-389.77104
489.903	-313.69892
490.386	-770.27507
490.869	-274.5262
491.352	-293.64047
491.835	-348.64866
492.318	-371.75393
492.8	-321.59462
493.283	-366.83865
493.765	-348.77145
494.247	-271.56906
494.73	-340.68132
495.212	-280.61167
495.694	-347.73378
496.175	-413.89472
496.657	-294.63137
497.139	-315.50724
497.62	-360.77543
498.102	-334.75366
498.583	-303.69167
499.064	-372.762
499.545	-339.71058
500.026	-323.66178
500.507	-303.64271
500.988	-306.69612
501.469	-370.85495
501.949	-312.71035
502.43	-378.83026
502.91	-314.59604
503.39	-304.70248
503.87	-297.63795
504.35	-261.56546
504.83	-322.65152
505.31	-342.76761
505.79	-322.71025
506.269	-317.68853
506.749	-351.74581
507.228	-291.62722
507.707	-296.60578
508.187	-277.61267
508.666	-369.84637
509.145	-301.64933
509.623	-323.70574
510.102	-296.6652
510.581	-253.56496
511.059	-314.72904
511.538	-308.74328
512.016	-269.59497
512.494	-292.66079
512.972	-257.56654
513.45	-357.77276
513.928	-309.69768
514.406	-328.73257
514.884	-295.70478
515.361	-293.65373
515.839	-269.56835
516.316	-280.62641
516.793	-268.63208
517.27	-261.59052
517.747	-289.69045
518.224	-251.54078
518.701	-227.46804
519.178	-308.71257
519.654	-255.56754
520.131	-278.64215
520.607	-266.61785
521.083	-275.58816
521.56	-259.57094
522.036	-296.61483
522.512	-263.60908
522.987	-267.58981
523.463	-250.55422
523.939	-269.61976
524.414	-210.45157
524.89	-287.6422
525.365	-274.58386
525.84	-318.71111
526.315	-263.59311
526.79	-275.5851
527.265	-262.56193
527.74	-280.64214
528.215	-311.69618
528.689	-265.55253
529.164	-260.53403
529.638	-293.71283
530.112	-294.65447
530.587	-285.57468
531.061	-299.68117
531.534	-225.51136
532.008	-252.56819
532.482	-245.53057
532.956	-296.71136
533.429	-262.59918
533.903	-222.46236
534.376	-277.58191
534.849	-269.59125
535.322	-249.55442
535.795	-277.642
536.268	-239.53987
536.741	-268.61068
537.213	-240.52407
537.686	-268.61585
538.158	-281.5963
538.631	-202.46086
539.103	-320.68632
539.575	-237.46932
540.047	-227.47099
540.519	-239.54031
540.991	-250.58001
541.463	-261.59917
541.934	-221.47594
542.406	-269.60713
542.877	-258.55264
543.348	-249.56979
543.82	-226.52288
544.291	-225.49662
544.762	-241.53772
545.233	-221.51831
545.703	-216.44767
546.174	-193.41904
546.645	-258.57743
547.115	-200.44837
547.585	-167.35594
548.056	-217.48438
548.526	-227.49579
548.996	-180.40038
549.466	-162.36542
549.935	-213.46482
550.405	-143.28516
550.875	-188.40879
551.344	-100.2168
551.814	-135.28236
552.283	-82.1609
552.752	-145.30502
553.221	-66.12699
553.69	-60.1184
554.159	-62.1347
554.628	-23.04497
555.096	-26.05803
555.565	13.02533
556.033	116.2359
556.502	66.13997
556.97	153.2912
557.438	180.36671
557.906	231.46879
558.374	224.43973
558.842	287.58004
559.31	367.6812
559.777	364.7311
560.245	519.985
560.712	602.09957
561.18	625.06955
561.647	664.14407
562.114	735.26908
562.581	880.61831
563.048	977.61951
563.514	985.74718
563.981	1231.88443
564.448	1263.86238
564.914	1453.13791
565.381	1563.15916
565.847	1695.34153
566.313	1830.40141
566.779	1983.3545
567.245	2189.56962
567.711	2235.68065
568.176	2469.42657
568.642	2674.97872
569.108	2853.87977
569.573	3079.65027
570.038	3339.98095
570.504	3585.17038
570.969	3857.74766
571.434	4108.78345
571.899	4249.20198
572.363	4608.73701
572.828	4911.61703
573.293	5168.47104
573.757	5511.31059
574.222	5866.99696
574.686	6105.95368
575.15	6381.21675
575.614	6680.04033
576.078	7031.1971
576.542	7171.13969
577.006	7366.19665
577.469	7721.77084
577.933	7758.46394
578.396	8139.01779
578.86	8337.24618
579.323	8390.33242
579.786	8525.43765
580.249	8532.48594
580.712	8541.6042
581.175	8584.6802
581.637	8630.6691
582.1	8714.79075
582.563	8624.61678
583.025	8553.60438
583.487	8525.42466
583.95	8375.18306
584.412	8544.46396
584.874	8394.38438
585.336	8320.23824
585.797	7964.63073
586.259	8013.88066
586.721	7806.65506
587.182	7576.49725
587.643	7529.3565
588.105	7179.32263
588.566	7039.85502
589.027	6728.29598
589.488	6718.06579
589.949	6503.36682
590.41	6281.40689
590.87	6136.1301
591.331	5965.89482
591.791	5787.25445
592.252	5453.32645
592.712	5311.72856
593.172	5114.43137
593.632	5130.30484
594.092	4869.51914
594.552	4651.44721
595.011	4533.84619
595.471	4355.82748
595.931	4189.89363
596.39	4045.37925
596.849	3938.27509
597.308	3915.91425
597.768	3677.93107
598.227	3524.66724
598.685	3588.38982
599.144	3497.49605
599.603	3341.62855
600.062	3183.03897
600.52	3134.34414
600.978	3057.69926
601.437	3009.53306
601.895	2907.17293
602.353	2846.40725
602.811	2804.40201
603.269	2699.77182
603.727	2601.76504
604.184	2576.46458
604.642	2531.86706
605.099	2536.61153
605.557	2499.84533
606.014	2405.26616
606.471	2350.8892
606.928	2280.21645
607.385	2332.74407
607.842	2329.5064
608.299	2334.60207
608.755	2233.70842
609.212	2315.37812
609.668	2201.32513
610.125	2323.76135
610.581	2311.72699
611.037	2323.5631
611.493	2229.68071
611.949	2135.69626
612.405	2153.0115
612.861	2241.68435
613.316	2132.67683
613.772	2219.55589
614.227	2219.66257
614.683	2231.30703
615.138	2182.62105
615.593	2130.58158
616.048	2207.56746
616.503	2122.84287
616.958	2135.91536
617.412	2094.65988
617.867	2050.36654
618.321	2056.16729
618.776	1987.38139
619.23	1939.57568
619.684	1952.45759
620.138	1936.56403
620.592	1902.70572
621.046	1805.53274
621.5	1770.62735
621.954	1737.35946
622.407	1656.27004
622.861	1604.50955
623.314	1580.29264
623.768	1525.31443
624.221	1481.82366
624.674	1417.19342
625.127	1452.27612
625.58	1469.23385
626.033	1427.1107
626.485	1287.17686
626.938	1255.13842
627.39	1249.07367
627.843	1226.03917
628.295	1193.00296
628.747	1162.03697
629.199	1178.95148
629.651	1069.82231
630.103	1036.80232
630.555	1031.64097
631.006	1029.85374
631.458	1014.84666
631.909	1056.85848
632.361	945.73679
632.812	865.60141
633.263	898.52955
633.714	844.45123
634.165	890.74411
634.616	821.60001
635.067	846.52298
635.518	819.60895
635.968	801.305
636.419	765.37581
636.869	813.5994
637.319	754.45499
637.769	739.37999
638.219	751.51261
638.669	684.39171
639.119	740.5297
639.569	629.31479
640.019	645.28752
640.468	635.22354
640.918	617.29765
641.367	629.22125
641.816	653.25768
642.265	620.24814
642.714	612.2354
643.163	582.17582
643.612	540.14819
644.061	509.95754
644.51	581.16225
644.958	552.07073
645.406	522.11515
645.855	526.15474
646.303	565.17196
646.751	455.93854
647.199	549.10879
647.647	509.0495
648.095	503.03478
648.543	472.87548
648.99	484.04455
649.438	521.10123
649.885	494.1071
650.333	526.90775
650.78	453.99935
651.227	490.07919
651.674	448.93261
652.121	447.99683
652.568	394.88611
653.015	464.0738
653.461	439.95793
653.908	455.97055
654.354	452.99067
654.801	384.83634
655.247	447.9005
655.693	403.97667
656.139	400.89039
656.585	401.89354
657.031	320.70259
657.477	347.70259
657.922	364.7837
658.368	367.84954
658.813	427.9211
659.259	344.77685
659.704	319.70319
660.149	328.72227
660.594	362.80715
661.039	298.6463
661.484	364.81899
661.929	346.76414
662.373	286.68838
662.818	311.73362
663.262	312.71379
663.707	313.75463
664.151	311.72393
664.595	282.65113
665.039	268.64139
665.483	317.76831
665.927	331.74125
666.371	232.51903
666.814	320.72885
667.258	239.54625
667.701	383.77938
668.145	299.71352
668.588	242.57542
669.031	273.61691
669.474	215.50463
669.917	304.64638
670.36	238.57264
670.803	310.71719
671.245	277.5642
671.688	284.66773
672.13	205.44983
672.573	282.69081
673.015	244.56922
673.457	262.5532
673.899	233.55008
674.341	229.53875
674.783	199.46745
675.225	233.55775
675.666	154.36549
676.108	208.44419
676.549	230.53234
676.991	186.40496
677.432	200.39299
677.873	204.46392
678.314	191.44883
678.755	166.39897
679.196	181.4092
679.637	227.54256
680.078	215.49417
680.518	215.49259
680.959	208.48906
681.399	189.46104
681.839	182.43692
682.28	147.35953
682.72	137.31263
683.16	135.33398
683.6	215.48249
684.039	188.38842
684.479	142.34608
684.919	159.36312
685.358	178.44575
685.798	169.43681
686.237	192.45812
686.676	182.41858
687.115	159.37116
687.554	146.34503
687.993	188.41192
688.432	163.37016
688.871	143.32356
689.309	161.38143
689.748	181.37655
690.186	189.44621
690.625	137.32031
691.063	145.34605
691.501	175.42785
691.939	158.39038
692.377	162.39172
692.815	129.30787
693.253	159.38004
693.69	125.27579
694.128	109.26431
694.565	135.32144
695.003	107.27158
695.44	134.31446
695.877	135.31464
696.314	130.28111
696.751	184.4164
697.188	128.29427
697.625	165.37743
698.061	124.29735
698.498	108.26233
698.934	153.36654
699.371	139.32626
699.807	139.32817
700.243	104.2511
700.679	139.31502
701.115	157.36836
701.551	78.18569
701.987	151.33929
702.422	102.24329
702.858	108.25819
703.294	92.21058
703.729	127.3105
704.164	86.2085
704.599	134.29905
705.035	66.14985
705.47	72.17659
705.904	96.22511
706.339	133.30998
706.774	106.24944
707.209	78.18176
707.643	84.20335
708.078	99.24205
708.512	68.17128
708.946	123.29523
709.38	68.16306
709.814	109.25074
710.248	116.28313
710.682	104.24835
711.116	65.15655
711.549	98.25335
711.983	98.228
712.416	102.24264
712.85	98.24516
713.283	121.28678
713.716	145.36266
714.149	166.3932
714.582	117.26397
715.015	127.31764
715.448	130.32685
715.881	115.25362
716.313	116.27254
716.746	100.2366
717.178	60.14596
717.61	94.23922
718.043	93.23286
718.475	84.20511
718.907	127.32108
719.339	42.09691
719.77	76.18169
720.202	60.15312
720.634	87.21279
721.065	81.19368
721.497	88.21695
721.928	64.1586
722.359	25.06128
722.79	86.20717
723.221	92.23255
723.652	143.36706
724.083	83.1891
724.514	64.14908
724.945	49.1169
725.375	56.13162
725.806	103.2579
726.236	96.24663
726.666	98.2333
727.096	82.20261
727.526	34.08747
727.956	58.13372
728.386	81.20083
728.816	68.17324
729.246	44.10832
729.675	40.09974
730.105	111.2736
730.534	84.19821
730.964	105.26593
731.393	96.23963
731.822	100.25583
732.251	93.23671
732.68	132.31098
733.109	74.18371
733.537	43.10529
733.966	71.17765
734.395	109.25265
734.823	68.15558
735.251	80.1941
735.68	131.32729
736.108	97.24602
736.536	64.15277
736.964	87.20341
737.392	83.20879
737.82	98.23626
738.247	113.27113
738.675	115.2754
739.102	60.15118
739.53	83.21208
739.957	74.19131
740.384	167.40844
740.811	66.16862
741.238	45.11125
741.665	35.08254
742.092	95.22811
742.519	33.08278
742.945	76.18391
743.372	74.18445
743.798	79.20399
744.225	83.19869
744.651	88.22165
745.077	96.23998
745.503	83.20376
745.929	89.21468
746.355	123.30563
746.781	65.16246
747.207	12.02871
747.632	41.10117
748.058	72.1809
748.483	87.20181
748.908	59.14794
749.334	66.16349
749.759	58.13834
750.184	55.13247
750.609	75.18562
751.033	91.21651
751.458	119.26761
751.883	79.19695
752.307	71.1686
752.732	33.08343
753.156	74.18391
753.58	73.17495
754.005	54.13835
754.429	51.12139
754.853	54.13504
755.277	30.07219
755.7	77.1921
756.124	50.12531
756.548	70.16729
756.971	90.22066
757.394	89.22973
757.818	82.21162
758.241	92.2338
758.664	58.1476
759.087	23.05234
759.51	79.19759
759.933	51.12404
760.356	81.20835
760.778	50.12422
761.201	97.23663
761.623	83.20255
762.046	72.17239
762.468	97.23389
762.89	84.20831
763.312	103.25183
763.734	86.20795
764.156	57.142
764.578	94.2174
765	101.24675
765.421	50.12796
765.843	88.23096
766.264	104.25167
766.686	73.18436
767.107	39.09571
767.528	35.08928
767.949	77.19654
768.37	52.12886
768.791	92.2233
769.212	65.1641
769.632	16.03794
770.053	77.20322
770.473	54.13259
770.894	90.22588
771.314	90.2159
771.734	76.17828
772.154	73.18817
772.575	42.09872
772.994	82.18731
773.414	89.21452
773.834	56.14105
774.254	57.14066
774.673	85.20774
775.093	83.20587
775.512	55.13652
775.931	54.13786
776.351	58.14499
776.77	44.1086
777.189	77.18405
777.607	45.11583
778.026	61.15285
778.445	10.02538
778.864	83.2132
779.282	33.08038
779.701	68.17213
780.119	62.15739
780.537	53.13314
780.955	80.20395
781.373	29.07256
781.791	36.08197
782.209	76.17612
782.627	74.1952
783.045	83.19154
783.462	42.10813
783.88	58.15067
784.297	60.15167
784.715	60.15463
785.132	56.13648
785.549	20.05063
785.966	66.1666
786.383	56.13857
786.8	57.13343
787.217	55.13131
787.633	47.11806
788.05	111.26298
788.466	136.31828
788.883	49.12565
789.299	97.23327
789.715	62.15145
790.131	101.25042
790.547	91.22703
790.963	71.17668
791.379	43.10945
791.795	101.2302
792.21	107.24939
792.626	92.21818
793.041	33.08221
793.457	88.21735
793.872	72.16983
794.287	52.12484
794.702	117.28659
795.117	53.13232
795.532	33.08337
795.947	97.23309
796.362	91.21726
796.776	132.30686
797.191	36.08888
797.605	24.05698
798.02	64.15627
798.434	99.22017
798.848	54.13362
799.262	63.15672
799.676	85.20736
800.09	65.1604
800.504	68.16548
800.918	33.07725
801.331	68.17853
801.745	75.17267
802.158	55.13806
802.572	97.23469
802.985	89.21492
803.398	48.11524
803.811	91.23342
804.224	78.19421
804.637	82.19529
805.05	115.26497
805.462	84.20625
805.875	19.04969
806.288	30.07301
806.7	83.20834
807.112	56.13055
807.525	62.15347
807.937	72.17809
808.349	71.17803
808.761	110.26899
809.173	43.1049
809.584	98.24134
809.996	6.01488
810.408	29.07537
810.819	27.06414
811.231	22.05731
811.642	-15.03637
812.053	43.1029
812.464	107.25292
812.875	75.19157
813.286	85.21826
813.697	95.22159
814.108	72.17607
814.519	108.23943
814.929	88.22387
815.34	72.17476
815.75	57.14519
816.16	97.24077
816.571	69.17928
816.981	113.26503
817.391	114.27327
817.801	24.06013
818.211	78.1859
818.62	62.14958
819.03	71.17411
819.44	103.26752
819.849	73.1839
820.259	79.20193
820.668	89.21816
821.077	55.13697
821.486	88.21143
821.895	133.32505
822.304	81.21413
822.713	68.16095
823.122	34.08542
823.531	72.17075
823.939	44.10776
824.348	105.25375
824.756	83.20744
825.164	85.21337
825.573	35.08836
825.981	77.19078
826.389	117.29147
826.797	86.21475
827.205	38.08782
827.612	89.21889
828.02	28.0663
828.428	53.13533
828.835	32.0847
829.243	88.20909
829.65	59.14693
830.057	39.09521
830.464	58.14162
830.871	95.22646
831.278	50.12131
831.685	74.16515
832.092	87.21231
832.499	54.11862
832.905	87.21948
833.312	106.24018
833.718	71.17681
834.124	86.19597
834.531	77.19377
834.937	55.14143
835.343	54.13068
835.749	110.25501
836.155	74.19342
836.561	59.14532
836.966	47.11538
837.372	93.23554
837.777	52.12985
838.183	95.21022
838.588	49.12203
838.993	52.12697
839.399	67.16375
839.804	14.03444
840.209	55.14019
840.613	50.11168
841.018	71.17957
841.423	85.21719
841.828	55.1393
842.232	92.22681
842.637	49.116
843.041	45.11567
843.445	61.15307
843.849	14.03497
844.253	81.19198
844.657	30.07597
845.061	31.07086
845.465	32.07776
845.869	65.15108
846.272	55.13412
846.676	59.14286
847.079	40.10208
847.483	125.30834
847.886	111.26775
848.289	47.12567
848.692	74.18699
849.095	53.12755
849.498	95.23941
849.901	87.19869
850.304	74.17651
850.707	56.14292
851.109	88.22165
851.512	64.1572
851.914	19.04822
852.316	61.15428
852.718	3.00782
853.121	50.12277
853.523	47.11019
853.925	16.04204
854.326	45.1128
854.728	95.24274
855.13	47.12144
855.531	15.03616
855.933	53.12746
856.334	42.10503
856.736	78.17415
857.137	60.13954
857.538	44.11091
857.939	63.15552
858.34	87.21097
858.741	47.12308
859.142	87.20795
859.542	35.09268
859.943	47.11704
860.343	17.04241
860.744	70.17048
861.144	50.12218
861.544	21.05083
861.945	55.14024
862.345	91.22125
862.745	94.23209
863.145	139.32728
863.544	61.15406
863.944	62.14641
864.344	81.20039
864.743	41.10207
865.143	98.24993
865.542	43.10006
865.941	62.15336
866.34	67.16027
866.74	57.15296
867.139	12.02898
867.537	80.20301
867.936	64.15388
868.335	49.12485
868.734	52.13299
869.132	50.11638
869.531	96.23056
869.929	71.16143
870.327	37.08905
870.726	126.31029
871.124	78.18162
871.522	21.05383
871.92	64.15767
872.318	65.15868
872.715	69.17046
873.113	97.2346
873.511	67.16661
873.908	36.0912
874.306	47.11709
874.703	75.18704
875.1	47.12043
875.497	74.17684
875.894	9.02224
876.291	74.18103
876.688	61.15718
877.085	54.12964
877.482	33.08296
877.878	25.06053
878.275	46.11707
878.671	111.24449
879.068	81.19465
879.464	72.17351
879.86	37.08783
880.256	52.12844
880.652	66.16755
881.048	77.19008
881.444	70.1662
881.84	104.26204
882.236	71.17803
882.631	73.17861
883.027	73.17622
883.422	88.22371
883.817	55.13821
884.213	50.12841
884.608	54.13244
885.003	68.16356
885.398	32.08043
885.793	93.23185
886.188	8.02006
886.582	90.22944
886.977	68.16101
887.371	48.12155
887.766	57.14169
888.16	92.22806
888.554	107.26209
888.949	52.13065
889.343	84.20411
889.737	17.04557
890.131	54.13548
890.525	82.20868
890.918	41.10344
891.312	105.24886
891.706	65.17022
892.099	74.18766
892.492	85.18227
892.886	50.12245
893.279	49.12494
893.672	24.06142
894.065	56.14019
894.458	88.21998
894.851	118.28576
895.244	14.03601
895.637	48.11576
896.029	49.11994
896.422	69.16814
896.814	58.1441
897.206	52.12389
897.599	82.20179
897.991	59.14253
898.383	46.10888
898.775	22.04999
899.167	30.07029
899.559	73.18417
899.951	76.17842
900.342	115.28929
900.734	7.01751
901.125	65.17022
901.517	50.12282
901.908	102.24236
902.299	96.23283
902.69	76.17856
903.082	67.16186
903.473	1.00242
903.863	58.14786
904.254	57.13222
904.645	95.23451
905.036	19.0463
905.426	107.2424
905.817	66.16158
906.207	15.036
906.597	87.20213
906.987	96.24698
907.378	75.18894
907.768	49.12962
908.158	81.19649
908.547	28.07264
908.937	73.18666
909.327	113.27133
909.717	118.29614
910.106	90.21467
910.495	84.20854
910.885	81.20413
911.274	68.16949
911.663	85.21452
912.052	55.13567
912.441	62.15739
912.83	54.12395
913.219	63.16459
913.608	65.15886
913.997	-6.0152
914.385	104.24606
914.774	63.15311
915.162	34.08132
915.55	93.22331
915.939	59.14874
916.327	81.20113
916.715	59.15018
917.103	102.24878
917.491	122.298
917.878	82.20052
918.266	55.14256
918.654	64.16316
919.041	19.04987
919.429	74.17393
919.816	73.18436
920.203	61.1477
920.591	65.16081
920.978	90.21886
921.365	70.18309
921.752	53.12634
922.139	82.17694
922.525	51.12251
922.912	79.19171
923.299	78.19294
923.685	48.12529
924.072	55.12678
924.458	29.07214
924.844	59.14581
925.231	43.10026
925.617	51.12972
926.003	54.13796
926.389	81.20325
926.774	69.17432
927.16	79.19523
927.546	31.07941
927.931	93.23033
928.317	95.21696
928.702	119.2779
929.088	43.10188
929.473	65.16498
929.858	42.10171
930.243	52.12479
930.628	58.14094
931.013	60.14847
931.398	111.25228
931.783	48.12645
932.167	34.08339
932.552	78.19449
932.937	125.30607
933.321	45.11304
933.705	53.13357
934.09	83.20857
934.474	53.12586
934.858	57.14769
935.242	57.13196
935.626	21.05404
936.009	29.07741
936.393	52.13229
936.777	38.09753
937.16	76.19689
937.544	98.22881
937.927	56.14196
938.311	97.23477
938.694	69.18192
939.077	63.15047
939.46	81.19782
939.843	82.16995
940.226	62.15873
940.609	46.10571
940.991	41.10454
941.374	16.03936
941.757	84.20602
942.139	49.1101
942.522	102.23871
942.904	68.16294
943.286	104.26176
943.668	48.12439
944.05	65.15969
944.432	81.19878
944.814	32.0791
945.196	49.11945
945.578	31.07396
945.959	87.20245
946.341	138.33331
946.722	43.10109
947.104	106.2507
947.485	67.15542
947.866	90.22514
948.247	45.11365
948.628	81.19649
949.009	50.12805
949.39	71.1761
949.771	74.17135
950.152	63.15426
950.532	26.06424
950.913	109.26004
951.293	28.07591
951.674	57.1377
952.054	54.13372
952.434	81.19995
952.814	70.16594
953.194	128.33056
953.574	76.18633
953.954	70.16562
954.334	48.11969
954.714	29.07096
955.093	49.12051
955.473	57.14236
955.853	16.04166
956.232	97.26387
956.611	107.2539
956.99	31.07818
957.37	45.11478
957.749	44.10511
958.128	61.1534
958.506	77.19882
958.885	58.14619
959.264	31.07624
959.643	79.17875
960.021	40.0993
960.4	68.15358
960.778	69.16939
961.156	45.11292
961.535	62.14419
961.913	61.14245
962.291	41.10535
962.669	46.11661
963.047	69.1755
963.424	90.22807
963.802	68.16666
964.18	132.32913
964.557	64.14702
964.935	82.19311
965.312	44.1147
965.69	83.20662
966.067	92.22229
966.444	98.23938
966.821	79.20264
967.198	107.25683
967.575	57.13998
967.952	84.19667
968.329	105.25289
968.705	114.24113
969.082	68.17385
969.458	9.02176
969.835	107.25771
970.211	81.20675
970.587	102.25156
970.963	96.24431
971.339	63.16414
971.715	71.17662
972.091	83.20316
972.467	104.25687
972.843	58.14373
973.219	90.2145
973.594	47.123
973.97	116.27265
974.345	55.13151
974.721	99.23754
975.096	67.16161
975.471	92.21649
975.846	47.11299
976.221	45.11438
976.596	76.18128
976.971	120.29246
977.346	87.20109
977.72	84.21271
978.095	74.19045
978.469	57.13588
978.844	58.14562
979.218	53.12697
979.593	87.207
979.967	67.16271
980.341	54.12425
980.715	78.19555
981.089	67.16721
981.463	57.1307
981.837	48.11734
982.21	107.24624
982.584	59.14226
982.957	56.13969
983.331	102.23871
983.704	64.15685
984.078	43.10611
984.451	97.24024
984.824	74.17941
985.197	83.20036
985.57	96.23876
985.943	132.32111
986.316	99.24106
986.688	98.2342
987.061	99.22983
987.434	43.11218
987.806	33.08029
988.179	46.10863
988.551	114.2859
988.923	84.20557
989.295	83.20617
989.667	48.11471
990.039	78.19173
990.411	51.11737
990.783	90.20559
991.155	27.06515
991.527	94.22961
991.898	25.06257
992.27	45.11141
992.641	110.27298
993.012	100.23302
993.384	76.18037
993.755	65.16527
994.126	49.11788
994.497	26.0641
994.868	65.14887
995.239	45.10916
995.61	34.08579
995.98	54.13107
996.351	43.10662
996.722	26.06059
997.092	12.02862
997.462	35.08199
997.833	68.16064
998.203	91.21892
998.573	33.08242
998.943	56.13116
999.313	55.13166
999.683	44.10571
1000.053	105.23893
1000.423	71.17185
1000.792	52.13471
1001.162	26.06427
1001.531	69.16952
1001.901	40.09988
1002.27	92.20388
1002.639	53.13533
1003.009	104.24473
1003.378	46.11769
1003.747	90.21096
1004.116	29.06966
1004.485	68.16195
1004.853	81.20406
1005.222	94.23515
1005.591	75.17721
1005.959	3.00682
1006.328	46.10359
1006.696	39.09425
1007.064	52.13074
1007.433	79.19638
1007.801	78.19046
1008.169	60.15123
1008.537	86.18899
1008.905	38.08872
1009.273	49.12105
1009.64	19.04559
1010.008	74.17556
1010.375	129.30857
1010.743	114.25988
1011.11	64.15101
1011.478	83.20414
1011.845	102.2374
1012.212	82.18437
1012.579	68.16635
1012.946	91.21485
1013.313	94.2218
1013.68	104.23114
1014.047	43.10258
1014.414	42.09933
1014.78	44.10943
1015.147	81.19472
1015.513	83.19869
1015.88	109.27577
1016.246	56.13806
1016.612	87.19765
1016.978	70.17086
1017.344	93.22797
1017.71	103.24864
1018.076	107.24948
1018.442	75.19205
1018.808	84.20861
1019.174	75.18725
1019.539	103.23457
1019.905	35.08276
1020.27	13.03229
1020.636	62.14828
1021.001	69.16455
1021.366	45.10814
1021.731	49.126
1022.096	33.08346
1022.461	63.14868
1022.826	40.09523
1023.191	55.14413
1023.556	84.19551
1023.92	56.1375
1024.285	66.16056
1024.649	74.18049
1025.014	100.24536
1025.378	59.14805
1025.742	88.21695
1026.107	63.14208
1026.471	85.19702
1026.835	70.17283
1027.199	76.18197
1027.562	82.18935
1027.926	86.20882
1028.29	44.11142
1028.654	88.20086
1029.017	56.13745
1029.381	48.11467
1029.744	93.23529
1030.107	84.19736
1030.471	43.10306
1030.834	92.20744
1031.197	80.19155
1031.56	106.2473
1031.923	33.08554
1032.286	82.19131
1032.648	109.25764
1033.011	71.16222
1033.374	87.20293
1033.736	21.05546
1034.099	48.11699
1034.461	59.14874
1034.823	54.13431
1035.185	74.18539
1035.548	66.16007
1035.91	64.15283
1036.272	104.23402
1036.634	124.29905
1036.995	55.1291
1037.357	39.09503
1037.719	79.19099
1038.08	105.24655
1038.442	77.18172
1038.803	54.12949
1039.165	74.18585
1039.526	68.16369
1039.887	72.17147
1040.248	24.05939
1040.609	101.24712
1040.97	76.18474
1041.331	87.2187
1041.692	51.11896
1042.053	98.22088
1042.413	83.19208
1042.774	118.28318
1043.134	133.31145
1043.495	65.16287
1043.855	84.20235
1044.215	65.16081
1044.576	41.09815
1044.936	109.24683
1045.296	69.17152
1045.656	84.20472
1046.016	106.25303
1046.375	63.15237
1046.735	30.06825
1047.095	61.1424
1047.454	101.21153
1047.814	95.22629
1048.173	114.26889
1048.533	89.2022
1048.892	37.08898
1049.251	67.16758
1049.61	41.10106
1049.969	46.10846
1050.328	68.14679
1050.687	67.16241
1051.046	44.1072
1051.405	103.2536
1051.763	20.04624
1052.122	88.21783
1052.48	93.22611
1052.839	79.18471
1053.197	51.11994
1053.555	123.27615
1053.914	89.21598
1054.272	71.17087
1054.63	59.14393
1054.988	59.13984
1055.345	65.13944
1055.703	61.14642
1056.061	74.18945
1056.419	41.10623
1056.776	69.16663
1057.134	24.05582
1057.491	74.18438
1057.848	68.16863
1058.206	82.19153
1058.563	79.17299
1058.92	66.15155
1059.277	78.19131
1059.634	107.2488
1059.991	84.19982
1060.348	64.14413
1060.704	21.05029
1061.061	129.29485
1061.418	59.14275
1061.774	66.16236
1062.131	40.10587
1062.487	54.12608
1062.843	43.10728
1063.199	66.16355
1063.555	34.07898
1063.911	78.1959
1064.267	177.35855
1064.623	55.13337
1064.979	119.27801
1065.335	122.28742
1065.691	64.15289
1066.046	100.21745
1066.402	48.10903
1066.757	79.19823
1067.112	93.22628
1067.468	23.05456
1067.823	54.12964
1068.178	63.15191
1068.533	59.14269
1068.888	114.26889
1069.243	100.24436
1069.598	58.14062
1069.952	25.05654
1070.307	23.05717
1070.662	36.08564
1071.016	44.09864
1071.371	58.13163
1071.725	123.28995
1072.079	58.13919
1072.434	84.20266
1072.788	59.14016
1073.142	101.24593
1073.496	22.05243
1073.85	77.17748
1074.203	53.12842
1074.557	40.10647
1074.911	83.19672
1075.265	62.14368
1075.618	98.23697
1075.971	57.13531
1076.325	49.12446
1076.678	46.10521
1077.031	23.0523
1077.385	66.1448
1077.738	76.17052
1078.091	-1.0023
1078.444	74.17088
1078.796	45.11043
1079.149	60.14885
1079.502	73.17155
1079.855	77.17848
1080.207	71.17411
1080.56	46.11888
1080.912	59.14329
1081.264	63.15122
1081.617	80.19374
1081.969	41.10351
1082.321	73.17735
1082.673	40.09141
1083.025	105.24627
1083.377	106.2246
1083.728	87.20133
1084.08	69.17152
1084.432	68.16331
1084.783	111.25677
1085.135	67.16727
1085.486	6.01384
1085.838	88.21503
1086.189	38.09237
1086.54	83.1968
1086.891	43.10879
1087.242	20.04893
1087.593	108.25987
1087.944	49.11083
1088.295	107.24023
1088.646	59.14264
1088.996	21.05083
1089.347	57.13957
1089.698	43.10168
1090.048	60.15544
1090.398	85.19561
1090.749	76.18079
1091.099	50.12562
1091.449	83.20534
1091.799	89.22107
1092.149	3.00737
1092.499	98.2367
1092.849	78.1971
1093.199	115.28461
1093.548	66.15797
1093.898	59.14725
1094.248	81.20683
1094.597	36.09204
1094.947	100.26431
1095.296	81.1987
1095.645	45.11704
1095.994	40.09618
1096.343	68.17042
1096.692	37.09732
1097.041	44.11914
1097.39	98.24347
1097.739	57.14784
1098.088	85.22621
1098.437	24.06327
1098.785	62.16667
1099.134	114.29919
1099.482	63.17276
1099.83	73.19091
1100.179	36.09403
1100.527	33.08785
1100.875	68.17907
1101.223	58.15366
1101.571	69.18993
1101.919	31.08118
1102.267	67.18797
1102.615	-10.0322
1102.962	17.05469
1103.31	11.03532
1103.658	10.03221
