Data from N2 R10 sample 12_Subt2__5__13-08-18-777.txt Node

Date: Mon Sep 01 13:08:18 PDT 2025
User: uwsun
Spectrometer: HDX01956
Trigger mode: 0
Integration Time (sec): 5.000000E-1
Scans to average: 1
Nonlinearity correction enabled: true
Boxcar width: 0
Storing dark spectrum: false
XAxis mode: Wavelengths
Number of Pixels in Spectrum: 2068
>>>>>Begin Spectral Data<<<<<
194.03	-95.27051
194.578	-91.29095
195.127	-109.34431
195.676	-102.32287
196.225	-43.11489
196.773	-90.25028
197.321	-114.31166
197.87	-116.29311
198.418	-138.34571
198.966	-191.48579
199.513	-206.50166
200.061	-184.45344
200.609	-151.39029
201.156	-203.43511
201.704	-176.43069
202.251	-168.43175
202.798	-173.4369
203.345	-138.3318
203.892	-180.44179
204.438	-149.34686
204.985	-193.44432
205.532	-175.44699
206.078	-173.41397
206.624	-191.45704
207.17	-127.28572
207.716	-219.52104
208.262	-132.25423
208.808	-215.51525
209.354	-188.44548
209.899	-144.35461
210.445	-162.38906
210.99	-199.46763
211.535	-135.30819
212.08	-170.3866
212.625	-165.40235
213.17	-134.32889
213.715	-192.41536
214.259	-144.32655
214.804	-123.29456
215.348	-143.31868
215.892	-144.33568
216.436	-100.22437
216.98	-84.17962
217.524	-135.30931
218.068	-114.27753
218.612	-126.30777
219.155	-142.32502
219.698	-108.24879
220.242	-108.26125
220.785	-144.32867
221.328	-115.27781
221.871	-119.29365
222.414	-128.31068
222.956	-178.41902
223.499	-157.34654
224.041	-81.18298
224.583	-138.29394
225.126	-116.24901
225.668	-140.33111
226.21	-135.32957
226.751	-146.31125
227.293	-95.21066
227.835	-150.35668
228.376	-138.31243
228.918	-107.26209
229.459	-154.37266
230	-149.34604
230.541	-116.26006
231.082	-123.28904
231.622	-137.30846
232.163	-143.33657
232.704	-155.37373
233.244	-144.34702
233.784	-113.26917
234.324	-185.39705
234.864	-130.28652
235.404	-109.25144
235.944	-121.27879
236.484	-78.18733
237.023	-170.39223
237.563	-168.37896
238.102	-139.31924
238.641	-126.30823
239.18	-165.37485
239.719	-121.29352
240.258	-82.17747
240.797	-109.25084
241.335	-120.28425
241.874	-130.24327
242.412	-139.3232
242.95	-151.3486
243.488	-90.19745
244.026	-113.25057
244.564	-173.34964
245.102	-146.31787
245.64	-129.30149
246.177	-119.25782
246.715	-110.25481
247.252	-148.33084
247.789	-46.08331
248.326	-168.38978
248.863	-162.34506
249.4	-130.2858
249.936	-93.18364
250.473	-132.29629
251.009	-171.37981
251.546	-188.40462
252.082	-102.21452
252.618	-160.3451
253.154	-141.32565
253.69	-165.36069
254.226	-172.39764
254.761	-136.29447
255.297	-161.34121
255.832	-198.45574
256.367	-145.32915
256.903	-156.33112
257.438	-156.35462
257.972	-140.30053
258.507	-188.41626
259.042	-112.23296
259.576	-207.43256
260.111	-120.26626
260.645	-133.27744
261.179	-145.32434
261.713	-152.32531
262.247	-178.39774
262.781	-178.36099
263.315	-177.41691
263.849	-147.35149
264.382	-155.3437
264.915	-185.41722
265.449	-220.51546
265.982	-137.29923
266.515	-134.31151
267.048	-215.4431
267.58	-110.23012
268.113	-241.50852
268.646	-178.4213
269.178	-172.36843
269.71	-162.34071
270.243	-146.31963
270.775	-181.44137
271.307	-136.31329
271.838	-106.24008
272.37	-161.37849
272.902	-173.37882
273.433	-152.31784
273.965	-174.40561
274.496	-165.39332
275.027	-160.37826
275.558	-161.37213
276.089	-196.45851
276.62	-157.3817
277.15	-154.36295
277.681	-122.25217
278.211	-150.35077
278.741	-205.43313
279.272	-164.356
279.802	-145.34366
280.332	-173.38792
280.861	-197.45407
281.391	-153.32865
281.921	-143.32711
282.45	-131.30964
282.98	-190.47219
283.509	-171.36589
284.038	-153.33007
284.567	-126.27829
285.096	-214.49512
285.625	-213.46246
286.153	-216.48304
286.682	-205.44661
287.21	-222.50954
287.739	-172.38401
288.267	-230.53044
288.795	-155.38444
289.323	-185.40697
289.851	-157.3461
290.378	-153.3227
290.906	-218.49816
291.433	-180.42257
291.961	-191.40727
292.488	-158.36832
293.015	-169.37146
293.542	-186.4404
294.069	-194.44707
294.596	-171.39729
295.122	-186.41613
295.649	-196.40785
296.175	-191.43567
296.702	-181.41186
297.228	-177.40342
297.754	-213.45004
298.28	-219.46677
298.806	-245.55478
299.332	-254.52948
299.857	-236.50071
300.383	-200.47428
300.908	-282.64283
301.433	-270.61672
301.958	-216.46887
302.483	-277.64861
303.008	-212.48932
303.533	-230.56073
304.058	-216.47626
304.582	-257.56582
305.107	-232.5599
305.631	-185.39122
306.155	-225.48393
306.679	-266.57789
307.203	-249.53601
307.727	-231.50709
308.251	-251.57575
308.775	-323.71469
309.298	-244.53551
309.822	-236.54861
310.345	-271.59464
310.868	-248.54452
311.391	-215.48467
311.914	-304.70415
312.437	-219.45784
312.96	-231.4947
313.482	-271.58813
314.005	-274.62964
314.527	-305.73424
315.049	-258.59643
315.571	-264.52878
316.093	-278.62578
316.615	-307.67419
317.137	-270.53129
317.659	-252.55423
318.18	-263.57441
318.702	-272.56851
319.223	-295.54645
319.744	-269.53792
320.265	-367.80492
320.786	-312.68704
321.307	-318.70759
321.828	-295.59347
322.348	-331.69474
322.869	-354.74186
323.389	-347.50553
323.909	-314.63708
324.43	-269.57209
324.95	-352.70994
325.47	-318.67967
325.989	-370.76442
326.509	-426.82445
327.029	-370.72155
327.548	-421.82511
328.067	-426.89352
328.587	-381.82435
329.106	-369.71874
329.625	-347.79337
330.144	-406.80229
330.662	-406.79966
331.181	-415.82873
331.7	-404.80208
332.218	-428.78316
332.736	-464.92637
333.255	-425.82901
333.773	-445.88493
334.291	-379.78986
334.808	-449.82845
335.326	-424.78682
335.844	-540.03942
336.361	-532.11298
336.879	-537.02743
337.396	-515.01191
337.913	-529.9893
338.43	-515.93266
338.947	-528.01237
339.464	-528.89519
339.981	-552.04217
340.497	-572.14025
341.014	-595.16172
341.53	-571.00892
342.046	-595.15457
342.562	-540.05888
343.078	-559.02061
343.594	-597.11491
344.11	-589.08636
344.626	-591.15171
345.141	-636.11498
345.657	-546.93877
346.172	-645.19641
346.687	-666.16587
347.202	-637.06971
347.717	-610.08837
348.232	-649.22779
348.747	-628.06347
349.261	-720.1448
349.776	-690.20354
350.29	-794.46936
350.805	-643.17373
351.319	-670.13417
351.833	-761.25005
352.347	-712.20937
352.861	-721.20326
353.374	-676.11344
353.888	-719.25128
354.401	-713.15473
354.915	-790.23495
355.428	-724.26299
355.941	-756.21873
356.454	-738.15742
356.967	-773.28252
357.48	-738.16814
357.993	-785.35492
358.505	-806.36432
359.018	-785.32042
359.53	-792.28777
360.042	-784.16107
360.554	-762.24092
361.066	-848.40076
361.578	-834.19724
362.09	-840.34238
362.602	-877.26516
363.113	-873.33163
363.625	-871.26349
364.136	-913.30592
364.647	-976.44159
365.158	-916.36902
365.669	-919.42038
366.18	-860.27025
366.691	-899.22409
367.201	-948.43415
367.712	-952.32675
368.222	-989.39053
368.733	-978.23963
369.243	-975.24563
369.753	-1044.45489
370.263	-971.35988
370.773	-981.42042
371.282	-1050.42975
371.792	-1157.44095
372.301	-1117.48862
372.811	-1197.81052
373.32	-1205.27288
373.829	-1300.60265
374.338	-1248.33753
374.847	-1305.4257
375.356	-1390.56821
375.865	-1435.24614
376.373	-1425.30668
376.882	-1437.6131
377.39	-1508.51002
377.898	-1651.55231
378.407	-1646.19385
378.915	-1722.12434
379.423	-1807.3117
379.93	-1795.05275
380.438	-2049.29042
380.946	-2038.98599
381.453	-2155.94542
381.96	-2332.81047
382.468	-2591.58722
382.975	-2514.50627
383.482	-2608.1832
383.989	-2734.53864
384.495	-2829.99552
385.002	-3056.47812
385.509	-3226.5934
386.015	-3374.98799
386.521	-3460.03216
387.028	-3668.85477
387.534	-3832.70608
388.04	-3869.78221
388.546	-4276.59404
389.051	-4546.57549
389.557	-4768.67697
390.063	-4585.73108
390.568	-5024.98734
391.073	-5347.63013
391.578	-5573.85709
392.084	-5969.01968
392.589	-6430.05954
393.093	-7184.77777
393.598	-7491.64867
394.103	-8144.52624
394.607	-8737.96282
395.112	-9209.60321
395.616	-9805.34516
396.12	-11093.85662
396.624	-12373.84493
397.128	-13222.26213
397.632	-14305.02582
398.136	-15805.35862
398.639	-18067.94212
399.143	-21043.04476
399.646	-23105.63729
400.15	-25756.22552
400.653	-29424.84967
401.156	-33770.95596
401.659	-39970.74728
402.162	-39844.40179
402.664	-31941.1945
403.167	-20603.69412
403.67	-2708.37953
404.172	0
404.674	0
405.176	0
405.678	0
406.18	0
406.682	0
407.184	0
407.686	0
408.187	0
408.688	0
409.19	-13045.69754
409.691	-23347.6691
410.192	-29163.70837
410.693	-33280.562
411.194	-35642.20921
411.694	-33473.63053
412.195	-30510.948
412.696	-29458.19498
413.196	-29758.12066
413.696	-30517.7768
414.196	-29044.82987
414.696	-26171.34457
415.196	-22613.14306
415.696	-16514.87039
416.196	-13145.18438
416.695	-12887.12073
417.195	-13081.46562
417.694	-12118.027
418.194	-11282.91639
418.693	-11124.31281
419.192	-10797.26399
419.691	-10578.70379
420.19	-10099.76
420.688	-9526.86762
421.187	-8773.60719
421.685	-8028.70741
422.184	-6957.56498
422.682	-6050.0402
423.18	-5732.16011
423.678	-5336.81471
424.176	-5025.74062
424.674	-4684.1231
425.172	-4239.62379
425.669	-3908.52593
426.167	-3465.60889
426.664	-3302.7693
427.161	-3129.02938
427.659	-2883.44431
428.156	-2799.32054
428.652	-2724.11802
429.149	-2593.09987
429.646	-2444.03058
430.143	-2282.45296
430.639	-2121.48421
431.135	-2084.84797
431.632	-1958.71485
432.128	-1925.03514
432.624	-1903.30616
433.12	-1915.96704
433.616	-1848.94724
434.111	-1953.34033
434.607	-1704.21333
435.103	-1596.99362
435.598	-1552.99738
436.093	-1442.27635
436.588	-1394.24847
437.083	-1280.19514
437.578	-1250.27027
438.073	-1399.69082
438.568	-1220.51872
439.062	-1187.19967
439.557	-1136.40512
440.051	-1171.39049
440.546	-1142.36998
441.04	-1162.5558
441.534	-1078.56899
442.028	-1050.45118
442.522	-1113.57207
443.015	-1098.39119
443.509	-1011.48223
444.002	-1050.56284
444.496	-1032.33763
444.989	-1005.51584
445.482	-1009.56196
445.975	-1024.39591
446.468	-951.20807
446.961	-941.20106
447.454	-972.37125
447.947	-1046.5832
448.439	-958.50824
448.931	-993.41569
449.424	-898.48363
449.916	-882.38493
450.408	-961.39647
450.9	-989.59808
451.392	-972.66044
451.884	-947.46727
452.375	-959.61057
452.867	-856.30289
453.358	-915.38524
453.849	-875.23096
454.341	-911.39972
454.832	-897.30622
455.323	-893.50917
455.814	-855.36138
456.304	-860.38384
456.795	-818.2967
457.285	-761.18153
457.776	-761.23132
458.266	-828.39636
458.756	-790.36465
459.247	-818.39068
459.737	-857.48188
460.226	-778.2451
460.716	-818.43415
461.206	-776.37103
461.695	-760.42243
462.185	-726.26116
462.674	-702.19298
463.163	-723.18943
463.653	-749.17439
464.142	-783.44067
464.63	-694.291
465.119	-710.23982
465.608	-724.27363
466.096	-696.16683
466.585	-620.09656
467.073	-657.2272
467.561	-703.33923
468.05	-654.19475
468.538	-608.17282
469.026	-609.1458
469.513	-651.08138
470.001	-687.24979
470.489	-621.16555
470.976	-598.10217
471.463	-592.19168
471.951	-587.1976
472.438	-588.11625
472.925	-608.15486
473.412	-529.0649
473.899	-523.98243
474.385	-552.12276
474.872	-551.05733
475.359	-562.14262
475.845	-510.86887
476.331	-497.90372
476.817	-515.05761
477.303	-522.02207
477.789	-496.00774
478.275	-519.09221
478.761	-462.9442
479.247	-433.82135
479.732	-509.0824
480.218	-456.01425
480.703	-456.97331
481.188	-452.83127
481.673	-444.8745
482.158	-513.9423
482.643	-440.97981
483.128	-468.92741
483.612	-422.85737
484.097	-409.87774
484.581	-417.85282
485.066	-415.88255
485.55	-427.82065
486.034	-417.79216
486.518	-423.87254
487.002	-468.016
487.486	-425.92071
487.969	-468.02246
488.453	-418.94662
488.936	-419.84526
489.42	-394.78186
489.903	-347.78027
490.386	-838.41404
490.869	-336.65493
491.352	-353.78139
491.835	-361.67507
492.318	-369.74953
492.8	-384.72253
493.283	-385.88553
493.765	-409.91814
494.247	-295.62273
494.73	-386.78173
495.212	-348.77113
495.694	-392.83709
496.175	-433.94204
496.657	-295.63366
497.139	-286.45674
497.62	-444.97356
498.102	-351.79476
498.583	-344.79173
499.064	-370.75756
499.545	-367.77403
500.026	-353.72815
500.507	-344.73619
500.988	-326.74461
501.469	-402.93477
501.949	-314.71519
502.43	-370.81133
502.91	-339.64742
503.39	-309.71474
503.87	-332.7185
504.35	-333.73251
504.83	-369.75466
505.31	-318.71023
505.79	-389.87003
506.269	-360.78907
506.749	-339.71843
507.228	-346.75455
507.707	-276.56229
508.187	-302.67144
508.666	-342.78021
509.145	-325.70471
509.623	-315.6871
510.102	-344.78065
510.581	-285.64061
511.059	-337.78598
511.538	-254.60673
512.016	-291.64658
512.494	-308.69926
512.972	-316.70519
513.45	-364.78909
513.928	-313.70729
514.406	-356.79968
514.884	-317.76051
515.361	-273.60659
515.839	-296.62909
516.316	-311.70019
516.793	-272.64201
517.27	-214.47956
517.747	-277.66027
518.224	-274.59324
518.701	-253.5247
519.178	-292.67341
519.654	-242.53716
520.131	-291.67391
520.607	-258.59833
521.083	-301.64738
521.56	-265.5849
522.036	-234.47933
522.512	-235.54122
522.987	-294.65311
523.463	-298.66722
523.939	-243.55696
524.414	-216.46508
524.89	-280.62563
525.365	-234.4943
525.84	-298.66365
526.315	-294.66721
526.79	-277.58961
527.265	-261.55966
527.74	-258.58908
528.215	-318.71287
528.689	-272.56801
529.164	-262.53838
529.638	-274.66424
530.112	-293.65211
530.587	-282.56824
531.061	-274.62107
531.534	-246.56146
532.008	-300.68303
532.482	-225.48518
532.956	-310.74698
533.429	-237.53928
533.903	-256.53721
534.376	-282.59307
534.849	-298.65897
535.322	-263.58729
535.795	-293.68123
536.268	-279.63535
536.741	-251.56998
537.213	-245.53556
537.686	-295.68155
538.158	-275.58281
538.631	-268.61955
539.103	-270.57284
539.575	-244.48397
540.047	-262.54786
540.519	-254.57597
540.991	-243.56299
541.463	-269.61852
541.934	-217.46693
542.406	-297.67415
542.877	-276.59349
543.348	-246.56259
543.82	-212.48913
544.291	-207.45517
544.762	-281.63214
545.233	-284.67423
545.703	-232.48255
546.174	-257.56559
546.645	-289.65094
547.115	-215.48348
547.585	-194.41591
548.056	-255.57366
548.526	-220.47979
548.996	-191.42581
549.466	-184.41691
549.935	-245.53827
550.405	-201.40623
550.875	-214.4679
551.344	-168.3695
551.814	-156.3278
552.283	-144.28669
552.752	-125.26179
553.221	-206.40974
553.69	-111.22166
554.159	-123.2707
554.628	-121.24208
555.096	-99.22428
555.565	-18.03534
556.033	37.0766
556.502	40.08531
556.97	60.11678
557.438	110.22767
557.906	173.35574
558.374	163.32459
558.842	212.43584
559.31	254.48473
559.777	281.57521
560.245	350.69163
560.712	430.82064
561.18	436.78492
561.647	555.98516
562.114	592.06054
562.581	747.41906
563.048	768.34558
563.514	853.56424
563.981	997.6301
564.448	1088.68833
564.914	1190.88945
565.381	1300.94473
565.847	1485.18551
566.313	1579.24012
566.779	1699.21641
567.245	1789.39396
567.711	1950.56612
568.176	2161.37945
568.642	2186.85946
569.108	2457.85017
569.573	2696.68913
570.038	2959.10601
570.504	3092.34377
570.969	3349.92579
571.434	3555.0605
571.899	3830.41377
572.363	4045.04989
572.828	4287.96846
573.293	4461.86295
573.757	4740.71007
574.222	5068.33693
574.686	5324.22685
575.15	5439.5226
575.614	5763.18662
576.078	5906.25797
576.542	6103.0609
577.006	6473.95843
577.469	6555.46028
577.933	6702.92526
578.396	6815.23453
578.86	7024.23094
579.323	7069.2752
579.786	7118.93572
580.249	7188.13867
580.712	7325.49673
581.175	7261.50237
581.637	7315.27282
582.1	7283.095
582.563	7314.05174
583.025	7102.37638
583.487	7142.76465
583.95	7068.89499
584.412	7039.83689
584.874	6931.35708
585.336	6793.22606
585.797	6668.8231
586.259	6658.22279
586.721	6383.18454
587.182	6458.20606
587.643	6219.06788
588.105	6012.33096
588.566	5831.80215
589.027	5789.4823
589.488	5521.31127
589.949	5395.73498
590.41	5251.63067
590.87	5178.50521
591.331	4964.3079
591.791	4859.70196
592.252	4668.74017
592.712	4472.19443
593.172	4328.86893
593.632	4236.80015
594.092	4179.90693
594.552	3979.82262
595.011	3851.21306
595.471	3688.17463
595.931	3561.20545
596.39	3512.61251
596.849	3302.5343
597.308	3316.18278
597.768	3088.07709
598.227	3116.77912
598.685	3053.55687
599.144	2978.63531
599.603	2892.71956
600.062	2780.14441
600.52	2740.41761
600.978	2694.73036
601.437	2654.56916
601.895	2521.2223
602.353	2528.42701
602.811	2424.41152
603.269	2322.72201
603.727	2326.72105
604.184	2237.42814
604.642	2224.79074
605.099	2217.55721
605.557	2153.74927
606.014	2197.24288
606.471	2105.79852
606.928	2082.18218
607.385	1976.61148
607.842	2044.43031
608.299	2127.54619
608.755	2047.638
609.212	2040.31501
609.668	1931.24649
610.125	2063.66988
610.581	2036.62956
611.037	2031.47743
611.493	2001.59259
611.949	2015.64431
612.405	1999.98518
612.861	2051.61506
613.316	2043.63974
613.772	2031.49304
614.227	2005.58062
614.683	2078.27279
615.138	1980.54158
615.593	2073.56047
616.048	2033.50774
616.503	1963.76067
616.958	1953.81659
617.412	1909.57142
617.867	1959.33341
618.321	1944.13511
618.776	1834.31311
619.23	1791.49072
619.684	1837.40044
620.138	1827.50331
620.592	1763.6129
621.046	1741.49048
621.5	1649.53425
621.954	1666.31326
622.407	1541.18821
622.861	1578.48686
623.314	1531.254
623.768	1487.28146
624.221	1397.76956
624.674	1368.14708
625.127	1332.15865
625.58	1361.13417
626.033	1338.0311
626.485	1280.16902
626.938	1233.1131
627.39	1209.02887
627.843	1139.94001
628.295	1152.95646
628.747	1101.9616
629.199	1076.83183
629.651	1003.7397
630.103	987.73898
630.555	966.5656
631.006	920.70302
631.458	908.69747
631.909	957.72724
632.361	871.63018
632.812	890.63755
633.263	787.38003
633.714	855.46589
634.165	786.57776
634.616	700.40298
635.067	820.48588
635.518	736.47387
635.968	784.28329
636.419	733.32893
636.869	725.4555
637.319	624.24121
637.769	670.27223
638.219	673.37955
638.669	606.25462
639.119	633.33952
639.569	594.25113
640.019	575.16617
640.468	504.0012
640.918	577.22406
641.367	558.10147
641.816	575.12791
642.265	499.03207
642.714	551.1276
643.163	512.05073
643.612	467.00844
644.061	478.90606
644.51	459.94551
644.958	465.92211
645.406	508.08847
645.855	483.06975
646.303	510.07064
646.751	411.85616
647.199	491.0046
647.647	463.96619
648.095	480.99432
648.543	439.82095
648.99	443.96625
649.438	438.94422
649.885	436.99058
650.333	430.76102
650.78	395.88199
651.227	440.98102
651.674	400.84158
652.121	387.87376
652.568	363.82159
653.015	405.95009
653.461	358.7946
653.908	386.8357
654.354	388.86189
654.801	334.73517
655.247	356.7322
655.693	340.83378
656.139	372.83287
656.585	348.78396
657.031	320.70259
657.477	300.61396
657.922	324.70359
658.368	310.72572
658.813	357.78167
659.259	240.5535
659.704	297.65772
660.149	270.6018
660.594	304.68598
661.039	283.61574
661.484	298.67957
661.929	302.67311
662.373	241.58502
662.818	254.6058
663.262	283.65123
663.707	253.61691
664.151	270.63358
664.595	246.57208
665.039	278.66405
665.483	266.6509
665.927	249.56704
666.371	199.44824
666.814	278.63857
667.258	192.44299
667.701	281.58511
668.145	253.60908
668.588	195.46786
669.031	224.51125
669.474	198.46628
669.917	276.59042
670.36	197.47769
670.803	237.55626
671.245	190.39466
671.688	240.56913
672.13	159.35227
672.573	236.58307
673.015	204.47966
673.457	181.38896
673.899	213.50481
674.341	180.42752
674.783	192.45162
675.225	176.42589
675.666	143.3401
676.108	184.39499
676.549	214.49689
676.991	166.36295
677.432	209.4098
677.873	231.52244
678.314	188.44204
678.755	144.34754
679.196	151.34346
679.637	205.49204
680.078	195.45
680.518	231.52754
680.959	174.41183
681.399	169.4138
681.839	170.40905
682.28	147.35953
682.72	112.25687
683.16	166.40834
683.6	180.40685
684.039	198.40816
684.479	125.30561
684.919	59.13746
685.358	182.45544
685.798	123.32045
686.237	173.41429
686.676	139.32243
687.115	133.31206
687.554	149.35191
687.993	112.24933
688.432	177.40081
688.871	126.28608
689.309	136.32376
689.748	169.35253
690.186	145.34525
690.625	95.22394
691.063	117.28072
691.501	137.33731
691.939	112.27906
692.377	145.35174
692.815	117.27987
693.253	159.38004
693.69	144.31645
694.128	104.25243
694.565	89.21379
695.003	101.25662
695.44	125.29386
695.877	61.14424
696.314	141.30418
696.751	143.32632
697.188	84.19482
697.625	132.30395
698.061	69.16719
698.498	142.34271
698.934	104.25148
699.371	61.14536
699.807	111.26349
700.243	104.2511
700.679	136.30841
701.115	116.27435
701.551	101.23938
701.987	122.27576
702.422	100.23861
702.858	79.18991
703.294	125.28421
703.729	127.3105
704.164	99.23943
704.599	116.25985
705.035	48.10938
705.47	90.22
705.904	71.1673
706.339	131.30544
706.774	123.28848
707.209	86.20009
707.643	62.15071
708.078	87.21318
708.512	57.14385
708.946	104.25053
709.38	105.25001
709.814	98.22593
710.248	94.23038
710.682	93.22255
711.116	40.0968
711.549	80.20746
711.983	72.16837
712.416	112.26591
712.85	111.27702
713.283	97.23097
713.716	110.27686
714.149	127.30309
714.582	127.28595
715.015	82.20676
715.448	104.2627
715.881	130.2858
716.313	123.28859
716.746	103.24356
717.178	57.13874
717.61	87.22168
718.043	74.18592
718.475	93.2267
718.907	158.39724
719.339	33.07628
719.77	74.17698
720.202	74.18839
720.634	93.22721
721.065	71.1701
721.497	122.29889
721.928	72.17816
722.359	18.04418
722.79	71.17152
723.221	95.24001
723.652	141.36205
724.083	80.18238
724.514	84.19489
724.945	42.10033
725.375	76.17794
725.806	82.20609
726.236	98.25169
726.666	54.12964
727.096	63.1562
727.526	98.24931
727.956	32.07416
728.386	105.2592
728.816	53.13538
729.246	35.0863
729.675	86.21265
730.105	78.19343
730.534	101.23753
730.964	110.27835
731.393	123.30552
731.822	72.18511
732.251	77.19654
732.68	133.31327
733.109	106.26162
733.537	85.2065
733.966	47.11811
734.395	72.16811
734.823	111.25177
735.251	50.122
735.68	101.25371
736.108	81.20603
736.536	71.16925
736.964	60.14103
737.392	91.22859
737.82	55.13367
738.247	104.24996
738.675	125.29878
739.102	14.03557
739.53	80.20453
739.957	77.19896
740.384	116.2864
740.811	80.20388
741.238	62.1528
741.665	72.16857
742.092	74.1784
742.519	53.13247
742.945	100.24089
743.372	50.12517
743.798	75.19379
744.225	75.17982
744.651	78.19681
745.077	69.17333
745.503	61.15036
745.929	89.21468
746.355	118.29348
746.781	52.13027
747.207	42.09991
747.632	32.0791
748.058	78.19576
748.483	79.18355
748.908	56.1405
749.334	41.10203
749.759	76.18065
750.184	67.161
750.609	59.14645
751.033	91.21651
751.458	99.22355
751.883	80.1994
752.307	23.05512
752.732	34.08595
753.156	84.20839
753.58	112.26643
754.005	86.21909
754.429	47.11196
754.853	71.177
755.277	108.25602
755.7	102.25332
756.124	47.11785
756.548	92.21893
756.971	85.20859
757.394	25.06525
757.818	76.19634
758.241	51.13055
758.664	39.09958
759.087	22.05007
759.51	98.24427
759.933	83.20066
760.356	72.18549
760.778	43.10697
761.201	120.29148
761.623	99.24088
762.046	81.19361
762.468	71.17204
762.89	105.25939
763.312	103.25183
763.734	54.13136
764.156	72.17888
764.578	60.13971
765	105.25633
765.421	16.04119
765.843	81.21284
766.264	101.24455
766.686	89.22413
767.107	62.1515
767.528	-1.00257
767.949	76.19403
768.37	80.19723
768.791	66.16098
769.212	35.08884
769.632	35.0827
770.053	52.13781
770.473	72.1762
770.894	102.25544
771.314	89.21354
771.734	71.16672
772.154	80.20596
772.575	77.17975
772.994	77.17607
773.414	61.14781
773.834	59.14853
774.254	59.14554
774.673	111.26997
775.093	68.16912
775.512	52.12914
775.931	51.13027
776.351	85.21144
776.77	71.17436
777.189	72.17226
777.607	59.1515
778.026	61.15285
778.445	16.04056
778.864	76.19546
779.282	78.1884
779.701	40.10176
780.119	29.07405
780.537	43.10821
780.955	126.31861
781.373	64.15912
781.791	66.14937
782.209	90.20799
782.627	47.12454
783.045	31.07228
783.462	90.22977
783.88	29.07571
784.297	73.1841
784.715	56.14442
785.132	67.16296
785.549	63.15826
785.966	54.1366
786.383	51.12631
786.8	84.19559
787.217	26.06242
787.633	23.05803
788.05	146.34356
788.466	143.33421
788.883	23.05925
789.299	53.12852
789.715	42.10297
790.131	62.15482
790.547	71.17777
790.963	85.21098
791.379	66.16731
791.795	79.18086
792.21	80.18745
792.626	90.21352
793.041	30.07478
793.457	52.12928
793.872	72.16983
794.287	27.06513
794.702	35.08703
795.117	63.157
795.532	43.10844
795.947	111.26602
796.362	89.21257
796.776	158.36542
797.191	85.20797
797.605	22.05225
798.02	43.10541
798.434	134.29583
798.848	74.18244
799.262	54.13455
799.676	89.21695
800.09	97.23795
800.504	84.20381
800.918	67.15579
801.331	70.18372
801.745	65.14994
802.158	88.21958
802.572	116.27965
802.985	137.32783
803.398	87.20731
803.811	116.29625
804.224	113.27956
804.637	54.1293
805.05	87.20157
805.462	91.22315
805.875	40.10423
806.288	29.07059
806.7	98.24533
807.112	49.11439
807.525	46.1142
807.937	35.08716
808.349	93.23227
808.761	66.16272
809.173	63.15311
809.584	83.20496
809.996	42.10347
810.408	48.12435
810.819	-3.00717
811.231	19.04952
811.642	-23.05586
812.053	19.04568
812.464	44.10527
812.875	57.14606
813.286	80.2056
813.697	131.3034
814.108	74.18089
814.519	95.21118
814.929	86.21886
815.34	60.14596
815.75	57.14519
816.16	79.19673
816.571	97.25081
816.981	77.18187
817.391	57.13812
817.801	18.04514
818.211	112.2652
818.62	29.0704
819.03	68.16684
819.44	90.23428
819.849	73.1839
820.259	91.23212
820.668	57.14055
821.077	61.15174
821.486	79.19013
821.895	101.24831
822.304	58.15392
822.713	80.18891
823.122	97.24094
823.531	33.07885
823.939	66.16098
824.348	108.26086
824.756	90.22466
825.164	67.16873
825.573	53.13338
825.981	94.23217
826.389	56.14105
826.797	25.06312
827.205	44.10156
827.612	59.14591
828.02	83.19444
828.428	54.13786
828.835	58.15284
829.243	64.15277
829.65	40.09996
830.057	73.17709
830.464	64.1561
830.871	107.25448
831.278	85.20488
831.685	23.05187
832.092	69.16895
832.499	53.11645
832.905	76.19211
833.312	125.28214
833.718	49.12251
834.124	89.20269
834.531	73.18384
834.937	82.20986
835.343	106.25399
835.749	135.31142
836.155	92.23973
836.561	63.15506
836.966	80.19519
837.372	75.19056
837.777	73.18159
838.183	72.16009
838.588	50.12449
838.993	104.25148
839.399	40.09825
839.804	34.08333
840.209	35.08953
840.613	71.1579
841.018	81.20449
841.423	61.15653
841.828	71.17931
842.232	86.21226
842.637	122.28474
843.041	46.11822
843.445	60.15058
843.849	48.11917
844.253	98.23151
844.657	51.12866
845.061	36.0822
845.465	51.12349
845.869	69.16025
846.272	19.04664
846.676	59.14286
847.079	46.11727
847.483	90.22343
847.886	101.24409
848.289	23.06174
848.692	51.1294
849.095	69.16556
849.498	125.31332
849.901	67.15363
850.304	105.24896
850.707	61.15554
851.109	121.30296
851.512	49.12069
851.914	29.07348
852.316	108.27085
852.718	-5.01305
853.121	48.1179
853.523	38.08925
853.925	45.11764
854.326	45.1128
854.728	33.08524
855.13	49.12657
855.531	56.13393
855.933	104.24768
856.334	23.05771
856.736	41.09224
857.137	45.10497
857.538	53.13338
857.939	72.17744
858.34	70.17029
858.741	71.18517
859.142	62.1489
859.542	99.25934
859.943	110.27079
860.343	43.10677
860.744	113.27298
861.144	66.1608
861.544	25.06046
861.945	57.14529
862.345	83.2021
862.745	58.14415
863.145	113.26741
863.544	58.14656
863.944	124.28929
864.344	93.22957
864.743	122.29922
865.143	91.23236
865.542	43.10006
865.941	66.16313
866.34	118.27951
866.74	53.14232
867.139	63.1507
867.537	70.17795
867.936	45.10859
868.335	86.2177
868.734	54.13806
869.132	61.14167
869.531	80.19272
869.929	55.12546
870.327	74.17684
870.726	84.20846
871.124	78.18162
871.522	81.20544
871.92	63.15523
872.318	85.20674
872.715	71.17533
873.113	71.17256
873.511	72.17888
873.908	-4.0102
874.306	63.15649
874.703	115.28471
875.1	46.11789
875.497	68.16269
875.894	-5.01239
876.291	56.13745
876.688	34.08802
877.085	84.20051
877.482	96.23859
877.878	60.14432
878.275	79.19987
878.671	114.25094
879.068	125.29786
879.464	66.15923
879.86	74.17441
880.256	105.25681
880.652	54.13738
881.048	87.21437
881.444	29.0694
881.84	85.2149
882.236	64.16068
882.631	54.13259
883.027	86.20709
883.422	58.14823
883.817	42.10579
884.213	57.14621
884.608	71.17359
885.003	18.04371
885.398	42.10537
885.793	71.17771
886.188	64.15883
886.582	106.26947
886.977	85.2006
887.371	69.17407
887.766	27.06748
888.16	51.12737
888.554	76.18723
888.949	84.20983
889.343	129.31081
889.737	2.00537
890.131	17.04293
890.525	53.13557
890.918	80.20042
891.312	89.21159
891.706	67.1754
892.099	77.19516
892.492	131.27812
892.886	56.13699
893.279	59.15018
893.672	63.16013
894.065	91.22637
894.458	89.22244
894.851	122.29522
895.244	64.16316
895.637	100.23879
896.029	104.25195
896.422	91.22083
896.814	44.10959
897.206	18.04316
897.599	111.27169
897.991	57.13775
898.383	59.1393
898.775	54.12191
899.167	45.10513
899.559	60.15172
899.951	89.20841
900.342	101.25471
900.734	27.06731
901.125	114.29604
901.517	57.13983
901.908	74.17678
902.299	56.13684
902.69	76.17856
903.082	120.28699
903.473	57.1364
903.863	99.25056
904.254	56.12993
904.645	109.26838
905.036	48.11633
905.426	109.24683
905.817	91.22174
906.207	12.02882
906.597	61.14245
906.987	81.20893
907.378	46.11649
907.768	36.09544
908.158	86.20842
908.547	46.11896
908.937	61.15631
909.327	77.18616
909.717	132.33044
910.106	75.17941
910.495	46.11499
910.885	82.20661
911.274	24.0603
911.663	54.13704
912.052	83.20368
912.441	69.17495
912.83	87.19837
913.219	111.2876
913.608	65.15886
913.997	11.02778
914.385	88.20885
914.774	87.21049
915.162	39.09318
915.55	108.25859
915.939	43.10871
916.327	42.10503
916.715	33.08438
917.103	111.27027
917.491	102.25008
917.878	82.20052
918.266	71.18352
918.654	72.1833
919.041	16.04202
919.429	58.13675
919.816	45.11422
920.203	41.09965
920.591	76.18764
920.978	94.22841
921.365	61.1598
921.752	54.1287
922.139	112.24012
922.525	26.06275
922.912	90.21795
923.299	73.18073
923.685	69.17946
924.072	89.20375
924.458	70.17283
924.844	17.04234
925.231	77.17833
925.617	21.0537
926.003	56.14302
926.389	74.18592
926.774	86.21661
927.16	71.17572
927.546	31.07941
927.931	56.13963
928.317	66.15161
928.702	104.24359
929.088	69.16265
929.473	51.12977
929.858	24.05832
930.243	40.09621
930.628	13.03186
931.013	35.087
931.398	113.25672
931.783	63.16554
932.167	54.13195
932.552	66.16493
932.937	99.24358
933.321	42.10556
933.705	87.21791
934.09	75.18874
934.474	81.19131
934.858	59.15282
935.242	70.16164
935.626	43.11022
936.009	36.09598
936.393	71.18002
936.777	66.16856
937.16	41.10686
937.544	105.24482
937.927	42.10673
938.311	77.18707
938.694	88.23127
939.077	59.14102
939.46	82.20022
939.843	96.19834
940.226	55.14098
940.609	92.20948
940.991	76.19259
941.374	40.09796
941.757	62.15268
942.139	65.14557
942.522	123.28668
942.904	39.09397
943.286	65.16475
943.668	93.23914
944.05	71.17424
944.432	38.09399
944.814	42.10362
945.196	35.08554
945.578	19.04543
945.959	92.21388
946.341	61.14947
946.722	78.18212
947.104	67.15966
947.485	63.14626
947.866	58.14593
948.247	73.18344
948.628	97.2346
949.009	69.17612
949.39	75.18589
949.771	98.22584
950.152	50.12272
950.532	19.04701
950.913	62.14924
951.293	58.15648
951.674	85.20426
952.054	32.07956
952.434	32.0797
952.814	83.19626
953.194	99.25696
953.574	42.10362
953.954	58.13755
954.334	87.21539
954.714	52.12669
955.093	52.12782
955.473	46.11512
955.853	33.08568
956.232	86.23436
956.611	72.172
956.99	51.12816
957.37	57.14508
957.749	80.18979
958.128	53.13347
958.506	20.05215
958.885	42.10617
959.264	29.07135
959.643	104.23412
960.021	87.21413
960.4	53.12007
960.778	94.22969
961.156	33.08299
961.535	55.12809
961.913	64.14937
962.291	28.07211
962.669	43.10906
963.047	68.17299
963.424	61.15538
963.802	70.1715
964.18	86.21622
964.557	92.21015
964.935	57.13489
965.312	57.14825
965.69	75.18698
966.067	77.18658
966.444	82.20089
966.821	74.18998
967.198	101.2427
967.575	92.22447
967.952	89.20817
968.329	68.16493
968.705	86.18302
969.082	55.14093
969.458	19.04585
969.835	63.153
970.211	35.09006
970.587	82.20298
970.963	62.15873
971.339	55.14349
971.715	91.22554
972.091	88.21519
972.467	89.22043
972.843	56.13882
973.219	107.25419
973.594	43.11261
973.97	106.24963
974.345	34.08163
974.721	103.24695
975.096	45.109
975.471	75.17707
975.846	49.11775
976.221	62.15711
976.596	30.07219
976.971	59.14543
977.346	69.16006
977.72	38.09701
978.095	86.22087
978.469	89.21086
978.844	83.20744
979.218	20.04822
979.593	73.17415
979.967	57.13869
980.341	90.20559
980.715	89.22268
981.089	57.14251
981.463	53.12163
981.837	47.11491
982.21	99.22819
982.584	71.17081
982.957	15.03769
983.331	63.14857
983.704	68.16653
984.078	68.16703
984.451	123.30318
984.824	24.05873
985.197	82.19798
985.57	76.18971
985.943	103.25192
986.316	110.26729
986.688	56.1349
987.061	43.10093
987.434	95.24564
987.806	87.20954
988.179	17.04037
988.551	85.21429
988.923	70.17175
989.295	109.26946
989.667	5.01205
990.039	44.10884
990.411	38.08768
990.783	74.16958
991.155	16.03869
991.527	85.20797
991.898	58.14431
992.27	67.16521
992.641	109.27055
993.012	133.30791
993.384	75.17803
993.755	63.16024
994.126	61.14642
994.497	32.07881
994.868	79.18042
995.239	91.21884
995.61	39.09832
995.98	4.0098
996.351	49.12136
996.722	54.12514
997.092	34.08076
997.462	9.02119
997.833	77.18158
998.203	115.2754
998.573	53.13189
998.943	91.21168
999.313	16.03859
999.683	60.14372
1000.053	68.1559
1000.423	92.22179
1000.792	72.18588
1001.162	90.21984
1001.531	94.22987
1001.901	82.2032
1002.27	75.16679
1002.639	25.06415
1003.009	64.15178
1003.378	71.18085
1003.747	82.19251
1004.116	54.1291
1004.485	70.16665
1004.853	71.17918
1005.222	63.15848
1005.591	109.25585
1005.959	78.17472
1006.328	47.10583
1006.696	89.21306
1007.064	84.20998
1007.433	103.25491
1007.801	62.15184
1008.169	69.17364
1008.537	83.18251
1008.905	40.09336
1009.273	67.16497
1009.64	52.12398
1010.008	55.13096
1010.375	140.33418
1010.743	99.22637
1011.11	43.10188
1011.478	61.15064
1011.845	84.1962
1012.212	73.16443
1012.579	104.25271
1012.946	95.22412
1013.313	111.26105
1013.68	87.19404
1014.047	57.13562
1014.414	80.18781
1014.78	51.12668
1015.147	109.26063
1015.513	73.17509
1015.88	115.29064
1016.246	93.22772
1016.612	60.13706
1016.978	101.2451
1017.344	62.15285
1017.71	107.2581
1018.076	104.24263
1018.442	92.23487
1018.808	60.14966
1019.174	69.17245
1019.539	192.42937
1019.905	79.18521
1020.27	41.10132
1020.636	117.27687
1021.001	98.23241
1021.366	25.0603
1021.731	65.16667
1022.096	37.09351
1022.461	102.2389
1022.826	83.19596
1023.191	74.19329
1023.556	96.22291
1023.92	69.16901
1024.285	101.24409
1024.649	61.14914
1025.014	104.25498
1025.378	56.1406
1025.742	58.14378
1026.107	103.23039
1026.471	107.24693
1026.835	73.18014
1027.199	19.04599
1027.562	77.17798
1027.926	116.28007
1028.29	66.16648
1028.654	107.24329
1029.017	101.24583
1029.381	32.07668
1029.744	32.08184
1030.107	135.31402
1030.471	65.15513
1030.834	55.12495
1031.197	118.28048
1031.56	79.18529
1031.923	75.19299
1032.286	120.27787
1032.648	82.19484
1033.011	95.216
1033.374	133.30742
1033.736	67.17557
1034.099	67.16271
1034.461	25.06341
1034.823	63.15643
1035.185	100.24934
1035.548	46.11199
1035.91	73.17402
1036.272	7.01606
1036.634	118.2849
1036.995	67.1569
1037.357	34.08293
1037.719	109.26203
1038.08	106.24885
1038.442	76.1794
1038.803	74.17678
1039.165	53.13361
1039.526	55.13272
1039.887	83.19725
1040.248	35.08643
1040.609	93.22789
1040.97	41.10032
1041.331	86.21622
1041.692	69.16038
1042.053	130.29109
1042.413	75.17384
1042.774	54.13117
1043.134	87.20556
1043.495	88.21958
1043.855	88.21183
1044.215	55.13632
1044.576	36.08626
1044.936	87.19789
1045.296	124.30514
1045.656	67.16381
1046.016	101.24132
1046.375	66.15953
1046.735	25.05694
1047.095	72.16771
1047.454	92.19306
1047.814	87.20755
1048.173	97.22955
1048.533	68.15514
1048.892	7.01693
1049.251	105.26081
1049.61	36.08882
1049.969	82.19198
1050.328	88.18915
1050.687	67.16241
1051.046	71.1721
1051.405	80.19781
1051.763	41.09439
1052.122	34.08499
1052.48	58.14194
1052.839	78.1824
1053.197	61.14318
1053.555	129.28926
1053.914	92.22313
1054.272	74.17799
1054.63	55.13427
1054.988	56.1328
1055.345	35.07557
1055.703	66.15827
1056.061	62.15906
1056.419	64.16517
1056.776	77.18567
1057.134	36.08353
1057.491	64.15976
1057.848	59.14655
1058.206	60.14075
1058.563	78.17083
1058.92	100.22806
1059.277	70.17194
1059.634	99.23056
1059.991	77.18342
1060.348	11.02504
1060.704	48.11436
1061.061	99.22765
1061.418	47.11397
1061.774	70.17207
1062.131	65.17132
1062.487	75.17439
1062.843	85.21044
1063.199	74.18311
1063.555	92.21126
1063.911	76.19095
1064.267	127.26021
1064.623	40.09727
1064.979	121.28257
1065.335	92.21801
1065.691	84.1999
1066.046	82.17899
1066.402	92.2071
1066.757	75.18833
1067.112	89.21671
1067.468	59.13897
1067.823	43.10345
1068.178	73.17569
1068.533	70.16895
1068.888	49.11703
1069.243	47.11598
1069.598	62.1502
1069.952	29.06554
1070.307	51.12613
1070.662	55.13036
1071.016	40.08975
1071.371	52.11816
1071.725	93.22051
1072.079	44.10587
1072.434	61.14781
1072.788	32.07642
1073.142	91.22199
1073.496	74.17461
1073.85	90.20691
1074.203	55.13322
1074.557	41.10912
1074.911	107.25243
1075.265	65.15054
1075.618	114.27483
1075.971	79.18673
1076.325	47.11942
1076.678	66.15034
1077.031	30.06811
1077.385	109.23696
1077.738	66.14839
1078.091	49.11137
1078.444	109.24994
1078.796	69.16858
1079.149	65.1611
1079.502	74.17386
1079.855	86.19898
1080.207	80.19585
1080.56	41.10605
1080.912	83.20066
1081.264	51.12269
1081.617	62.15066
1081.969	70.17581
1082.321	70.17016
1082.673	30.06869
1083.025	63.14897
1083.377	89.18928
1083.728	116.2669
1084.08	48.11977
1084.432	53.12765
1084.783	70.16325
1085.135	63.1574
1085.486	50.11431
1085.838	98.23902
1086.189	89.21428
1086.54	108.25483
1086.891	35.08868
1087.242	48.11681
1087.593	71.17204
1087.944	34.07713
1088.295	103.23144
1088.646	74.1784
1088.996	41.09886
1089.347	76.18544
1089.698	1.00238
1090.048	78.20144
1090.398	61.14105
1090.749	35.08391
1091.099	84.20975
1091.449	43.10716
1091.799	111.27461
1092.149	13.03189
1092.499	36.08797
1092.849	34.08659
1093.199	81.20171
1093.548	67.16033
1093.898	86.21358
1094.248	67.1715
1094.597	40.10219
1094.947	51.13591
1095.296	68.16721
1095.645	69.17872
1095.994	125.29569
1096.343	100.24916
1096.692	36.09471
1097.041	22.05978
1097.39	82.20432
1097.739	69.1786
1098.088	92.24456
1098.437	23.06064
1098.785	80.21443
1099.134	62.16415
1099.482	59.16189
1099.83	82.21411
1100.179	24.06282
1100.527	66.17474
1100.875	61.16083
1101.223	79.20856
1101.571	44.1216
1101.919	-4.01054
1102.267	52.14622
1102.615	-12.03865
1102.962	17.05469
1103.31	4.01285
1103.658	8.02578
