Data from N2 R10 sample 5_Subt2__0__13-18-44-763.txt Node

Date: Mon Sep 01 13:18:44 PDT 2025
User: uwsun
Spectrometer: HDX01956
Trigger mode: 0
Integration Time (sec): 5.000000E-1
Scans to average: 1
Nonlinearity correction enabled: true
Boxcar width: 0
Storing dark spectrum: false
XAxis mode: Wavelengths
Number of Pixels in Spectrum: 2068
>>>>>Begin Spectral Data<<<<<
194.03	99.27363
194.578	111.3462
195.127	76.23454
195.676	92.28421
196.225	154.39798
196.773	122.32796
197.321	159.41551
197.87	264.62144
198.418	223.52198
198.966	230.54099
199.513	211.47351
200.061	175.40256
200.609	238.5733
201.156	212.41362
201.704	197.44845
202.251	197.47374
202.798	212.49827
203.345	257.57128
203.892	243.54935
204.438	250.53596
204.985	226.47656
205.532	210.49972
206.078	236.52036
206.624	220.48488
207.17	271.55977
207.716	220.47898
208.262	207.36621
208.808	203.4475
209.354	192.42139
209.899	309.69683
210.445	227.5046
210.99	166.36218
211.535	282.58941
212.08	267.55324
212.625	241.54283
213.17	223.51092
213.715	175.34881
214.259	281.58198
214.804	263.58316
215.348	268.54624
215.892	212.45941
216.436	266.55178
216.98	301.58991
217.524	200.42729
218.068	286.64378
218.612	273.61691
219.155	264.55473
219.698	256.54669
220.242	252.56796
220.785	222.46915
221.328	209.47384
221.871	239.55065
222.414	260.58479
222.956	159.34963
223.499	206.42006
224.041	192.40949
224.583	327.62602
225.126	180.3617
225.668	210.46284
226.21	177.40684
226.751	158.31456
227.293	248.51054
227.835	196.43488
228.376	268.55643
228.918	232.53228
229.459	161.36636
230	180.39073
230.541	171.36066
231.082	234.51141
231.622	231.48079
232.163	206.45174
232.704	205.46043
233.244	200.4504
233.784	259.57262
234.324	162.32162
234.864	209.42783
235.404	226.4864
235.944	252.53722
236.484	218.49394
237.023	199.42525
237.563	258.53112
238.102	221.47083
238.641	283.63925
239.18	212.44468
239.719	224.50795
240.258	249.5007
240.797	251.5359
241.335	219.48459
241.874	232.39537
242.412	215.46481
242.95	201.43138
243.488	205.42173
244.026	191.39665
244.564	221.4063
245.102	227.45499
245.64	243.52624
246.177	205.41337
246.715	261.55991
247.252	206.42675
247.789	294.48647
248.326	172.37209
248.863	230.4481
249.4	244.49415
249.936	224.40943
250.473	216.45007
251.009	232.472
251.546	204.40198
252.082	282.54287
252.618	197.3923
253.154	188.40566
253.69	179.36277
254.226	203.43417
254.761	186.37497
255.297	202.39411
255.832	190.40329
256.367	281.58251
256.903	215.41937
257.438	236.49371
257.972	253.49701
258.507	196.39913
259.042	211.40726
259.576	168.32185
260.111	260.53114
260.645	278.52693
261.179	253.5193
261.713	251.49029
262.247	268.54351
262.781	198.36704
263.315	230.49862
263.849	222.49318
264.382	260.52656
264.915	234.48237
265.449	181.39064
265.982	219.4422
266.515	278.59341
267.048	191.35768
267.58	266.5101
268.113	190.36294
268.646	218.47624
269.178	203.39954
269.71	260.49594
270.243	238.47869
270.775	273.60886
271.307	293.61688
271.838	289.60177
272.37	244.52807
272.902	246.4909
273.433	239.45644
273.965	257.548
274.496	263.57514
275.027	264.57257
275.558	286.60201
276.089	168.36484
276.62	242.54408
277.15	266.57543
277.681	222.42345
278.211	256.55072
278.741	240.45757
279.272	185.37166
279.802	279.60678
280.332	232.47674
280.861	286.59539
281.391	260.50871
281.921	253.53244
282.45	268.58422
282.98	273.62069
283.509	287.55316
284.038	242.47776
284.567	255.51821
285.096	266.55647
285.625	262.51117
286.153	256.51656
286.682	272.53245
287.21	243.50554
287.739	225.461
288.267	220.46167
288.795	295.67097
289.323	222.44651
289.851	302.60153
290.378	287.54678
290.906	205.42838
291.433	282.60195
291.961	241.46562
292.488	237.5093
293.015	297.58868
293.542	238.51707
294.069	244.51293
294.596	313.65725
295.122	259.52609
295.649	270.50351
296.175	326.66566
296.702	297.61016
297.228	331.67664
297.754	238.45309
298.28	234.4496
298.806	301.60554
299.332	276.50755
299.857	311.58098
300.383	270.58184
300.908	231.47179
301.433	263.53593
301.958	275.53437
302.483	277.57781
303.008	306.63305
303.533	298.65429
304.058	281.55488
304.582	245.48243
305.107	245.5376
305.631	303.57221
306.155	253.4881
306.679	264.50871
307.203	302.57298
307.727	334.64577
308.251	270.55432
308.775	235.45925
309.298	260.50992
309.822	345.70941
310.345	332.63575
310.868	266.5207
311.391	351.6993
311.914	233.48193
312.437	341.62442
312.96	339.63644
313.482	292.55752
314.005	295.60031
314.527	293.62475
315.049	347.70516
315.571	294.51296
316.093	340.66808
316.615	346.65519
317.137	374.62472
317.659	361.69145
318.18	359.68064
318.702	368.66009
319.223	363.56272
319.744	352.60284
320.265	354.65821
320.786	338.64254
321.307	375.7141
321.828	413.69577
322.348	328.58833
322.869	329.58542
323.389	372.42371
323.909	374.63984
324.43	451.80881
324.95	349.5908
325.47	364.663
325.989	373.64242
326.509	342.5409
327.029	439.6926
327.548	349.5601
328.067	381.6569
328.587	442.78797
329.106	371.5961
329.625	464.88682
330.144	371.60017
330.662	449.70757
331.181	486.7688
331.7	467.73979
332.218	430.61821
332.736	462.72533
333.255	393.61855
333.773	438.69282
334.291	466.78916
334.808	450.64538
335.326	494.70944
335.844	487.71012
336.361	450.73936
336.879	466.67926
337.396	455.69304
337.913	461.65351
338.43	529.70704
338.947	443.65389
339.464	481.59689
339.981	498.70312
340.497	461.70177
341.014	459.67587
341.53	516.6597
342.046	443.65029
342.562	559.81676
343.078	502.67603
343.594	479.66103
344.11	588.77223
344.626	517.74693
345.141	523.64499
345.657	591.71407
346.172	570.7445
346.687	524.63774
347.202	584.66377
347.717	630.77372
348.232	606.80237
348.747	616.70239
349.261	587.59629
349.776	553.65695
350.29	554.6884
350.805	677.83431
351.319	623.69672
351.833	555.5886
352.347	605.67339
352.861	591.64256
353.374	656.69477
353.888	668.74983
354.401	633.65017
354.915	571.55263
355.428	627.71579
355.941	629.63119
356.454	667.63712
356.967	634.65791
357.48	673.65018
357.993	668.72178
358.505	633.66789
359.018	646.67755
359.53	804.74729
360.042	755.62021
360.554	757.72936
361.066	738.7057
361.578	692.54327
362.09	750.67936
362.602	722.55034
363.113	783.63713
363.625	742.56692
364.136	745.54241
364.647	600.48017
365.158	782.60155
365.669	813.65135
366.18	789.61046
366.691	782.51573
367.201	739.58318
367.712	794.5256
368.222	784.51888
368.733	817.43757
369.243	750.42702
369.753	898.52788
370.263	826.53565
370.773	819.56365
371.282	705.44348
371.792	712.34667
372.301	899.45737
372.811	765.51946
373.32	814.22955
373.829	785.31307
374.338	938.22576
374.847	941.22256
375.356	1004.21698
375.865	964.02398
376.373	1064.03773
376.882	1162.17488
377.39	1116.06193
377.898	1017.99691
378.407	1108.82175
378.915	1206.7101
379.423	1211.73365
379.93	1341.57974
380.438	1328.54895
380.946	1432.4081
381.453	1394.38218
381.96	1439.28834
382.468	1397.25299
382.975	1794.05337
383.482	1689.10833
383.989	1607.13857
384.495	1802.11806
385.002	1698.33737
385.509	1852.33483
386.015	2035.88073
386.521	2087.9043
387.028	2240.39456
387.534	2258.8381
388.04	2326.78319
388.546	2072.36693
389.051	2339.80195
389.557	2592.34303
390.063	3187.78241
390.568	3035.44579
391.073	2928.90956
391.578	3010.91529
392.084	3149.0732
392.589	2672.86922
393.093	2779.46496
393.598	3421.48017
394.103	3871.22838
394.607	4324.38619
395.112	4738.59057
395.616	4903.28093
396.12	4967.11952
396.624	5148.63615
397.128	5954.58796
397.632	7132.69526
398.136	7300.25373
398.639	6301.49272
399.143	6437.79494
399.646	7790.27186
400.15	8338.4839
400.653	7907.24826
401.156	8211.98034
401.659	4035.26344
402.162	903.45313
402.664	0
403.167	0
403.67	0
404.172	0
404.674	0
405.176	0
405.678	0
406.18	0
406.682	0
407.184	0
407.686	0
408.187	0
408.688	0
409.19	0
409.691	0
410.192	0
410.693	0
411.194	435.30976
411.694	4082.94878
412.195	8864.71461
412.696	12089.80453
413.196	12760.96929
413.696	12863.67595
414.196	13703.56671
414.696	17261.84252
415.196	21764.24417
415.696	28887.23434
416.196	23701.3831
416.695	15979.16519
417.195	11808.54251
417.694	11416.55784
418.194	11133.40505
418.693	9949.13603
419.192	9560.53914
419.691	9457.42736
420.19	9482.6264
420.688	9489.57375
421.187	9214.39035
421.685	8914.06449
422.184	8334.20933
422.682	7140.29811
423.18	5483.38118
423.678	4840.53848
424.176	4461.13874
424.674	4186.68703
425.172	4278.67245
425.669	4105.93679
426.167	3964.71661
426.664	3343.97272
427.161	2990.51987
427.659	2795.5635
428.156	2542.50989
428.652	2290.9705
429.149	2221.95524
429.646	2268.93367
430.143	2245.8658
430.639	1992.98097
431.135	1770.16715
431.632	1744.18435
432.128	1539.40714
432.624	1456.55857
433.12	1178.58494
433.616	1342.51803
434.111	1121.7105
434.607	1101.7999
435.103	1212.72068
435.598	1260.72543
436.093	1166.9797
436.588	1158.00657
437.083	1044.10085
437.578	933.18584
438.073	790.27048
438.568	915.36028
439.062	841.20514
439.557	867.3762
440.051	713.3089
440.546	684.31744
441.04	638.37687
441.534	659.47248
442.028	724.46307
442.522	607.41591
443.015	596.33924
443.509	693.51292
444.002	559.44516
444.496	570.35889
444.989	561.46668
445.482	568.49032
445.975	514.36646
446.468	576.36667
446.961	524.3487
447.454	538.41263
447.947	445.38542
448.439	502.46951
448.931	430.35019
449.424	450.47449
449.916	530.50462
450.408	342.30374
450.9	340.34938
451.392	388.42725
451.884	371.36019
452.375	276.31117
452.867	433.41508
453.358	347.33366
453.849	342.30149
454.341	344.33899
454.832	283.26662
455.323	311.35806
455.814	310.33356
456.304	324.35114
456.795	330.35539
457.285	418.43216
457.776	366.40897
458.266	316.37109
458.756	267.33418
459.247	234.28721
459.737	246.30324
460.226	245.28054
460.716	196.25385
461.206	250.32581
461.695	244.34521
462.185	288.36873
462.674	268.33862
463.163	246.29807
463.653	248.27916
464.142	151.21368
464.63	235.33786
465.119	216.28685
465.608	216.2882
466.096	189.24169
466.585	231.31966
467.073	208.30663
467.561	162.24468
468.05	207.29722
468.538	229.35432
469.026	211.31822
469.513	170.21972
470.001	151.21721
470.489	139.21278
470.976	207.30581
471.463	194.3208
471.951	171.2896
472.438	157.24476
472.925	68.10821
473.412	141.24074
473.899	80.12804
474.385	160.2734
474.872	93.15118
475.359	77.13409
475.845	126.17813
476.331	135.20628
476.817	112.19798
477.303	88.14786
477.789	73.12941
478.275	56.10318
478.761	83.14867
479.247	109.17949
479.732	12.02268
480.218	41.08199
480.703	57.10812
481.188	67.1072
481.673	87.14998
482.158	-7.01123
482.643	48.09605
483.128	-24.04262
483.612	45.08169
484.097	60.11572
484.581	69.12557
485.066	47.08989
485.55	30.05132
486.034	14.02381
486.518	-28.05263
487.002	21.04094
487.486	18.0353
487.969	-26.05162
488.453	41.08416
488.936	45.0811
489.42	7.01259
489.903	14.02915
490.386	-431.64786
490.869	32.05692
491.352	35.07119
491.835	8.0136
492.318	25.04621
492.8	-2.00341
493.283	-12.02554
493.765	-29.06001
494.247	37.07241
494.73	-13.02408
495.212	10.0205
495.694	-85.16942
496.175	-89.17946
496.657	59.11705
497.139	30.0436
497.62	-63.12703
498.102	-52.11057
498.583	-20.04304
499.064	-64.12196
499.545	-19.03701
500.026	-37.0709
500.507	-39.07795
500.988	-21.04501
501.469	-68.14767
501.949	-28.06008
502.43	-125.25994
502.91	-33.05835
503.39	-48.10526
503.87	-66.13471
504.35	-69.14336
504.83	-80.15289
505.31	-62.13114
505.79	-83.17391
506.269	-58.11902
506.749	-87.17422
507.228	-96.19825
507.707	-38.07322
508.187	-17.03556
508.666	-127.27715
509.145	-95.19588
509.623	-60.1238
510.102	-55.11748
510.581	10.02111
511.059	-69.15243
511.538	-73.16833
512.016	-65.13764
512.494	-29.06211
512.972	-49.1033
513.45	-132.27198
513.928	-91.19632
514.406	-140.30053
514.884	-66.15076
515.361	-77.16412
515.839	-85.17234
516.316	-30.06365
516.793	-3.00671
517.27	-13.02793
517.747	-65.14863
518.224	-54.11142
518.701	-17.0334
519.178	-86.19018
519.654	-54.11517
520.131	-48.10579
520.607	-11.02426
521.083	-73.1493
521.56	-99.21092
522.036	-58.11407
522.512	-31.06848
522.987	-86.18278
523.463	-66.1407
523.939	-76.16835
524.414	-52.10801
524.89	-87.18664
525.365	-90.18411
525.84	-108.23104
526.315	-89.19357
526.79	-17.03414
527.265	-106.21969
527.74	-118.26182
528.215	-77.16405
528.689	-82.16401
529.164	-64.12564
529.638	-40.0927
530.112	-124.2663
530.587	-104.20098
531.061	-120.26349
531.534	-29.06329
532.008	-47.10153
532.482	-54.11217
532.956	-141.32889
533.429	-52.11389
533.903	-29.0578
534.376	-51.1018
534.849	-47.09848
535.322	-39.08305
535.795	-69.15332
536.268	-63.13719
536.741	-77.16868
537.213	-72.15163
537.686	-66.14553
538.158	-55.11095
538.631	-34.07494
539.103	-87.1772
539.575	-38.07174
540.047	-20.03958
540.519	-13.02803
540.991	-1.00221
541.463	3.00652
541.934	2.0041
542.406	-23.0493
542.877	0
543.348	40.0862
543.82	66.14382
544.291	71.14699
544.762	103.21342
545.233	87.19171
545.703	51.09938
546.174	127.25691
546.645	79.1645
547.115	125.26144
547.585	135.26883
548.056	72.15109
548.526	174.34771
548.996	240.48717
549.466	256.52795
549.935	245.48266
550.405	308.54989
550.875	289.56452
551.344	288.57258
551.814	402.74078
552.283	439.75573
552.752	394.73041
553.221	433.73345
553.69	549.92906
554.159	585.09408
554.628	605.00643
555.096	582.13333
555.565	657.08417
556.033	734.28183
556.502	710.2927
556.97	840.33322
557.438	848.46511
557.906	906.55565
558.374	932.52556
558.842	1024.72152
559.31	1095.66912
559.777	1130.87162
560.245	1303.00736
560.712	1403.05857
561.18	1395.91137
561.647	1514.03923
562.114	1538.10855
562.581	1715.5149
563.048	1886.38202
563.514	1972.64371
563.981	2066.43113
564.448	2198.38462
564.914	2339.58363
565.381	2433.50324
565.847	2622.6473
566.313	2729.61688
566.779	2921.43757
567.245	3019.60761
567.711	3206.69212
568.176	3342.28338
568.642	3509.86932
569.108	3627.70748
569.573	3865.37633
570.038	4032.64651
570.504	4209.8566
570.969	4415.47007
571.434	4598.50786
571.899	4589.01266
572.363	4796.63075
572.828	5083.52357
573.293	5267.42064
573.757	5372.37452
574.222	5579.09787
574.686	5669.08004
575.15	5760.38292
575.614	5784.17914
576.078	6047.2159
576.542	6061.07051
577.006	6074.00775
577.469	6270.50827
577.933	5987.97546
578.396	6302.25425
578.86	6141.23763
579.323	6140.27875
579.786	6164.79822
580.249	5955.08636
580.712	5987.50315
581.175	5866.58846
581.637	5766.25965
582.1	5700.03041
582.563	5591.96816
583.025	5470.65457
583.487	5288.76554
583.95	5197.09168
584.412	5021.10602
584.874	4934.96046
585.336	4871.84411
585.797	4624.45989
586.259	4600.00368
586.721	4380.06217
587.182	4353.11243
587.643	4233.97705
588.105	3979.3504
588.566	3965.71999
589.027	3740.53816
589.488	3645.29485
589.949	3582.67468
590.41	3403.60075
590.87	3374.4278
591.331	3242.18506
591.791	3160.51354
592.252	3029.48299
592.712	2987.78285
593.172	2830.46215
593.632	2830.36146
594.092	2742.43459
594.552	2694.28022
595.011	2536.54772
595.471	2502.4544
595.931	2401.42705
596.39	2408.73313
596.849	2239.57996
597.308	2251.31409
597.768	2212.95554
598.227	2188.71783
598.685	2208.53989
599.144	2097.55533
599.603	2123.62252
600.062	1993.1137
600.52	1956.31059
600.978	2021.58265
601.437	1986.43863
601.895	1923.13298
602.353	1927.30066
602.811	1833.25109
603.269	1866.53584
603.727	1879.54158
604.184	1801.27126
604.642	1799.57642
605.099	1797.38139
605.557	1909.63138
606.014	1803.12226
606.471	1801.62544
606.928	1831.10172
607.385	1786.50325
607.842	1885.36368
608.299	1876.43878
608.755	1881.55419
609.212	1870.25054
609.668	1904.23589
610.125	1935.60725
610.581	1963.59472
611.037	1894.41689
611.493	1948.5668
611.949	1850.5557
612.405	1927.9676
612.861	1969.57727
613.316	1823.52327
613.772	1839.40311
614.227	1840.49495
614.683	1902.21408
615.138	1805.4489
615.593	1865.46378
616.048	1825.40818
616.503	1876.70767
616.958	1900.78313
617.412	1788.49982
617.867	1753.23661
618.321	1842.09836
618.776	1763.27563
619.23	1679.41528
619.684	1742.3458
620.138	1702.42255
620.592	1653.52866
621.046	1627.40725
621.5	1588.48284
621.954	1667.31394
622.407	1621.24623
622.861	1536.44904
623.314	1469.20233
623.768	1504.29636
624.221	1459.81002
624.674	1389.16719
625.127	1412.23831
625.58	1439.20713
626.033	1465.14271
626.485	1397.29441
626.938	1314.20428
627.39	1331.16123
627.843	1314.13404
628.295	1222.03581
628.747	1239.12907
629.199	1244.02303
629.651	1204.97944
630.103	1169.96362
630.555	1129.74772
631.006	1116.96644
631.458	1114.9782
631.909	1140.96304
632.361	1051.88095
632.812	1068.87869
633.263	1060.72823
633.714	1040.69643
634.165	1059.99347
634.616	988.85004
635.067	1026.7633
635.518	1047.94775
635.968	1047.59085
636.419	957.63779
636.869	926.77381
637.319	862.62085
637.769	849.54283
638.219	937.80742
638.669	830.63327
639.119	821.66665
639.569	831.66015
640.019	847.61249
640.468	814.50195
640.918	854.7034
641.367	819.51911
641.816	821.51829
642.265	851.62326
642.714	801.54768
643.163	787.51623
643.612	755.53113
644.061	715.27583
644.51	725.40262
644.958	737.36741
645.406	738.50377
645.855	743.5575
646.303	719.44078
646.751	699.36127
647.199	731.41559
647.647	679.34734
648.095	717.40499
648.543	793.35278
648.99	654.36078
649.438	701.42408
649.885	699.50126
650.333	720.17758
650.78	678.42329
651.227	712.49606
651.674	710.39027
652.121	645.37744
652.568	700.4734
653.015	736.6123
653.461	623.30453
653.908	694.40183
654.354	689.43274
654.801	641.31801
655.247	700.32672
655.693	661.52158
656.139	666.39869
656.585	689.44165
657.031	591.22161
657.477	650.22339
657.922	671.34756
658.368	717.54194
658.813	728.46724
659.259	690.44597
659.704	684.39045
660.149	689.4003
660.594	658.37519
661.039	659.31734
661.484	693.45194
661.929	684.40181
662.373	651.45557
662.818	692.50883
663.262	647.37813
663.707	675.513
664.151	671.44848
664.595	588.27264
665.039	706.54523
665.483	628.43032
665.927	678.40765
666.371	597.23293
666.814	673.42117
667.258	593.25641
667.701	715.34366
668.145	642.42865
668.588	657.43457
669.031	619.29786
669.474	631.35798
669.917	655.28452
670.36	642.42334
670.803	660.41833
671.245	639.19292
671.688	655.42598
672.13	580.17017
672.573	625.43063
673.015	645.38338
673.457	621.20626
673.899	669.44293
674.341	626.35614
674.783	617.32838
675.225	618.3678
675.666	543.18937
676.108	570.11993
676.549	649.37462
676.991	617.21843
677.432	607.07714
677.873	615.27981
678.314	590.27589
678.755	621.36045
679.196	604.24545
679.637	608.34453
680.078	644.35065
680.518	653.36201
680.959	567.23731
681.399	613.37391
681.839	619.35948
682.28	584.30911
682.72	592.2245
683.16	602.35835
683.6	600.23775
684.039	603.12837
684.479	563.2612
684.919	555.164
685.358	616.41707
685.798	606.44382
686.237	594.30533
686.676	659.36846
687.115	589.25607
687.554	587.26587
687.993	590.18111
688.432	608.25371
688.871	547.13355
689.309	570.24098
689.748	604.13665
690.186	582.26661
690.625	544.16775
691.063	533.17479
691.501	576.30014
691.939	560.27837
692.377	539.20786
692.815	541.18647
693.253	564.24088
693.69	545.09465
694.128	501.12258
694.565	544.19081
695.003	564.31177
695.44	473.03406
695.877	485.05007
696.314	554.08741
696.751	575.19539
697.188	526.1106
697.625	573.20075
698.061	496.10247
698.498	567.25558
698.934	518.15193
699.371	518.12331
699.807	501.09723
700.243	530.17378
700.679	540.12176
701.115	575.23625
701.551	517.12424
701.987	551.13422
702.422	502.10289
702.858	549.19899
703.294	498.04449
703.729	496.12662
704.164	493.101
704.599	514.05484
705.035	533.09316
705.47	488.1017
705.904	542.15745
706.339	585.23943
706.774	504.09151
707.209	494.05432
707.643	511.13469
708.078	519.16679
708.512	448.04858
708.946	481.07327
709.38	465.0281
709.814	478.01614
710.248	460.04809
710.682	444.99076
711.116	428.9594
711.549	465.12253
711.983	443.96011
712.416	464.02439
712.85	457.06614
713.283	424.94575
713.716	452.06497
714.149	464.03336
714.582	446.93835
715.015	502.16739
715.448	406.9697
715.881	456.93363
716.313	405.89759
716.746	429.94998
717.178	363.83261
717.61	366.8862
718.043	410.96726
718.475	404.92718
718.907	425.01461
719.339	365.78771
719.77	321.73128
720.202	381.91679
720.634	367.85055
721.065	365.82511
721.497	349.81876
721.928	318.75115
722.359	291.67792
722.79	342.78367
723.221	320.77573
723.652	381.93688
724.083	280.61245
724.514	294.65366
724.945	321.72566
725.375	302.67562
725.806	297.71742
726.236	308.76175
726.666	328.74616
727.096	304.72031
727.526	304.74497
727.956	301.66018
728.386	288.68688
728.816	274.67246
729.246	263.62113
729.675	238.57199
730.105	261.62548
730.534	297.67169
730.964	300.73326
731.393	322.7706
731.822	263.65346
732.251	284.69829
732.68	244.56228
733.109	266.63709
733.537	222.52543
733.966	251.60747
734.395	238.5375
734.823	260.57183
735.251	200.47428
735.68	263.64129
736.108	239.59081
736.536	211.48944
736.964	223.50743
737.392	220.53975
737.82	267.62299
738.247	241.5641
738.675	238.55654
739.102	173.42704
739.53	202.5053
739.957	160.40746
740.384	233.56285
740.811	224.55627
741.238	149.3613
741.665	150.34581
742.092	200.47062
742.519	155.38022
742.945	172.40867
743.372	185.45179
743.798	187.47377
744.225	193.45229
744.651	179.44348
745.077	151.3737
745.503	167.40358
745.929	197.46546
746.355	190.46633
746.781	166.40728
747.207	99.23292
747.632	131.3179
748.058	180.44342
748.483	163.37241
748.908	139.3435
749.334	162.39423
749.759	162.37868
750.184	132.31328
750.609	162.39452
751.033	193.45017
751.458	166.3697
751.883	155.38107
752.307	79.18731
752.732	70.17581
753.156	141.34614
753.58	168.39533
754.005	136.3434
754.429	100.23578
754.853	140.34464
755.277	115.27225
755.7	130.3212
756.124	92.22881
756.548	138.32549
756.971	181.43625
757.394	152.38804
757.818	78.20144
758.241	113.28609
758.664	115.28971
759.087	74.16665
759.51	133.3294
759.933	63.15288
760.356	140.3564
760.778	111.2727
761.201	108.26292
761.623	135.32625
762.046	165.38804
762.468	144.34412
762.89	113.27874
763.312	163.39406
763.734	77.18651
764.156	107.26413
764.578	142.32528
765	107.26112
765.421	52.13304
765.843	128.33365
766.264	126.30364
766.686	127.31764
767.107	75.18282
767.528	72.18245
767.949	89.22669
768.37	74.18264
768.791	96.23283
769.212	58.14661
769.632	53.12479
770.053	69.18235
770.473	94.2291
770.894	132.32877
771.314	121.28855
771.734	91.21285
772.154	122.31179
772.575	109.25285
772.994	64.14673
773.414	108.25938
773.834	110.27438
774.254	62.15285
774.673	93.22696
775.093	90.22294
775.512	73.1806
775.931	58.14797
776.351	54.13509
776.77	79.19372
777.189	68.16282
777.607	66.16927
778.026	76.18992
778.445	17.04309
778.864	75.19292
779.282	112.26878
779.701	117.29358
780.119	39.09941
780.537	51.12816
780.955	107.27148
781.373	67.16649
781.791	21.04796
782.209	98.22611
782.627	68.17955
783.045	85.19608
783.462	72.1844
783.88	41.10682
784.297	107.2682
784.715	28.07256
785.132	65.15815
785.549	13.03295
785.966	61.15411
786.383	51.12631
786.8	78.18183
787.217	19.04568
787.633	25.06305
788.05	94.22344
788.466	83.19626
788.883	46.11802
789.299	43.10447
789.715	56.13694
790.131	27.06785
790.547	47.11819
790.963	88.21831
791.379	70.17732
791.795	49.11286
792.21	64.15043
792.626	73.17375
793.041	83.20489
793.457	49.12189
793.872	28.06661
794.287	32.07712
794.702	88.21671
795.117	38.09513
795.532	51.12843
795.947	61.14759
796.362	153.36094
796.776	111.25912
797.191	67.16448
797.605	4.00953
798.02	40.09811
798.434	72.16102
798.848	59.14586
799.262	54.13455
799.676	92.22414
800.09	33.08191
800.504	58.14141
800.918	25.05861
801.331	115.29951
801.745	61.14083
802.158	69.17277
802.572	122.29378
802.985	102.24571
803.398	19.04587
803.811	91.23342
804.224	37.09281
804.637	46.11031
805.05	79.18333
805.462	94.23038
805.875	52.13522
806.288	4.00978
806.7	34.0861
807.112	66.15355
807.525	77.19008
807.937	20.04994
808.349	72.18051
808.761	93.22814
809.173	74.17948
809.584	84.2074
809.996	21.05194
810.408	40.10377
810.819	90.21121
811.231	22.05731
811.642	0
812.053	79.18775
812.464	116.27371
812.875	122.30904
813.286	104.26616
813.697	133.30791
814.108	76.18571
814.519	86.19153
814.929	85.21635
815.34	58.14115
815.75	53.13509
816.16	103.25538
816.571	59.15356
816.981	63.1492
817.391	74.17874
817.801	44.10983
818.211	58.13877
818.62	62.14958
819.03	74.18136
819.44	85.22145
819.849	80.20128
820.259	68.17415
820.668	26.06448
821.077	60.14928
821.486	83.1996
821.895	124.30356
822.304	59.15655
822.713	80.18891
823.122	99.24582
823.531	72.17075
823.939	26.06389
824.348	110.26559
824.756	48.12073
825.164	87.21831
825.573	69.17314
825.981	116.28535
826.389	87.21791
826.797	81.20245
827.205	0
827.612	65.16057
828.02	14.03324
828.428	75.19077
828.835	52.13717
829.243	85.20208
829.65	53.13213
830.057	66.16032
830.464	36.08826
830.871	103.24516
831.278	81.19538
831.685	61.1365
832.092	83.2027
832.499	60.13163
832.905	67.16963
833.312	112.25347
833.718	84.20869
834.124	91.20716
834.531	67.16891
834.937	43.1108
835.343	77.18553
835.749	93.21633
836.155	68.17792
836.561	71.17449
836.966	80.19519
837.372	67.17048
837.777	39.09762
838.183	114.25126
838.588	56.13928
838.993	70.17035
839.399	70.17099
839.804	28.0687
840.209	54.13767
840.613	46.10283
841.018	58.14703
841.423	55.14128
841.828	42.10662
842.232	128.31347
842.637	46.10896
843.041	76.1943
843.445	78.19512
843.849	60.14863
844.253	92.21759
844.657	38.09609
845.061	49.11159
845.465	69.1665
845.869	81.18767
846.272	21.05153
846.676	59.14286
847.079	59.15007
847.483	89.22099
847.886	120.28896
848.289	25.06709
848.692	54.13694
849.095	92.21978
849.498	121.30351
849.901	69.15816
850.304	62.14822
850.707	56.14292
851.109	74.18686
851.512	62.15235
851.914	25.06339
852.316	65.16428
852.718	21.05456
853.121	78.19053
853.523	48.11251
853.925	22.05774
854.326	21.05287
854.728	68.17458
855.13	41.10605
855.531	56.13393
855.933	32.07726
856.334	61.15202
856.736	30.06764
857.137	79.18304
857.538	25.06323
857.939	-11.02752
858.34	62.15105
858.741	77.20061
859.142	66.15839
859.542	70.18428
859.943	53.13184
860.343	38.09444
860.744	69.16807
861.144	44.10764
861.544	50.12036
861.945	28.07174
862.345	101.2451
862.745	54.13431
863.145	118.27897
863.544	37.09385
863.944	84.19751
864.344	91.22472
864.743	86.21233
865.143	66.16927
865.542	51.11849
865.941	63.1558
866.34	111.26329
866.74	70.18744
867.139	25.06024
867.537	86.21801
867.936	70.16812
868.335	57.14503
868.734	49.12538
869.132	70.16228
869.531	101.24234
869.929	44.10059
870.327	20.04829
870.726	104.25715
871.124	105.24318
871.522	22.05638
871.92	69.16983
872.318	39.09567
872.715	87.21421
873.113	69.16776
873.511	56.13953
873.908	-19.0486
874.306	68.16876
874.703	98.24338
875.1	75.19124
875.497	74.17684
875.894	67.16381
876.291	51.12529
876.688	73.18771
877.085	65.15572
877.482	48.12034
877.878	53.12765
878.275	23.05877
878.671	95.20995
879.068	96.23003
879.464	38.09216
879.86	25.05948
880.256	78.19173
880.652	37.09441
881.048	64.15836
881.444	69.16385
881.84	58.14734
882.236	69.17308
882.631	115.27918
883.027	72.17384
883.422	72.18356
883.817	-37.09451
884.213	59.15129
884.608	75.18323
885.003	31.07509
885.398	46.11532
885.793	36.09068
886.188	26.06497
886.582	122.30926
886.977	92.21683
887.371	70.17657
887.766	25.06251
888.16	102.25239
888.554	68.16777
888.949	57.14308
889.343	87.21128
889.737	27.07226
890.131	51.12802
890.525	47.12035
890.918	86.21521
891.312	96.22793
891.706	88.22954
892.099	96.24249
892.492	139.29459
892.886	84.20442
893.279	53.13505
893.672	72.18271
894.065	71.17726
894.458	76.1904
894.851	75.1831
895.244	50.12778
895.637	104.24816
896.029	54.13205
896.422	47.115
896.814	15.03756
897.206	51.12153
897.599	117.28605
897.991	38.09216
898.383	27.06414
898.775	76.17081
899.167	43.1005
899.559	55.1392
899.951	92.21531
900.342	88.22244
900.734	47.11675
901.125	92.23981
901.517	39.09599
901.908	110.26096
902.299	51.12474
902.69	66.15537
903.082	88.21175
903.473	10.02414
903.863	57.14534
904.254	25.05836
904.645	77.19071
905.036	37.08986
905.426	89.20236
905.817	59.14463
906.207	41.09793
906.597	21.04943
906.987	39.10133
907.378	59.14906
907.768	44.1165
908.158	54.13166
908.547	29.07522
908.937	63.16138
909.327	80.1933
909.717	76.19218
910.106	62.14868
910.495	67.16685
910.885	105.26347
911.274	90.22343
911.663	72.18213
912.052	105.25662
912.441	51.12972
912.83	68.15565
913.219	71.18523
913.608	93.22611
913.997	28.0705
914.385	72.17141
914.774	78.18904
915.162	76.1803
915.55	89.21387
915.939	18.04571
916.327	97.24015
916.715	49.12494
917.103	94.22961
917.491	97.23804
917.878	47.11568
918.266	78.20137
918.654	46.11764
919.041	37.09683
919.429	50.11807
919.816	51.12931
920.203	45.10929
920.591	56.13877
920.978	61.14914
921.365	35.09209
921.752	41.09796
922.139	54.11722
922.525	33.07954
922.912	17.04173
923.299	66.16361
923.685	43.11234
924.072	79.18122
924.458	73.18014
924.844	32.07947
925.231	53.12333
925.617	30.07659
926.003	87.22097
926.389	82.20572
926.774	63.15934
927.16	73.1806
927.546	66.16802
927.931	66.16427
928.317	69.15841
928.702	53.12537
929.088	20.04759
929.473	65.16498
929.858	10.02436
930.243	15.03625
930.628	77.18644
931.013	36.08947
931.398	73.16719
931.783	75.19667
932.167	70.17054
932.552	85.21167
932.937	40.09949
933.321	16.0404
933.705	51.12857
934.09	80.20114
934.474	74.17502
934.858	75.19373
935.242	28.0652
935.626	48.12293
936.009	60.15934
936.393	52.13229
936.777	32.08221
937.16	46.11979
937.544	61.14346
937.927	40.10169
938.311	90.21812
938.694	75.19754
939.077	23.05535
939.46	92.22422
939.843	78.1618
940.226	39.10025
940.609	76.17361
940.991	73.18509
941.374	55.13432
941.757	93.22772
942.139	37.08334
942.522	96.22494
942.904	62.14873
943.286	78.19724
943.668	64.1654
944.05	59.14511
944.432	55.13562
944.814	92.22489
945.196	35.08554
945.578	-1.0024
945.959	82.19101
946.341	99.24088
946.722	19.04488
947.104	34.08153
947.485	15.03515
947.866	43.10848
948.247	36.09107
948.628	72.17495
949.009	58.14833
949.39	86.21272
949.771	73.16907
950.152	69.16876
950.532	-11.02736
950.913	15.03643
951.293	68.18316
951.674	57.1377
952.054	47.11653
952.434	24.05987
952.814	51.12134
953.194	84.21859
953.574	77.18875
953.954	45.10699
954.334	53.13203
954.714	34.08311
955.093	111.26987
955.473	62.15471
955.853	44.11403
956.232	64.17503
956.611	98.23294
956.99	55.13811
957.37	77.1953
957.749	80.18979
958.128	32.08089
958.506	50.12971
958.885	23.05834
959.264	51.12497
959.643	84.18987
960.021	46.11408
960.4	53.12007
960.778	65.15969
961.156	53.1328
961.535	80.18539
961.913	97.22492
962.291	52.13336
962.669	50.12666
963.047	65.16545
963.424	66.16796
963.802	53.13026
964.18	94.236
964.557	73.16739
964.935	30.07136
965.312	68.17653
965.69	145.35688
966.067	77.18658
966.444	76.1864
966.821	93.23797
967.198	85.20488
967.575	65.15939
967.952	77.18052
968.329	49.11927
968.705	71.15159
969.082	93.23671
969.458	21.05066
969.835	58.14099
970.211	80.20424
970.587	72.17855
970.963	93.2368
971.339	53.13832
971.715	85.21091
972.091	55.13532
972.467	53.13213
972.843	61.15108
973.219	113.26813
973.594	40.1048
973.97	100.23578
974.345	49.1173
974.721	82.19738
975.096	69.16638
975.471	113.26482
975.846	56.13439
976.221	51.12949
976.596	20.04822
976.971	123.2996
977.346	78.18061
977.72	34.08686
978.095	13.03381
978.469	70.16645
978.844	86.21483
979.218	45.10797
979.593	103.24431
979.967	84.20335
980.341	45.10373
980.715	47.11849
981.089	77.19182
981.463	68.15558
981.837	41.10035
982.21	94.21689
982.584	60.14465
982.957	62.15448
983.331	57.13458
983.704	47.11555
984.078	33.08158
984.451	107.26452
984.824	46.11211
985.197	47.11423
985.57	93.23143
985.943	86.21101
986.316	73.17861
986.688	43.10384
987.061	67.15653
987.434	80.20739
987.806	71.17152
988.179	64.1506
988.551	101.25389
988.923	41.10114
989.295	96.23789
989.667	54.1289
990.039	45.11129
990.411	48.11053
990.783	81.18536
991.155	29.06995
991.527	123.29882
991.898	17.04261
992.27	13.03237
992.641	79.19716
993.012	121.28079
993.384	52.12398
993.755	48.12241
994.126	41.09879
994.497	34.0837
994.868	64.14661
995.239	73.17615
995.61	54.13577
995.98	23.05615
996.351	26.06467
996.722	7.01637
997.092	23.05474
997.462	27.06335
997.833	108.25315
998.203	94.22601
998.573	60.14912
998.943	68.15889
999.313	49.11744
999.683	37.08901
1000.053	100.22778
1000.423	93.22416
1000.792	70.18078
1001.162	64.15709
1001.531	49.12083
1001.901	69.17139
1002.27	91.2017
1002.639	66.16814
1003.009	28.06686
1003.378	45.11515
1003.747	59.13914
1004.116	7.01689
1004.485	79.18775
1004.853	69.1742
1005.222	82.20558
1005.591	90.21203
1005.959	36.08134
1006.328	59.13252
1006.696	33.07984
1007.064	89.22228
1007.433	71.17675
1007.801	68.16635
1008.169	113.28212
1008.537	87.19115
1008.905	21.0492
1009.273	68.1674
1009.64	10.02404
1010.008	68.16151
1010.375	113.27113
1010.743	96.21965
1011.11	32.07598
1011.478	84.20656
1011.845	35.08254
1012.212	71.15999
1012.579	79.19286
1012.946	70.16594
1013.313	93.21948
1013.68	67.15005
1014.047	32.0765
1014.414	35.08289
1014.78	33.08224
1015.147	57.13765
1015.513	42.10133
1015.88	111.28073
1016.246	57.1405
1016.612	71.16183
1016.978	55.13462
1017.344	34.08425
1017.71	90.21779
1018.076	73.17135
1018.442	86.21979
1018.808	48.11999
1019.174	70.17492
1019.539	112.2546
1019.905	36.08511
1020.27	40.09887
1020.636	71.16951
1021.001	64.15277
1021.366	32.07709
1021.731	91.23228
1022.096	39.09853
1022.461	110.25724
1022.826	43.10231
1023.191	80.20875
1023.556	74.17257
1023.92	95.23158
1024.285	98.23697
1024.649	64.15639
1025.014	57.14097
1025.378	47.11819
1025.742	58.14378
1026.107	53.11977
1026.471	92.21295
1026.835	41.10177
1027.199	33.07966
1027.562	54.12539
1027.926	100.24217
1028.29	91.22851
1028.654	70.16035
1029.017	67.16412
1029.381	30.07191
1029.744	64.16276
1030.107	86.20198
1030.471	86.20442
1030.834	98.2207
1031.197	95.22681
1031.56	21.04981
1031.923	81.20821
1032.286	73.17061
1032.648	70.16671
1033.011	31.0714
1033.374	91.21209
1033.736	44.11575
1034.099	71.1723
1034.461	41.10369
1034.823	34.08487
1035.185	64.16062
1035.548	79.19114
1035.91	93.22085
1036.272	104.23402
1036.634	116.28018
1036.995	57.13374
1037.357	43.1047
1037.719	49.11913
1038.08	95.22351
1038.442	73.17242
1038.803	67.16027
1039.165	47.11862
1039.526	77.18503
1039.887	63.1503
1040.248	32.07907
1040.609	92.22548
1040.97	67.16314
1041.331	58.14656
1041.692	57.1328
1042.053	91.2054
1042.413	121.2779
1042.774	70.16952
1043.134	100.23568
1043.495	100.24898
1043.855	79.19049
1044.215	96.23615
1044.576	68.16195
1044.936	92.20905
1045.296	104.25687
1045.656	77.18791
1046.016	71.17062
1046.375	52.12602
1046.735	59.13344
1047.095	51.11929
1047.454	78.16419
1047.814	108.25661
1048.173	75.17824
1048.533	50.11449
1048.892	16.03863
1049.251	120.29726
1049.61	42.10351
1049.969	89.20809
1050.328	77.1659
1050.687	42.10229
1051.046	66.16013
1051.405	53.1317
1051.763	59.13534
1052.122	66.16403
1052.48	78.19017
1052.839	59.13849
1053.197	39.09194
1053.555	97.21894
1053.914	66.16086
1054.272	89.21346
1054.63	45.11006
1054.988	40.09515
1055.345	72.15423
1055.703	91.21718
1056.061	53.13619
1056.419	22.05719
1056.776	45.10916
1057.134	68.15677
1057.491	32.08034
1057.848	54.13426
1058.206	69.16158
1058.563	38.08393
1058.92	99.22583
1059.277	95.23227
1059.634	89.20768
1059.991	127.29961
1060.348	15.03412
1060.704	21.05029
1061.061	88.2028
1061.418	23.05602
1061.774	52.12825
1062.131	41.1085
1062.487	50.11683
1062.843	84.20801
1063.199	59.14639
1063.555	52.12036
1063.911	79.19838
1064.267	82.16972
1064.623	26.06339
1064.979	95.22299
1065.335	126.29661
1065.691	58.13871
1066.046	78.1704
1066.402	59.13371
1066.757	58.14609
1067.112	57.13962
1067.468	-11.02626
1067.823	90.21459
1068.178	93.22297
1068.533	92.22112
1068.888	101.23883
1069.243	69.16958
1069.598	46.11178
1069.952	12.02721
1070.307	29.07201
1070.662	42.0998
1071.016	21.0473
1071.371	52.11816
1071.725	116.27382
1072.079	85.20294
1072.434	13.03178
1072.788	53.12605
1073.142	80.19556
1073.496	82.19319
1073.85	98.22494
1074.203	58.14041
1074.557	75.19847
1074.911	117.27548
1075.265	70.16196
1075.618	83.20127
1075.971	47.11178
1076.325	38.09671
1076.678	33.07567
1077.031	17.0387
1077.385	62.13614
1077.738	62.13951
1078.091	12.02748
1078.444	70.16177
1078.796	38.09337
1079.149	78.19287
1079.502	32.0758
1079.855	37.08644
1080.207	115.2797
1080.56	34.08805
1080.912	93.22441
1081.264	73.17489
1081.617	20.04898
1081.969	23.05825
1082.321	83.20127
1082.673	-13.03002
1083.025	53.12557
1083.377	98.20801
1083.728	54.12578
1084.08	32.08008
1084.432	40.09658
1084.783	80.1862
1085.135	50.12522
1085.486	59.13464
1085.838	51.12548
1086.189	54.13087
1086.54	75.1781
1086.891	48.12133
1087.242	41.09991
1087.593	72.17443
1087.944	33.07488
1088.295	89.20056
1088.646	45.10908
1088.996	55.13227
1089.347	75.18303
1089.698	33.07818
1090.048	82.21162
1090.398	88.20239
1090.749	78.18548
1091.099	11.02783
1091.449	40.09974
1091.799	64.1597
1092.149	28.0685
1092.499	74.17954
1092.849	37.09418
1093.199	102.25304
1093.548	40.09621
1093.898	37.09271
1094.248	54.13854
1094.597	51.13004
1094.947	88.23307
1095.296	67.16479
1095.645	73.18895
1095.994	72.17206
1096.343	85.21237
1096.692	42.11038
1097.041	46.12451
1097.39	48.12034
1097.739	56.14528
1098.088	66.1762
1098.437	28.07376
1098.785	51.13735
1099.134	95.25013
1099.482	63.17276
1099.83	65.17022
1100.179	25.06542
1100.527	62.16426
1100.875	39.10321
1101.223	49.13002
1101.571	62.17085
1101.919	22.0577
1102.267	60.16851
1102.615	0
1102.962	26.08356
1103.31	9.02891
1103.658	25.08039
