Data from N2 R10 sample 8_Subt2__3__13-20-25-753.txt Node

Date: Mon Sep 01 13:20:25 PDT 2025
User: uwsun
Spectrometer: HDX01956
Trigger mode: 0
Integration Time (sec): 5.000000E-1
Scans to average: 1
Nonlinearity correction enabled: true
Boxcar width: 0
Storing dark spectrum: false
XAxis mode: Wavelengths
Number of Pixels in Spectrum: 2068
>>>>>Begin Spectral Data<<<<<
194.03	241.65109
194.578	241.7391
195.127	243.73345
195.676	234.70943
196.225	331.82895
196.773	323.83936
197.321	424.05504
197.87	616.34807
198.418	572.24481
198.966	558.22612
199.513	524.09815
200.061	482.03845
200.609	560.26398
201.156	511.92635
201.704	501.06813
202.251	547.22531
202.798	545.19526
203.345	590.21872
203.892	571.20235
204.438	598.18389
204.985	550.07548
205.532	552.2246
206.078	635.28102
206.624	550.12631
207.17	621.18046
207.716	571.14855
208.262	603.95766
208.808	539.1025
209.354	566.1424
209.899	634.33257
210.445	535.11111
210.99	569.13347
211.535	594.154
212.08	663.25066
212.625	645.33042
213.17	627.31755
213.715	542.98833
214.259	590.13586
214.804	606.24566
215.348	625.16904
215.892	624.23141
216.436	606.16
216.98	671.199
217.524	590.15221
218.068	600.26157
218.612	658.3679
219.155	562.10159
219.698	541.0821
220.242	608.26831
220.785	541.0616
221.328	533.12664
221.871	572.22794
222.414	580.21678
222.956	510.03672
223.499	562.05175
224.041	566.10735
224.583	565.01805
225.126	516.95663
225.668	487.009
226.21	495.06308
226.751	482.88735
227.293	584.10972
227.835	548.12474
228.376	599.15018
228.918	570.21681
229.459	504.06501
230	555.10656
230.541	552.06512
231.082	553.12506
231.622	527.02287
232.163	528.07728
232.704	544.13461
233.244	498.05092
233.784	563.16364
234.324	496.90808
234.864	519.98788
235.404	517.04118
235.944	576.13973
236.484	570.19682
237.023	523.03733
237.563	552.05951
238.102	547.08098
238.641	566.20251
239.18	497.97683
239.719	571.2013
240.258	534.00171
240.797	529.05952
241.335	582.18819
241.874	566.87849
242.412	571.13852
242.95	446.90655
243.488	510.97712
244.026	569.08038
244.564	597.99448
245.102	523.97663
245.64	565.1375
246.177	558.03241
246.715	565.13071
247.252	575.09126
247.789	664.98753
248.326	511.0234
248.863	520.9434
249.4	582.08604
249.936	609.0042
250.473	553.06424
251.009	529.00184
251.546	614.09213
252.082	594.05648
252.618	581.0523
253.154	563.11526
253.69	560.03457
254.226	566.11363
254.761	569.04467
255.297	578.02583
255.832	535.04832
256.367	552.07328
256.903	607.07268
257.438	620.18514
257.972	578.04712
258.507	500.94777
259.042	580.01926
259.576	506.89045
260.111	596.12322
260.645	599.04529
261.179	515.99456
261.713	609.08742
262.247	586.10055
262.781	532.90442
263.315	608.2099
263.849	628.27529
264.382	584.09355
264.915	558.06486
265.449	488.98377
265.982	656.19056
266.515	613.21165
267.048	526.90388
267.58	619.08483
268.113	559.97271
268.646	604.20974
269.178	582.04205
269.71	635.10011
270.243	619.13439
270.775	626.29204
271.307	627.22141
271.838	693.31183
272.37	643.27105
272.902	634.14996
273.433	576.00903
273.965	568.12754
274.496	582.18496
275.027	586.18175
275.558	632.22738
276.089	590.1642
276.62	630.30147
277.15	601.20511
277.681	617.06319
278.211	612.21391
278.741	569.9985
279.272	640.14967
279.802	613.23657
280.332	599.1275
280.861	655.25005
281.391	586.05678
281.921	610.1812
282.45	666.32735
282.98	676.40911
283.509	624.10422
284.038	633.13387
284.567	695.26949
285.096	615.1855
285.625	659.16358
286.153	610.12939
286.682	661.1738
287.21	609.1621
287.739	645.19463
288.267	571.1037
288.795	677.41838
289.323	614.1221
289.851	656.19781
290.378	639.11233
290.906	675.26213
291.433	695.34898
291.961	686.18333
292.488	694.34287
293.015	672.21409
293.542	663.3082
294.069	676.28427
294.596	684.31717
295.122	649.19966
295.649	686.14689
296.175	731.35424
296.702	763.40169
297.228	724.34692
297.754	702.18527
298.28	746.25635
298.806	775.38813
299.332	727.18542
299.857	723.21255
300.383	801.52773
300.908	635.17665
301.433	649.20504
301.958	745.28502
302.483	686.2995
303.008	749.39455
303.533	751.48974
304.058	807.39669
304.582	762.31756
305.107	697.38183
305.631	779.29962
306.155	778.31181
306.679	716.2293
307.203	799.33235
307.727	803.37797
308.251	776.41027
308.775	763.30426
309.298	744.29182
309.822	814.49595
310.345	816.3798
310.868	829.40677
311.391	845.48975
311.914	725.33308
312.437	954.47946
312.96	791.3197
313.482	842.3939
314.005	870.53832
314.527	790.50125
315.049	856.53709
315.571	818.23153
316.093	868.4934
316.615	825.3796
317.137	897.28613
317.659	950.56205
318.18	935.52496
318.702	934.43395
319.223	932.20874
319.744	916.33444
320.265	909.45843
320.786	979.57297
321.307	952.56015
321.828	943.36257
322.348	962.44763
322.869	964.43677
323.389	771.74938
323.909	1029.45631
324.43	1055.60212
324.95	1059.45477
325.47	1024.5571
325.989	1051.48859
326.509	1073.34937
327.029	1099.41221
327.548	1050.35746
328.067	1100.54036
328.587	1137.66919
329.106	1127.43274
329.625	1227.91807
330.144	1140.45491
330.662	1102.41755
331.181	1147.47851
331.7	1146.47068
332.218	1217.33629
332.736	1219.50739
333.255	1207.46721
333.773	1253.53254
334.291	1248.6776
334.808	1282.38003
335.326	1330.43266
335.844	1281.42844
336.361	1298.64535
336.879	1296.42505
337.396	1361.53781
337.913	1316.38398
338.43	1401.35896
338.947	1373.47699
339.464	1413.21162
339.981	1391.43472
340.497	1439.58238
341.014	1346.46732
341.53	1342.25333
342.046	1460.5082
342.562	1525.59944
343.078	1520.40089
343.594	1505.42794
344.11	1494.39818
344.626	1629.58842
345.141	1639.28132
345.657	1667.29251
346.172	1588.40636
346.687	1493.2275
347.202	1555.16509
347.717	1642.34288
348.232	1655.47409
348.747	1671.20718
349.261	1621.00223
349.776	1714.24339
350.29	1652.31739
350.805	1825.40929
351.319	1801.18726
351.833	1712.05167
352.347	1768.16592
352.861	1837.11638
353.374	1846.11478
353.888	1830.22518
354.401	1828.04893
354.915	1758.92049
355.428	1852.22841
355.941	1904.00265
356.454	2057.9251
356.967	1950.0579
357.48	1946.96588
357.993	1995.14984
358.505	1945.08668
359.018	2069.07027
359.53	2124.96402
360.042	2123.73896
360.554	2094.9965
361.066	2040.9799
361.578	2084.6448
362.09	2094.89014
362.602	2124.61367
363.113	2016.77147
363.625	2231.59511
364.136	2209.54127
364.647	2159.58598
365.158	2272.6179
365.669	2268.69926
366.18	2249.63882
366.691	2304.40816
367.201	2208.64538
367.712	2271.43384
368.222	2271.42697
368.733	2351.18973
369.243	2470.15042
369.753	2505.26606
370.263	2413.37172
370.773	2459.42042
371.282	2482.22247
371.792	2469.9804
372.301	2581.08134
372.811	2657.27192
373.32	2597.61745
373.829	2713.73842
374.338	2846.47208
374.847	2960.40182
375.356	3005.3742
375.865	3037.02751
376.373	3166.0165
376.882	3426.11343
377.39	3400.95241
377.898	3367.84706
378.407	3594.61088
378.915	3808.53148
379.423	3978.52516
379.93	4031.52529
380.438	4257.58534
380.946	4528.82148
381.453	4495.91158
381.96	4532.1996
382.468	4969.34562
382.975	5519.43388
383.482	5622.54196
383.989	5563.92802
384.495	5754.89433
385.002	5994.0231
385.509	6242.13183
386.015	6904.38943
386.521	7213.35995
387.028	7337.48413
387.534	7618.96119
388.04	8032.62727
388.546	7945.12257
389.051	8243.59654
389.557	8997.41444
390.063	10021.89885
390.568	10192.58115
391.073	10382.87304
391.578	10818.8173
392.084	10864.82578
392.589	11027.88148
393.093	11593.47928
393.598	13031.00041
394.103	14065.80988
394.607	15621.86752
395.112	16652.65376
395.616	17600.52394
396.12	18739.84798
396.624	20326.97629
397.128	22233.6957
397.632	25385.45397
398.136	27061.63457
398.639	27024.30486
399.143	29328.75402
399.646	27968.9325
400.15	24954.64545
400.653	20124.16724
401.156	13866.23708
401.659	5169.95759
402.162	1054.15589
402.664	0
403.167	0
403.67	0
404.172	0
404.674	0
405.176	0
405.678	0
406.18	0
406.682	0
407.184	0
407.686	0
408.187	0
408.688	0
409.19	0
409.691	0
410.192	0
410.693	0
411.194	435.30976
411.694	4082.94878
412.195	8864.71461
412.696	12089.80453
413.196	12760.96929
413.696	12863.67595
414.196	13703.56671
414.696	17261.84252
415.196	21764.24417
415.696	29583.19008
416.196	36460.31858
416.695	40057.39798
417.195	34443.03022
417.694	32909.03436
418.194	31083.92563
418.693	28360.47905
419.192	27837.00657
419.691	27516.35906
420.19	27001.39022
420.688	26557.15695
421.187	25822.53612
421.685	24605.31796
422.184	22300.07908
422.682	19385.277
423.18	15844.9649
423.678	13754.43608
424.176	12741.27423
424.674	11898.70313
425.172	11682.26302
425.669	11190.09735
426.167	10439.39586
426.664	9285.88274
427.161	8681.35255
427.659	7931.30389
428.156	7231.38856
428.652	6896.65007
429.149	6644.22387
429.646	6283.66664
430.143	6096.52565
430.639	5689.10646
431.135	5245.70577
431.632	5151.56588
432.128	4769.87291
432.624	4456.59485
433.12	4107.58093
433.616	4025.54904
434.111	3792.52361
434.607	3626.58503
435.103	3856.5306
435.598	3712.563
436.093	3459.83844
436.588	3359.91319
437.083	3198.08739
437.578	2963.33203
438.073	2686.65764
438.568	2804.75718
439.062	2712.50248
439.557	2560.93423
440.051	2458.89403
440.546	2370.97471
441.04	2271.2092
441.534	2320.42101
442.028	2286.34206
442.522	2136.40415
443.015	2222.1691
443.509	2123.55694
444.002	2055.58492
444.496	2021.33324
444.989	1915.68021
445.482	1982.71995
445.975	1952.45421
446.468	1907.38645
446.961	1899.40313
447.454	1832.58395
447.947	1752.6921
448.439	1700.83346
448.931	1642.62521
449.424	1686.97686
449.916	1701.87497
450.408	1685.67323
450.9	1540.87167
451.392	1503.99446
451.884	1525.81276
452.375	1460.9607
452.867	1501.82989
453.358	1408.78318
453.849	1498.68036
454.341	1383.80905
454.832	1330.72181
455.323	1339.9869
455.814	1393.90449
456.304	1388.9207
456.795	1320.90318
457.285	1368.90477
457.776	1432.99304
458.266	1315.01074
458.756	1294.07081
459.247	1140.97111
459.737	1078.95501
460.226	1223.91607
460.716	1126.01811
461.206	1113.04503
461.695	1169.18999
462.185	1108.03614
462.674	1073.9932
463.163	1129.95562
463.653	1082.85037
464.142	1017.05885
464.63	986.09531
465.119	940.95743
465.608	1007.00346
466.096	953.91064
466.585	980.03935
467.073	955.09535
467.561	996.13984
468.05	974.07352
468.538	937.15573
469.026	913.09412
469.513	887.87577
470.001	897.99896
470.489	857.03919
470.976	912.06487
471.463	864.16812
471.951	835.16324
472.438	782.00073
472.925	645.85958
473.412	803.12991
473.899	794.01687
474.385	688.00973
474.872	753.0003
475.359	693.01179
475.845	674.79095
476.331	688.88206
476.817	571.88963
477.303	623.89586
477.789	534.83411
478.275	657.02852
478.761	583.911
479.247	562.81027
479.732	497.82824
480.218	519.92315
480.703	552.92123
481.188	532.73975
481.673	477.7374
482.158	469.65141
482.643	562.99112
483.128	416.65496
483.612	509.81566
484.097	499.86136
484.581	414.68777
485.066	493.84148
485.55	373.57959
486.034	386.59085
486.518	408.68491
487.002	386.6874
487.486	389.69615
487.969	320.58403
488.453	413.77653
488.936	351.58323
489.42	397.64297
489.903	389.7422
490.386	-69.09245
490.869	433.69063
491.352	374.70198
491.835	326.50667
492.318	285.49266
492.8	312.48718
493.283	278.55425
493.765	241.46852
494.247	283.5216
494.73	246.42625
495.212	301.57652
495.694	199.37046
496.175	242.45084
496.657	272.51278
497.139	288.38533
497.62	158.3024
498.102	204.40955
498.583	221.45096
499.064	206.36682
499.545	157.29299
500.026	175.31816
500.507	185.35056
500.988	220.44698
501.469	139.28853
501.949	155.31945
502.43	132.25876
502.91	174.29108
503.39	193.4017
503.87	118.23077
504.35	236.45694
504.83	184.32917
505.31	149.30058
505.79	124.24791
506.269	149.29146
506.749	112.21394
507.228	113.2224
507.707	144.26533
508.187	161.32345
508.666	119.24614
509.145	102.20099
509.623	117.2318
510.102	122.25059
510.581	159.32474
511.059	166.34866
511.538	138.30479
512.016	155.3124
512.494	144.29684
512.972	123.2495
513.45	74.1454
513.928	100.20688
514.406	96.19558
514.884	97.21428
515.361	138.28038
515.839	72.14074
516.316	121.24825
516.793	134.29125
517.27	169.34877
517.747	100.22105
518.224	102.20307
518.701	119.22627
519.178	58.1244
519.654	118.24226
520.131	70.15046
520.607	107.23014
521.083	116.22707
521.56	112.22766
522.036	63.12037
522.512	136.28993
522.987	30.06215
523.463	63.13054
523.939	87.18616
524.414	115.22997
524.89	95.19579
525.365	87.17083
525.84	27.05607
526.315	31.0657
526.79	105.2049
527.265	80.1589
527.74	69.14713
528.215	37.07687
528.689	100.19158
529.164	86.16284
529.638	46.10478
530.112	42.08697
530.587	39.07278
531.061	42.08907
531.534	106.2247
532.008	55.11621
532.482	85.17108
532.956	16.03617
533.429	74.15776
533.903	105.20276
534.376	88.16997
534.849	97.19676
535.322	68.14144
535.795	52.11264
536.268	95.19993
536.741	77.16319
537.213	104.21053
537.686	114.24187
538.158	69.13523
538.631	98.21001
539.103	69.13555
539.575	138.2493
540.047	107.20543
540.519	128.26766
540.991	86.18621
541.463	105.22331
541.934	91.18282
542.406	81.16972
542.877	107.21109
543.348	112.23763
543.82	183.38886
544.291	178.35967
544.762	134.27573
545.233	129.28176
545.703	132.25227
546.174	194.38642
546.645	167.34092
547.115	196.40349
547.585	249.48269
548.056	194.39613
548.526	241.47411
548.996	288.57819
549.466	323.65609
549.935	301.58517
550.405	350.61811
550.875	366.70188
551.344	435.83522
551.814	420.77046
552.283	465.79495
552.752	408.75373
553.221	463.77792
553.69	527.89713
554.159	484.92909
554.628	497.85242
555.096	560.09611
555.565	559.94856
556.033	601.08583
556.502	586.10001
556.97	583.99414
557.438	629.14928
557.906	617.14039
558.374	575.03399
558.842	654.20922
559.31	665.14184
559.777	645.21009
560.245	825.44835
560.712	784.36721
561.18	786.28801
561.647	799.32797
562.114	870.44913
562.581	957.72636
563.048	1016.66637
563.514	988.75116
563.981	1061.70433
564.448	1153.75599
564.914	1234.9352
565.381	1243.89063
565.847	1228.94681
566.313	1314.01559
566.779	1359.97122
567.245	1450.1509
567.711	1418.18926
568.176	1441.01514
568.642	1500.40195
569.108	1619.44139
569.573	1668.35134
570.038	1685.99612
570.504	1764.21512
570.969	1819.66657
571.434	1888.19406
571.899	1946.52871
572.363	1991.38295
572.828	2015.42464
573.293	2051.43284
573.757	2171.47453
574.222	2144.33397
574.686	2109.33727
575.15	2135.58876
575.614	2277.48326
576.078	2185.55183
576.542	2242.45526
577.006	2250.40848
577.469	2280.85005
577.933	2211.35818
578.396	2241.64271
578.86	2219.59697
579.323	2200.62303
579.786	2212.24002
580.249	2137.41978
580.712	2064.70237
581.175	2086.74101
581.637	2035.46685
582.1	1968.26518
582.563	1935.1826
583.025	1908.58251
583.487	1821.92327
583.95	1837.11349
584.412	1848.07106
584.874	1664.43687
585.336	1638.33735
585.797	1661.06648
586.259	1670.36305
586.721	1554.2434
587.182	1598.29503
587.643	1543.15018
588.105	1389.13973
588.566	1385.83288
589.027	1380.16731
589.488	1409.05617
589.949	1348.17015
590.41	1295.57226
590.87	1293.96607
591.331	1274.8111
591.791	1269.95328
592.252	1160.8143
592.712	1182.97211
593.172	1136.76425
593.632	1207.78675
594.092	1195.8064
594.552	1155.68856
595.011	1090.74965
595.471	1064.67687
595.931	1064.66725
596.39	1071.82476
596.849	1078.77534
597.308	1141.69863
597.768	1057.94698
598.227	1051.82225
598.685	1116.8017
599.144	1055.75892
599.603	1103.8473
600.062	1047.525
600.52	1096.69685
600.978	1068.80647
601.437	1150.82457
601.895	1159.65717
602.353	1172.77615
602.811	1116.71389
603.269	1246.02856
603.727	1225.00471
604.184	1205.82811
604.642	1248.08843
605.099	1326.02581
605.557	1320.15699
606.014	1318.82046
606.471	1333.2164
606.928	1428.87865
607.385	1364.16164
607.842	1605.20113
608.299	1642.29676
608.755	1619.37944
609.212	1580.09218
609.668	1582.06862
610.125	1746.49236
610.581	1706.44039
611.037	1731.32693
611.493	1667.39482
611.949	1603.38414
612.405	1677.87931
612.861	1735.44199
613.316	1660.41327
613.772	1722.33494
614.227	1697.4041
614.683	1776.15872
615.138	1696.37949
615.593	1671.34459
616.048	1725.3489
616.503	1709.58948
616.958	1683.6232
617.412	1670.41914
617.867	1611.15155
618.321	1724.04668
618.776	1625.19191
619.23	1611.36467
619.684	1636.27671
620.138	1651.38611
620.592	1516.41005
621.046	1609.39317
621.5	1509.41173
621.954	1556.23391
622.407	1489.14777
622.861	1387.30298
623.314	1503.23105
623.768	1383.18513
624.221	1338.72828
624.674	1308.08759
625.127	1338.16481
625.58	1417.18706
626.033	1343.03574
626.485	1273.16115
626.938	1272.15771
627.39	1279.10637
627.843	1264.08095
628.295	1200.01096
628.747	1145.01594
629.199	1150.91954
629.651	1028.77144
630.103	1115.9
630.555	1068.68224
631.006	1024.84706
631.458	1036.87636
631.909	1065.86998
632.361	1017.8358
632.812	998.78723
633.263	933.57443
633.714	917.54651
634.165	914.7811
634.616	928.76312
635.067	905.60493
635.518	884.71034
635.968	871.3917
636.419	896.55812
636.869	839.64056
637.319	806.53617
637.769	825.50824
638.219	861.69078
638.669	727.46489
639.119	772.58453
639.569	740.50922
640.019	731.43044
640.468	707.33903
640.918	745.52321
641.367	618.20299
641.816	706.34267
642.265	699.38193
642.714	682.35488
643.163	674.33336
643.612	590.24106
644.061	574.06102
644.51	593.18301
644.958	618.18016
645.406	593.24765
645.855	565.23034
646.303	639.30386
646.751	594.18529
647.199	594.18748
647.647	553.12914
648.095	577.16757
648.543	613.09571
648.99	528.12897
649.438	554.16266
649.885	583.28301
650.333	589.99951
650.78	527.14262
651.227	529.15573
651.674	571.15435
652.121	541.18099
652.568	550.19535
653.015	545.24133
653.461	502.07884
653.908	568.18003
654.354	510.10217
654.801	475.0126
655.247	562.10055
655.693	488.1615
656.139	480.04873
656.585	524.13586
657.031	491.03726
657.477	441.8737
657.922	480.00578
658.368	470.06358
658.813	505.06922
659.259	403.89911
659.704	441.94722
660.149	414.89517
660.594	448.98108
661.039	446.9367
661.484	492.0759
661.929	503.07241
662.373	429.00227
662.818	458.0473
663.262	459.01692
663.707	422.99633
664.151	421.95864
664.595	391.88315
665.039	435.00557
665.483	437.03296
665.927	426.93528
666.371	345.75381
666.814	423.94333
667.258	382.84786
667.701	474.94457
668.145	452.04474
668.588	361.83863
669.031	376.83177
669.474	406.91721
669.917	450.92635
670.36	445.02629
670.803	423.95657
671.245	399.79012
671.688	409.93809
672.13	381.80496
672.573	418.99797
673.015	387.87732
673.457	395.80966
673.899	407.92827
674.341	386.88021
674.783	352.80204
675.225	415.95871
675.666	373.84765
676.108	381.78308
676.549	402.89854
676.991	416.86137
677.432	396.74218
677.873	395.8634
678.314	400.90145
678.755	367.84819
679.196	362.7881
679.637	412.9497
680.078	399.88319
680.518	433.94844
680.959	386.87594
681.399	360.85
681.839	368.85202
682.28	349.82132
682.72	355.77434
683.16	362.85803
683.6	394.85156
684.039	398.78353
684.479	323.76044
684.919	340.74807
685.358	421.00542
685.798	324.81478
686.237	393.9014
686.676	373.82496
687.115	395.87908
687.554	351.79638
687.993	345.73083
688.432	350.76457
688.871	350.75842
689.309	303.69808
689.748	400.79155
690.186	385.87421
690.625	329.74011
691.063	362.82782
691.501	392.91943
691.939	352.83851
692.377	359.83563
692.815	354.80823
693.253	355.81655
693.69	402.83537
694.128	343.79494
694.565	352.80302
695.003	337.82015
695.44	377.8425
695.877	399.88135
696.314	367.75329
696.751	372.80952
697.188	332.732
697.625	440.95056
698.061	308.71257
698.498	398.91378
698.934	356.81967
699.371	320.72443
699.807	370.83419
700.243	367.84178
700.679	372.80299
701.115	380.85253
701.551	339.76634
701.987	356.76615
702.422	336.76529
702.858	385.87137
703.294	358.77542
703.729	371.8656
704.164	364.83607
704.599	347.7402
705.035	330.70898
705.47	359.83333
705.904	354.78801
706.339	394.87085
706.774	346.77595
707.209	333.73682
707.643	354.81311
708.078	341.79593
708.512	302.72853
708.946	344.79078
709.38	336.76436
709.814	352.77024
710.248	368.85573
710.682	352.80043
711.116	318.72898
711.549	327.81154
711.983	363.80017
712.416	399.8946
712.85	363.86421
713.283	375.84495
713.716	359.86288
714.149	340.77815
714.582	318.68791
715.015	354.84877
715.448	391.93656
715.881	404.8369
716.313	327.73651
716.746	293.66723
717.178	308.71426
717.61	356.86362
718.043	303.7297
718.475	334.7773
718.907	373.90128
719.339	279.61322
719.77	273.62797
720.202	320.77893
720.634	297.69788
721.065	352.79783
721.497	330.77707
721.928	282.67077
722.359	308.71511
722.79	291.67364
723.221	338.81658
723.652	323.80279
724.083	306.66563
724.514	277.61804
724.945	258.59074
725.375	246.5567
725.806	303.73108
726.236	299.74072
726.666	279.641
727.096	295.7002
727.526	265.65411
727.956	238.52894
728.386	272.65071
728.816	243.59981
729.246	230.54668
729.675	265.63361
730.105	303.72029
730.534	273.62043
730.964	308.75169
731.393	316.75711
731.822	279.69118
732.251	277.68196
732.68	306.69641
733.109	237.57078
733.537	256.60191
733.966	291.69895
734.395	263.59093
734.823	280.61322
735.251	226.53324
735.68	270.6575
736.108	276.67762
736.536	260.59723
736.964	241.54639
737.392	229.5609
737.82	236.55402
738.247	238.55741
738.675	268.62299
739.102	208.51013
739.53	180.45206
739.957	189.47883
740.384	278.66583
740.811	252.62259
741.238	211.50567
741.665	207.47179
742.092	239.55811
742.519	183.44657
742.945	227.53363
743.372	199.48471
743.798	235.59027
744.225	228.53065
744.651	212.52205
745.077	211.51643
745.503	191.45948
745.929	220.51748
746.355	282.68029
746.781	214.52037
747.207	157.36519
747.632	198.47442
748.058	209.5121
748.483	213.48173
748.908	188.4604
749.334	181.43889
749.759	210.48625
750.184	169.39822
750.609	180.43688
751.033	208.48372
751.458	193.42742
751.883	178.43575
752.307	183.42517
752.732	135.33508
753.156	180.43868
753.58	181.42484
754.005	182.45577
754.429	155.36154
754.853	154.37812
755.277	150.3527
755.7	149.36686
756.124	137.33794
756.548	133.31401
756.971	160.38717
757.394	142.36315
757.818	134.34269
758.241	167.41873
758.664	160.39981
759.087	84.18878
759.51	130.32214
759.933	95.22915
760.356	146.37128
760.778	115.28231
761.201	149.35995
761.623	181.43361
762.046	128.3032
762.468	163.38811
762.89	157.38413
763.312	151.36588
763.734	82.19843
764.156	122.30033
764.578	156.35634
765	133.32299
765.421	47.12035
765.843	133.34639
766.264	173.41318
766.686	171.42428
767.107	105.25452
767.528	112.28179
767.949	111.28163
768.37	111.27209
768.791	122.29445
769.212	85.21383
769.632	79.18507
770.053	112.29384
770.473	147.35471
770.894	141.35061
771.314	159.37641
771.734	81.18983
772.154	96.24646
772.575	131.30255
772.994	80.18282
773.414	145.34578
773.834	71.17835
774.254	63.15529
774.673	113.27473
775.093	77.19119
775.512	75.18548
775.931	114.28796
776.351	98.2432
776.77	86.21062
777.189	102.24264
777.607	112.28492
778.026	47.11806
778.445	57.14344
778.864	87.22332
779.282	92.22162
779.701	84.21203
780.119	52.13224
780.537	100.24907
780.955	78.19892
781.373	92.22756
781.791	59.13371
782.209	84.19435
782.627	73.1926
783.045	78.18018
783.462	117.29727
783.88	34.08869
784.297	31.07877
784.715	51.13164
785.132	94.22747
785.549	79.19788
785.966	121.30242
786.383	81.19951
786.8	103.23893
787.217	56.13368
787.633	66.16523
788.05	125.29535
788.466	121.28401
788.883	64.16368
789.299	57.13812
789.715	103.24967
790.131	39.09779
790.547	91.22703
790.963	98.24267
791.379	64.1623
791.795	82.18761
792.21	90.21047
792.626	72.17141
793.041	107.26297
793.457	75.18569
793.872	72.16983
794.287	25.06033
794.702	113.27699
795.117	82.20365
795.532	59.14837
795.947	114.27306
796.362	132.31267
796.776	105.2454
797.191	88.21519
797.605	11.02618
798.02	87.21152
798.434	99.22017
798.848	50.12381
799.262	100.24708
799.676	71.17366
800.09	94.23072
800.504	78.18946
800.918	82.1901
801.331	63.16554
801.745	62.14311
802.158	66.16534
802.572	81.19657
802.985	132.31617
803.398	66.15791
803.811	120.30624
804.224	80.19911
804.637	89.21167
805.05	91.21067
805.462	82.20142
805.875	29.07571
806.288	46.11161
806.7	92.23056
807.112	84.19474
807.525	68.16814
807.937	22.05492
808.349	90.2249
808.761	83.20399
809.173	47.11457
809.584	103.25342
809.996	90.21976
810.408	19.04947
810.819	87.20429
811.231	103.26457
811.642	79.18818
812.053	161.37657
812.464	213.4931
812.875	222.55231
813.286	167.42265
813.697	190.43488
814.108	70.17124
814.519	117.2589
814.929	102.25884
815.34	67.16277
815.75	61.15527
816.16	94.23345
816.571	87.22534
816.981	78.18419
817.391	80.19301
817.801	75.18616
818.211	125.29523
818.62	69.16625
819.03	85.2079
819.44	104.27007
819.849	76.19136
820.259	70.17921
820.668	36.08911
821.077	78.19343
821.486	124.29588
821.895	122.29878
822.304	49.13023
822.713	44.10463
823.122	83.20669
823.531	69.16373
823.939	68.16579
824.348	96.2324
824.756	106.26383
825.164	107.26752
825.573	94.23481
825.981	91.22488
826.389	114.28415
826.797	82.20491
827.205	39.09011
827.612	75.18494
828.02	60.14119
828.428	96.24327
828.835	93.24362
829.243	99.23473
829.65	46.11482
830.057	80.19381
830.464	64.1561
830.871	123.29164
831.278	91.21909
831.685	111.24583
832.092	80.19549
832.499	64.14029
832.905	112.28129
833.312	92.20905
833.718	98.24285
834.124	111.25166
834.531	98.24569
834.937	93.23755
835.343	76.18315
835.749	81.18886
836.155	86.22433
836.561	48.11847
836.966	123.2977
837.372	118.29753
837.777	66.16439
838.183	75.16665
838.588	78.19322
838.993	80.19432
839.399	35.08605
839.804	49.11976
840.209	63.16036
840.613	64.14254
841.018	95.23924
841.423	69.17681
841.828	79.19923
842.232	100.24617
842.637	77.1813
843.041	72.1842
843.445	80.20006
843.849	68.1682
844.253	91.21526
844.657	63.1586
845.061	92.2077
845.465	40.09705
845.869	85.19678
846.272	43.10509
846.676	132.31521
847.079	54.13747
847.483	132.32518
847.886	108.26066
848.289	63.168
848.692	37.09411
849.095	71.17029
849.498	124.31087
849.901	82.18746
850.304	51.12218
850.707	78.19829
851.109	128.32008
851.512	43.10603
851.914	16.04063
852.316	54.13674
852.718	47.12157
853.121	52.12763
853.523	90.20923
853.925	62.16162
854.326	67.16727
854.728	84.21505
855.13	55.14192
855.531	68.16226
855.933	91.21726
856.334	51.12733
856.736	33.07436
857.137	41.09571
857.538	36.09087
857.939	41.10162
858.34	69.16788
858.741	72.18775
859.142	45.10842
859.542	69.18167
859.943	63.15643
860.343	11.02747
860.744	80.19447
861.144	41.10035
861.544	63.15128
861.945	79.20058
862.345	91.22125
862.745	58.14415
863.145	100.23724
863.544	73.18397
863.944	52.12303
864.344	56.13918
864.743	84.20747
865.143	126.31974
865.542	71.16431
865.941	92.22631
866.34	86.20497
866.74	64.17154
867.139	33.07939
867.537	107.27023
867.936	104.24816
868.335	92.23264
868.734	65.16586
869.132	73.16914
869.531	100.23998
869.929	51.11643
870.327	72.17213
870.726	101.24987
871.124	81.18849
871.522	75.19043
871.92	109.2663
872.318	60.14661
872.715	108.26489
873.113	66.16056
873.511	37.09251
873.908	7.01782
874.306	55.13682
874.703	92.22873
875.1	72.18368
875.497	51.12242
875.894	28.06895
876.291	52.12773
876.688	60.15463
877.085	110.26127
877.482	55.13771
877.878	48.11572
878.275	70.17739
878.671	104.22941
879.068	55.13282
879.464	66.15923
879.86	55.13011
880.256	80.19658
880.652	55.13989
881.048	63.15592
881.444	61.14508
881.84	47.11963
882.236	87.21752
882.631	87.21231
883.027	83.19998
883.422	58.14823
883.817	22.05561
884.213	34.08756
884.608	49.12029
885.003	60.14454
885.398	46.11532
885.793	38.09568
886.188	71.17598
886.582	113.28691
886.977	74.17502
887.371	74.18652
887.766	-8.02012
888.16	88.21831
888.554	95.23322
888.949	97.24173
889.343	96.23275
889.737	31.08291
890.131	66.16523
890.525	93.23621
890.918	71.17816
891.312	112.26509
891.706	82.21411
892.099	62.15756
892.492	100.21374
892.886	57.13941
893.279	88.22284
893.672	43.10968
894.065	69.17233
894.458	67.16812
894.851	101.24537
895.244	72.1833
895.637	61.14675
896.029	56.13689
896.422	66.16092
896.814	114.28033
897.206	21.05033
897.599	99.24286
897.991	72.17351
898.383	90.21121
898.775	55.12414
899.167	44.10281
899.559	101.25353
899.951	65.15293
900.342	92.23239
900.734	36.0896
901.125	119.30876
901.517	60.14711
901.908	86.20497
902.299	57.13926
902.69	50.11807
903.082	95.22829
903.473	50.11981
903.863	72.1831
904.254	9.02108
904.645	99.24421
905.036	41.0995
905.426	96.21797
905.817	52.12763
906.207	41.09793
906.597	45.10542
906.987	85.2191
907.378	75.18894
907.768	53.14011
908.158	51.12441
908.547	29.07522
908.937	96.24448
909.327	106.25486
909.717	80.20215
910.106	67.16051
910.495	89.22075
910.885	92.23139
911.274	61.15224
911.663	89.22445
912.052	83.20368
912.441	46.11711
912.83	67.15339
913.219	36.09448
913.608	96.23327
913.997	8.02022
914.385	73.17375
914.774	55.13387
915.162	56.13337
915.55	68.16406
915.939	23.05836
916.327	55.13722
916.715	48.12241
917.103	127.30831
917.491	91.22356
917.878	59.1449
918.266	73.18863
918.654	90.22839
919.041	26.06817
919.429	68.16002
919.816	84.21173
920.203	59.14291
920.591	54.13387
920.978	43.10548
921.365	60.1572
921.752	87.20604
922.139	133.28385
922.525	29.06995
922.912	70.17016
923.299	50.12431
923.685	54.14081
924.072	93.21274
924.458	81.19958
924.844	67.16533
925.231	37.08637
925.617	44.11205
926.003	108.27329
926.389	33.08352
926.774	90.22653
927.16	114.27991
927.546	65.16551
927.931	63.15689
928.317	64.14708
928.702	93.21829
929.088	65.15334
929.473	55.13985
929.858	14.03408
930.243	50.12004
930.628	38.09268
931.013	53.13131
931.398	82.18746
931.783	99.25855
932.167	58.14162
932.552	89.22147
932.937	59.14623
933.321	79.19723
933.705	74.18579
934.09	122.30442
934.474	68.16101
934.858	47.12199
935.242	69.15936
935.626	69.17606
936.009	56.14881
936.393	49.12472
936.777	72.18368
937.16	83.21476
937.544	88.20587
937.927	44.11178
938.311	110.26559
938.694	64.16888
939.077	33.07927
939.46	70.1713
939.843	67.13933
940.226	80.20417
940.609	62.14203
940.991	58.14745
941.374	38.0931
941.757	43.10627
942.139	35.07887
942.522	95.22264
942.904	77.18419
943.286	67.16975
943.668	91.23408
944.05	51.12562
944.432	42.10381
944.814	71.17424
945.196	3.00738
945.578	33.0787
945.959	55.1288
946.341	90.21935
946.722	83.1936
947.104	59.14081
947.485	44.10253
947.866	35.08843
948.247	59.14863
948.628	85.20604
949.009	57.1458
949.39	67.1663
949.771	101.23262
950.152	70.17118
950.532	4.00992
950.913	53.1278
951.293	28.07591
951.674	22.0535
952.054	80.19716
952.434	76.18778
952.814	91.21485
953.194	61.15936
953.574	90.22008
953.954	66.15628
954.334	40.09988
954.714	15.0368
955.093	101.24602
955.473	44.11015
955.853	84.21618
956.232	52.14248
956.611	118.2794
956.99	56.1406
957.37	82.20779
957.749	26.06232
958.128	59.14842
958.506	63.16307
958.885	63.15865
959.264	7.01729
959.643	74.16761
960.021	46.11408
960.4	77.17359
960.778	78.19117
961.156	40.10046
961.535	79.18311
961.913	92.21354
962.291	47.12064
962.669	70.17669
963.047	48.12254
963.424	44.11241
963.802	74.18116
964.18	109.27292
964.557	71.16287
964.935	70.16524
965.312	31.08099
965.69	69.17221
966.067	72.17463
966.444	59.14516
966.821	61.15696
967.198	77.18588
967.575	60.14727
967.952	85.19897
968.329	59.14334
968.705	87.18511
969.082	43.11042
969.458	42.10091
969.835	87.21033
970.211	55.14103
970.587	52.12943
970.963	100.25431
971.339	41.10722
971.715	48.1199
972.091	60.14749
972.467	111.27381
972.843	63.15598
973.219	105.24953
973.594	37.09699
973.97	102.2404
974.345	50.11967
974.721	77.18553
975.096	21.0511
975.471	44.10451
975.846	65.15572
976.221	30.07645
976.596	40.09607
976.971	108.26381
977.346	110.25309
977.72	58.14755
978.095	44.11383
978.469	105.248
978.844	88.21974
979.218	38.0913
979.593	95.22568
979.967	84.20335
980.341	66.15149
980.715	67.1683
981.089	62.15488
981.463	86.19605
981.837	28.0687
982.21	91.21009
982.584	67.16131
982.957	67.16679
983.331	73.17182
983.704	62.15201
984.078	44.10856
984.451	128.31521
984.824	24.05873
985.197	66.15983
985.57	72.17986
985.943	132.32111
986.316	87.21231
986.688	82.19656
987.061	76.17724
987.434	57.14835
987.806	54.13087
988.179	63.14828
988.551	83.20932
988.923	45.11092
989.295	76.18902
989.667	19.04566
990.039	69.16989
990.411	39.08997
990.783	129.29235
991.155	18.04351
991.527	81.19833
991.898	59.14677
992.27	52.12858
992.641	59.14778
993.012	91.21243
993.384	82.19439
993.755	89.22533
994.126	62.14879
994.497	23.05674
994.868	52.11941
995.239	79.19042
995.61	33.08328
995.98	51.12386
996.351	72.17757
996.722	32.07448
997.092	15.03576
997.462	36.08432
997.833	91.21401
998.203	94.22601
998.573	58.1442
998.943	59.13811
999.313	38.09126
999.683	33.07945
1000.053	85.1942
1000.423	66.15989
1000.792	87.22402
1001.162	72.17646
1001.531	68.16709
1001.901	76.18854
1002.27	53.11841
1002.639	68.17317
1003.009	64.15178
1003.378	25.0642
1003.747	63.14845
1004.116	68.16213
1004.485	52.12422
1004.853	43.10906
1005.222	65.16346
1005.591	72.17022
1005.959	25.05661
1006.328	53.11919
1006.696	50.12059
1007.064	55.13821
1007.433	84.20861
1007.801	95.23123
1008.169	77.19349
1008.537	64.1413
1008.905	17.03986
1009.273	50.1235
1009.64	29.06945
1010.008	71.16854
1010.375	125.29923
1010.743	103.23533
1011.11	51.12064
1011.478	63.15552
1011.845	54.12687
1012.212	39.08846
1012.579	61.14942
1012.946	105.24723
1013.313	105.24723
1013.68	108.23983
1014.047	15.03598
1014.414	66.15537
1014.78	43.10697
1015.147	81.19472
1015.513	59.14189
1015.88	122.30794
1016.246	77.1891
1016.612	68.15508
1016.978	42.10305
1017.344	65.16016
1017.71	84.2035
1018.076	77.1806
1018.442	100.25494
1018.808	59.14719
1019.174	62.15516
1019.539	131.29665
1019.905	20.04743
1020.27	5.01244
1020.636	80.19067
1021.001	68.1622
1021.366	44.10575
1021.731	103.26235
1022.096	57.14354
1022.461	76.17891
1022.826	82.19364
1023.191	46.12073
1023.556	55.12874
1023.92	91.22199
1024.285	24.05884
1024.649	88.21407
1025.014	66.16295
1025.378	56.1406
1025.742	62.15358
1026.107	84.18863
1026.471	75.17418
1026.835	72.1777
1027.199	40.09643
1027.562	70.16203
1027.926	59.14398
1028.29	67.16897
1028.654	86.19637
1029.017	80.19549
1029.381	23.05521
1029.744	78.19787
1030.107	105.24569
1030.471	39.09354
1030.834	101.22732
1031.197	103.24553
1031.56	111.25871
1031.923	51.13178
1032.286	92.21421
1032.648	82.19484
1033.011	65.14869
1033.374	82.19146
1033.736	54.14182
1034.099	96.23187
1034.461	42.10621
1034.823	40.09974
1035.185	47.11832
1035.548	69.16726
1035.91	82.19514
1036.272	38.08666
1036.634	83.20172
1036.995	70.16382
1037.357	30.07323
1037.719	26.06349
1038.08	105.24655
1038.442	52.12332
1038.803	68.16263
1039.165	56.1411
1039.526	65.15655
1039.887	63.1503
1040.248	-2.00497
1040.609	87.21342
1040.97	94.22773
1041.331	61.15406
1041.692	35.0819
1042.053	66.14973
1042.413	89.20572
1042.774	71.17191
1043.134	147.34328
1043.495	50.12562
1043.855	29.07059
1044.215	69.17058
1044.576	37.08864
1044.936	72.16427
1045.296	69.17152
1045.656	52.12749
1046.016	62.14924
1046.375	90.21656
1046.735	42.09532
1047.095	79.18376
1047.454	65.13722
1047.814	74.17698
1048.173	125.2942
1048.533	77.17536
1048.892	25.06026
1049.251	96.23885
1049.61	37.09127
1049.969	62.14573
1050.328	36.07825
1050.687	41.09987
1051.046	56.13613
1051.405	36.08973
1051.763	70.16022
1052.122	53.13203
1052.48	56.1371
1052.839	58.13617
1053.197	56.13157
1053.555	80.1812
1053.914	78.18968
1054.272	131.31168
1054.63	55.13427
1054.988	57.13515
1055.345	86.18366
1055.703	55.13217
1056.061	57.14636
1056.419	47.12165
1056.776	81.19516
1057.134	70.16132
1057.491	65.16222
1057.848	90.22229
1058.206	79.18463
1058.563	66.14492
1058.92	93.2124
1059.277	58.14278
1059.634	64.15008
1059.991	58.13866
1060.348	55.12409
1060.704	12.02879
1061.061	117.26807
1061.418	37.08989
1061.774	40.09887
1062.131	22.0584
1062.487	69.16063
1062.843	31.07751
1063.199	51.12673
1063.555	44.10201
1063.911	85.21321
1064.267	123.25224
1064.623	33.08035
1064.979	119.27801
1065.335	84.19936
1065.691	35.08407
1066.046	48.10553
1066.402	31.07066
1066.757	80.20071
1067.112	50.12263
1067.468	33.07812
1067.823	84.20051
1068.178	56.13521
1068.533	67.1618
1068.888	96.22722
1069.243	84.20587
1069.598	92.22162
1069.952	33.07452
1070.307	47.11632
1070.662	43.10215
1071.016	52.11639
1071.371	86.19407
1071.725	132.31062
1072.079	84.20059
1072.434	80.19315
1072.788	59.14016
1073.142	130.31482
1073.496	64.15131
1073.85	65.15018
1074.203	50.12122
1074.557	70.18539
1074.911	99.23392
1075.265	52.12074
1075.618	71.17256
1075.971	92.21691
1076.325	64.16212
1076.678	73.16605
1077.031	89.19965
1077.385	89.19431
1077.738	86.19257
1078.091	8.01833
1078.444	40.09299
1078.796	27.06648
1079.149	77.19043
1079.502	66.15531
1079.855	45.10497
1080.207	82.20067
1080.56	58.14958
1080.912	39.09507
1081.264	90.21492
1081.617	53.129
1081.969	42.10602
1082.321	59.14371
1082.673	72.16347
1083.025	23.05481
1083.377	-161.36102
1083.728	106.24438
1084.08	82.20335
1084.432	66.15857
1084.783	96.22273
1085.135	45.1128
1085.486	78.17731
1085.838	42.10351
1086.189	73.17629
1086.54	52.12403
1086.891	56.14135
1087.242	38.09265
1087.593	87.21017
1087.944	39.08839
1088.295	90.20277
1088.646	32.07776
1088.996	46.11081
1089.347	74.18062
1089.698	14.03329
1090.048	88.22687
1090.398	80.18429
1090.749	22.05288
1091.099	44.11067
1091.449	57.14169
1091.799	93.23084
1092.149	30.07336
1092.499	49.11945
1092.849	56.14206
1093.199	92.22865
1093.548	68.16269
1093.898	82.2038
1094.248	58.1487
1094.597	-15.03869
1094.947	58.15438
1095.296	40.09887
1095.645	53.13766
1095.994	62.14845
1096.343	71.17784
1096.692	42.11038
1097.041	47.1272
1097.39	76.18957
1097.739	74.19137
1098.088	78.20783
1098.437	33.08686
1098.785	129.34296
1099.134	88.23197
1099.482	72.19715
1099.83	71.18574
1100.179	34.08884
1100.527	62.16426
1100.875	12.0319
1101.223	61.16153
1101.571	33.09135
1101.919	32.08379
1102.267	65.18241
1102.615	3.00965
1102.962	17.05469
1103.31	6.01928
1103.658	30.09641
