Data from N2 R10 sample 2_Subt2__5__13-30-07-248.txt Node

Date: Mon Sep 01 13:30:07 PDT 2025
User: uwsun
Spectrometer: HDX01956
Trigger mode: 0
Integration Time (sec): 5.000000E-1
Scans to average: 1
Nonlinearity correction enabled: true
Boxcar width: 0
Storing dark spectrum: false
XAxis mode: Wavelengths
Number of Pixels in Spectrum: 2068
>>>>>Begin Spectral Data<<<<<
194.03	62.17236
194.578	60.18834
195.127	57.17634
195.676	74.22914
196.225	123.31957
196.773	113.30422
197.321	111.29245
197.87	172.41213
198.418	153.36304
198.966	122.293
199.513	100.22953
200.061	100.23348
200.609	181.44071
201.156	97.19442
201.704	166.38026
202.251	129.31422
202.798	151.35913
203.345	188.4239
203.892	144.33211
204.438	140.30727
204.985	173.36905
205.532	119.28813
206.078	168.3757
206.624	176.39148
207.17	187.39354
207.716	140.30999
208.262	180.32068
208.808	134.29967
209.354	125.27822
209.899	171.3965
210.445	157.35407
210.99	137.30075
211.535	197.41952
212.08	234.48844
212.625	208.47167
213.17	169.3914
213.715	101.20478
214.259	206.43381
214.804	214.47936
215.348	200.41395
215.892	165.36115
216.436	217.45507
216.98	207.41471
217.524	180.38623
218.068	197.45153
218.612	183.42113
219.155	146.31477
219.698	178.38655
220.242	201.45774
220.785	166.35512
221.328	175.3995
221.871	186.43307
222.414	190.43348
222.956	127.28114
223.499	139.28776
224.041	216.45828
224.583	222.4358
225.126	156.31521
225.668	131.29351
226.21	135.31291
226.751	120.24102
227.293	160.33591
227.835	115.25946
228.376	231.48357
228.918	170.39489
229.459	144.3288
230	140.30649
230.541	144.30552
231.082	121.27077
231.622	165.34847
232.163	150.33282
232.704	128.29203
233.244	96.22079
233.784	156.35232
234.324	90.18169
234.864	116.24246
235.404	171.37238
235.944	141.30783
236.484	146.33565
237.023	184.39447
237.563	141.29791
238.102	167.35996
238.641	179.41291
239.18	137.29213
239.719	185.42284
240.258	159.32636
240.797	165.35886
241.335	145.32581
241.874	167.28959
242.412	103.22802
242.95	129.28116
243.488	176.36444
244.026	127.26751
244.564	194.35908
245.102	150.30601
245.64	177.38872
246.177	122.2507
246.715	201.43678
247.252	176.36705
247.789	211.35715
248.326	128.27951
248.863	180.35486
249.4	204.41693
249.936	207.37998
250.473	141.2987
251.009	166.34281
251.546	179.35479
252.082	144.28642
252.618	103.2096
253.154	192.41394
253.69	137.28032
254.226	189.40546
254.761	162.32839
255.297	82.16455
255.832	142.30456
256.367	183.38767
256.903	161.31807
257.438	188.39748
257.972	174.34819
258.507	130.26871
259.042	179.34815
259.576	114.22125
260.111	162.3383
260.645	182.35306
261.179	117.24753
261.713	142.28455
262.247	202.41584
262.781	150.28139
263.315	179.39228
263.849	156.35131
264.382	200.41061
264.915	141.29674
265.449	104.22816
265.982	230.46324
266.515	163.35662
267.048	139.26365
267.58	211.41
268.113	119.23123
268.646	182.40062
269.178	155.30852
269.71	219.42189
270.243	167.34139
270.775	181.41136
271.307	144.31312
271.838	198.42064
272.37	175.38433
272.902	200.40338
273.433	139.2719
273.965	190.41103
274.496	152.3402
275.027	167.36969
275.558	178.38359
276.089	85.18785
276.62	194.44046
277.15	160.35397
277.681	153.29673
278.211	164.35979
278.741	159.30911
279.272	166.33496
279.802	186.41252
280.332	120.25282
280.861	158.3383
281.391	179.35695
281.921	161.34569
282.45	215.47396
282.98	197.45479
283.509	185.36531
284.038	152.30642
284.567	193.39776
285.096	189.40213
285.625	131.26354
286.153	174.35772
286.682	149.30017
287.21	160.33902
287.739	183.37851
288.267	184.38919
288.795	198.45919
289.323	138.28294
289.851	205.41755
290.378	155.30478
290.906	181.38025
291.433	154.33785
291.961	181.35473
292.488	183.39783
293.015	187.38019
293.542	149.32984
294.069	167.35702
294.596	216.46328
295.122	178.36825
295.649	166.31756
296.175	209.4381
296.702	232.48362
297.228	219.45906
297.754	188.36226
298.28	183.35593
298.806	205.42154
299.332	202.37838
299.857	237.45086
300.383	217.47295
300.908	182.37585
301.433	175.36375
301.958	229.44986
302.483	206.43649
303.008	179.38085
303.533	234.5207
304.058	207.41586
304.582	156.31362
305.107	139.31181
305.631	235.45119
306.155	204.3982
306.679	138.27398
307.203	214.41474
307.727	200.39911
308.251	206.42904
308.775	179.35446
309.298	145.29211
309.822	241.50718
310.345	226.44387
310.868	189.37672
311.391	195.40261
311.914	195.40676
312.437	271.505
312.96	184.35865
313.482	209.40709
314.005	175.36586
314.527	191.41629
315.049	248.51536
315.571	150.27167
316.093	261.52241
316.615	215.42017
317.137	228.39611
317.659	224.44326
318.18	231.45165
318.702	209.39023
319.223	263.41964
319.744	233.41178
320.265	194.37508
320.786	202.39673
321.307	249.48869
321.828	266.46606
322.348	268.48813
322.869	180.33267
323.389	39.05007
323.909	268.47154
324.43	291.54335
324.95	277.47806
325.47	202.38306
325.989	227.40621
326.509	239.38921
327.029	223.37378
327.548	203.33932
328.067	250.4461
328.587	312.57491
329.106	257.4263
329.625	313.62011
330.144	270.44923
330.662	272.45056
331.181	320.53038
331.7	253.42547
332.218	312.46508
332.736	256.42593
333.255	287.46555
333.773	310.50841
334.291	308.54392
334.808	209.32241
335.326	308.46805
335.844	231.36351
336.361	266.45944
336.879	282.43442
337.396	336.52987
337.913	303.45098
338.43	283.40919
338.947	293.4523
339.464	223.30201
339.981	271.41021
340.497	358.56164
341.014	318.48845
341.53	247.34513
342.046	244.38008
342.562	308.48486
343.078	277.40076
343.594	303.44194
344.11	286.41391
344.626	304.46832
345.141	337.443
345.657	348.45732
346.172	339.4774
346.687	275.36463
347.202	339.42109
347.717	325.44254
348.232	316.45906
348.747	366.45675
349.261	273.31357
349.776	280.36592
350.29	290.39396
350.805	403.54489
351.319	419.50517
351.833	292.34238
352.347	324.39974
352.861	372.43919
353.374	392.45908
353.888	379.47249
354.401	329.38023
354.915	328.35071
355.428	319.40662
355.941	355.39712
356.454	463.48134
356.967	398.45267
357.48	415.44548
357.993	359.43526
358.505	327.38758
359.018	392.4533
359.53	408.44615
360.042	452.42637
360.554	447.48831
361.066	389.42852
361.578	369.33735
362.09	488.49439
362.602	416.36756
363.113	443.421
363.625	436.386
364.136	443.375
364.647	332.30141
365.158	507.44512
365.669	411.39566
366.18	459.4153
366.691	475.36922
367.201	440.3997
367.712	481.37621
368.222	450.35566
368.733	452.303
369.243	370.26345
369.753	492.36428
370.263	496.38422
370.773	468.38579
371.282	518.36243
371.792	408.24363
372.301	509.33137
372.811	541.41386
373.32	369.15894
373.829	391.21009
374.338	563.20341
374.847	466.18208
375.356	519.1927
375.865	496.07785
376.373	588.09985
376.882	632.19746
377.39	613.1223
377.898	489.0702
378.407	580.97858
378.915	591.93478
379.423	658.93351
379.93	729.85225
380.438	566.88454
380.946	696.78344
381.453	703.74751
381.96	633.73206
382.468	589.70513
382.975	907.52719
383.482	940.48135
383.989	837.55106
384.495	861.51851
385.002	864.5573
385.509	784.59236
386.015	1027.6729
386.521	1100.66439
387.028	1067.80237
387.534	1115.97049
388.04	1202.94126
388.546	986.22685
389.051	835.43045
389.557	1080.98458
390.063	1639.09558
390.568	1476.30826
391.073	1343.79956
391.578	1536.6554
392.084	1299.83656
392.589	969.56479
393.093	941.39205
393.598	1292.75505
394.103	1474.73698
394.607	1691.15506
395.112	2037.65657
395.616	1901.30111
396.12	1894.43687
396.624	1850.95073
397.128	2037.42408
397.632	2868.01677
398.136	2993.00255
398.639	1419.10588
399.143	1000.5941
399.646	1199.64321
400.15	986.42742
400.653	599.19817
401.156	-356.82614
401.659	-1255.5626
402.162	-149.83992
402.664	0
403.167	0
403.67	0
404.172	0
404.674	0
405.176	0
405.678	0
406.18	0
406.682	0
407.184	0
407.686	0
408.187	0
408.688	0
409.19	0
409.691	0
410.192	0
410.693	0
411.194	435.30976
411.694	4082.94878
412.195	8864.71461
412.696	12089.80453
413.196	12726.09932
413.696	12283.17609
414.196	13177.24365
414.696	16630.24719
415.196	18797.20452
415.696	21445.42994
416.196	17593.63624
416.695	11149.78874
417.195	7350.0238
417.694	6975.58171
418.194	6944.07279
418.693	6032.0656
419.192	5569.98251
419.691	5581.77083
420.19	5746.80518
420.688	5928.18732
421.187	5977.99004
421.685	5902.54827
422.184	5419.07936
422.682	4636.43995
423.18	3424.97107
423.678	2852.65775
424.176	2464.83962
424.674	2418.26231
425.172	2363.30894
425.669	2574.30859
426.167	2460.2023
426.664	2060.18789
427.161	1785.63948
427.659	1723.30627
428.156	1448.37804
428.652	1346.26862
429.149	1310.28375
429.646	1350.26347
430.143	1377.28142
430.639	1212.40145
431.135	1130.52704
431.632	1015.59141
432.128	880.74494
432.624	750.87057
433.12	690.81255
433.616	672.83295
434.111	514.93212
434.607	516.9761
435.103	644.92924
435.598	639.94692
436.093	661.07838
436.588	597.09603
437.083	535.13257
437.578	537.17397
438.073	334.16689
438.568	440.24658
439.062	511.17907
439.557	481.27457
440.051	360.20129
440.546	222.1405
441.04	283.20529
441.534	274.2381
442.028	317.25248
442.522	338.26693
443.015	304.20637
443.509	328.29021
444.002	255.23428
444.496	242.1829
444.989	267.25398
445.482	217.21859
445.975	257.20919
446.468	267.20171
446.961	175.14029
447.454	216.19352
447.947	107.10758
448.439	180.19254
448.931	81.07749
449.424	229.26301
449.916	159.17614
450.408	135.13142
450.9	82.09327
451.392	92.11306
451.884	119.12814
452.375	0
452.867	146.15754
453.358	90.09626
453.849	109.10656
454.341	151.16106
454.832	22.02313
455.323	74.09283
455.814	120.13889
456.304	107.12593
456.795	98.1153
457.285	109.12705
457.776	147.17815
458.266	93.11826
458.756	27.03666
459.247	48.06284
459.737	-2.00268
460.226	53.06511
460.716	17.02337
461.206	52.07234
461.695	69.10305
462.185	48.06656
462.674	49.06666
463.163	55.07125
463.653	38.04623
464.142	21.03095
464.63	-19.0295
465.119	27.03813
465.608	-12.01723
466.096	-29.03989
466.585	22.03251
467.073	-19.02997
467.561	-2.00317
468.05	14.02132
468.538	46.07501
469.026	4.00641
469.513	-57.07943
470.001	-6.00906
470.489	-42.06776
470.976	29.04518
471.463	-41.07223
471.951	15.02648
472.438	-23.03775
472.925	-76.12595
473.412	-37.06621
473.899	-41.06789
474.385	9.016
474.872	-101.17318
475.359	-37.06638
475.845	-36.05352
476.331	-15.02394
476.817	-38.06981
477.303	-21.03634
477.789	-14.02538
478.275	-111.21311
478.761	-55.10203
479.247	9.01523
479.732	-88.17038
480.218	-39.07944
480.703	-35.06788
481.188	-50.08268
481.673	-86.15512
482.158	-112.185
482.643	-32.06522
483.128	-111.2016
483.612	-67.1251
484.097	-25.0492
484.581	-38.07104
485.066	-63.1237
485.55	-146.26159
486.034	-94.16452
486.518	-100.1913
487.002	-96.19237
487.486	-101.20366
487.969	-154.31489
488.453	-68.14301
488.936	-100.18694
489.42	-4.00721
489.903	-89.18953
490.386	-533.826
490.869	-49.08899
491.352	-48.09948
491.835	-60.10385
492.318	-123.23581
492.8	-67.11624
493.283	-130.28376
493.765	-96.20163
494.247	-49.09785
494.73	-125.23802
495.212	-52.10811
495.694	-131.26391
496.175	-182.37484
496.657	-66.13477
497.139	-49.07296
497.62	-189.39215
498.102	-143.31008
498.583	-108.23684
499.064	-149.2898
499.545	-130.2599
500.026	-138.2709
500.507	-113.22974
500.988	-91.198
501.469	-154.34056
501.949	-148.32578
502.43	-155.32448
502.91	-169.30944
503.39	-157.35219
503.87	-107.22042
504.35	-145.30637
504.83	-136.26345
505.31	-151.32562
505.79	-150.31894
506.269	-179.37737
506.749	-159.32371
507.228	-205.4337
507.707	-132.26011
508.187	-100.213
508.666	-153.33573
509.145	-168.35208
509.623	-131.2746
510.102	-150.327
510.581	-107.23173
511.059	-161.3625
511.538	-149.34877
512.016	-150.32353
512.494	-108.23524
512.972	-124.26573
513.45	-221.46448
513.928	-189.41629
514.406	-214.46671
514.884	-140.32456
515.361	-138.29803
515.839	-161.33211
516.316	-131.28406
516.793	-161.37184
517.27	-131.28855
517.747	-155.36083
518.224	-175.37088
518.701	-150.30392
519.178	-178.40118
519.654	-133.28852
520.131	-154.34695
520.607	-100.22465
521.083	-167.34882
521.56	-165.35657
522.036	-145.29104
522.512	-159.36063
522.987	-200.43562
523.463	-193.42279
523.939	-132.29581
524.414	-146.30963
524.89	-131.2837
525.365	-151.31316
525.84	-193.42047
526.315	-171.37839
526.79	-163.33835
527.265	-176.37048
527.74	-217.49138
528.215	-145.31348
528.689	-154.31317
529.164	-154.30874
529.638	-110.25845
530.112	-222.48682
530.587	-144.28095
531.061	-165.36572
531.534	-146.32651
532.008	-160.35397
532.482	-98.20556
532.956	-163.38184
533.429	-129.28712
533.903	-121.24634
534.376	-182.37433
534.849	-146.3126
535.322	-151.32939
535.795	-162.36692
536.268	-142.31441
536.741	-104.22912
537.213	-118.25101
537.686	-166.37368
538.158	-186.38653
538.631	-120.26925
539.103	-150.30991
539.575	-102.1956
540.047	-97.19541
540.519	-143.31696
540.991	-91.20447
541.463	-127.28372
541.934	-107.22479
542.406	-128.28058
542.877	-37.07547
543.348	-70.15441
543.82	-66.14784
544.291	-93.1996
544.762	-90.19453
545.233	-57.12939
545.703	-74.14849
546.174	-59.12444
546.645	-172.37814
547.115	-79.1727
547.585	-36.07454
548.056	-64.13834
548.526	-76.16068
548.996	26.05536
549.466	-9.01967
549.935	-37.07773
550.405	14.0269
550.875	34.07044
551.344	57.11943
551.814	67.13386
552.283	113.21151
552.752	118.23383
553.221	62.11562
553.69	167.31197
554.159	108.22614
554.628	217.40015
555.096	148.31839
555.565	212.39358
556.033	200.39892
556.502	245.49925
556.97	251.46633
557.438	276.55
557.906	321.63804
558.374	322.61749
558.842	332.66406
559.31	412.75616
559.777	338.68296
560.245	452.87184
560.712	480.90497
561.18	518.91301
561.647	526.94069
562.114	575.03452
562.581	590.16311
563.048	668.2007
563.514	664.27492
563.981	682.21212
564.448	778.31537
564.914	822.44118
565.381	800.37538
565.847	915.5791
566.313	966.6325
566.779	945.54391
567.245	953.62483
567.711	1051.79536
568.176	1058.6578
568.642	1091.94773
569.108	1181.00958
569.573	1270.01048
570.038	1323.76846
570.504	1276.86858
570.969	1407.31604
571.434	1372.89101
571.899	1424.16796
572.363	1528.12427
572.828	1557.17134
573.293	1582.18511
573.757	1594.19632
574.222	1595.09357
574.686	1673.15128
575.15	1654.33714
575.614	1731.27106
576.078	1738.34943
576.542	1745.2625
577.006	1764.23341
577.469	1744.57119
577.933	1699.1633
578.396	1699.38451
578.86	1686.34445
579.323	1673.36072
579.786	1651.04237
580.249	1587.15653
580.712	1646.4467
581.175	1498.34485
581.637	1563.20329
582.1	1553.0538
582.563	1518.97361
583.025	1437.23627
583.487	1385.70959
583.95	1348.82662
584.412	1350.79251
584.874	1334.14625
585.336	1303.04958
585.797	1200.72964
586.259	1269.01748
586.721	1177.89481
587.182	1200.93366
587.643	1115.76321
588.105	1055.78296
588.566	1052.54411
589.027	953.67979
589.488	981.61813
589.949	961.71508
590.41	957.30016
590.87	914.54435
591.331	880.40413
591.791	844.45973
592.252	763.32945
592.712	803.47754
593.172	781.33726
593.632	849.39197
594.092	742.27201
594.552	762.24718
595.011	739.30313
595.471	732.26288
595.931	709.22408
596.39	684.28561
596.849	633.17002
597.308	697.17585
597.768	605.23941
598.227	656.25529
598.685	688.24369
599.144	638.18428
599.603	680.2693
600.062	628.03188
600.52	653.14096
600.978	654.22912
601.437	673.21249
601.895	624.04069
602.353	652.1401
602.811	718.23077
603.269	630.20196
603.727	648.23038
604.184	690.20608
604.642	694.33646
605.099	661.20787
605.557	679.30721
606.014	700.1582
606.471	677.32774
606.928	689.1302
607.385	715.343
607.842	808.39287
608.299	874.51977
608.755	828.50954
609.212	809.34538
609.668	808.33081
610.125	917.64647
610.581	958.68819
611.037	884.51777
611.493	852.53302
611.949	790.46267
612.405	888.29266
612.861	946.66178
613.316	813.48925
613.772	852.48219
614.227	894.58497
614.683	917.45466
615.138	874.54461
615.593	896.56469
616.048	911.56718
616.503	914.71039
616.958	845.63594
617.412	882.58713
617.867	870.44516
618.321	850.3291
618.776	903.50468
619.23	852.53929
619.684	823.44181
620.138	830.50327
620.592	806.53989
621.046	838.53552
621.5	831.58275
621.954	839.47222
622.407	811.41478
622.861	740.44637
623.314	832.48473
623.768	767.4253
624.221	783.20092
624.674	718.33772
625.127	703.33987
625.58	759.39643
626.033	777.3753
626.485	728.41683
626.938	733.42353
627.39	738.39683
627.843	671.28559
628.295	717.35933
628.747	641.27656
629.199	630.20021
629.651	606.16056
630.103	597.15791
630.555	617.0972
631.006	588.17764
631.458	591.19049
631.909	606.19079
632.361	519.05481
632.812	505.0179
633.263	564.04614
633.714	539.00141
634.165	506.08045
634.616	490.02903
635.067	519.01163
635.518	478.0135
635.968	484.8593
636.419	536.01982
636.869	479.0154
637.319	463.95675
637.769	445.89235
638.219	465.99918
638.669	407.88135
639.119	471.03142
639.569	417.91379
640.019	388.82173
640.468	400.81527
640.918	410.90281
641.367	341.70846
641.816	355.73359
642.265	389.82583
642.714	370.78943
643.163	372.78888
643.612	339.75353
644.061	341.66799
644.51	357.75228
644.958	309.6351
645.406	327.72928
645.855	324.74273
646.303	348.75795
646.751	330.69982
647.199	376.79075
647.647	313.67492
648.095	338.72242
648.543	339.64962
648.99	336.7495
649.438	347.76266
649.885	320.74414
650.333	332.60256
650.78	375.8408
651.227	335.76316
651.674	298.64107
652.121	332.75801
652.568	279.64228
653.015	396.93062
653.461	335.74712
653.908	399.86145
654.354	371.82704
654.801	275.61281
655.247	333.68844
655.693	305.75281
656.139	305.69231
656.585	357.80275
657.031	329.72098
657.477	306.62539
657.922	342.73982
658.368	368.85168
658.813	354.77559
659.259	308.70067
659.704	311.68671
660.149	292.64786
660.594	317.71341
661.039	353.75659
661.484	356.80231
661.929	386.84533
662.373	311.74499
662.818	364.84977
663.262	381.85951
663.707	364.86909
664.151	334.77393
664.595	326.74611
665.039	419.97371
665.483	385.92114
665.927	382.84645
666.371	352.76796
666.814	374.84252
667.258	316.71101
667.701	413.83469
668.145	395.9252
668.588	316.74064
669.031	397.87437
669.474	364.82938
669.917	405.84216
670.36	353.83073
670.803	416.94209
671.245	432.84887
671.688	413.9465
672.13	346.73663
672.573	433.02862
673.015	426.95806
673.457	379.77967
673.899	405.92408
674.341	421.95322
674.783	381.86302
675.225	418.96506
675.666	400.90402
676.108	458.925
676.549	421.93731
676.991	409.84821
677.432	440.8157
677.873	439.95063
678.314	439.98142
678.755	435.99171
679.196	434.93038
679.637	417.96026
680.078	436.95763
680.518	492.0623
680.959	406.91758
681.399	398.93277
681.839	430.98328
682.28	448.03178
682.72	458.97716
683.16	434.01218
683.6	505.06363
684.039	455.88374
684.479	401.92969
684.919	451.96911
685.358	490.15511
685.798	443.0878
686.237	486.09182
686.676	497.06876
687.115	506.09818
687.554	511.11964
687.993	506.03231
688.432	500.05561
688.871	455.96381
689.309	493.09057
689.748	522.00181
690.186	563.23013
690.625	508.09878
691.063	480.06949
691.501	515.17669
691.939	498.15079
692.377	535.19987
692.815	487.07997
693.253	578.268
693.69	549.10168
694.128	531.18259
694.565	562.22561
695.003	588.3612
695.44	491.06941
695.877	549.17267
696.314	618.195
696.751	556.16071
697.188	553.16082
697.625	653.34453
698.061	554.21681
698.498	615.34843
698.934	557.22879
699.371	539.16371
699.807	594.27579
700.243	584.27903
700.679	623.27059
701.115	612.30547
701.551	625.32834
701.987	633.27932
702.422	552.20021
702.858	603.30209
703.294	559.15691
703.729	635.40226
704.164	582.27625
704.599	594.19736
705.035	565.15056
705.47	591.30662
705.904	595.25626
706.339	661.3775
706.774	642.35
707.209	571.19866
707.643	601.30995
708.078	617.35963
708.512	566.29467
708.946	597.30067
709.38	554.20252
709.814	607.25473
710.248	599.32708
710.682	585.26533
711.116	569.23644
711.549	598.40786
711.983	559.17962
712.416	607.30067
712.85	549.258
713.283	585.2594
713.716	640.45356
714.149	589.27833
714.582	565.15578
715.015	633.43446
715.448	561.29786
715.881	610.20374
716.313	560.19905
716.746	555.19472
717.178	537.18659
717.61	535.25182
718.043	598.35699
718.475	551.22517
718.907	538.25713
719.339	513.07008
719.77	525.14456
720.202	521.21807
720.634	520.16642
721.065	489.07541
721.497	532.20119
721.928	468.07107
722.359	412.93682
722.79	496.09928
723.221	518.20655
723.652	584.37966
724.083	483.00918
724.514	462.99124
724.945	446.98247
725.375	427.93057
725.806	439.02968
726.236	447.07495
726.666	427.95185
727.096	447.02763
727.526	444.05742
727.956	389.83734
728.386	456.05024
728.816	415.99175
729.246	381.87914
729.675	346.81442
730.105	438.01192
730.534	409.90381
730.964	463.09495
731.393	448.04408
731.822	406.98228
732.251	395.95118
732.68	403.89911
733.109	402.93772
733.537	351.80993
733.966	399.93858
734.395	395.8634
734.823	411.87519
735.251	377.86333
735.68	391.93049
736.108	391.93941
736.536	380.85183
736.964	352.77999
737.392	364.86909
737.82	351.80541
738.247	395.89654
738.675	420.94689
739.102	324.77745
739.53	306.75098
739.957	286.71201
740.384	339.80244
740.811	296.72537
741.238	276.65322
741.665	282.63296
742.092	332.76106
742.519	265.63675
742.945	236.55381
743.372	270.64889
743.798	264.65964
744.225	239.55504
744.651	288.69922
745.077	250.60744
745.503	238.56743
745.929	272.63329
746.355	328.78435
746.781	271.65191
747.207	228.5229
747.632	191.45826
748.058	265.64255
748.483	263.58874
748.908	215.52387
749.334	239.5732
749.759	221.5106
750.184	180.42323
750.609	221.53225
751.033	263.60497
751.458	266.58011
751.883	204.49698
752.307	214.49414
752.732	160.39532
753.156	170.41509
753.58	236.54796
754.005	212.52801
754.429	211.48672
754.853	202.49156
755.277	195.45447
755.7	180.44065
756.124	162.39776
756.548	132.3117
756.971	198.47569
757.394	171.43508
757.818	172.43693
758.241	180.45027
758.664	171.42644
759.087	91.20422
759.51	222.54083
759.933	132.31617
760.356	166.42064
760.778	181.43889
761.201	133.32227
761.623	174.4174
762.046	193.45141
762.468	197.466
762.89	145.35556
763.312	164.3964
763.734	116.27891
764.156	132.32435
764.578	118.27161
765	145.35134
765.421	79.20115
765.843	138.3591
766.264	169.40394
766.686	161.4002
767.107	121.29242
767.528	73.18496
767.949	104.2642
768.37	133.32469
768.791	91.22092
769.212	113.28283
769.632	78.18276
770.053	126.32978
770.473	118.2863
770.894	134.33363
771.314	128.30484
771.734	72.16903
772.154	114.29175
772.575	154.35404
772.994	99.22537
773.414	161.38276
773.834	96.24007
774.254	77.18931
774.673	112.27235
775.093	78.19364
775.512	55.13652
775.931	67.17066
776.351	85.21144
776.77	96.23467
777.189	85.20286
777.607	102.25994
778.026	93.23168
778.445	45.11349
778.864	102.26113
779.282	111.26643
779.701	93.23437
780.119	51.12972
780.537	43.10821
780.955	102.25903
781.373	69.17139
781.791	77.17387
782.209	116.26668
782.627	55.14555
783.045	54.12534
783.462	86.21971
783.88	66.17122
784.297	47.11908
784.715	79.20293
785.132	81.19649
785.549	79.19788
785.966	52.13159
786.383	72.17764
786.8	102.23666
787.217	72.17134
787.633	27.06807
788.05	104.24673
788.466	100.23568
788.883	55.14088
789.299	90.21672
789.715	93.22585
790.131	102.25285
790.547	65.16293
790.963	87.21587
791.379	58.14724
791.795	77.17635
792.21	61.14346
792.626	57.13609
793.041	87.21461
793.457	69.17102
793.872	68.16052
794.287	62.14856
794.702	97.23848
795.117	13.03269
795.532	26.06577
795.947	105.25193
796.362	81.19376
796.776	90.21096
797.191	69.16933
797.605	10.02381
798.02	56.13694
798.434	119.26354
798.848	63.15563
799.262	45.11231
799.676	50.12277
800.09	94.23072
800.504	48.11725
800.918	27.06328
801.331	94.2457
801.745	60.13855
802.158	62.15544
802.572	116.27965
802.985	74.17921
803.398	60.14372
803.811	101.25862
804.224	89.22115
804.637	57.1364
805.05	131.30087
805.462	96.23519
805.875	29.07571
806.288	57.13801
806.7	33.08358
807.112	63.14666
807.525	89.21922
807.937	29.0723
808.349	66.16564
808.761	66.16272
809.173	55.13387
809.584	76.18792
809.996	40.09858
810.408	30.07796
810.819	45.10653
811.231	44.11418
811.642	61.14581
812.053	91.21576
812.464	123.28983
812.875	110.27924
813.286	108.2762
813.697	148.34161
814.108	66.16158
814.519	45.10107
814.929	94.23888
815.34	60.14596
815.75	57.14519
816.16	85.21144
816.571	70.18184
816.981	84.19813
817.391	60.1453
817.801	47.11726
818.211	33.07933
818.62	36.08728
819.03	80.19585
819.44	56.14662
819.849	83.20872
820.259	104.26467
820.668	54.13323
821.077	39.0974
821.486	83.1996
821.895	67.16576
822.304	85.22456
822.713	135.31539
823.122	40.10039
823.531	105.24742
823.939	66.16098
824.348	81.19664
824.756	56.14065
825.164	104.26016
825.573	43.1084
825.981	67.1663
826.389	32.08095
826.797	43.10821
827.205	37.08552
827.612	81.19951
828.02	7.01664
828.428	34.08711
828.835	33.08733
829.243	56.13388
829.65	67.16661
830.057	93.22475
830.464	73.17775
830.871	76.18183
831.278	81.19538
831.685	86.19145
832.092	57.13988
832.499	53.11645
832.905	91.22941
833.312	87.19789
833.718	66.16451
834.124	88.20045
834.531	66.16642
834.937	86.21994
835.343	65.15697
835.749	91.21176
836.155	63.16498
836.561	41.10132
836.966	73.17835
837.372	79.20058
837.777	27.06773
838.183	98.21672
838.588	87.21516
838.993	108.26095
839.399	35.08605
839.804	8.0197
840.209	39.09969
840.613	59.13154
841.018	59.14954
841.423	46.11835
841.828	48.12172
842.232	107.26306
842.637	56.13239
843.041	33.085
843.445	67.16794
843.849	68.1682
844.253	86.20363
844.657	38.09609
845.061	67.15203
845.465	62.14981
845.869	65.15108
846.272	17.04175
846.676	113.27082
847.079	58.14755
847.483	92.22831
847.886	116.27954
848.289	44.1177
848.692	116.29092
849.095	46.11085
849.498	142.35483
849.901	105.23893
850.304	56.13403
850.707	54.13786
851.109	97.24392
851.512	58.14262
851.914	30.076
852.316	66.16677
852.718	41.10616
853.121	38.09351
853.523	59.138
853.925	40.10466
854.326	63.1574
854.728	33.08524
855.13	35.09063
855.531	49.11735
855.933	85.20317
856.334	23.05771
856.736	2.00454
857.137	69.16019
857.538	49.1234
857.939	41.10162
858.34	89.21574
858.741	46.12048
859.142	58.1394
859.542	38.10058
859.943	58.14415
860.343	66.16319
860.744	88.21359
861.144	79.192
861.544	-4.00973
861.945	24.06153
862.345	82.1997
862.745	85.21021
863.145	106.25118
863.544	65.16404
863.944	67.15806
864.344	61.15147
864.743	105.25834
865.143	56.14387
865.542	21.04908
865.941	62.15336
866.34	80.19089
866.74	84.22441
867.139	37.08895
867.537	79.20051
867.936	44.1062
868.335	63.16013
868.734	50.12792
869.132	41.0956
869.531	98.23527
869.929	59.13448
870.327	55.13192
870.726	72.17907
871.124	89.20678
871.522	53.13509
871.92	78.19166
872.318	49.11998
872.715	93.22873
873.113	38.09293
873.511	45.11235
873.908	14.0356
874.306	29.07248
874.703	66.16487
875.1	69.17612
875.497	42.10099
875.894	13.0321
876.291	55.13502
876.688	65.16737
877.085	50.12013
877.482	52.13027
877.878	60.14432
878.275	77.19488
878.671	108.23804
879.068	68.16381
879.464	78.18776
879.86	80.18833
880.256	21.05216
880.652	36.09188
881.048	100.24581
881.444	69.16385
881.84	50.1272
882.236	81.20274
882.631	77.18826
883.027	122.29177
883.422	30.07705
883.817	37.09328
884.213	48.12332
884.608	25.06165
885.003	28.06786
885.398	59.14757
885.793	69.17277
886.188	49.12194
886.582	89.22693
886.977	75.17735
887.371	80.20143
887.766	68.16869
888.16	79.1963
888.554	117.28605
888.949	76.19012
889.343	73.17775
889.737	20.05359
890.131	28.07058
890.525	87.22121
890.918	73.18311
891.312	79.18818
891.706	69.18057
892.099	115.2895
892.492	62.13361
892.886	58.14183
893.279	67.1703
893.672	80.20273
894.065	99.24591
894.458	96.23963
894.851	103.25014
895.244	61.15559
895.637	96.22942
896.029	33.08101
896.422	69.16814
896.814	72.17842
897.206	17.04077
897.599	125.30516
897.991	36.08735
898.383	59.1393
898.775	57.1286
899.167	12.02822
899.559	60.15172
899.951	126.29292
900.342	71.18002
900.734	17.04246
901.125	97.25263
901.517	74.18096
901.908	82.19559
902.299	52.12716
902.69	75.17625
903.082	93.22357
903.473	19.0458
903.863	81.20566
904.254	86.19835
904.645	131.32123
905.036	8.01953
905.426	66.15076
905.817	29.07148
906.207	49.11685
906.597	64.14937
906.987	98.25204
907.378	48.12151
907.768	73.19234
908.158	83.20127
908.547	40.10355
908.937	55.14108
909.327	63.15271
909.717	104.26167
910.106	45.10826
910.495	96.23781
910.885	70.17676
911.274	37.09274
911.663	63.15962
912.052	67.16491
912.441	63.1599
912.83	81.18492
913.219	114.29522
913.608	63.15403
913.997	35.08802
914.385	63.15024
914.774	59.1435
915.162	39.09318
915.55	67.16168
915.939	38.09616
916.327	94.23285
916.715	28.07166
917.103	102.24878
917.491	105.25729
917.878	50.123
918.266	64.16563
918.654	80.20337
919.041	49.12797
919.429	32.07583
919.816	49.12428
920.203	42.10206
920.591	45.11174
920.978	82.1997
921.365	75.196
921.752	73.17335
922.139	44.09572
922.525	74.17698
922.912	54.13166
923.299	32.07982
923.685	66.17175
924.072	65.14953
924.458	103.25276
924.844	13.0324
925.231	17.03984
925.617	47.11963
926.003	79.20094
926.389	61.15362
926.774	84.21165
927.16	82.20253
927.546	36.09213
927.931	100.24735
928.317	64.14708
928.702	84.19751
929.088	-4.00956
929.473	39.09944
929.858	3.00732
930.243	38.09144
930.628	30.07328
931.013	49.12149
931.398	64.14684
931.783	60.15774
932.167	53.12953
932.552	80.1994
932.937	69.17071
933.321	48.12051
933.705	32.08095
934.09	106.26526
934.474	94.22146
934.858	39.10137
935.242	59.13654
935.626	33.08474
936.009	37.09863
936.393	108.27202
936.777	82.20883
937.16	36.09391
937.544	91.21276
937.927	31.07893
938.311	103.24901
938.694	75.19754
939.077	59.14102
939.46	69.16889
939.843	110.22655
940.226	48.12319
940.609	29.06687
940.991	60.15248
941.374	32.07849
941.757	72.17698
942.139	49.1101
942.522	56.13224
942.904	99.23582
943.286	67.16975
943.668	93.23914
944.05	62.1524
944.432	63.15512
944.814	65.15969
945.196	-5.01231
945.578	23.05495
945.959	75.17494
946.341	72.17607
946.722	60.14059
947.104	65.15495
947.485	67.15542
947.866	49.12349
948.247	60.15113
948.628	102.24646
949.009	59.15086
949.39	73.181
949.771	95.21906
950.152	59.14457
950.532	-2.00497
950.913	88.21078
951.293	28.07591
951.674	105.25136
952.054	35.08697
952.434	77.19022
952.814	80.18928
953.194	82.21346
953.574	99.24169
953.954	71.16795
954.334	66.16403
954.714	23.05634
955.093	82.20045
955.473	29.0728
955.853	44.11403
956.232	78.21283
956.611	82.19551
956.99	31.07818
957.37	65.16521
957.749	51.12167
958.128	52.13098
958.506	53.13742
958.885	68.17109
959.264	20.04929
959.643	74.16761
960.021	86.21171
960.4	69.15581
960.778	81.19841
961.156	58.1452
961.535	46.10732
961.913	73.17008
962.291	34.08747
962.669	35.0889
963.047	82.20809
963.424	73.18555
963.802	80.19563
964.18	92.23106
964.557	108.24591
964.935	89.20931
965.312	28.07319
965.69	94.23353
966.067	49.11936
966.444	69.16945
966.821	84.21528
967.198	90.21672
967.575	109.26511
967.952	95.22194
968.329	60.14574
968.705	61.13052
969.082	57.14601
969.458	23.05546
969.835	52.12655
970.211	43.11049
970.587	52.12943
970.963	70.17896
971.339	59.15382
971.715	51.12733
972.091	127.30831
972.467	56.13953
972.843	32.07968
973.219	122.28899
973.594	56.14632
973.97	97.22884
974.345	46.11018
974.721	135.32169
975.096	43.10419
975.471	98.23034
975.846	73.17462
976.221	49.12446
976.596	37.08891
976.971	56.13811
977.346	69.16006
977.72	27.06906
978.095	58.14969
978.469	95.22481
978.844	101.25161
979.218	30.07219
979.593	57.1364
979.967	55.13387
980.341	52.11969
980.715	80.20049
981.089	75.18691
981.463	80.1826
981.837	32.07846
982.21	77.17826
982.584	62.14941
982.957	33.08266
983.331	75.17645
983.704	3.00744
984.078	41.10121
984.451	125.308
984.824	52.12659
985.197	42.10217
985.57	56.14029
985.943	75.18439
986.316	71.17378
986.688	70.16818
987.061	73.17034
987.434	22.0576
987.806	70.16914
988.179	64.1506
988.551	82.20683
988.923	45.11092
989.295	70.17429
989.667	25.06001
990.039	85.20867
990.411	51.11737
990.783	92.21007
991.155	-3.00728
991.527	100.24399
991.898	66.16397
992.27	54.13347
992.641	124.30694
993.012	83.19406
993.384	48.11453
993.755	47.11988
994.126	60.14405
994.497	17.04198
994.868	100.22742
995.239	69.16663
995.61	27.06821
995.98	46.11182
996.351	40.09923
996.722	40.09295
997.092	37.08783
997.462	30.07035
997.833	75.17694
998.203	64.15476
998.573	51.12696
998.943	74.17271
999.313	49.11744
999.683	52.12474
1000.053	68.1559
1000.423	65.1575
1000.792	34.08836
1001.162	84.20541
1001.531	66.16224
1001.901	74.18365
1002.27	64.14266
1002.639	56.14292
1003.009	85.20076
1003.378	72.18336
1003.747	52.12279
1004.116	29.06966
1004.485	88.20877
1004.853	86.21646
1005.222	71.17835
1005.591	52.12341
1005.959	20.04534
1006.328	23.05204
1006.696	48.11581
1007.064	66.16552
1007.433	58.14473
1007.801	102.24794
1008.169	50.12625
1008.537	73.16086
1008.905	18.04219
1009.273	67.16497
1009.64	40.09559
1010.008	56.13332
1010.375	130.31091
1010.743	121.27545
1011.11	42.09953
1011.478	50.12372
1011.845	69.16164
1012.212	52.11763
1012.579	72.176
1012.946	82.19394
1013.313	87.20556
1013.68	69.15447
1014.047	36.086
1014.414	35.08289
1014.78	55.13652
1015.147	45.10892
1015.513	73.17509
1015.88	86.21847
1016.246	120.29235
1016.612	98.22215
1016.978	61.14914
1017.344	64.15773
1017.71	74.17961
1018.076	113.26316
1018.442	64.1642
1018.808	46.11503
1019.174	52.13037
1019.539	139.31425
1019.905	23.05451
1020.27	70.17207
1020.636	92.21877
1021.001	77.18335
1021.366	27.0651
1021.731	76.1945
1022.096	23.05827
1022.461	64.15101
1022.826	79.18666
1023.191	66.17263
1023.556	65.15185
1023.92	73.17868
1024.285	46.11232
1024.649	47.11521
1025.014	82.20186
1025.378	37.09321
1025.742	54.13396
1026.107	76.17095
1026.471	80.18561
1026.835	53.13127
1027.199	4.00971
1027.562	52.12079
1027.926	88.21359
1028.29	65.16398
1028.654	64.14678
1029.017	71.17378
1029.381	54.12885
1029.744	55.14009
1030.107	118.2754
1030.471	70.1669
1030.834	75.1697
1031.197	69.16556
1031.56	70.16447
1031.923	42.10869
1032.286	63.14753
1032.648	61.14553
1033.011	74.16897
1033.374	110.25542
1033.736	37.09745
1034.099	74.17948
1034.461	18.04571
1034.823	61.15152
1035.185	91.22727
1035.548	63.15288
1035.91	50.11972
1036.272	42.09571
1036.634	109.26362
1036.995	85.19834
1037.357	34.08293
1037.719	71.17191
1038.08	84.19805
1038.442	55.13036
1038.803	85.20263
1039.165	76.19081
1039.526	85.20395
1039.887	60.14322
1040.248	45.11092
1040.609	76.18682
1040.97	68.16554
1041.331	39.09888
1041.692	39.09118
1042.053	92.20761
1042.413	92.21252
1042.774	78.18861
1043.134	79.18695
1043.495	76.19005
1043.855	80.19286
1044.215	77.19008
1044.576	24.05764
1044.936	71.16202
1045.296	79.19602
1045.656	91.2215
1046.016	66.15875
1046.375	63.15237
1046.735	48.10881
1047.095	91.21118
1047.454	81.17039
1047.814	96.22863
1048.173	120.28271
1048.533	14.03229
1048.892	8.01934
1049.251	91.22662
1049.61	63.15466
1049.969	66.15501
1050.328	65.14041
1050.687	86.20772
1051.046	77.18644
1051.405	35.08726
1051.763	48.11035
1052.122	73.1812
1052.48	65.15886
1052.839	62.14544
1053.197	60.14086
1053.555	138.30887
1053.914	112.27062
1054.272	94.22524
1054.63	31.07602
1054.988	56.1328
1055.345	42.09055
1055.703	94.22421
1056.061	29.07483
1056.419	57.14728
1056.776	99.23772
1057.134	65.14994
1057.491	66.16469
1057.848	67.16618
1058.206	38.08953
1058.563	55.12104
1058.92	81.18544
1059.277	98.23947
1059.634	86.2008
1059.991	125.295
1060.348	71.15967
1060.704	55.13086
1061.061	107.24565
1061.418	33.08023
1061.774	49.12092
1062.131	38.10061
1062.487	29.06804
1062.843	58.14431
1063.199	60.14885
1063.555	10.02334
1063.911	71.17854
1064.267	119.24426
1064.623	54.13097
1064.979	111.25973
1065.335	51.12181
1065.691	62.14817
1066.046	47.10335
1066.402	44.10002
1066.757	81.20318
1067.112	42.10316
1067.468	37.08753
1067.823	60.14388
1068.178	95.22768
1068.533	83.19983
1068.888	97.22955
1069.243	55.13552
1069.598	83.20028
1069.952	4.00909
1070.307	53.13103
1070.662	54.12801
1071.016	34.07638
1071.371	70.15848
1071.725	58.13845
1072.079	66.15815
1072.434	56.13582
1072.788	75.17762
1073.142	46.11316
1073.496	32.07612
1073.85	73.1684
1074.203	74.1786
1074.557	53.14077
1074.911	111.26166
1075.265	84.19381
1075.618	95.22985
1075.971	58.13765
1076.325	80.20208
1076.678	24.05513
1077.031	39.08839
1077.385	84.18359
1077.738	60.13507
1078.091	71.16065
1078.444	69.15949
1078.796	22.05422
1079.149	67.166
1079.502	51.12036
1079.855	56.13034
1080.207	91.22232
1080.56	33.08548
1080.912	88.21255
1081.264	51.12269
1081.617	83.20089
1081.969	12.03045
1082.321	87.21081
1082.673	8.0184
1083.025	79.18623
1083.377	-174.39121
1083.728	83.19223
1084.08	68.16906
1084.432	49.11811
1084.783	98.22728
1085.135	99.24573
1085.486	55.12561
1085.838	82.2006
1086.189	44.10684
1086.54	99.23401
1086.891	27.06851
1087.242	33.08053
1087.593	92.22204
1087.944	93.20845
1088.295	97.21822
1088.646	46.11148
1088.996	61.14653
1089.347	46.11286
1089.698	23.0546
1090.048	71.18358
1090.398	58.1342
1090.749	76.18079
1091.099	33.08316
1091.449	77.19071
1091.799	85.21129
1092.149	3.00737
1092.499	59.14355
1092.849	85.21452
1093.199	95.23597
1093.548	6.01452
1093.898	69.17189
1094.248	79.20179
1094.597	9.02312
1094.947	34.09086
1095.296	31.07675
1095.645	103.26522
1095.994	40.09618
1096.343	67.16794
1096.692	-3.00794
1097.041	5.01362
1097.39	80.1994
1097.739	51.13242
1098.088	59.1577
1098.437	6.01586
1098.785	88.23556
1099.134	69.18247
1099.482	67.18361
1099.83	72.18832
1100.179	79.20484
1100.527	25.06664
1100.875	29.07687
1101.223	49.13002
1101.571	62.17085
1101.919	42.10978
1102.267	64.17963
1102.615	1.00322
1102.962	11.03541
1103.31	-2.00643
1103.658	18.05793
