Data from N2 R10 sample 3_Subt2__0__13-22-59-759.txt Node

Date: Mon Sep 01 13:22:59 PDT 2025
User: uwsun
Spectrometer: HDX01956
Trigger mode: 0
Integration Time (sec): 5.000000E-1
Scans to average: 1
Nonlinearity correction enabled: true
Boxcar width: 0
Storing dark spectrum: false
XAxis mode: Wavelengths
Number of Pixels in Spectrum: 2068
>>>>>Begin Spectral Data<<<<<
194.03	-115.32844
194.578	-105.33627
195.127	-106.33471
195.676	-111.35174
196.225	-61.16347
196.773	-100.27852
197.321	-139.38152
197.87	-155.39438
198.418	-159.39983
198.966	-194.49368
199.513	-242.59328
200.061	-193.47641
200.609	-158.40888
201.156	-210.4508
201.704	-197.48396
202.251	-215.55704
202.798	-224.57082
203.345	-150.36147
203.892	-216.53367
204.438	-187.43857
204.985	-228.52855
205.532	-201.51573
206.078	-195.46857
206.624	-225.54188
207.17	-174.39522
207.716	-240.57329
208.262	-165.32031
208.808	-251.60564
209.354	-217.51707
209.899	-150.3698
210.445	-232.56455
210.99	-234.55362
211.535	-157.36
212.08	-195.44569
212.625	-159.38729
213.17	-183.45322
213.715	-256.56138
214.259	-127.287
214.804	-171.41325
215.348	-180.4042
215.892	-173.40558
216.436	-132.29812
216.98	-139.30077
217.524	-179.41374
218.068	-167.41057
218.612	-162.39835
219.155	-165.37941
219.698	-176.41092
220.242	-162.39585
220.785	-153.34984
221.328	-137.33233
221.871	-144.35696
222.414	-97.23407
222.956	-179.42145
223.499	-105.22924
224.041	-132.30128
224.583	-108.22854
225.126	-153.33106
225.668	-149.35301
226.21	-180.4431
226.751	-203.43812
227.293	-165.3712
227.835	-164.39102
228.376	-97.21778
228.918	-138.33996
229.459	-165.4001
230	-163.3796
230.541	-141.31773
231.082	-124.29145
231.622	-192.43716
232.163	-161.38026
232.704	-164.39611
233.244	-177.4292
233.784	-92.21826
234.324	-212.45764
234.864	-148.32743
235.404	-136.31541
235.944	-169.39311
236.484	-125.30288
237.023	-180.41613
237.563	-172.3883
238.102	-174.40242
238.641	-169.41671
239.18	-233.53661
239.719	-160.39096
240.258	-114.24841
240.797	-159.36955
241.335	-126.29881
241.874	-242.46542
242.412	-154.35914
242.95	-231.54176
243.488	-161.35849
244.026	-154.3444
244.564	-147.29532
245.102	-187.41068
245.64	-165.38834
246.177	-160.34968
246.715	-112.25955
247.252	-141.31474
247.789	-111.20437
248.326	-200.46695
248.863	-191.40939
249.4	-157.34712
249.936	-137.27333
250.473	-209.47654
251.009	-175.38902
251.546	-203.43831
252.082	-146.31003
252.618	-188.40792
253.154	-218.51117
253.69	-160.34939
254.226	-217.50614
254.761	-177.38659
255.297	-182.38749
255.832	-197.45335
256.367	-152.34553
256.903	-175.37299
257.438	-147.33355
257.972	-185.40098
258.507	-214.4764
259.042	-151.3168
259.576	-201.41947
260.111	-158.35334
260.645	-150.31408
261.179	-193.43597
261.713	-164.3519
262.247	-144.31951
262.781	-193.39275
263.315	-191.45111
263.849	-184.44307
264.382	-164.36434
264.915	-184.41488
265.449	-261.61641
265.982	-168.36934
266.515	-210.49549
267.048	-245.50833
267.58	-133.27966
268.113	-171.35528
268.646	-217.51747
269.178	-251.54682
269.71	-193.40867
270.243	-185.40834
270.775	-212.51994
271.307	-149.34412
271.838	-130.29588
272.37	-196.4639
272.902	-180.39473
273.433	-244.52062
273.965	-181.42251
274.496	-193.46253
275.027	-196.46659
275.558	-252.59297
276.089	-299.71352
276.62	-236.58222
277.15	-156.3678
277.681	-174.36385
278.211	-163.38214
278.741	-238.50649
279.272	-205.44888
279.802	-186.44432
280.332	-219.49571
280.861	-215.49733
281.391	-218.47483
281.921	-191.44112
282.45	-182.43443
282.98	-207.51602
283.509	-250.54406
284.038	-217.47455
284.567	-217.48838
285.096	-221.51202
285.625	-230.50118
286.153	-245.55116
286.682	-211.46026
287.21	-265.61346
287.739	-183.4095
288.267	-254.58859
288.795	-188.46909
289.323	-242.53872
289.851	-206.45878
290.378	-242.52038
290.906	-297.68944
291.433	-210.49588
291.961	-216.46308
292.488	-208.48963
293.015	-278.62501
293.542	-240.57417
294.069	-251.58498
294.596	-207.48434
295.122	-226.50978
295.649	-189.39267
296.175	-241.55525
296.702	-202.4616
297.228	-229.5274
297.754	-268.57306
298.28	-244.52287
298.806	-273.62169
299.332	-238.49436
299.857	-233.49402
300.383	-188.44479
300.908	-269.61159
301.433	-248.56397
301.958	-210.45527
302.483	-258.60188
303.008	-223.51584
303.533	-235.57345
304.058	-265.59029
304.582	-298.66172
305.107	-310.7591
305.631	-262.56339
306.155	-271.58863
306.679	-291.63556
307.203	-224.4796
307.727	-254.56028
308.251	-304.70471
308.775	-323.71469
309.298	-311.69216
309.822	-273.63924
310.345	-303.66933
310.868	-308.68478
311.391	-286.65405
311.914	-341.79562
312.437	-247.51958
312.96	-324.70778
313.482	-306.66903
314.005	-343.79903
314.527	-299.71898
315.049	-295.68696
315.571	-331.67326
316.093	-277.6234
316.615	-306.67186
317.137	-316.62854
317.659	-296.65701
318.18	-320.70732
318.702	-310.65339
319.223	-305.56639
319.744	-355.72405
320.265	-360.7884
320.786	-339.75072
321.307	-351.78635
321.828	-353.71965
322.348	-391.83152
322.869	-387.81692
323.389	-549.85032
323.909	-377.77591
324.43	-313.67203
324.95	-382.77576
325.47	-398.86536
325.989	-401.83422
326.509	-488.95846
327.029	-427.84399
327.548	-452.89236
328.067	-449.94653
328.587	-408.88785
329.106	-450.89341
329.625	-370.84985
330.144	-446.8896
330.662	-465.92858
331.181	-457.92149
331.7	-426.8501
332.218	-443.81369
332.736	-493.99089
333.255	-483.95513
333.773	-490.98463
334.291	-441.93171
334.808	-531.99992
335.326	-532.01171
335.844	-548.05688
336.361	-526.09895
336.879	-575.11038
337.396	-564.12115
337.913	-581.09838
338.43	-535.97383
338.947	-592.15284
339.464	-609.05328
339.981	-602.15066
340.497	-600.20393
341.014	-614.20427
341.53	-669.21266
342.046	-644.2644
342.562	-598.18886
343.078	-661.23834
343.594	-588.09563
344.11	-626.16543
344.626	-658.30288
345.141	-658.16029
345.657	-630.1056
346.172	-628.15989
346.687	-687.20934
347.202	-680.1555
347.717	-672.21842
348.232	-700.34093
348.747	-706.22115
349.261	-738.17955
349.776	-702.22839
350.29	-790.46049
350.805	-717.33354
351.319	-718.23143
351.833	-809.34686
352.347	-754.2954
352.861	-760.28208
353.374	-736.23273
353.888	-782.38381
354.401	-746.21955
354.915	-795.2446
355.428	-798.41952
355.941	-827.36031
356.454	-775.22866
356.967	-790.31694
357.48	-796.28125
357.993	-801.38848
358.505	-874.50695
359.018	-789.32861
359.53	-878.4625
360.042	-845.27502
360.554	-826.36959
361.066	-879.46457
361.578	-873.26876
362.09	-847.3563
362.602	-881.27254
363.113	-870.32586
363.625	-876.27275
364.136	-882.24913
364.647	-1054.59442
365.158	-926.3882
365.669	-995.5726
366.18	-958.45799
366.691	-929.27756
367.201	-982.5009
367.712	-986.38937
368.222	-983.37942
368.733	-1028.32608
369.243	-1042.36262
369.753	-1021.41219
370.263	-1044.49679
370.773	-1065.5829
371.282	-1111.54353
371.792	-1212.53931
372.301	-1194.63282
372.811	-1200.8167
373.32	-1228.30951
373.829	-1270.54865
374.338	-1305.43124
374.847	-1344.49135
375.356	-1404.59269
375.865	-1486.32259
376.373	-1507.43485
376.882	-1458.65019
377.39	-1524.53662
377.898	-1720.66833
378.407	-1747.34013
378.915	-1738.14606
379.423	-1846.36977
379.93	-1880.16657
380.438	-2076.33011
380.946	-2122.09477
381.453	-2288.11988
381.96	-2417.91676
382.468	-2674.68512
382.975	-2604.60693
383.482	-2641.214
383.989	-2823.64463
384.495	-2916.07411
385.002	-3197.57657
385.509	-3339.68598
386.015	-3403.00005
386.521	-3602.10867
387.028	-3826.93003
387.534	-3911.73457
388.04	-3898.79473
388.546	-4328.61056
389.051	-4684.60419
389.557	-4943.70087
390.063	-4783.7259
390.568	-5199.98785
391.073	-5570.60545
391.578	-5721.84259
392.084	-6016.00916
392.589	-6611.00263
393.093	-7275.74722
393.598	-7664.5669
394.103	-8181.50684
394.607	-8993.81793
395.112	-9498.44096
395.616	-10095.19634
396.12	-11336.76703
396.624	-12613.81505
397.128	-13447.29664
397.632	-14395.10358
398.136	-16106.79816
398.639	-18477.79162
399.143	-21293.82184
399.646	-23599.08802
400.15	-26226.31361
400.653	-29742.52819
401.156	-34207.64469
401.659	-40397.34152
402.162	-40232.03534
402.664	-32731.94241
403.167	-20729.10589
403.67	-2662.72188
404.172	0
404.674	0
405.176	0
405.678	0
406.18	0
406.682	0
407.184	0
407.686	0
408.187	0
408.688	0
409.19	-14712.97823
409.691	-24398.01566
410.192	-30264.98755
410.693	-34293.49103
411.194	-36447.41599
411.694	-34135.57702
412.195	-31289.06993
412.696	-30174.60083
413.196	-30510.9252
413.696	-31056.36925
414.196	-29745.85055
414.696	-26744.4061
415.196	-23256.86898
415.696	-17032.22524
416.196	-13553.57223
416.695	-13101.95551
417.195	-13180.67367
417.694	-12480.75332
418.194	-11560.273
418.693	-11474.54494
419.192	-10998.35095
419.691	-10826.79636
420.19	-10354.81237
420.688	-9707.87858
421.187	-9079.65048
421.685	-8194.66121
422.184	-6999.54563
422.682	-6246.9294
423.18	-5904.07381
423.678	-5431.77752
424.176	-5150.70453
424.674	-4764.10451
425.172	-4321.61541
425.669	-3993.53324
426.167	-3535.61501
426.664	-3386.78811
427.161	-3193.05359
427.659	-3040.54117
428.156	-2841.33963
428.652	-2787.1774
429.149	-2664.16343
429.646	-2454.0384
430.143	-2325.4964
430.639	-2244.61048
431.135	-2180.9667
431.632	-1983.74243
432.128	-1966.08898
432.624	-1964.39721
433.12	-1923.97708
433.616	-1822.91547
434.111	-1944.327
434.607	-1837.40909
435.103	-1690.11484
435.598	-1582.03451
436.093	-1495.357
436.588	-1393.24698
437.083	-1405.38739
437.578	-1320.3816
438.073	-1423.73506
438.568	-1210.50086
439.062	-1220.25048
439.557	-1216.54764
440.051	-1180.4059
440.546	-1164.40777
441.04	-1210.64634
441.534	-1174.76021
442.028	-1029.41236
442.522	-1131.60676
443.015	-1073.3475
443.509	-1015.48995
444.002	-1049.56087
444.496	-1071.40699
444.989	-1038.58131
445.482	-1033.6105
445.975	-1053.44927
446.468	-989.27321
446.961	-998.29937
447.454	-1040.49938
447.947	-1020.5317
448.439	-945.48212
448.931	-1034.49346
449.424	-958.60932
449.916	-942.50516
450.408	-1025.51943
450.9	-1020.66275
451.392	-1018.76067
451.884	-921.41599
452.375	-1014.72871
452.867	-903.39391
453.358	-956.46529
453.849	-928.3279
454.341	-881.3415
454.832	-936.37969
455.323	-954.63919
455.814	-948.55012
456.304	-857.37782
456.795	-887.43429
457.285	-825.30521
457.776	-780.26891
458.266	-854.45049
458.756	-851.49411
459.247	-891.54492
459.737	-864.49679
460.226	-796.28052
460.716	-803.40226
461.206	-792.40518
461.695	-775.45591
462.185	-776.36604
462.674	-730.25005
463.163	-782.30785
463.653	-737.1515
464.142	-763.39677
464.63	-689.2801
465.119	-708.23567
465.608	-722.26944
466.096	-694.16284
466.585	-720.30696
467.073	-697.31491
467.561	-637.19388
468.05	-635.15441
468.538	-645.25535
469.026	-668.27521
469.513	-668.11488
470.001	-597.061
470.489	-674.28171
470.976	-618.14481
471.463	-600.21003
471.951	-565.1469
472.438	-650.25279
472.925	-651.24961
473.412	-547.10575
473.899	-543.02289
474.385	-566.15495
474.872	-566.09009
475.359	-548.11056
475.845	-506.86113
476.331	-504.91808
476.817	-541.1176
477.303	-524.02648
477.789	-500.01681
478.275	-539.13934
478.761	-508.04673
479.247	-435.82555
479.732	-545.16814
480.218	-490.09767
480.703	-484.03696
481.188	-466.86004
481.673	-470.93138
482.158	-537.99235
482.643	-428.95072
483.128	-500.99824
483.612	-445.90884
484.097	-383.81734
484.581	-410.83717
485.066	-470.00908
485.55	-445.85895
486.034	-399.75463
486.518	-461.95902
487.002	-502.09781
487.486	-440.95625
487.969	-450.98172
488.453	-408.9221
488.936	-397.79683
489.42	-400.79488
489.903	-379.8578
490.386	-895.53384
490.869	-371.72917
491.352	-381.84828
491.835	-400.75523
492.318	-408.83612
492.8	-351.65507
493.283	-401.92527
493.765	-401.89871
494.247	-325.69057
494.73	-405.82378
495.212	-310.6815
495.694	-415.89061
496.175	-468.02333
496.657	-306.65884
497.139	-273.43435
497.62	-440.96397
498.102	-365.8288
498.583	-350.8065
499.064	-369.75534
499.545	-316.65901
500.026	-350.72148
500.507	-365.78468
500.988	-332.75923
501.469	-384.88976
501.949	-325.74188
502.43	-374.82079
502.91	-362.69521
503.39	-334.77638
503.87	-364.79313
504.35	-313.68563
504.83	-349.71052
505.31	-403.91581
505.79	-370.8243
506.269	-282.60795
506.749	-364.77562
507.228	-327.71025
507.707	-316.64964
508.187	-282.62438
508.666	-346.78997
509.145	-342.74425
509.623	-338.74086
510.102	-305.68669
510.581	-244.54385
511.059	-290.67013
511.538	-300.72289
512.016	-249.54844
512.494	-258.57981
512.972	-264.58282
513.45	-323.69409
513.928	-265.59298
514.406	-318.70877
514.884	-240.56737
515.361	-248.54819
515.839	-278.58852
516.316	-257.57223
516.793	-210.48972
517.27	-213.47722
517.747	-220.51868
518.224	-205.43731
518.701	-164.33335
519.178	-234.53343
519.654	-175.38303
520.131	-181.41003
520.607	-176.40154
521.083	-222.46936
521.56	-239.52465
522.036	-180.36421
522.512	-137.30935
522.987	-253.55725
523.463	-244.54025
523.939	-219.49954
524.414	-135.28561
524.89	-197.43264
525.365	-237.50096
525.84	-270.59781
526.315	-225.50348
526.79	-190.39678
527.265	-211.44757
527.74	-224.50795
528.215	-247.54563
528.689	-285.59687
529.164	-240.49073
529.638	-250.60334
530.112	-268.59338
530.587	-242.48315
531.061	-279.63304
531.534	-215.48764
532.008	-289.65653
532.482	-217.46713
532.956	-333.80587
533.429	-230.52261
533.903	-251.52613
534.376	-227.47162
534.849	-238.51971
535.322	-253.56379
535.795	-277.642
536.268	-258.58504
536.741	-268.61068
537.213	-212.46019
537.686	-273.62797
538.158	-265.56039
538.631	-241.55415
539.103	-311.66572
539.575	-251.49867
540.047	-249.51917
540.519	-231.52137
540.991	-224.51702
541.463	-232.52951
541.934	-236.50988
542.406	-294.66693
542.877	-232.49415
543.348	-227.51716
543.82	-237.54952
544.291	-226.49893
544.762	-263.58947
545.233	-252.59458
545.703	-261.54637
546.174	-216.47127
546.645	-285.6414
547.115	-240.54246
547.585	-199.42709
548.056	-284.64268
548.526	-253.55562
548.996	-190.4235
549.466	-227.51883
549.935	-217.47395
550.405	-207.41893
550.875	-202.44054
551.344	-174.38318
551.814	-167.35176
552.283	-139.27641
552.752	-188.39922
553.221	-200.39725
553.69	-119.23808
554.159	-132.29105
554.628	-124.24825
555.096	-101.2289
555.565	-73.14517
556.033	-52.1098
556.502	-29.06278
556.97	56.1091
557.438	43.09034
557.906	117.24363
558.374	144.28803
558.842	145.3026
559.31	238.45596
559.777	246.50756
560.245	363.71513
560.712	356.6916
561.18	389.70873
561.647	494.89074
562.114	457.84828
562.581	595.17161
563.048	721.27861
563.514	691.31824
563.981	800.37904
564.448	925.5027
564.914	1015.69106
565.381	1149.79545
565.847	1236.9551
566.313	1404.09828
566.779	1500.08349
567.245	1553.23437
567.711	1724.43309
568.176	1837.26244
568.642	1987.76386
569.108	2190.77465
569.573	2316.64668
570.038	2589.16864
570.504	2634.41392
570.969	2919.9926
571.434	3111.22373
571.899	3311.61268
572.363	3481.31225
572.828	3732.2536
573.293	4023.1032
573.757	4228.99831
574.222	4468.66949
574.686	4572.62865
575.15	4832.84422
575.614	5038.52132
576.078	5271.52872
576.542	5482.27275
577.006	5661.134
577.469	5758.68006
577.933	5973.97898
578.396	6085.30267
578.86	6347.1984
579.323	6349.23734
579.786	6367.78137
580.249	6308.0148
580.712	6608.37717
581.175	6333.45002
581.637	6495.09981
582.1	6424.88319
582.563	6463.79689
583.025	6311.35718
583.487	6260.52807
583.95	6247.76398
584.412	6158.71148
584.874	6057.43997
585.336	5966.33029
585.797	5765.9191
586.259	5759.4089
586.721	5424.49287
587.182	5411.53342
587.643	5282.40021
588.105	5103.73226
588.566	4936.17993
589.027	4732.0197
589.488	4636.77433
589.949	4601.17198
590.41	4386.07394
590.87	4279.00535
591.331	4254.70515
591.791	4040.15746
592.252	3827.19621
592.712	3812.53313
593.172	3625.22786
593.632	3706.07593
594.092	3487.24331
594.552	3401.0959
595.011	3183.47188
595.471	3104.38695
595.931	3094.36634
596.39	2929.75249
596.849	2857.62573
597.308	2847.3087
597.768	2703.0811
598.227	2728.81399
598.685	2634.59883
599.144	2613.65757
599.603	2543.71999
600.062	2512.17312
600.52	2419.41895
600.978	2446.70956
601.437	2397.55224
601.895	2359.2196
602.353	2289.40434
602.811	2304.39732
603.269	2240.69922
603.727	2206.68657
604.184	2215.42331
604.642	2226.79144
605.099	2203.55333
605.557	2185.76156
606.014	2189.24146
606.471	2158.8217
606.928	2193.20443
607.385	2176.69682
607.842	2180.47335
608.299	2315.59812
608.755	2206.69969
609.212	2378.38581
609.668	2277.33864
610.125	2340.76573
610.581	2395.74657
611.037	2426.58002
611.493	2416.7266
611.949	2443.78417
612.405	2422.02358
612.861	2558.74655
613.316	2437.76276
613.772	2517.608
614.227	2561.73005
614.683	2581.33121
615.138	2558.6963
615.593	2540.66979
616.048	2535.6259
616.503	2663.99088
616.958	2584.05846
617.412	2602.78214
617.867	2436.44604
618.321	2517.21646
618.776	2445.4905
619.23	2343.72713
619.684	2436.59733
620.138	2410.7295
620.592	2293.88939
621.046	2344.76871
621.5	2233.8798
621.954	2214.57315
622.407	2134.5034
622.861	2095.83749
623.314	2066.57539
623.768	1958.60918
624.221	1999.04252
624.674	1899.54607
625.127	1785.5403
625.58	1846.50809
626.033	1770.35798
626.485	1780.62506
626.938	1717.57579
627.39	1624.42804
627.843	1601.39823
628.295	1611.40765
628.747	1599.49233
629.199	1537.30128
629.651	1479.25053
630.103	1397.20365
630.555	1402.00158
631.006	1404.29139
631.458	1345.24744
631.909	1338.18417
632.361	1284.16184
632.812	1232.07495
633.263	1282.96363
633.714	1226.89825
634.165	1223.20971
634.616	1198.12769
635.067	1148.90992
635.518	1155.09064
635.968	1166.7105
636.419	1087.79665
636.869	1047.94775
637.319	1015.83777
637.769	1008.759
638.219	1039.95575
638.669	969.84516
639.119	1035.99961
639.569	928.81269
640.019	969.79079
640.468	955.70084
640.918	946.84703
641.367	926.67244
641.816	939.68606
642.265	922.72878
642.714	860.63847
643.163	903.69185
643.612	791.59109
644.061	809.40906
644.51	873.62991
644.958	825.49761
645.406	831.65785
645.855	912.84107
646.303	858.66471
646.751	785.49789
647.199	871.63098
647.647	875.65783
648.095	822.57126
648.543	835.40858
648.99	801.61271
649.438	861.68602
649.885	852.7701
650.333	867.36089
650.78	800.63468
651.227	799.647
651.674	733.42759
652.121	755.57432
652.568	733.53178
653.015	789.70924
653.461	764.55047
653.908	773.53344
654.354	807.63448
654.801	646.32682
655.247	680.29502
655.693	689.57724
656.139	696.45213
656.585	709.477
657.031	634.29804
657.477	600.14296
657.922	699.39484
658.368	688.4887
658.813	698.41636
659.259	653.37949
659.704	603.24812
660.149	602.24744
660.594	652.36444
661.039	592.20153
661.484	610.3012
661.929	608.26719
662.373	600.35548
662.818	578.29033
663.262	596.28338
663.707	546.25587
664.151	564.24504
664.595	518.13763
665.039	565.27295
665.483	517.20351
665.927	536.14758
666.371	484.02445
666.814	518.13047
667.258	471.02404
667.701	568.1055
668.145	534.21453
668.588	498.1234
669.031	467.01145
669.474	478.06195
669.917	508.03029
670.36	461.05988
670.803	483.07686
671.245	494.95652
671.688	456.03394
672.13	408.8569
672.573	480.13018
673.015	424.95396
673.457	403.82456
673.899	440.99683
674.341	389.88651
674.783	352.80204
675.225	370.86242
675.666	377.85605
676.108	380.7812
676.549	387.8677
676.991	388.80843
677.432	351.66514
677.873	386.84533
678.314	363.82426
678.755	317.73993
679.196	325.71312
679.637	385.89225
680.078	356.79509
680.518	353.78627
680.959	384.87176
681.399	288.68951
681.839	350.81324
682.28	313.74177
682.72	291.64336
683.16	320.76464
683.6	335.7332
684.039	290.58543
684.479	261.6219
684.919	241.54128
685.358	325.79213
685.798	255.64923
686.237	276.64791
686.676	300.67363
687.115	261.59701
687.554	258.59643
687.993	269.57931
688.432	239.53436
688.871	256.56587
689.309	269.62396
689.748	259.52946
690.186	254.59208
690.625	204.47067
691.063	254.59348
691.501	241.58195
691.939	226.55139
692.377	202.48475
692.815	199.46854
693.253	249.58488
693.69	161.35254
694.128	158.3796
694.565	186.43853
695.003	149.37535
695.44	159.37131
695.877	175.40465
696.314	189.40353
696.751	179.4055
697.188	136.31216
697.625	251.5642
698.061	149.35559
698.498	173.41508
698.934	170.40594
699.371	132.31025
699.807	190.44413
700.243	147.35203
700.679	183.41102
701.115	170.39785
701.551	166.38849
701.987	163.36535
702.422	147.3476
702.858	182.42893
703.294	106.24194
703.729	163.39584
704.164	182.43326
704.599	161.3573
705.035	102.2299
705.47	118.28694
705.904	93.21821
706.339	158.36643
706.774	124.29077
707.209	98.22746
707.643	110.26498
708.078	125.30413
708.512	71.17874
708.946	132.31629
709.38	135.31959
709.814	120.27544
710.248	98.24
710.682	129.30657
711.116	94.22515
711.549	89.23044
711.983	139.32077
712.416	125.29603
712.85	134.33303
713.283	138.326
713.716	189.46893
714.149	171.40465
714.582	136.30565
715.015	143.35662
715.448	130.32685
715.881	139.30501
716.313	108.25414
716.746	96.22731
717.178	93.22484
717.61	123.31141
718.043	107.26723
718.475	105.25538
718.907	130.32849
719.339	80.18319
719.77	78.1864
720.202	96.24344
720.634	82.20075
721.065	89.21249
721.497	101.24841
721.928	79.19523
722.359	41.10021
722.79	95.22846
723.221	107.26975
723.652	149.38205
724.083	77.17564
724.514	107.24712
724.945	54.1287
725.375	75.17563
725.806	83.20857
726.236	132.33699
726.666	116.2752
727.096	63.1562
727.526	82.2092
727.956	51.11774
728.386	103.25435
728.816	38.09732
729.246	66.16182
729.675	75.18582
730.105	100.24699
730.534	111.26054
730.964	112.28331
731.393	127.31523
731.822	93.23822
732.251	60.15361
732.68	164.38396
733.109	72.17881
733.537	72.17535
733.966	74.18505
734.395	61.14273
734.823	119.26947
735.251	42.10263
735.68	136.33947
736.108	88.22355
736.536	100.23706
736.964	65.15263
737.392	81.20384
737.82	67.16247
738.247	68.16455
738.675	137.32671
739.102	35.08858
739.53	42.10809
739.957	56.14523
740.384	99.24519
740.811	57.14585
741.238	51.12594
741.665	65.15239
742.092	109.26103
742.519	59.1473
742.945	61.14803
743.372	90.22368
743.798	44.1143
744.225	46.1109
744.651	87.21917
745.077	53.13352
745.503	79.19408
745.929	45.10945
746.355	124.30806
746.781	54.13523
747.207	-10.02403
747.632	42.10362
748.058	66.166
748.483	67.15604
748.908	75.18752
749.334	79.19523
749.759	84.19936
750.184	41.09901
750.609	73.18073
751.033	133.31388
751.458	79.17911
751.883	116.28724
752.307	58.13808
752.732	10.02539
753.156	83.20594
753.58	99.23609
754.005	67.17126
754.429	62.14726
754.853	68.16962
755.277	83.19771
755.7	104.25819
756.124	41.10292
756.548	48.11519
756.971	68.1674
757.394	73.18895
757.818	54.14004
758.241	85.21628
758.664	51.12995
759.087	11.02509
759.51	50.12571
759.933	48.11681
760.356	61.15746
760.778	90.22196
761.201	91.22224
761.623	89.21695
762.046	101.24049
762.468	97.23389
762.89	79.19609
763.312	110.26859
763.734	43.10482
764.156	64.15923
764.578	69.16038
765	112.27307
765.421	-2.00517
765.843	82.21543
766.264	67.16326
766.686	62.15689
767.107	15.03697
767.528	25.06388
767.949	31.07977
768.37	66.16313
768.791	99.23998
769.212	25.06357
769.632	15.03558
770.053	40.10622
770.473	80.19549
770.894	90.22588
771.314	125.29786
771.734	23.05451
772.154	60.15501
772.575	110.25511
772.994	0
773.414	130.31091
773.834	47.11857
774.254	74.18203
774.673	102.2485
775.093	45.11239
775.512	36.08967
775.931	38.09729
776.351	22.05535
776.77	30.07423
777.189	41.09867
777.607	54.13878
778.026	46.11557
778.445	-8.02037
778.864	48.12405
779.282	45.10937
779.701	38.09671
780.119	63.1599
780.537	33.08319
780.955	45.11543
781.373	40.09988
781.791	14.03202
782.209	95.21932
782.627	37.09821
783.045	52.12074
783.462	26.06712
783.88	19.04969
784.297	62.15667
784.715	44.11371
785.132	37.0905
785.549	14.03548
785.966	55.1391
786.383	29.07211
786.8	68.15883
787.217	53.12659
787.633	39.09811
788.05	101.23975
788.466	70.16594
788.883	47.12056
789.299	57.13812
789.715	43.10541
790.131	24.06034
790.547	62.15549
790.963	60.14961
791.379	20.05111
791.795	73.16732
792.21	44.10382
792.626	73.17375
793.041	51.12664
793.457	52.12928
793.872	26.06187
794.287	43.10341
794.702	50.12399
795.117	17.04272
795.532	17.04307
795.947	66.15953
796.362	63.15122
796.776	138.32043
797.191	47.11581
797.605	14.0333
798.02	42.10297
798.434	80.17861
798.848	5.01248
799.262	46.11478
799.676	68.16641
800.09	78.19202
800.504	49.11967
800.918	3.00706
801.331	96.25084
801.745	66.15222
802.158	44.11067
802.572	72.17502
802.985	99.23862
803.398	61.14608
803.811	72.1853
804.224	52.13008
804.637	64.15295
805.05	37.08658
805.462	74.18203
805.875	36.09387
806.288	21.05119
806.7	49.12375
807.112	86.1993
807.525	84.20709
807.937	48.11925
808.349	74.18545
808.761	65.16028
809.173	52.12664
809.584	67.16594
809.996	10.02478
810.408	23.05984
810.819	29.06887
811.231	-6.0157
811.642	-27.06562
812.053	14.03369
812.464	64.15254
812.875	60.15366
813.286	40.10352
813.697	136.31466
814.108	58.1422
814.519	75.16742
814.929	79.20129
815.34	49.11945
815.75	13.03337
816.16	55.13756
816.571	63.16386
816.981	72.17022
817.391	62.15009
817.801	37.09248
818.211	69.16474
818.62	36.08728
819.03	19.04704
819.44	56.14662
819.849	43.10891
820.259	51.131
820.668	25.06201
821.077	41.10236
821.486	73.17589
821.895	107.26277
822.304	49.13023
822.713	72.17029
823.122	89.22139
823.531	100.23587
823.939	40.09803
824.348	55.13417
824.756	91.22711
825.164	90.22571
825.573	32.08083
825.981	101.24914
826.389	87.21791
826.797	53.13314
827.205	32.07404
827.612	62.15325
828.02	10.02376
828.428	48.12267
828.835	12.03187
829.243	48.11493
829.65	41.10244
830.057	62.15071
830.464	71.17294
830.871	72.17239
831.278	50.12131
831.685	54.12101
832.092	44.10824
832.499	65.14245
832.905	64.16212
833.312	86.19566
833.718	79.19645
834.124	68.15552
834.531	81.20369
834.937	70.17953
835.343	67.16174
835.749	80.18657
836.155	32.08424
836.561	88.21559
836.966	69.1687
837.372	57.14529
837.777	39.09762
838.183	79.1754
838.588	39.0973
838.993	45.11002
839.399	37.09093
839.804	17.0418
840.209	57.14524
840.613	35.07842
841.018	38.09667
841.423	59.15145
841.828	39.09906
842.232	72.17816
842.637	67.15806
843.041	42.10802
843.445	26.06565
843.849	30.07472
844.253	66.15688
844.657	28.07093
845.061	23.05266
845.465	5.01221
845.869	70.16254
846.272	35.08567
846.676	62.15003
847.079	40.10208
847.483	78.19407
847.886	93.22509
848.289	46.12301
848.692	24.06119
849.095	62.14896
849.498	85.21459
849.901	72.16493
850.304	45.10793
850.707	47.12014
851.109	47.11925
851.512	51.12557
851.914	61.15367
852.316	20.05095
852.718	3.00782
853.121	45.1106
853.523	87.20237
853.925	61.15904
854.326	19.04785
854.728	63.16188
855.13	43.11119
855.531	78.18576
855.933	72.17253
856.334	21.05271
856.736	25.05643
857.137	41.09571
857.538	43.1084
857.939	83.20414
858.34	70.17029
858.741	94.24419
859.142	66.15839
859.542	17.04515
859.943	28.06997
860.343	49.12154
860.744	83.20165
861.144	32.07846
861.544	21.05083
861.945	64.16293
862.345	53.12977
862.745	60.14907
863.145	93.22093
863.544	50.12652
863.944	92.21599
864.344	59.14655
864.743	70.17334
865.143	77.1971
865.542	47.10929
865.941	62.15336
866.34	81.19324
866.74	82.21913
867.139	56.13414
867.537	74.18799
867.936	50.12054
868.335	31.07924
868.734	44.11269
869.132	50.11638
869.531	57.13791
869.929	54.1232
870.327	66.15797
870.726	87.21579
871.124	72.16784
871.522	57.14519
871.92	65.1601
872.318	41.10054
872.715	108.26489
873.113	29.07104
873.511	73.18133
873.908	-20.05117
874.306	10.02508
874.703	75.18704
875.1	78.19878
875.497	16.03866
875.894	56.1372
876.291	39.09603
876.688	51.13164
877.085	72.17226
877.482	49.12282
877.878	46.11094
878.275	42.10696
878.671	85.18825
879.068	38.09206
879.464	69.16638
879.86	-10.02395
880.256	94.23038
880.652	38.09695
881.048	83.20466
881.444	73.17322
881.84	57.14483
882.236	44.11087
882.631	74.18103
883.027	61.14759
883.422	12.03092
883.817	0
884.213	67.17156
884.608	10.02473
885.003	54.13023
885.398	31.07793
885.793	35.08817
886.188	72.17842
886.582	84.21437
886.977	56.13291
887.371	35.08884
887.766	25.06251
888.16	57.14221
888.554	103.25248
888.949	79.19752
889.343	44.10772
889.737	13.03487
890.131	80.19977
890.525	39.1
890.918	77.19301
891.312	54.12925
891.706	55.14428
892.099	67.17012
892.492	50.10803
892.886	92.22355
893.279	63.16024
893.672	49.12485
894.065	35.08795
894.458	58.14577
894.851	78.19031
895.244	35.08968
895.637	73.17522
896.029	69.16826
896.422	69.16814
896.814	30.07491
897.206	59.14038
897.599	101.24767
897.991	60.14492
898.383	36.08537
898.775	61.13752
899.167	63.14666
899.559	83.20902
899.951	69.16221
900.342	77.19502
900.734	-24.06039
901.125	80.20896
901.517	5.01238
901.908	106.25167
902.299	47.11504
902.69	66.15537
903.082	108.25888
903.473	48.11506
903.863	36.09213
904.254	49.11385
904.645	99.24421
905.036	15.03658
905.426	67.15302
905.817	40.0984
906.207	32.07656
906.597	31.07282
906.987	79.20385
907.378	57.14406
907.768	36.09544
908.158	71.17256
908.547	37.09584
908.937	59.15124
909.327	94.22653
909.717	85.21459
910.106	66.15815
910.495	98.24267
910.885	88.22149
911.274	70.17442
911.663	68.17213
912.052	63.15518
912.441	42.107
912.83	93.2118
913.219	79.20582
913.608	23.05665
913.997	43.10798
914.385	69.16436
914.774	66.16032
915.162	31.07418
915.55	82.19731
915.939	19.04824
916.327	58.14462
916.715	31.0793
917.103	84.20557
917.491	73.17994
917.878	56.1376
918.266	58.15026
918.654	88.22339
919.041	1.00263
919.429	33.07818
919.816	43.10918
920.203	16.03907
920.591	32.07965
920.978	62.15156
921.365	58.15202
921.752	67.15929
922.139	67.14504
922.525	38.09151
922.912	65.15815
923.299	22.05498
923.685	44.11493
924.072	71.16313
924.458	45.11162
924.844	35.08688
925.231	17.03984
925.617	29.07405
926.003	55.14049
926.389	40.10111
926.774	42.10662
927.16	58.14389
927.546	30.07686
927.931	27.06768
928.317	98.22368
928.702	96.2252
929.088	36.08541
929.473	49.12472
929.858	7.01706
930.243	50.12004
930.628	48.11686
931.013	46.11412
931.398	106.24116
931.783	43.11337
932.167	54.13195
932.552	56.14019
932.937	80.19752
933.321	-3.0076
933.705	46.11607
934.09	74.18625
934.474	82.19364
934.858	37.0962
935.242	49.11362
935.626	14.03607
936.009	29.07741
936.393	67.17
936.777	28.07199
937.16	45.1172
937.544	54.12717
937.927	44.11178
938.311	89.21574
938.694	62.16366
939.077	36.08643
939.46	107.26005
939.843	55.11468
940.226	68.17391
940.609	57.1307
940.991	26.06647
941.374	37.09066
941.757	73.17941
942.139	2.00454
942.522	79.18572
942.904	45.1083
943.286	38.09677
943.668	68.17561
944.05	81.19841
944.432	58.14294
944.814	67.16454
945.196	39.09525
945.578	46.10943
945.959	34.07995
946.341	82.20015
946.722	44.10342
947.104	71.16906
947.485	65.15084
947.866	-1.00254
948.247	58.14614
948.628	75.18214
949.009	19.04892
949.39	53.13189
949.771	103.23713
950.152	53.13002
950.532	-6.01491
950.913	51.12302
951.293	37.10017
951.674	50.12095
952.054	29.07214
952.434	45.11182
952.814	79.18695
953.194	125.32298
953.574	82.20082
953.954	79.18659
954.334	60.14928
954.714	32.07825
955.093	111.26987
955.473	-12.03034
955.853	83.21365
956.232	89.24242
956.611	35.0842
956.99	29.07316
957.37	27.06909
957.749	71.16873
958.128	40.10097
958.506	21.05475
958.885	74.18599
959.264	-5.01238
959.643	39.08896
960.021	32.07956
960.4	52.11783
960.778	99.24169
961.156	58.1452
961.535	64.14878
961.913	91.21126
962.291	4.01034
962.669	48.12164
963.047	53.13519
963.424	17.04364
963.802	44.10832
964.18	117.29253
964.557	76.17417
964.935	37.0879
965.312	36.09397
965.69	66.16481
966.067	72.17463
966.444	93.22738
966.821	48.12379
967.198	89.21436
967.575	93.22687
967.952	112.26078
968.329	87.21025
968.705	70.14949
969.082	43.11042
969.458	11.02658
969.835	94.22696
970.211	32.08238
970.587	69.17121
970.963	86.21925
971.339	43.11241
971.715	45.11247
972.091	89.2176
972.467	92.22773
972.843	83.20474
973.219	129.30515
973.594	36.09439
973.97	113.26575
974.345	86.20442
974.721	45.10908
975.096	62.1497
975.471	39.09272
975.846	41.09867
976.221	52.13201
976.596	29.06979
976.971	65.16004
977.346	69.16006
977.72	56.14251
978.095	60.15479
978.469	84.19921
978.844	77.19266
979.218	-2.00484
979.593	88.20934
979.967	53.12905
980.341	62.14243
980.715	90.22514
981.089	47.11772
981.463	57.1307
981.837	35.08576
982.21	78.18054
982.584	43.104
982.957	50.12485
983.331	57.13458
983.704	49.12043
984.078	37.0914
984.451	112.27663
984.824	45.1097
985.197	45.10941
985.57	60.15021
985.943	93.22789
986.316	100.24345
986.688	70.16818
987.061	67.15653
987.434	58.15093
987.806	81.19531
988.179	38.08987
988.551	93.23412
988.923	47.11581
989.295	84.20861
989.667	44.10523
990.039	15.0373
990.411	58.13329
990.783	54.12425
991.155	4.00969
991.527	76.18626
991.898	31.07751
992.27	47.11632
992.641	79.19716
993.012	108.25127
993.384	85.20138
993.755	46.11735
994.126	26.06282
994.497	15.03706
994.868	90.20509
995.239	47.11397
995.61	57.14324
995.98	3.00735
996.351	65.16052
996.722	59.13659
997.092	54.12776
997.462	31.07268
997.833	77.18158
998.203	61.14759
998.573	7.01757
998.943	74.17271
999.313	55.13166
999.683	38.0914
1000.053	62.14231
1000.423	27.06589
1000.792	75.19352
1001.162	69.1692
1001.531	59.14522
1001.901	33.08251
1002.27	110.24285
1002.639	37.09474
1003.009	53.12596
1003.378	27.06931
1003.747	76.17863
1004.116	23.05531
1004.485	73.17369
1004.853	46.11661
1005.222	46.11607
1005.591	71.16789
1005.959	1.00228
1006.328	57.12808
1006.696	58.13967
1007.064	47.11828
1007.433	59.14719
1007.801	69.16876
1008.169	62.15622
1008.537	39.08655
1008.905	63.14637
1009.273	63.15523
1009.64	17.04081
1010.008	99.23374
1010.375	99.23817
1010.743	121.27545
1011.11	19.04522
1011.478	87.21382
1011.845	49.11524
1012.212	38.08621
1012.579	68.16635
1012.946	43.10247
1013.313	112.26335
1013.68	96.21372
1014.047	24.05746
1014.414	66.15537
1014.78	82.20253
1015.147	78.18761
1015.513	59.14189
1015.88	86.21847
1016.246	81.19878
1016.612	71.16183
1016.978	95.2308
1017.344	24.05958
1017.71	86.20827
1018.076	77.1806
1018.442	72.18446
1018.808	62.1546
1019.174	52.13037
1019.539	168.37756
1019.905	17.04034
1020.27	40.09887
1020.636	73.17422
1021.001	68.1622
1021.366	40.09621
1021.731	83.21216
1022.096	35.08849
1022.461	53.12533
1022.826	63.14932
1023.191	56.14672
1023.556	67.15647
1023.92	58.14236
1024.285	88.21319
1024.649	37.09087
1025.014	59.14586
1025.378	41.10321
1025.742	56.13887
1026.107	56.12648
1026.471	96.22203
1026.835	32.07956
1027.199	31.07486
1027.562	62.14374
1027.926	53.12949
1028.29	29.07363
1028.654	68.15583
1029.017	50.12286
1029.381	39.09333
1029.744	36.092
1030.107	99.23192
1030.471	89.21143
1030.834	66.14961
1031.197	69.16556
1031.56	39.09219
1031.923	51.13178
1032.286	152.34972
1032.648	83.19718
1033.011	60.13739
1033.374	75.17535
1033.736	32.08435
1034.099	66.16032
1034.461	12.03051
1034.823	44.10963
1035.185	63.15814
1035.548	43.10474
1035.91	53.12683
1036.272	65.14743
1036.634	94.22798
1036.995	82.19146
1037.357	24.05865
1037.719	55.13357
1038.08	100.23504
1038.442	57.13505
1038.803	75.17913
1039.165	50.12612
1039.526	94.22515
1039.887	56.13378
1040.248	-13.03239
1040.609	72.17711
1040.97	50.12213
1041.331	78.19639
1041.692	35.0819
1042.053	89.20097
1042.413	56.13029
1042.774	60.14558
1043.134	115.27025
1043.495	53.13309
1043.855	80.19286
1044.215	73.18034
1044.576	-19.046
1044.936	106.24018
1045.296	77.19113
1045.656	76.1855
1046.016	71.17062
1046.375	63.15237
1046.735	15.03423
1047.095	30.07046
1047.454	70.14761
1047.814	53.12726
1048.173	102.24114
1048.533	61.13937
1048.892	-1.00242
1049.251	92.22906
1049.61	33.08146
1049.969	83.19429
1050.328	79.17014
1050.687	80.19345
1051.046	78.18882
1051.405	51.12677
1051.763	44.10124
1052.122	33.08251
1052.48	19.04683
1052.839	83.19391
1053.197	34.08023
1053.555	106.23881
1053.914	55.13432
1054.272	74.17799
1054.63	54.13186
1054.988	23.05489
1055.345	16.03469
1055.703	33.07963
1056.061	47.1209
1056.419	64.16517
1056.776	71.17139
1057.134	96.22009
1057.491	37.09281
1057.848	22.05502
1058.206	16.03786
1058.563	48.10579
1058.92	77.17642
1059.277	103.25145
1059.634	88.20539
1059.991	51.12209
1060.348	22.04997
1060.704	40.09545
1061.061	119.27254
1061.418	26.0633
1061.774	44.10868
1062.131	20.05311
1062.487	35.08203
1062.843	51.12705
1063.199	39.09712
1063.555	64.14778
1063.911	40.10115
1064.267	77.15955
1064.623	42.1021
1064.979	107.25056
1065.335	71.16893
1065.691	63.15053
1066.046	34.07497
1066.402	58.13147
1066.757	47.11862
1067.112	87.21192
1067.468	8.01903
1067.823	68.16282
1068.178	48.11607
1068.533	88.21167
1068.888	84.19928
1069.243	42.10374
1069.598	39.09489
1069.952	26.05879
1070.307	38.0942
1070.662	62.14675
1071.016	32.07192
1071.371	52.11816
1071.725	60.14317
1072.079	66.15815
1072.434	36.08764
1072.788	69.1636
1073.142	108.26263
1073.496	62.14664
1073.85	35.08135
1074.203	74.1786
1074.557	56.14866
1074.911	121.28468
1075.265	64.14826
1075.618	72.17495
1075.971	73.17275
1076.325	69.17463
1076.678	31.07111
1077.031	39.08839
1077.385	79.17284
1077.738	62.13951
1078.091	14.03204
1078.444	84.19358
1078.796	20.04931
1079.149	57.14148
1079.502	13.03091
1079.855	64.14873
1080.207	75.18378
1080.56	40.10348
1080.912	98.23626
1081.264	51.12269
1081.617	48.11694
1081.969	36.09097
1082.321	52.12683
1082.673	-15.03466
1083.025	15.0358
1083.377	-174.39121
1083.728	58.135
1084.08	47.1173
1084.432	41.09897
1084.783	101.2341
1085.135	37.09288
1085.486	17.03912
1085.838	44.1084
1086.189	47.11406
1086.54	23.05517
1086.891	21.05334
1087.242	72.17443
1087.593	67.16247
1087.944	64.14431
1088.295	27.06161
1088.646	45.10908
1088.996	21.05083
1089.347	61.14925
1089.698	25.05932
1090.048	81.20908
1090.398	30.0698
1090.749	37.08868
1091.099	49.12313
1091.449	43.10716
1091.799	58.14488
1092.149	28.0685
1092.499	64.15557
1092.849	52.13201
1093.199	85.21152
1093.548	42.10099
1093.898	66.16451
1094.248	53.136
1094.597	-5.01287
1094.947	68.1807
1095.296	49.12092
1095.645	94.24242
1095.994	74.17678
1096.343	45.11324
1096.692	47.12342
1097.041	42.11376
1097.39	85.21167
1097.739	28.07299
1098.088	82.21834
1098.437	-2.0053
1098.785	68.18262
1099.134	85.22418
1099.482	48.13194
1099.83	77.20123
1100.179	18.04716
1100.527	82.21652
1100.875	16.0425
1101.223	69.18247
1101.571	33.09135
1101.919	-4.01054
1102.267	41.11548
1102.615	-3.00965
1102.962	12.03863
1103.31	-5.01609
1103.658	14.04508
