Data from N2 R10 sample 3_Subt2__4__13-23-03-757.txt Node

Date: Mon Sep 01 13:23:03 PDT 2025
User: uwsun
Spectrometer: HDX01956
Trigger mode: 0
Integration Time (sec): 5.000000E-1
Scans to average: 1
Nonlinearity correction enabled: true
Boxcar width: 0
Storing dark spectrum: false
XAxis mode: Wavelengths
Number of Pixels in Spectrum: 2068
>>>>>Begin Spectral Data<<<<<
194.03	-113.32263
194.578	-110.35249
195.127	-105.33151
195.676	-105.33249
196.225	-72.1933
196.773	-66.18285
197.321	-167.4604
197.87	-152.38654
198.418	-169.42573
198.966	-193.49105
199.513	-215.52446
200.061	-216.53543
200.609	-168.43551
201.156	-231.49812
201.704	-220.54275
202.251	-208.53825
202.798	-180.45514
203.345	-170.41122
203.892	-186.45702
204.438	-171.3998
204.985	-199.45868
205.532	-219.56368
206.078	-174.41645
206.624	-203.48687
207.17	-172.39052
207.716	-181.42749
208.262	-199.38945
208.808	-254.61322
209.354	-234.55939
209.899	-154.37994
210.445	-211.51144
210.99	-202.47496
211.535	-179.41225
212.08	-158.35844
212.625	-157.38227
213.17	-164.40476
213.715	-247.54061
214.259	-138.31256
214.804	-123.29456
215.348	-178.39954
215.892	-188.44204
216.436	-162.36811
216.98	-149.32309
217.524	-209.48595
218.068	-161.39538
218.612	-163.40088
219.155	-181.41753
219.698	-152.35322
220.242	-140.34069
220.785	-169.38767
221.328	-176.43005
221.871	-150.37224
222.414	-107.25868
222.956	-180.42389
223.499	-170.37625
224.041	-99.22446
224.583	-113.23938
225.126	-155.33553
225.668	-191.45617
226.21	-171.42025
226.751	-239.51979
227.293	-177.39918
227.835	-181.43295
228.376	-102.22924
228.918	-127.31223
229.459	-158.38262
230	-172.40127
230.541	-165.37363
231.082	-148.34949
231.622	-181.4112
232.163	-176.41689
232.704	-169.40857
233.244	-173.41918
233.784	-122.29111
234.324	-216.46667
234.864	-170.37782
235.404	-164.38245
235.944	-164.3811
236.484	-151.36767
237.023	-163.37556
237.563	-196.44464
238.102	-111.2535
238.641	-155.38121
239.18	-191.4362
239.719	-144.35082
240.258	-211.46923
240.797	-150.34802
241.335	-142.33779
241.874	-195.37078
242.412	-131.30412
242.95	-215.50266
243.488	-164.3654
244.026	-205.46326
244.564	-166.33496
245.102	-184.40384
245.64	-137.32069
246.177	-159.34743
246.715	-163.38154
247.252	-149.33315
247.789	-113.20816
248.326	-204.47667
248.863	-208.44747
249.4	-148.32661
249.936	-140.27951
250.473	-203.4623
251.009	-174.38671
251.546	-176.37781
252.082	-170.36289
252.618	-168.36297
253.154	-175.4069
253.69	-172.37655
254.226	-169.39047
254.761	-189.41385
255.297	-179.38085
255.832	-193.44379
256.367	-191.43761
256.903	-192.41074
257.438	-132.29861
257.972	-188.40775
258.507	-235.52542
259.042	-188.39765
259.576	-192.39988
260.111	-130.28905
260.645	-204.43225
261.179	-163.36595
261.713	-156.33416
262.247	-206.46296
262.781	-201.40977
263.315	-192.45355
263.849	-200.48305
264.382	-177.39428
264.915	-172.38687
265.449	-257.60649
265.982	-142.31048
266.515	-183.42953
267.048	-238.49304
267.58	-104.21728
268.113	-219.45987
268.646	-204.48526
269.178	-209.45126
269.71	-190.40206
270.243	-192.42441
270.775	-191.46662
271.307	-205.47872
271.838	-147.33572
272.37	-200.47373
272.902	-164.35843
273.433	-213.45142
273.965	-160.37195
274.496	-184.44021
275.027	-181.42964
275.558	-159.36736
276.089	-265.62828
276.62	-223.54883
277.15	-189.44846
277.681	-204.42941
278.211	-195.46002
278.741	-199.4199
279.272	-237.52245
279.802	-196.4691
280.332	-214.4839
280.861	-214.49492
281.391	-214.46572
281.921	-188.43393
282.45	-206.49397
282.98	-209.5212
283.509	-202.43512
284.038	-226.49518
284.567	-192.4299
285.096	-228.52897
285.625	-241.52637
286.153	-227.50879
286.682	-243.53366
287.21	-213.48801
287.739	-221.4984
288.267	-261.60564
288.795	-195.48717
289.323	-240.53405
289.851	-187.41483
290.378	-224.47981
290.906	-288.66736
291.433	-199.4689
291.961	-211.45187
292.488	-260.61821
293.015	-251.56119
293.542	-252.60426
294.069	-261.60947
294.596	-204.47704
295.122	-226.50978
295.649	-244.51316
296.175	-225.51674
296.702	-228.52373
297.228	-252.58303
297.754	-207.43678
298.28	-244.52287
298.806	-244.5524
299.332	-252.52508
299.857	-263.56128
300.383	-241.57601
300.908	-267.6068
301.433	-265.60469
301.958	-215.4666
302.483	-291.68325
303.008	-270.63036
303.533	-236.576
304.058	-238.52718
304.582	-311.69245
305.107	-297.72553
305.631	-258.55431
306.155	-272.59093
306.679	-290.63325
307.203	-244.52468
307.727	-308.68705
308.251	-289.66795
308.775	-342.75973
309.298	-320.71352
309.822	-259.60481
310.345	-281.61788
310.868	-312.69425
311.391	-276.62992
311.914	-328.76334
312.437	-280.59327
312.96	-305.6636
313.482	-300.65508
314.005	-319.73962
314.527	-324.78277
315.049	-312.72897
315.571	-353.72161
316.093	-302.68313
316.615	-340.75183
317.137	-347.69519
317.659	-278.61475
318.18	-310.68379
318.702	-290.60855
319.223	-329.61461
319.744	-306.61716
320.265	-354.77429
320.786	-398.89217
321.307	-346.77435
321.828	-336.68234
322.348	-367.77641
322.869	-409.86752
323.389	-648.03117
323.909	-401.82976
324.43	-345.74583
324.95	-366.74055
325.47	-384.83244
325.989	-411.85692
326.509	-475.93006
327.029	-432.85487
327.548	-449.88581
328.067	-459.96974
328.587	-386.83606
329.106	-442.87589
329.625	-392.90433
330.144	-453.90503
330.662	-479.95964
331.181	-447.89926
331.7	-480.96987
332.218	-472.87329
332.736	-461.91974
333.255	-514.02158
333.773	-493.99134
334.291	-465.98757
334.808	-544.02553
335.326	-492.92851
335.844	-549.05906
336.361	-555.16707
336.879	-551.05784
337.396	-551.09195
337.913	-608.1571
338.43	-579.06361
338.947	-587.14173
339.464	-585.00523
339.981	-628.20799
340.497	-616.24064
341.014	-639.26077
341.53	-642.15564
342.046	-635.24406
342.562	-618.2344
343.078	-657.22962
343.594	-631.18844
344.11	-593.09485
344.626	-668.32579
345.141	-651.14583
345.657	-652.15089
346.172	-666.24189
346.687	-693.22184
347.202	-658.1114
347.717	-642.15505
348.232	-659.24979
348.747	-711.23145
349.261	-758.21851
349.776	-778.38887
350.29	-803.48937
350.805	-712.32258
351.319	-756.30994
351.833	-814.35707
352.347	-806.40419
352.861	-758.278
353.374	-706.17267
353.888	-769.35616
354.401	-777.28137
354.915	-824.301
355.428	-869.57446
355.941	-856.41949
356.454	-774.22672
356.967	-839.41765
357.48	-811.311
357.993	-848.48844
358.505	-843.4414
359.018	-840.43433
359.53	-881.46871
360.042	-821.22978
360.554	-874.46858
361.066	-885.47702
361.578	-908.33414
362.09	-857.37626
362.602	-927.35845
363.113	-896.37618
363.625	-945.40279
364.136	-849.18965
364.647	-1024.53497
365.158	-938.41135
365.669	-977.53607
366.18	-955.45211
366.691	-969.35016
367.201	-978.49299
367.712	-991.39866
368.222	-1012.43345
368.733	-1002.28084
369.243	-1063.40014
369.753	-1026.42143
370.263	-1057.52169
370.773	-1099.65053
371.282	-1120.56061
371.792	-1238.58679
372.301	-1185.61568
372.811	-1221.86023
373.32	-1279.39246
373.829	-1343.6815
374.338	-1296.41624
374.847	-1419.62154
375.356	-1436.64931
375.865	-1471.29986
376.373	-1588.56749
376.882	-1499.72378
377.39	-1560.59734
377.898	-1709.64954
378.407	-1772.37776
378.915	-1740.14879
379.423	-1774.26364
379.93	-1949.26371
380.438	-2102.36895
380.946	-2172.16326
381.453	-2324.17016
381.96	-2461.97428
382.468	-2695.71085
382.975	-2684.7023
383.482	-2725.29651
383.989	-2840.66566
384.495	-2870.03131
385.002	-3237.60736
385.509	-3288.64291
386.015	-3510.05135
386.521	-3640.13172
387.028	-3839.93703
387.534	-3956.75275
388.04	-3964.82548
388.546	-4433.6496
389.051	-4778.63088
389.557	-4965.70523
390.063	-4872.73077
390.568	-5258.99197
391.073	-5532.60785
391.578	-5835.83933
392.084	-6118.98963
392.589	-6701.97896
393.093	-7395.71178
393.598	-7761.5244
394.103	-8403.39582
394.607	-9090.7639
395.112	-9621.37111
395.616	-10270.10052
396.12	-11419.73205
396.624	-12681.80147
397.128	-13525.30127
397.632	-14552.22268
398.136	-16224.94608
398.639	-18835.38546
399.143	-21587.63496
399.646	-23956.6591
400.15	-26494.94117
400.653	-30200.14861
401.156	-34524.912
401.659	-40946.33087
402.162	-41094.57258
402.664	-33541.30582
403.167	-21676.3328
403.67	-2772.29404
404.172	0
404.674	0
405.176	0
405.678	0
406.18	0
406.682	0
407.184	0
407.686	0
408.187	0
408.688	0
409.19	-15708.68156
409.691	-25178.61733
410.192	-30847.09975
410.693	-34984.36632
411.194	-37153.70237
411.694	-34802.81359
412.195	-31821.76666
412.696	-30395.80166
413.196	-30769.59731
413.696	-31357.55799
414.196	-29976.10491
414.696	-27268.64273
415.196	-23624.73286
415.696	-17294.34865
416.196	-13879.11201
416.695	-13240.46205
417.195	-13496.26418
417.694	-12615.98783
418.194	-11624.34496
418.693	-11488.55219
419.192	-11009.35486
419.691	-10970.83042
420.19	-10358.81286
420.688	-9784.87745
421.187	-9105.6515
421.685	-8234.64843
422.184	-7255.41906
422.682	-6307.89478
423.18	-5993.03166
423.678	-5525.74369
424.176	-5238.68301
424.674	-4846.08844
425.172	-4407.61039
425.669	-4119.55219
426.167	-3607.62441
426.664	-3428.79925
427.161	-3197.0552
427.659	-3083.57102
428.156	-2918.37795
428.652	-2798.18811
429.149	-2664.16343
429.646	-2532.10214
430.143	-2278.44899
430.639	-2249.61588
431.135	-2208.00156
431.632	-2045.81317
432.128	-1994.12661
432.624	-2009.46654
433.12	-2002.07788
433.616	-1893.00235
434.111	-1945.32848
434.607	-1868.45702
435.103	-1671.08945
435.598	-1594.05009
436.093	-1564.46582
436.588	-1443.32249
437.083	-1376.34152
437.578	-1365.45554
438.073	-1452.78924
438.568	-1272.61309
439.062	-1247.2928
439.557	-1165.4561
440.051	-1207.45257
440.546	-1217.50065
441.04	-1238.70013
441.534	-1185.78266
442.028	-1118.57968
442.522	-1093.53389
443.015	-1109.4106
443.509	-1069.5956
444.002	-1095.65236
444.496	-1097.454
444.989	-1081.66814
445.482	-1055.65546
445.975	-1104.54502
446.468	-1019.32558
446.961	-1082.44972
447.454	-995.41411
447.947	-1047.58519
448.439	-1027.64948
448.931	-1023.47244
449.424	-985.66697
449.916	-973.56859
450.408	-992.45556
450.9	-998.61676
451.392	-994.70813
451.884	-927.42777
452.375	-1027.75704
452.867	-876.34137
453.358	-989.53085
453.849	-878.23638
454.341	-917.41147
454.832	-937.38159
455.323	-963.65866
455.814	-890.43147
456.304	-906.47708
456.795	-885.43024
457.285	-816.28759
457.776	-770.24908
458.266	-854.45049
458.756	-812.41094
459.247	-890.54277
459.737	-852.47126
460.226	-823.33421
460.716	-808.41287
461.206	-787.39448
461.695	-803.51897
462.185	-758.32802
462.674	-734.25827
463.163	-764.27138
463.653	-742.16102
464.142	-831.54753
464.63	-699.30193
465.119	-748.31938
465.608	-705.23398
466.096	-691.15685
466.585	-640.1379
467.073	-673.26211
467.561	-695.32139
468.05	-672.23328
468.538	-674.32091
469.026	-653.242
469.513	-665.10895
470.001	-660.19236
470.489	-678.29058
470.976	-638.18781
471.463	-600.21003
471.951	-578.17681
472.438	-663.28187
472.925	-616.17236
473.412	-552.11715
473.899	-563.06584
474.385	-564.15034
474.872	-594.1518
475.359	-586.19799
475.845	-591.02696
476.331	-478.86497
476.817	-524.0783
477.303	-499.97383
477.789	-519.06008
478.275	-553.17256
478.761	-508.04673
479.247	-439.83396
479.732	-547.17294
480.218	-466.03867
480.703	-506.08932
481.188	-476.8807
481.673	-543.09213
482.158	-534.98607
482.643	-474.06046
483.128	-468.92741
483.612	-430.87522
484.097	-433.93404
484.581	-410.83717
485.066	-472.01382
485.55	-413.79106
486.034	-465.89369
486.518	-422.87028
487.002	-432.93288
487.486	-452.98483
487.969	-452.9865
488.453	-410.927
488.936	-460.93671
489.42	-378.74731
489.903	-412.93872
490.386	-846.43068
490.869	-383.75489
491.352	-335.73877
491.835	-382.71806
492.318	-434.89462
492.8	-389.73284
493.283	-426.98782
493.765	-388.86726
494.247	-349.74544
494.73	-393.79718
495.212	-329.72615
495.694	-431.92813
496.175	-441.96107
496.657	-346.75135
497.139	-303.48625
497.62	-396.85955
498.102	-361.81906
498.583	-347.79911
499.064	-345.70238
499.545	-399.84742
500.026	-377.78185
500.507	-380.81955
500.988	-342.78367
501.469	-405.9423
501.949	-341.78091
502.43	-400.88264
502.91	-326.62063
503.39	-322.74672
503.87	-327.70692
504.35	-294.64144
504.83	-333.67548
505.31	-350.78685
505.79	-373.8315
506.269	-309.67002
506.749	-365.77792
507.228	-345.75221
507.707	-305.62547
508.187	-333.74511
508.666	-338.77046
509.145	-341.74192
509.623	-354.77854
510.102	-324.73229
510.581	-285.64061
511.059	-322.74879
511.538	-273.65448
512.016	-237.5207
512.494	-247.55384
512.972	-298.66255
513.45	-339.73098
513.928	-295.66418
514.406	-348.78043
514.884	-283.67457
515.361	-260.57615
515.839	-218.45545
516.316	-236.52319
516.793	-229.53602
517.27	-230.5171
517.747	-240.56803
518.224	-203.43286
518.701	-174.35449
519.178	-263.60303
519.654	-168.36717
520.131	-232.531
520.607	-173.39446
521.083	-187.39233
521.56	-203.44225
522.036	-159.32017
522.512	-185.42182
522.987	-236.51796
523.463	-185.40458
523.939	-217.49478
524.414	-171.36463
524.89	-217.47857
525.365	-220.4633
525.84	-269.59547
526.315	-213.47545
526.79	-219.46028
527.265	-247.52805
527.74	-241.54838
528.215	-234.51551
528.689	-272.56801
529.164	-218.44352
529.638	-210.50298
530.112	-237.52136
530.587	-240.47893
531.061	-256.57815
531.534	-222.50423
532.008	-255.5753
532.482	-211.45363
532.956	-309.74443
533.429	-236.5369
533.903	-204.42317
534.376	-219.45419
534.849	-226.49225
535.322	-241.53572
535.795	-232.53292
536.268	-237.53513
536.741	-245.55568
537.213	-231.50346
537.686	-283.65227
538.158	-273.57832
538.631	-244.56138
539.103	-310.66344
539.575	-250.49657
540.047	-226.46881
540.519	-237.53557
540.991	-260.6044
541.463	-287.66228
541.934	-251.54403
542.406	-270.60951
542.877	-223.47406
543.348	-238.54342
543.82	-221.5108
544.291	-212.46666
544.762	-247.55179
545.233	-296.70433
545.703	-256.53531
546.174	-247.54244
546.645	-313.70844
547.115	-252.57097
547.585	-242.52419
548.056	-293.66426
548.526	-253.55562
548.996	-216.48404
549.466	-218.49736
549.935	-264.58233
550.405	-284.58491
550.875	-260.57399
551.344	-235.52412
551.814	-180.38023
552.283	-193.38863
552.752	-206.43916
553.221	-201.39933
553.69	-188.38214
554.159	-204.45658
554.628	-165.33347
555.096	-123.28
555.565	-136.27442
556.033	-88.18728
556.502	-40.08679
556.97	-7.01384
557.438	-31.06619
557.906	45.0952
558.374	47.09612
558.842	97.20459
559.31	182.3534
559.777	155.32634
560.245	256.51703
560.712	282.55751
561.18	280.52424
561.647	373.69337
562.114	379.71715
562.581	440.89924
563.048	589.07984
563.514	604.17625
563.981	715.26006
564.448	723.24036
564.914	808.42177
565.381	957.57753
565.847	1046.74338
566.313	1100.79273
566.779	1188.81231
567.245	1322.03509
567.711	1424.19477
568.176	1557.1001
568.642	1639.52456
569.108	1773.55578
569.573	2041.55812
570.038	2156.15018
570.504	2202.37638
570.969	2433.94751
571.434	2644.30951
571.899	2819.7028
572.363	2941.46786
572.828	3188.45626
573.293	3276.42331
573.757	3558.32639
574.222	3797.0323
574.686	3900.99808
575.15	4119.24149
575.614	4275.9486
576.078	4498.95474
576.542	4587.74364
577.006	4762.57614
577.469	4915.11218
577.933	5046.36127
578.396	5112.71925
578.86	5259.58531
579.323	5238.64169
579.786	5434.01274
580.249	5341.32517
580.712	5504.70318
581.175	5446.77527
581.637	5397.41692
582.1	5388.15734
582.563	5351.06848
583.025	5286.74695
583.487	5233.78958
583.95	5183.09848
584.412	5203.01589
584.874	5063.88865
585.336	4922.81553
585.797	4823.34883
586.259	4703.94463
586.721	4617.92795
587.182	4647.94634
587.643	4382.89419
588.105	4173.25081
588.566	4203.58923
589.027	3879.47594
589.488	3907.17262
589.949	3834.57134
590.41	3722.44322
590.87	3624.33173
591.331	3504.08492
591.791	3460.41947
592.252	3322.40376
592.712	3147.75617
593.172	3080.41609
593.632	3076.31114
594.092	2871.41896
594.552	2887.25127
595.011	2657.55003
595.471	2594.45634
595.931	2500.43416
596.39	2482.74563
596.849	2455.62188
597.308	2372.32933
597.768	2240.96708
598.227	2243.73625
598.685	2152.52354
599.144	2232.59874
599.603	2147.63125
600.062	2083.13597
600.52	1988.32267
600.978	1969.55853
601.437	1932.4151
601.895	1871.11428
602.353	1992.32582
602.811	1845.25672
603.269	1848.5254
603.727	1791.48915
604.184	1747.24241
604.642	1818.58889
605.099	1759.35915
605.557	1748.52921
606.014	1819.12925
606.471	1723.56961
606.928	1723.05357
607.385	1696.44235
607.842	1816.32909
608.299	1845.42234
608.755	1800.50584
609.212	1795.21556
609.668	1790.18539
610.125	1833.54863
610.581	1961.59371
611.037	1982.45733
611.493	1919.55181
611.949	1912.59138
612.405	1923.96652
612.861	2033.60718
613.316	1942.59072
613.772	1978.47088
614.227	1987.57225
614.683	2055.26632
615.138	1970.5369
615.593	1948.50613
616.048	2006.49658
616.503	1996.77927
616.958	1951.81537
617.412	1947.59163
617.867	1876.29811
618.321	1977.14546
618.776	1925.35575
619.23	1853.52832
619.684	1910.43784
620.138	1924.55778
620.592	1715.57733
621.046	1784.51922
621.5	1753.61497
621.954	1703.33782
622.407	1717.30925
622.861	1571.48066
623.314	1623.32497
623.768	1552.33714
624.221	1499.83455
624.674	1490.25877
625.127	1473.29544
625.58	1485.2478
626.033	1419.10381
626.485	1318.21103
626.938	1382.27649
627.39	1307.1362
627.843	1261.0777
628.295	1228.04252
628.747	1285.18163
629.199	1177.95035
629.651	1081.83692
630.103	1090.86968
630.555	1133.7519
631.006	1081.92191
631.458	1036.87636
631.909	1028.82225
632.361	1059.89142
632.812	953.72613
633.263	986.64033
633.714	956.59548
634.165	966.85944
634.616	918.74831
635.067	956.67326
635.518	898.73167
635.968	915.444
636.419	823.45842
636.869	837.63741
637.319	856.61191
637.769	787.45239
638.219	861.69078
638.669	786.56253
639.119	816.65837
639.569	813.6309
640.019	797.53553
640.468	768.43318
640.918	782.58559
641.367	729.38212
641.816	726.37408
642.265	749.46364
642.714	700.38488
643.163	729.42383
643.612	606.27029
644.061	643.1684
644.51	705.37037
644.958	652.23498
645.406	734.49696
645.855	672.43052
646.303	689.39012
646.751	652.28375
647.199	638.26262
647.647	649.29672
648.095	646.28684
648.543	733.27032
648.99	634.32497
649.438	672.37409
649.885	687.47926
650.333	654.08906
650.78	627.33086
651.227	641.3677
651.674	630.25666
652.121	552.20225
652.568	551.19727
653.015	650.44945
653.461	552.17374
653.908	627.28571
654.354	594.261
654.801	561.17401
655.247	607.17622
655.693	594.38542
656.139	536.15747
656.585	539.1647
657.031	503.05987
657.477	531.0282
657.922	529.09668
658.368	506.13683
658.813	566.18266
659.259	530.14938
659.704	493.04513
660.149	545.14349
660.594	505.09065
661.039	481.00055
661.484	484.06016
661.929	547.15527
662.373	440.0258
662.818	441.01179
663.262	415.9297
663.707	437.02658
664.151	492.10216
664.595	459.0203
665.039	440.01614
665.483	461.08475
665.927	445.97308
666.371	369.80214
666.814	412.92089
667.258	394.87231
667.701	460.91966
668.145	447.03418
668.588	372.8623
669.031	423.92654
669.474	400.90476
669.917	422.87419
670.36	382.89388
670.803	383.87319
671.245	412.81338
671.688	393.90429
672.13	285.61482
672.573	403.96493
673.015	398.90024
673.457	307.64181
673.899	368.84594
674.341	344.79109
674.783	310.71235
675.225	349.81684
675.666	269.6242
676.108	351.7263
676.549	355.8012
676.991	332.70037
677.432	365.68931
677.873	308.68563
678.314	318.72868
678.755	344.79868
679.196	276.61186
679.637	306.72029
680.078	292.66079
680.518	314.70507
680.959	280.64908
681.399	265.63724
681.839	287.67518
682.28	273.65198
682.72	241.53839
683.16	303.72638
683.6	307.67589
684.039	290.58543
684.479	217.52143
684.919	200.45298
685.358	279.68587
685.798	246.62731
686.237	262.61673
686.676	262.5929
687.115	274.6251
687.554	238.55239
687.993	254.54877
688.432	215.48308
688.871	201.44941
689.309	204.47928
689.748	259.52946
690.186	247.57656
690.625	215.49496
691.063	216.50846
691.501	246.59346
691.939	218.53267
692.377	184.44307
692.815	206.48436
693.253	239.56249
693.69	150.32922
694.128	182.43526
694.565	188.44307
695.003	183.45819
695.44	160.37357
695.877	171.39572
696.314	195.4158
696.751	237.53055
697.188	178.40512
697.625	225.50846
698.061	156.3718
698.498	182.43592
698.934	158.37816
699.371	141.33082
699.807	157.36937
700.243	140.33572
700.679	173.38936
701.115	208.48315
701.551	134.31557
701.987	196.43633
702.422	130.30841
702.858	170.40159
703.294	115.262
703.729	146.35569
704.164	120.28907
704.599	200.44024
705.035	126.28259
705.47	149.36022
705.904	68.16033
706.339	173.40003
706.774	110.25865
707.209	117.27054
707.643	157.37483
708.078	132.32074
708.512	64.16132
708.946	158.37671
709.38	111.264
709.814	146.33337
710.248	136.33071
710.682	109.26004
711.116	101.2416
711.549	92.23809
711.983	84.19597
712.416	95.22629
712.85	131.32575
713.283	136.3214
713.716	136.3407
714.149	148.35179
714.582	136.30565
715.015	151.37603
715.448	124.3121
715.881	133.29221
716.313	120.28172
716.746	87.20636
717.178	78.18911
717.61	106.26918
718.043	104.25988
718.475	79.19308
718.907	144.36295
719.339	51.11746
719.77	90.21459
720.202	107.27081
720.634	77.18868
721.065	98.23357
721.497	98.24116
721.928	93.22924
722.359	64.15575
722.79	98.23554
723.221	103.25985
723.652	137.35202
724.083	101.22927
724.514	86.19945
724.945	57.13578
725.375	25.05912
725.806	120.29954
726.236	109.2794
726.666	106.25196
727.096	74.18311
727.526	110.27924
727.956	37.08566
728.386	120.29541
728.816	56.14297
729.246	58.14241
729.675	21.05254
730.105	132.32411
730.534	65.15394
730.964	141.35482
731.393	147.36354
731.822	72.18511
732.251	97.24672
732.68	94.22309
733.109	57.14195
733.537	55.13437
733.966	79.19738
734.395	72.16811
734.823	120.27168
735.251	64.15575
735.68	123.30775
736.108	101.25599
736.536	99.23473
736.964	57.13405
737.392	85.21375
737.82	74.17921
738.247	92.22162
738.675	125.29878
739.102	61.15367
739.53	59.15139
739.957	72.1862
740.384	106.26219
740.811	74.18879
741.238	45.11125
741.665	48.11291
742.092	80.19264
742.519	59.1473
742.945	82.19821
743.372	52.13013
743.798	79.20399
744.225	45.10851
744.651	56.14186
745.077	74.18572
745.503	68.1674
745.929	90.21705
746.355	127.31534
746.781	41.10292
747.207	37.0881
747.632	54.13293
748.058	52.13112
748.483	41.09597
748.908	54.13553
749.334	98.24134
749.759	60.14306
750.184	46.11098
750.609	68.16851
751.033	107.2538
751.458	69.15676
751.883	92.22881
752.307	66.15688
752.732	35.08846
753.156	63.15689
753.58	77.1844
754.005	64.16368
754.429	12.02878
754.853	47.11768
755.277	67.16009
755.7	60.15015
756.124	23.05792
756.548	29.06985
756.971	73.17954
757.394	46.11962
757.818	48.12461
758.241	44.11277
758.664	72.18278
759.087	12.02737
759.51	73.18278
759.933	72.17443
760.356	71.18295
760.778	84.2074
761.201	103.25098
761.623	73.17848
762.046	77.18419
762.468	107.25751
762.89	91.22538
763.312	76.18675
763.734	58.14099
764.156	36.09003
764.578	78.18097
765	83.20346
765.421	44.11273
765.843	67.17647
766.264	107.25878
766.686	82.20676
767.107	50.12245
767.528	18.04605
767.949	43.11042
768.37	67.16558
768.791	127.30622
769.212	6.01531
769.632	18.04267
770.053	38.10095
770.473	97.23628
770.894	97.24314
771.314	99.23709
771.734	56.13188
772.154	21.05462
772.575	87.20269
772.994	9.02086
773.414	69.16694
773.834	64.16097
774.254	54.13333
774.673	36.08879
775.093	33.0826
775.512	39.09709
775.931	60.15302
776.351	63.15735
776.77	33.08161
777.189	96.22863
777.607	61.15658
778.026	70.17511
778.445	35.08843
778.864	76.19546
779.282	23.05613
779.701	45.11438
780.119	45.11458
780.537	29.07316
780.955	48.12306
781.373	61.15174
781.791	44.10002
782.209	81.18752
782.627	55.14555
783.045	61.14139
783.462	60.15399
783.88	56.14553
784.297	56.14166
784.715	43.11115
785.132	40.09778
785.549	28.07078
785.966	51.12908
786.383	17.04237
786.8	99.22983
787.217	66.15724
787.633	23.05803
788.05	116.27456
788.466	55.13076
788.883	25.06437
789.299	54.13092
789.715	89.2163
790.131	71.177
790.547	80.19998
790.963	48.11995
791.379	28.07146
791.795	78.17861
792.21	94.21965
792.626	60.14317
793.041	46.11433
793.457	84.20762
793.872	57.13484
794.287	10.0242
794.702	55.13627
795.117	27.06773
795.532	7.01777
795.947	69.16669
796.362	86.20552
796.776	107.24997
797.191	36.08888
797.605	26.06171
798.02	61.14903
798.434	90.20053
798.848	39.09677
799.262	65.16163
799.676	77.18812
800.09	24.05967
800.504	35.0857
800.918	58.1351
801.331	92.24055
801.745	42.09733
802.158	70.17524
802.572	60.14618
802.985	86.2078
803.398	81.19324
803.811	75.19292
804.224	81.20157
804.637	45.10793
805.05	48.11207
805.462	92.22556
805.875	28.07311
806.288	29.07059
806.7	78.19597
807.112	52.12132
807.525	66.16325
807.937	50.12418
808.349	34.08582
808.761	81.19914
809.173	67.16271
809.584	64.1586
809.996	30.07407
810.408	-5.01307
810.819	32.07595
811.231	-16.04195
811.642	-57.13931
812.053	27.06481
812.464	83.1971
812.875	59.15113
813.286	68.17513
813.697	82.19176
814.108	81.19774
814.519	77.17181
814.929	84.21385
815.34	65.15797
815.75	42.10726
816.16	38.09534
816.571	25.06545
816.981	89.20972
817.391	56.13572
817.801	18.04514
818.211	74.17651
818.62	60.14481
819.03	40.09865
819.44	80.20861
819.849	67.16897
820.259	48.12336
820.668	58.14299
821.077	2.00503
821.486	44.1066
821.895	66.16331
822.304	47.12496
822.713	19.0454
823.122	78.19442
823.531	47.112
823.939	38.09317
824.348	71.17269
824.756	70.17537
825.164	42.10624
825.573	41.1034
825.981	57.14174
826.389	51.12857
826.797	41.10321
827.205	3.00698
827.612	53.13122
828.02	4.00952
828.428	59.15049
828.835	42.11098
829.243	58.13861
829.65	42.10492
830.057	30.07336
830.464	65.15851
830.871	27.0652
831.278	55.13332
831.685	108.23933
832.092	64.15685
832.499	53.11645
832.905	93.23437
833.312	111.25126
833.718	72.17927
834.124	32.07372
834.531	40.10133
834.937	47.12102
835.343	34.08259
835.749	63.14741
836.155	23.06064
836.561	67.16479
836.966	77.18798
837.372	77.19557
837.777	7.01762
838.183	79.1754
838.588	41.10225
838.993	95.23011
839.399	21.05176
839.804	3.00739
840.209	40.10223
840.613	59.13154
841.018	65.16457
841.423	60.15399
841.828	75.18928
842.232	89.21954
842.637	52.12303
843.041	19.04906
843.445	40.10075
843.849	35.0871
844.253	46.10976
844.657	8.02034
845.061	39.089
845.465	44.10668
845.869	55.12809
846.272	46.11236
846.676	62.15003
847.079	39.09955
847.483	77.19161
847.886	108.26066
848.289	22.05906
848.692	14.03575
849.095	94.22447
849.498	141.3524
849.901	86.19645
850.304	77.18356
850.707	70.1782
851.109	104.2612
851.512	53.13045
851.914	32.08103
852.316	63.15928
852.718	30.07783
853.121	29.07148
853.523	38.08925
853.925	27.0708
854.326	43.10782
854.728	68.17458
855.13	40.10348
855.531	39.09358
855.933	20.0484
856.334	5.01259
856.736	-11.02501
857.137	16.03753
857.538	40.1009
857.939	29.07204
858.34	79.19186
858.741	72.18775
859.142	53.12751
859.542	17.04515
859.943	41.10221
860.343	7.0175
860.744	88.21359
861.144	61.14875
861.544	11.02667
861.945	34.08702
862.345	64.15639
862.745	72.17849
863.145	112.26509
863.544	44.11146
863.944	39.09251
864.344	76.1882
864.743	79.1953
865.143	22.05686
865.542	38.08852
865.941	44.1092
866.34	120.28414
866.74	64.17154
867.139	33.07939
867.537	60.1528
867.936	63.15151
868.335	68.17269
868.734	49.12538
869.132	44.10253
869.531	86.20693
869.929	73.16591
870.327	36.08666
870.726	61.15202
871.124	54.12633
871.522	70.17789
871.92	77.18924
872.318	84.20434
872.715	94.23115
873.113	102.24646
873.511	39.09747
873.908	-17.04347
874.306	65.1614
874.703	79.19688
875.1	85.21635
875.497	67.16033
875.894	30.07385
876.291	48.11799
876.688	49.12652
877.085	50.12013
877.482	53.13275
877.878	60.14432
878.275	74.18739
878.671	131.28734
879.068	58.13998
879.464	74.17826
879.86	0
880.256	60.14798
880.652	53.13486
881.048	61.15102
881.444	57.13567
881.84	20.05115
882.236	96.23963
882.631	91.22191
883.027	50.12122
883.422	38.09746
883.817	51.12825
884.213	45.11567
884.608	5.01237
885.003	66.15881
885.398	23.0579
885.793	45.11316
886.188	40.0997
886.582	101.25699
886.977	94.22146
887.371	66.1666
887.766	36.08983
888.16	66.16439
888.554	65.16046
888.949	33.08319
889.343	71.17294
889.737	12.0322
890.131	56.14044
890.525	69.176
890.918	36.0909
891.312	79.18818
891.706	45.11824
892.099	84.21264
892.492	52.1123
892.886	38.09327
893.279	15.03848
893.672	42.10715
894.065	34.08545
894.458	68.1706
894.851	76.1855
895.244	49.12525
895.637	67.161
896.029	24.05902
896.422	70.17054
896.814	32.07988
897.206	46.10972
897.599	88.21631
897.991	72.17351
898.383	77.18116
898.775	45.10178
899.167	5.01177
899.559	84.2115
899.951	68.15989
900.342	94.23736
900.734	-25.06291
901.125	55.14428
901.517	65.15922
901.908	81.19324
902.299	41.10047
902.69	60.14141
903.082	79.19042
903.473	29.06977
903.863	51.13018
904.254	53.12304
904.645	87.21508
905.036	18.04387
905.426	98.22242
905.817	73.17848
906.207	31.07418
906.597	35.08215
906.987	73.18856
907.378	81.20384
907.768	34.09017
908.158	54.13166
908.547	17.04419
908.937	113.28691
909.327	59.14312
909.717	117.29369
910.106	58.13919
910.495	68.16931
910.885	66.16677
911.274	69.17196
911.663	62.15711
912.052	84.2061
912.441	48.12216
912.83	74.16917
913.219	72.18781
913.608	94.2285
913.997	33.08302
914.385	69.16436
914.774	73.17709
915.162	44.10503
915.55	101.24215
915.939	17.04318
916.327	34.08515
916.715	34.08692
917.103	81.19833
917.491	95.23322
917.878	97.23654
918.266	85.21918
918.654	73.18581
919.041	35.09162
919.429	29.06876
919.816	36.09152
920.203	39.09482
920.591	57.14122
920.978	66.16122
921.365	43.11299
921.752	62.14754
922.139	86.18541
922.525	65.15572
922.912	57.1389
923.299	41.1021
923.685	31.08115
924.072	54.12449
924.458	31.07709
924.844	43.10658
925.231	46.10719
925.617	2.00513
926.003	52.1329
926.389	15.03809
926.774	46.11669
927.16	82.20253
927.546	46.11752
927.931	86.21327
928.317	77.17649
928.702	53.12537
929.088	14.03335
929.473	41.10451
929.858	1.00244
930.243	78.18626
930.628	45.10961
931.013	25.06226
931.398	77.17621
931.783	73.19149
932.167	50.12227
932.552	73.18219
932.937	89.21938
933.321	41.10307
933.705	47.11857
934.09	60.1514
934.474	61.14463
934.858	67.1733
935.242	28.0652
935.626	31.07963
936.009	35.09333
936.393	34.08677
936.777	29.07454
937.16	49.12753
937.544	68.15971
937.927	49.12437
938.311	82.19903
938.694	81.21313
939.077	36.08643
939.46	87.21223
939.843	85.17605
940.226	46.1181
940.609	46.10571
940.991	45.11466
941.374	17.04181
941.757	90.22049
942.139	36.08111
942.522	77.18109
942.904	55.13212
943.286	89.22461
943.668	61.15773
944.05	69.16939
944.432	39.09645
944.814	84.20564
945.196	34.08311
945.578	11.02634
945.959	35.08228
946.341	86.20976
946.722	73.17061
947.104	50.11954
947.485	73.16914
947.866	43.10848
948.247	62.15611
948.628	89.21557
949.009	60.15339
949.39	49.12203
949.771	54.12554
950.152	104.25271
950.532	-5.01242
950.913	56.13495
951.293	77.2071
951.674	42.10175
952.054	23.05728
952.434	37.09207
952.814	58.13781
953.194	80.20832
953.574	78.19117
953.954	27.06441
954.334	61.15174
954.714	35.08554
955.093	80.19563
955.473	38.09523
955.853	56.14482
956.232	55.15063
956.611	106.25157
956.99	9.02279
957.37	36.09197
957.749	37.08851
958.128	47.11849
958.506	13.03394
958.885	67.16861
959.264	35.08602
959.643	51.11605
960.021	30.07461
960.4	37.08409
960.778	69.16939
961.156	35.08798
961.535	85.19678
961.913	65.15168
962.291	19.04901
962.669	26.06614
963.047	47.12001
963.424	71.18053
963.802	73.17875
964.18	91.22859
964.557	70.16061
964.935	75.17687
965.312	48.12504
965.69	81.20171
966.067	101.24363
966.444	63.15489
966.821	38.09817
967.198	49.11891
967.575	97.23645
967.952	60.14114
968.329	45.10961
968.705	81.17257
969.082	45.11551
969.458	36.08659
969.835	102.2459
970.211	68.17397
970.587	79.19566
970.963	64.16379
971.339	46.1202
971.715	77.19133
972.091	58.14262
972.467	80.19846
972.843	15.03746
973.219	81.19339
973.594	30.07874
973.97	109.25655
974.345	45.10781
974.721	83.19975
975.096	31.07529
975.471	74.17475
975.846	63.15099
976.221	40.10176
976.596	47.11273
976.971	52.12834
977.346	107.24634
977.72	81.20522
978.095	70.18028
978.469	87.2062
978.844	111.27602
979.218	48.1151
979.593	53.12693
979.967	57.13869
980.341	4.0093
980.715	64.16085
981.089	66.16475
981.463	43.09888
981.837	27.06626
982.21	73.16914
982.584	93.2228
982.957	0
983.331	91.21343
983.704	66.1617
984.078	50.12322
984.451	100.24753
984.824	50.12177
985.197	75.18132
985.57	78.19463
985.943	97.23751
986.316	55.13502
986.688	79.18948
987.061	75.17494
987.434	79.20484
987.806	30.07303
988.179	44.10394
988.551	69.17445
988.923	37.09134
989.295	35.0877
989.667	-1.00241
990.039	36.08918
990.411	22.05092
990.783	62.14243
991.155	34.08194
991.527	127.30831
991.898	54.13445
992.27	37.09174
992.641	47.11798
993.012	86.20095
993.384	13.03123
993.755	49.12494
994.126	73.17482
994.497	28.06901
994.868	100.22742
995.239	56.13557
995.61	11.02787
995.98	40.09734
996.351	1.0025
996.722	56.12972
997.092	-3.00718
997.462	34.07967
997.833	68.16064
998.203	64.15476
998.573	38.09482
998.943	12.02835
999.313	57.1364
999.683	5.0121
1000.053	37.08535
1000.423	55.13352
1000.792	57.14754
1001.162	62.15223
1001.531	43.10615
1001.901	16.04013
1002.27	108.23853
1002.639	50.12774
1003.009	17.04068
1003.378	49.12529
1003.747	64.15078
1004.116	30.07205
1004.485	51.12186
1004.853	43.10906
1005.222	44.11106
1005.591	65.15388
1005.959	20.04534
1006.328	42.09466
1006.696	17.04125
1007.064	65.16304
1007.433	78.19393
1007.801	112.27174
1008.169	49.12375
1008.537	80.17603
1008.905	53.12338
1009.273	63.15523
1009.64	72.17101
1010.008	63.14978
1010.375	135.32255
1010.743	116.26434
1011.11	47.11127
1011.478	65.1604
1011.845	82.19161
1012.212	48.10867
1012.579	35.08615
1012.946	65.15424
1013.313	83.19626
1013.68	91.2028
1014.047	26.06223
1014.414	41.09699
1014.78	32.07976
1015.147	38.0921
1015.513	48.11567
1015.88	52.1329
1016.246	85.20844
1016.612	23.05293
1016.978	51.12492
1017.344	33.08179
1017.71	93.22492
1018.076	40.09449
1018.442	39.10049
1018.808	54.13484
1019.174	38.09551
1019.539	144.32522
1019.905	62.14584
1020.27	13.03229
1020.636	77.18363
1021.001	81.19272
1021.366	33.07948
1021.731	58.14891
1022.096	-1.00254
1022.461	53.12533
1022.826	56.13291
1023.191	79.20617
1023.556	28.06589
1023.92	81.19797
1024.285	61.14853
1024.649	55.13462
1025.014	56.13852
1025.378	47.11819
1025.742	17.04246
1026.107	26.05908
1026.471	48.11207
1026.835	46.11408
1027.199	26.06285
1027.562	69.15974
1027.926	77.18728
1028.29	55.139
1028.654	24.05549
1029.017	78.19067
1029.381	66.15712
1029.744	62.15773
1030.107	37.08773
1030.471	31.07447
1030.834	40.09115
1031.197	44.10608
1031.56	15.03562
1031.923	41.10612
1032.286	73.17061
1032.648	105.24838
1033.011	66.15095
1033.374	100.23266
1033.736	28.07386
1034.099	82.19858
1034.461	18.04571
1034.823	35.08735
1035.185	54.13577
1035.548	71.17204
1035.91	73.17402
1036.272	76.172
1036.634	57.13921
1036.995	39.09183
1037.357	33.0805
1037.719	38.09258
1038.08	71.16782
1038.442	9.02152
1038.803	81.19324
1039.165	58.14609
1039.526	69.16606
1039.887	56.13378
1040.248	21.05199
1040.609	82.20134
1040.97	51.12455
1041.331	75.18894
1041.692	9.02117
1042.053	78.17652
1042.413	89.20572
1042.774	83.20051
1043.134	61.14486
1043.495	79.19745
1043.855	44.1068
1044.215	68.16814
1044.576	1.00241
1044.936	89.20236
1045.296	93.23016
1045.656	91.2215
1046.016	57.13734
1046.375	72.17384
1046.735	7.016
1047.095	66.15392
1047.454	111.23196
1047.814	54.12964
1048.173	102.24114
1048.533	77.17536
1048.892	12.029
1049.251	75.18732
1049.61	27.06672
1049.969	66.15501
1050.328	91.19547
1050.687	32.07808
1051.046	36.08784
1051.405	86.21241
1051.763	18.04163
1052.122	7.01758
1052.48	93.22611
1052.839	36.08488
1053.197	54.12692
1053.555	102.22999
1053.914	67.16326
1054.272	102.24404
1054.63	9.02216
1054.988	38.09043
1055.345	45.09696
1055.703	66.15827
1056.061	80.2046
1056.419	17.04423
1056.776	56.13557
1057.134	60.13855
1057.491	92.22848
1057.848	99.24412
1058.206	71.1662
1058.563	82.17944
1058.92	101.23029
1059.277	91.22265
1059.634	73.17088
1059.991	98.2325
1060.348	28.06352
1060.704	31.0741
1061.061	90.20733
1061.418	47.11397
1061.774	65.15993
1062.131	17.04517
1062.487	70.16293
1062.843	62.15415
1063.199	38.09465
1063.555	48.11119
1063.911	51.12871
1064.267	118.24226
1064.623	13.03177
1064.979	106.24827
1065.335	79.18767
1065.691	96.22793
1066.046	88.19184
1066.402	27.06159
1066.757	80.20071
1067.112	97.23583
1067.468	10.02378
1067.823	41.09867
1068.178	44.10648
1068.533	58.1403
1068.888	72.17121
1069.243	90.22033
1069.598	83.20028
1069.952	47.10583
1070.307	37.09174
1070.662	9.02152
1071.016	31.06969
1071.371	27.06166
1071.725	69.16436
1072.079	62.14868
1072.434	32.07796
1072.788	67.15892
1073.142	61.14964
1073.496	71.16763
1073.85	26.06054
1074.203	87.20946
1074.557	51.1355
1074.911	60.14284
1075.265	88.20288
1075.618	45.1099
1075.971	89.20996
1076.325	40.10176
1076.678	22.05056
1077.031	27.06134
1077.385	91.19859
1077.738	46.10385
1078.091	15.03433
1078.444	66.15265
1078.796	63.15409
1079.149	77.19043
1079.502	52.1227
1079.855	53.12343
1080.207	83.20308
1080.56	28.07259
1080.912	53.12886
1081.264	50.12031
1081.617	44.10728
1081.969	24.06078
1082.321	89.21557
1082.673	2.00461
1083.025	33.07849
1083.377	-167.37493
1083.728	90.20815
1084.08	60.14939
1084.432	33.07978
1084.783	86.19993
1085.135	59.14752
1085.486	2.00462
1085.838	45.11084
1086.189	65.15721
1086.54	71.16873
1086.891	39.09874
1087.242	46.11199
1087.593	63.15288
1087.944	49.11083
1088.295	105.23583
1088.646	59.14264
1088.996	38.09168
1089.347	57.13957
1089.698	59.13908
1090.048	86.22179
1090.398	57.13191
1090.749	56.13373
1091.099	64.16039
1091.449	55.13677
1091.799	64.1597
1092.149	-7.01724
1092.499	66.16038
1092.849	70.17713
1093.199	92.22865
1093.548	68.16269
1093.898	57.14231
1094.248	74.18919
1094.597	12.03081
1094.947	47.12533
1095.296	51.1258
1095.645	66.17104
1095.994	64.15318
1096.343	92.22956
1096.692	12.0317
1097.041	18.04894
1097.39	64.15999
1097.739	52.13499
1098.088	77.20519
1098.437	11.02906
1098.785	34.09182
1099.134	89.23457
1099.482	40.11009
1099.83	62.16244
1100.179	17.04455
1100.527	86.22693
1100.875	31.08215
1101.223	75.19814
1101.571	40.11061
1101.919	6.01578
1102.267	65.18241
1102.615	-3.00965
1102.962	14.04506
1103.31	-1.00322
1103.658	11.03543
