Data from N2 R10 sample 2_Subt2__3__13-30-05-251.txt Node

Date: Mon Sep 01 13:30:05 PDT 2025
User: uwsun
Spectrometer: HDX01956
Trigger mode: 0
Integration Time (sec): 5.000000E-1
Scans to average: 1
Nonlinearity correction enabled: true
Boxcar width: 0
Storing dark spectrum: false
XAxis mode: Wavelengths
Number of Pixels in Spectrum: 2068
>>>>>Begin Spectral Data<<<<<
194.03	74.20534
194.578	75.23498
195.127	46.14251
195.676	61.1892
196.225	116.30175
196.773	81.21921
197.321	111.29245
197.87	211.50181
198.418	200.47025
198.966	129.3094
199.513	184.41522
200.061	104.24263
200.609	198.48056
201.156	101.20225
201.704	118.27291
202.251	104.25451
202.798	147.34988
203.345	168.38035
203.892	134.30967
204.438	189.41053
204.985	113.2442
205.532	129.31175
206.078	155.34756
206.624	147.32895
207.17	222.4636
207.716	125.27764
208.262	187.33255
208.808	109.24502
209.354	198.43401
209.899	211.48537
210.445	164.36933
210.99	126.27724
211.535	174.37239
212.08	178.37617
212.625	173.3951
213.17	200.46034
213.715	132.26574
214.259	181.38327
214.804	191.42987
215.348	210.43367
215.892	204.44283
216.436	195.41092
216.98	210.42043
217.524	148.31976
218.068	208.47569
218.612	210.48065
219.155	161.34599
219.698	183.39699
220.242	214.48606
220.785	150.322
221.328	199.45209
221.871	169.39481
222.414	166.38056
222.956	100.22262
223.499	167.34356
224.041	155.33324
224.583	187.37013
225.126	164.33077
225.668	141.31526
226.21	140.32417
226.751	81.16416
227.293	141.29726
227.835	152.34034
228.376	211.44366
228.918	147.34301
229.459	136.31104
230	131.28734
230.541	164.34643
231.082	164.36373
231.622	174.36675
232.163	106.23735
232.704	130.29648
233.244	112.25677
233.784	185.41534
234.324	65.13197
234.864	142.29509
235.404	178.38705
235.944	158.34371
236.484	162.37124
237.023	188.4027
237.563	127.26916
238.102	194.41573
238.641	145.33675
239.18	78.16845
239.719	137.31616
240.258	156.32042
240.797	156.33993
241.335	183.40798
241.874	167.28959
242.412	195.42338
242.95	92.20209
243.488	171.35448
244.026	158.33054
244.564	175.32545
245.102	146.29812
245.64	188.41192
246.177	154.31417
246.715	167.36552
247.252	199.41289
247.789	200.33954
248.326	137.2986
248.863	186.36617
249.4	175.36002
249.936	159.2954
250.473	153.32327
251.009	164.33883
251.546	171.33957
252.082	197.387
252.618	155.31168
253.154	171.37032
253.69	176.35693
254.226	165.3558
254.761	120.24559
255.297	116.23094
255.832	162.34596
256.367	202.42614
256.903	178.35025
257.438	169.3588
257.972	192.38261
258.507	137.28273
259.042	193.37413
259.576	87.16994
260.111	226.46525
260.645	160.31201
261.179	129.2722
261.713	203.40105
262.247	161.3345
262.781	171.31912
263.315	207.45096
263.849	172.38608
264.382	187.38505
264.915	137.28857
265.449	126.27515
265.982	235.47277
266.515	163.35662
267.048	89.17087
267.58	220.42657
268.113	127.24631
268.646	178.39215
269.178	128.25638
269.71	137.26913
270.243	179.36492
270.775	145.33195
271.307	176.38009
271.838	247.51912
272.37	127.28173
272.902	162.32959
273.433	167.3245
273.965	172.37352
274.496	156.34887
275.027	164.36328
275.558	164.35448
276.089	135.29524
276.62	178.40545
277.15	165.36465
277.681	208.3981
278.211	202.43961
278.741	139.27151
279.272	172.34658
279.802	202.44651
280.332	115.24255
280.861	192.40807
281.391	153.30695
281.921	188.40131
282.45	187.41465
282.98	197.45479
283.509	191.37663
284.038	161.3239
284.567	216.44286
285.096	204.43263
285.625	115.23221
286.153	152.31404
286.682	205.40766
287.21	181.38176
287.739	181.37454
288.267	164.34841
288.795	200.46365
289.323	128.26303
289.851	212.43112
290.378	224.43329
290.906	133.28237
291.433	201.43659
291.961	148.29232
292.488	160.34954
293.015	135.27773
293.542	156.34484
294.069	174.37142
294.596	186.40152
295.122	158.32834
295.649	158.30284
296.175	196.41203
296.702	218.45585
297.228	235.49085
297.754	181.34936
298.28	133.26177
298.806	168.34834
299.332	136.25891
299.857	226.43108
300.383	243.52669
300.908	140.29184
301.433	183.3797
301.958	200.39558
302.483	176.37537
303.008	213.44984
303.533	187.42018
304.058	223.44635
304.582	185.36943
305.107	130.29216
305.631	242.46385
306.155	252.48629
306.679	194.38012
307.203	234.45133
307.727	223.44263
308.251	171.35892
308.775	166.32972
309.298	138.27846
309.822	208.44092
310.345	209.41213
310.868	215.42595
311.391	246.50208
311.914	216.44847
312.437	245.4595
312.96	229.44158
313.482	259.49847
314.005	142.29904
314.527	188.41001
315.049	242.50357
315.571	157.28384
316.093	253.50734
316.615	211.41274
317.137	232.40263
317.659	253.49725
318.18	241.47009
318.702	236.4377
319.223	210.34015
319.744	212.37672
320.265	235.44988
320.786	208.40793
321.307	272.53093
321.828	268.46932
322.348	233.42815
322.869	202.37127
323.389	-32.04209
323.909	259.45678
324.43	363.66571
324.95	255.44267
325.47	248.46501
325.989	233.4163
326.509	265.4284
327.029	241.40196
327.548	224.37227
328.067	296.52191
328.587	288.53388
329.106	265.4386
329.625	363.71076
330.144	254.42447
330.662	233.39012
331.181	314.5213
331.7	304.50414
332.218	282.42418
332.736	335.54528
333.255	282.45808
333.773	283.46762
334.291	320.56335
334.808	272.41184
335.326	283.43326
335.844	270.4201
336.361	244.42391
336.879	323.49159
337.396	292.46632
337.913	349.51222
338.43	289.41708
338.947	276.42818
339.464	306.40318
339.981	258.39204
340.497	337.53191
341.014	242.38005
341.53	301.41334
342.046	326.49571
342.562	299.47191
343.078	363.51122
343.594	330.47732
344.11	346.49145
344.626	339.51687
345.141	277.37147
345.657	430.5496
346.172	347.48742
346.687	285.37663
347.202	325.40568
347.717	376.5035
348.232	378.53864
348.747	356.44582
349.261	289.32996
349.776	404.506
350.29	275.37541
350.805	390.52956
351.319	388.473
351.833	327.37848
352.347	435.51576
352.861	322.38712
353.374	409.476
353.888	427.52342
354.401	349.40035
354.915	377.3953
355.428	412.50844
355.941	464.49759
356.454	487.5014
356.967	422.47564
357.48	335.37098
357.993	437.5151
358.505	406.4674
359.018	429.48929
359.53	377.41722
360.042	516.47324
360.554	434.4765
361.066	409.44707
361.578	431.38315
362.09	455.46722
362.602	420.37042
363.113	450.42635
363.625	465.40622
364.136	519.4236
364.647	356.31971
365.158	506.44445
365.669	474.44403
366.18	493.43926
366.691	545.40871
367.201	413.37972
367.712	475.37264
368.222	480.3737
368.733	469.31136
369.243	447.30502
369.753	505.37136
370.263	467.36709
370.773	476.39087
371.282	503.35483
371.792	382.23182
372.301	459.30753
372.811	553.42045
373.32	478.18783
373.829	432.22567
374.338	555.20202
374.847	502.18998
375.356	532.19519
375.865	535.07771
376.373	610.09954
376.882	702.20341
377.39	591.12191
377.898	493.07019
378.407	579.97877
378.915	637.92275
379.423	742.91028
379.93	731.85154
380.438	569.88356
380.946	832.72216
381.453	809.69659
381.96	775.65866
382.468	727.62851
382.975	919.52038
383.482	926.48915
383.989	825.55788
384.495	890.50305
385.002	863.55772
385.509	1009.50032
386.015	963.68041
386.521	1091.66501
387.028	1084.80397
387.534	1183.99307
388.04	1225.9485
388.546	1017.24514
389.051	1012.59452
389.557	1014.89387
390.063	1779.40217
390.568	1602.61383
391.073	1530.35233
391.578	1548.69508
392.084	1365.08459
392.589	1133.28771
393.093	912.23804
393.598	1386.40644
394.103	1685.51247
394.607	1823.49371
395.112	2136.78361
395.616	2103.78704
396.12	2070.84272
396.624	2043.72549
397.128	2265.74405
397.632	2977.52996
398.136	3082.11187
398.639	1681.10845
399.143	1004.63158
399.646	1294.39696
400.15	1190.22618
400.653	749.04962
401.156	-445.26262
401.659	-1067.02154
402.162	-128.4401
402.664	0
403.167	0
403.67	0
404.172	0
404.674	0
405.176	0
405.678	0
406.18	0
406.682	0
407.184	0
407.686	0
408.187	0
408.688	0
409.19	0
409.691	0
410.192	0
410.693	0
411.194	435.30976
411.694	4082.94878
412.195	8864.71461
412.696	12089.80453
413.196	12760.96929
413.696	12372.11645
414.196	13277.46319
414.696	16877.68482
415.196	19194.87886
415.696	21840.21448
416.196	18090.14842
416.695	11196.16698
417.195	7719.02353
417.694	7550.30127
418.194	7543.73603
418.693	6175.0484
419.192	5901.71555
419.691	5690.33089
420.19	5727.52583
420.688	6096.6368
421.187	6075.40629
421.685	6015.14453
422.184	5741.26617
422.682	4994.31834
423.18	3549.92947
423.678	2921.04491
424.176	2600.43526
424.674	2346.00613
425.172	2514.7221
425.669	2557.27277
426.167	2491.24965
426.664	2227.33156
427.161	1857.66012
427.659	1707.30781
428.156	1522.36525
428.652	1519.19078
429.149	1389.24525
429.646	1416.23121
430.143	1401.26813
430.639	1198.40941
431.135	1086.55095
431.632	1028.58452
432.128	929.72282
432.624	816.84761
433.12	681.81615
433.616	758.79901
434.111	575.91589
434.607	666.94407
435.103	709.91125
435.598	748.91825
436.093	713.07387
436.588	690.09197
437.083	546.13339
437.578	509.16963
438.073	358.17578
438.568	494.26708
439.062	477.17262
439.557	489.2777
440.051	375.2076
440.546	295.17855
441.04	296.21322
441.534	339.28568
442.028	371.28755
442.522	354.27732
443.015	257.17913
443.509	321.28493
444.002	235.21784
444.496	248.18684
444.989	244.23443
445.482	245.24392
445.975	284.2281
446.468	253.19253
446.961	261.20029
447.454	227.20235
447.947	143.14161
448.439	137.14905
448.931	158.14611
449.424	131.15601
449.916	215.23303
450.408	119.11664
450.9	94.10643
451.392	105.12844
451.884	171.18036
452.375	37.04555
452.867	184.19556
453.358	105.11163
453.849	83.08205
454.341	127.13676
454.832	92.09401
455.323	36.04576
455.814	136.15647
456.304	79.09394
456.795	63.07508
457.285	115.13375
457.776	176.21107
458.266	49.06326
458.756	46.06206
459.247	17.02249
459.737	21.02797
460.226	25.03102
460.716	-31.04328
461.206	-15.02132
461.695	39.05878
462.185	17.02381
462.674	66.08928
463.163	42.05465
463.653	55.06651
464.142	-25.03736
464.63	109.16289
465.119	18.02549
465.608	-10.01435
466.096	18.02438
466.585	54.07901
467.073	43.0666
467.561	7.01107
468.05	39.05895
468.538	9.01483
469.026	-9.01447
469.513	-21.02892
470.001	-40.06099
470.489	-24.03852
470.976	-10.01576
471.463	-31.05447
471.951	-1.00177
472.438	-59.0978
472.925	-62.10235
473.412	-5.00887
473.899	18.02932
474.385	14.02486
474.872	-41.06917
475.359	-7.01246
475.845	-20.02959
476.331	-17.02715
476.817	-17.03106
477.303	-13.02245
477.789	-42.07669
478.275	-67.12727
478.761	-2.00366
479.247	-35.05995
479.732	-107.20811
480.218	-25.05076
480.703	-92.18086
481.188	-26.04271
481.673	-41.0731
482.158	-125.20721
482.643	-4.0081
483.128	-108.196
483.612	-50.09296
484.097	-37.07303
484.581	-68.12807
485.066	-47.09194
485.55	-77.13551
486.034	-60.10407
486.518	-101.19326
487.002	-107.21496
487.486	-96.19335
487.969	-138.28115
488.453	-63.13235
488.936	-87.16212
489.42	-89.16403
489.903	-83.17652
490.386	-524.8099
490.869	-34.06151
491.352	-18.03706
491.835	-63.10913
492.318	-98.18675
492.8	-106.18581
493.283	-125.27256
493.765	-123.25988
494.247	-62.12418
494.73	-96.18151
495.212	-105.22088
495.694	-128.25769
496.175	-169.34705
496.657	-79.16179
497.139	-52.0775
497.62	-194.40297
498.102	-100.21485
498.583	-132.29093
499.064	-171.33434
499.545	-148.29713
500.026	-149.29326
500.507	-153.31391
500.988	-111.24254
501.469	-165.36572
501.949	-129.28283
502.43	-167.35053
502.91	-170.31135
503.39	-125.27856
503.87	-119.2458
504.35	-104.21776
504.83	-164.31981
505.31	-113.24169
505.79	-157.33434
506.269	-123.25612
506.749	-152.30896
507.228	-163.34168
507.707	-111.21764
508.187	-109.23263
508.666	-162.35615
509.145	-185.38916
509.623	-144.30272
510.102	-123.2666
510.581	-118.25615
511.059	-144.3231
511.538	-161.37775
512.016	-107.22865
512.494	-82.17762
512.972	-170.36792
513.45	-239.5043
513.928	-173.37977
514.406	-233.51019
514.884	-168.39163
515.361	-125.2692
515.839	-119.24316
516.316	-193.42403
516.793	-144.33145
517.27	-120.26371
517.747	-168.39209
518.224	-155.32706
518.701	-167.33969
519.178	-177.39885
519.654	-122.26404
520.131	-168.37958
520.607	-123.27762
521.083	-155.3229
521.56	-173.3745
522.036	-165.33271
522.512	-151.34193
522.987	-189.4107
523.463	-158.34356
523.939	-132.29581
524.414	-142.30088
524.89	-136.29484
525.365	-135.27898
525.84	-208.45459
526.315	-130.2852
526.79	-170.35343
527.265	-146.3053
527.74	-133.29602
528.215	-131.28237
528.689	-176.35971
529.164	-108.21422
529.638	-137.32357
530.112	-210.45934
530.587	-183.36035
531.061	-157.34741
531.534	-144.3219
532.008	-148.32661
532.482	-145.30731
532.956	-177.41577
533.429	-134.29856
533.903	-96.19433
534.376	-134.27262
534.849	-161.34584
535.322	-106.22902
535.795	-160.36224
536.268	-128.28259
536.741	-127.28114
537.213	-102.21622
537.686	-189.42746
538.158	-187.38869
538.631	-94.20978
539.103	-156.32274
539.575	-93.17795
540.047	-111.22434
540.519	-126.27829
540.991	-73.16342
541.463	-105.23351
541.934	-152.32249
542.406	-125.27383
542.877	-99.20477
543.348	-97.21518
543.82	-73.16376
544.291	-63.13434
544.762	-87.18793
545.233	-87.19869
545.703	-79.15871
546.174	-42.08825
546.645	-161.35314
547.115	-48.10424
547.585	-4.00822
548.056	-66.14272
548.526	-32.067
548.996	46.09751
549.466	59.12706
549.935	23.04768
550.405	3.00578
550.875	48.09913
551.344	70.14625
551.814	130.25592
552.283	132.24591
552.752	99.19705
553.221	138.25249
553.69	156.29221
554.159	137.28502
554.628	134.25224
555.096	201.42748
555.565	232.42856
556.033	248.48914
556.502	230.47028
556.97	280.51646
557.438	285.56675
557.906	344.68009
558.374	321.61572
558.842	399.78568
559.31	426.77911
559.777	409.81296
560.245	475.91115
560.712	455.86309
561.18	558.97328
561.647	581.02289
562.114	565.01909
562.581	674.30286
563.048	710.26265
563.514	693.32142
563.981	844.43809
564.448	763.29518
564.914	919.57089
565.381	942.55915
565.847	977.65874
566.313	1024.70378
566.779	1041.65601
567.245	1049.74314
567.711	1129.88896
568.176	1189.79406
568.642	1240.1291
569.108	1267.10718
569.573	1366.10461
570.038	1453.86183
570.504	1480.03576
570.969	1491.39883
571.434	1517.99682
571.899	1571.29127
572.363	1528.12427
572.828	1721.28017
573.293	1736.28455
573.757	1744.29226
574.222	1758.1877
574.686	1760.19935
575.15	1831.44975
575.614	1801.31018
576.078	1811.39246
576.542	1788.28616
577.006	1824.26404
577.469	1930.69218
577.933	1828.22988
578.396	1809.45444
578.86	1858.44868
579.323	1807.44693
579.786	1781.1078
580.249	1717.23887
580.712	1734.51171
581.175	1712.52031
581.637	1740.32178
582.1	1583.0734
582.563	1611.03088
583.025	1577.35764
583.487	1522.79181
583.95	1383.85329
584.412	1465.87361
584.874	1381.19314
585.336	1353.0984
585.797	1305.82139
586.259	1349.097
586.721	1198.9174
587.182	1248.98434
587.643	1267.91829
588.105	1170.91691
588.566	1153.64133
589.027	1056.81213
589.488	1024.66929
589.949	1009.77877
590.41	1021.3588
590.87	1003.65455
591.331	948.48384
591.791	913.55059
592.252	897.50858
592.712	873.57852
593.172	848.42632
593.632	887.43914
594.092	823.38076
594.552	806.30326
595.011	729.28881
595.471	799.35427
595.931	767.3041
596.39	714.33223
596.849	743.33616
597.308	736.22869
597.768	691.38842
598.227	743.39226
598.685	710.27636
599.144	657.21387
599.603	700.30025
600.062	707.13661
600.52	642.12494
600.978	707.31165
601.437	749.32356
601.895	711.15796
602.353	693.19893
602.811	768.29912
603.269	746.3838
603.727	737.36945
604.184	712.23744
604.642	746.41888
605.099	759.35313
605.557	796.48993
606.014	811.30141
606.471	796.51781
606.928	830.309
607.385	768.42398
607.842	937.56067
608.299	934.59874
608.755	865.56243
609.212	904.46476
609.668	877.41727
610.125	1004.76303
610.581	1050.8066
611.037	1005.67068
611.493	972.69601
611.949	900.62124
612.405	912.31795
612.861	999.73091
613.316	960.69436
613.772	1009.68379
614.227	923.62424
614.683	990.53823
615.138	977.68106
615.593	919.59528
616.048	983.65908
616.503	1005.839
616.958	971.82396
617.412	983.72381
617.867	887.46661
618.321	970.46497
618.776	900.5009
619.23	986.72141
619.684	957.61855
620.138	960.68204
620.592	909.69391
621.046	948.68964
621.5	943.74785
621.954	886.53582
622.407	878.50503
622.861	834.59424
623.314	848.50711
623.768	831.51999
624.221	836.26252
624.674	800.4606
625.127	776.45314
625.58	858.5399
626.033	905.54937
626.485	761.46957
626.938	811.54609
627.39	781.46288
627.843	725.37118
628.295	730.37964
628.747	774.49436
629.199	685.28781
629.651	651.23339
630.103	681.29473
630.555	666.16954
631.006	696.3596
631.458	637.26976
631.909	676.30673
632.361	567.13996
632.812	570.13205
633.263	592.09054
633.714	525.98036
634.165	567.19496
634.616	566.16907
635.067	579.11277
635.518	575.1938
635.968	542.94785
636.419	491.94594
636.869	499.05327
637.319	541.0966
637.769	482.95828
638.219	484.03383
638.669	437.94024
639.119	486.06097
639.569	438.95555
640.019	488.00905
640.468	446.89952
640.918	420.92288
641.367	451.91399
641.816	420.85526
642.265	428.90088
642.714	395.8382
643.163	415.87179
643.612	358.79262
644.061	384.74458
644.51	311.66198
644.958	365.74073
645.406	392.86245
645.855	368.83612
646.303	415.891
646.751	386.80856
647.199	384.80615
647.647	362.77237
648.095	375.79507
648.543	441.82429
648.99	439.95834
649.438	399.86735
649.885	439.99678
650.333	392.70062
650.78	366.82214
651.227	370.83692
651.674	376.79527
652.121	386.87168
652.568	322.73489
653.015	411.96304
653.461	369.81714
653.908	385.83372
654.354	420.92676
654.801	340.74744
655.247	364.7473
655.693	350.8567
656.139	366.82046
656.585	370.82976
657.031	356.7757
657.477	375.75441
657.922	423.89917
658.368	419.95986
658.813	416.89949
659.259	360.81033
659.704	366.79884
660.149	369.80555
660.594	425.93524
661.039	391.83116
661.484	424.94223
661.929	403.87939
662.373	362.85869
662.818	417.96333
663.262	372.84076
663.707	411.97244
664.151	397.90838
664.595	365.8288
665.039	447.03091
665.483	432.0221
665.927	419.92126
666.371	352.76796
666.814	410.9168
667.258	397.8784
667.701	480.9552
668.145	473.08881
668.588	428.98106
669.031	425.93053
669.474	416.93788
669.917	475.97231
670.36	475.08908
670.803	482.07485
671.245	461.89966
671.688	465.05246
672.13	451.93822
672.573	463.09368
673.015	462.02932
673.457	414.84496
673.899	445.00507
674.341	446.00262
674.783	429.96224
675.225	472.07591
675.666	401.9061
676.108	436.88501
676.549	472.03774
676.991	478.97601
677.432	484.88745
677.873	491.04949
678.314	498.09776
678.755	499.12084
679.196	473.00353
679.637	495.12003
680.078	540.15815
680.518	523.12188
680.959	517.13995
681.399	491.12762
681.839	523.17147
682.28	446.02758
682.72	506.06644
683.16	483.11585
683.6	548.14347
684.039	491.94548
684.479	452.03521
684.919	500.06115
685.358	514.20614
685.798	490.19298
686.237	497.11406
686.676	573.21239
687.115	536.15599
687.554	525.14698
687.993	549.10929
688.432	533.11729
688.871	559.15536
689.309	547.19663
689.748	577.09293
690.186	580.26278
690.625	578.23178
691.063	627.35513
691.501	597.34185
691.939	584.32679
692.377	581.29089
692.815	578.25789
693.253	604.31788
693.69	607.20202
694.128	546.21228
694.565	538.17914
695.003	596.37756
695.44	594.26593
695.877	583.23627
696.314	609.1801
696.751	626.28684
697.188	603.25202
697.625	672.37781
698.061	625.35253
698.498	670.45219
698.934	649.40453
699.371	603.2843
699.807	659.39582
700.243	634.37408
700.679	670.35205
701.115	683.43475
701.551	607.29507
701.987	657.32062
702.422	682.4424
702.858	683.44987
703.294	727.44878
703.729	678.4839
704.164	654.41265
704.599	629.25786
705.035	631.26595
705.47	646.41201
705.904	654.3632
706.339	666.3864
706.774	688.43225
707.209	660.35866
707.643	675.44842
708.078	678.47516
708.512	628.4188
708.946	659.41709
709.38	654.38975
709.814	599.24038
710.248	677.47579
710.682	604.30119
711.116	643.37553
711.549	646.5068
711.983	625.30007
712.416	671.41818
712.85	607.37493
713.283	624.33225
713.716	678.52813
714.149	654.4
714.582	625.2614
715.015	645.45813
715.448	629.43577
715.881	665.29557
716.313	590.25521
716.746	584.24943
717.178	551.21402
717.61	633.45302
718.043	589.33898
718.475	574.27031
718.907	617.41965
719.339	556.14889
719.77	567.2253
720.202	612.40561
720.634	543.21235
721.065	530.15572
721.497	562.26128
721.928	503.14323
722.359	480.07435
722.79	490.08731
723.221	549.27107
723.652	586.38385
724.083	563.15584
724.514	538.1335
724.945	484.0557
725.375	509.08804
725.806	516.19245
726.236	533.26123
726.666	504.10358
727.096	523.18444
727.526	456.08356
727.956	442.94057
728.386	501.14374
728.816	411.98295
729.246	436.99499
729.675	429.9934
730.105	481.10197
730.534	469.02141
730.964	459.08631
731.393	487.12644
731.822	472.12551
732.251	435.03734
732.68	487.06562
733.109	397.92697
733.537	399.91186
733.966	389.91684
734.395	407.88737
734.823	436.92337
735.251	402.91594
735.68	451.0587
736.108	381.91713
736.536	414.92154
736.964	389.85532
737.392	388.92212
737.82	394.89627
738.247	375.85461
738.675	442.992
739.102	390.92402
739.53	348.84738
739.957	344.84733
740.384	391.91619
740.811	368.88971
741.238	325.76187
741.665	297.66457
742.092	334.76534
742.519	294.70253
742.945	285.66237
743.372	300.71686
743.798	294.7306
744.225	274.6319
744.651	261.63689
745.077	273.66045
745.503	304.71558
745.929	297.68808
746.355	333.79555
746.781	291.69735
747.207	246.56214
747.632	260.61559
748.058	236.57536
748.483	257.57602
748.908	263.63506
749.334	254.60743
749.759	252.57863
750.184	204.47741
750.609	249.59649
751.033	264.60715
751.458	265.57805
751.883	253.61069
752.307	224.51619
752.732	213.52113
753.156	215.52055
753.58	265.61176
754.005	201.50161
754.429	211.48672
754.853	198.48218
755.277	164.38456
755.7	202.49248
756.124	159.39061
756.548	179.41883
756.971	205.49185
757.394	174.44248
757.818	201.50796
758.241	160.40169
758.664	159.39738
759.087	112.25027
759.51	162.39909
759.933	164.39042
760.356	188.47452
760.778	196.47392
761.201	220.52432
761.623	229.54357
762.046	174.40849
762.468	222.52259
762.89	188.45732
763.312	181.43609
763.734	86.20795
764.156	124.30514
764.578	136.31191
765	159.38425
765.421	136.34279
765.843	128.33365
766.264	120.28951
766.686	148.36876
767.107	122.29478
767.528	86.21739
767.949	129.32625
768.37	120.29366
768.791	160.38338
769.212	67.16909
769.632	59.13876
770.053	103.27064
770.473	81.19789
770.894	120.29954
771.314	106.25351
771.734	62.14584
772.154	111.28422
772.575	110.25511
772.994	62.1422
773.414	101.24289
773.834	107.26704
774.254	71.17475
774.673	109.26521
775.093	123.30285
775.512	77.19036
775.931	105.26565
776.351	99.24564
776.77	78.19131
777.189	69.16518
777.607	91.23236
778.026	84.2096
778.445	33.0834
778.864	76.19546
779.282	71.17172
779.701	85.21452
780.119	66.16743
780.537	77.19259
780.955	143.3605
781.373	60.14928
781.791	39.08875
782.209	80.18525
782.627	68.17955
783.045	67.15511
783.462	46.11835
783.88	27.07051
784.297	87.21886
784.715	32.08287
785.132	81.19649
785.549	73.18305
785.966	90.2262
786.383	59.14591
786.8	87.20245
787.217	69.1643
787.633	19.04797
788.05	113.26762
788.466	125.29317
788.883	41.10528
789.299	107.25683
789.715	91.22108
790.131	70.17454
790.547	93.23193
790.963	84.20854
791.379	47.11955
791.795	104.2369
792.21	77.18052
792.626	98.23214
793.041	70.17321
793.457	82.20276
793.872	60.14185
794.287	22.05312
794.702	99.24331
795.117	58.14467
795.532	38.09592
795.947	113.27071
796.362	117.27794
796.776	121.2819
797.191	56.13776
797.605	31.0735
798.02	54.1321
798.434	82.183
798.848	47.11645
799.262	42.10488
799.676	81.19774
800.09	68.16771
800.504	83.20142
800.918	50.11665
801.331	99.25855
801.745	30.06969
802.158	35.08817
802.572	60.14618
802.985	88.21255
803.398	47.11286
803.811	89.22837
804.224	77.19175
804.637	40.09603
805.05	96.22203
805.462	98.24
805.875	57.1481
806.288	66.15953
806.7	24.06088
807.112	62.14436
807.525	95.23374
807.937	24.05989
808.349	56.1408
808.761	76.18702
809.173	55.13387
809.584	127.31108
809.996	62.15218
810.408	51.13205
810.819	76.17884
811.231	50.12962
811.642	27.06496
812.053	105.24829
812.464	123.28983
812.875	128.3239
813.286	87.22332
813.697	159.3662
814.108	81.19774
814.519	114.25242
814.929	100.25386
815.34	82.19866
815.75	82.20794
816.16	96.23833
816.571	68.17671
816.981	89.20972
817.391	52.12612
817.801	56.13948
818.211	74.17651
818.62	73.17575
819.03	74.18136
819.44	92.2394
819.849	59.14901
820.259	57.14626
820.668	34.08419
821.077	55.13697
821.486	127.30286
821.895	48.11917
822.304	73.19324
822.713	52.12346
823.122	33.08293
823.531	41.09781
823.939	86.20897
824.348	46.1124
824.756	67.16794
825.164	66.16624
825.573	50.12589
825.981	91.22488
826.389	53.13357
826.797	31.07818
827.205	63.14487
827.612	84.20679
828.02	26.06159
828.428	86.21832
828.835	61.16067
829.243	59.14097
829.65	19.04766
830.057	83.20097
830.464	71.17294
830.871	76.18183
831.278	30.07306
831.685	71.15855
832.092	70.17137
832.499	25.05525
832.905	80.20208
833.312	60.13722
833.718	88.21847
834.124	90.20492
834.531	106.26536
834.937	78.19976
835.343	45.10908
835.749	78.18197
836.155	79.20632
836.561	60.14776
836.966	112.27164
837.372	68.17299
837.777	13.03269
838.183	85.18848
838.588	89.22002
838.993	80.19432
839.399	79.19265
839.804	26.06382
840.209	36.09207
840.613	56.12493
841.018	63.15956
841.423	91.23228
841.828	65.16434
842.232	112.2751
842.637	20.04761
843.041	54.13859
843.445	74.18525
843.849	43.10685
844.253	72.17095
844.657	27.06841
845.061	79.17882
845.465	53.12828
845.869	77.17855
846.272	50.12204
846.676	58.14046
847.079	49.12485
847.483	52.12999
847.886	140.33584
848.289	32.08577
848.692	80.20193
849.095	74.17739
849.498	102.25673
849.901	52.1196
850.304	75.17886
850.707	49.12521
851.109	68.17189
851.512	21.05199
851.914	23.05834
852.316	34.0864
852.718	12.03123
853.121	39.09596
853.523	40.09391
853.925	32.08384
854.326	66.16481
854.728	46.11855
855.13	36.0932
855.531	36.08643
855.933	99.236
856.334	39.09758
856.736	52.11672
857.137	28.06553
857.538	31.07832
857.939	52.12862
858.34	88.21335
858.741	75.19547
859.142	49.11797
859.542	47.12421
859.943	55.13677
860.343	70.17296
860.744	83.20165
861.144	117.28233
861.544	40.09647
861.945	67.17048
862.345	80.1949
862.745	51.12691
863.145	87.20692
863.544	25.06354
863.944	78.18362
864.344	71.17598
864.743	93.22932
865.143	83.21223
865.542	11.02576
865.941	90.22147
866.34	45.1081
866.74	72.19273
867.139	71.16958
867.537	110.27766
867.936	37.08942
868.335	73.18522
868.734	66.16838
869.132	65.15084
869.531	79.19034
869.929	60.13673
870.327	44.10575
870.726	128.3151
871.124	78.18162
871.522	40.10219
871.92	108.2639
872.318	78.18996
872.715	120.29366
873.113	89.21557
873.511	37.09251
873.908	-3.00765
874.306	67.1663
874.703	43.10786
875.1	98.24887
875.497	91.21676
875.894	30.07385
876.291	45.11068
876.688	53.13676
877.085	45.10822
877.482	50.12531
877.878	39.09418
878.275	57.14478
878.671	95.20995
879.068	45.10888
879.464	78.18776
879.86	19.04526
880.256	43.10638
880.652	59.14996
881.048	82.20223
881.444	84.1989
881.84	56.14231
882.236	89.22244
882.631	88.21471
883.027	85.20472
883.422	42.10764
883.817	25.06316
884.213	87.22199
884.608	42.10324
885.003	46.11111
885.398	36.09042
885.793	75.18759
886.188	39.09723
886.582	109.27695
886.977	75.17735
887.371	80.20143
887.766	25.06251
888.16	65.16193
888.554	96.23563
888.949	52.13065
889.343	80.19454
889.737	32.08557
890.131	73.18252
890.525	56.14317
890.918	54.13592
891.312	77.18349
891.706	56.14687
892.099	101.25489
892.492	69.14847
892.886	53.12973
893.279	50.12747
893.672	58.14755
894.065	66.16493
894.458	56.1408
894.851	59.14447
895.244	71.18078
895.637	83.19884
896.029	50.12236
896.422	86.20889
896.814	48.11947
897.206	5.01202
897.599	102.25008
897.991	52.12579
898.383	61.14396
898.775	74.16638
899.167	33.07728
899.559	74.18666
899.951	73.17148
900.342	80.20251
900.734	-9.02258
901.125	96.25007
901.517	60.14711
901.908	92.21902
902.299	33.08098
902.69	84.19705
903.082	69.16663
903.473	23.0554
903.863	59.15039
904.254	70.16196
904.645	84.20778
905.036	53.12833
905.426	126.28434
905.817	55.13492
906.207	23.05512
906.597	48.11238
906.987	70.18091
907.378	31.07871
907.768	76.20014
908.158	69.16776
908.547	27.07006
908.937	62.15884
909.327	67.16229
909.717	86.21708
910.106	19.04594
910.495	92.22806
910.885	57.14426
911.274	30.07529
911.663	105.26404
912.052	91.22298
912.441	42.107
912.83	31.07148
913.219	96.24938
913.608	79.19258
913.997	24.06047
914.385	66.1573
914.774	65.15792
915.162	55.13101
915.55	112.26796
915.939	54.13626
916.327	42.10503
916.715	24.06147
917.103	104.25356
917.491	78.19209
917.878	107.26044
918.266	43.11169
918.654	64.16316
919.041	43.11241
919.429	44.10402
919.816	71.17938
920.203	54.13092
920.591	36.08954
920.978	78.1901
921.365	58.15202
921.752	75.17803
922.139	55.11937
922.525	42.10106
922.912	73.17735
923.299	47.11692
923.685	36.09416
924.072	95.21723
924.458	55.13617
924.844	44.10904
925.231	13.03049
925.617	31.07913
926.003	87.22097
926.389	48.12116
926.774	45.11418
927.16	73.1806
927.546	34.08705
927.931	93.23033
928.317	42.09695
928.702	83.1952
929.088	45.10657
929.473	52.13229
929.858	48.11611
930.243	37.08905
930.628	86.20788
931.013	75.18507
931.398	80.18296
931.783	89.23283
932.167	75.18255
932.552	88.21903
932.937	62.15358
933.321	50.12549
933.705	30.07591
934.09	119.2971
934.474	58.1376
934.858	33.08586
935.242	50.11592
935.626	57.14575
936.009	25.06678
936.393	78.19752
936.777	67.17108
937.16	44.11462
937.544	57.13416
937.927	43.10926
938.311	127.30564
938.694	84.22091
939.077	26.06254
939.46	82.20022
939.843	96.19834
940.226	63.16126
940.609	40.09203
940.991	41.10454
941.374	19.04671
941.757	72.17698
942.139	22.04971
942.522	109.25475
942.904	96.2288
943.286	100.25187
943.668	59.15261
944.05	70.17181
944.432	57.1405
944.814	90.22008
945.196	44.10736
945.578	21.0502
945.959	65.15191
946.341	68.16641
946.722	74.17291
947.104	76.18079
947.485	71.16457
947.866	62.15588
948.247	69.17351
948.628	52.12683
949.009	55.14074
949.39	94.23217
949.771	100.23036
950.152	44.10812
950.532	15.03714
950.913	54.13018
951.293	70.18849
951.674	57.1377
952.054	28.06967
952.434	79.19509
952.814	120.28172
953.194	77.20061
953.574	96.23449
953.954	82.19356
954.334	74.18365
954.714	22.0539
955.093	101.24602
955.473	28.0703
955.853	34.08826
956.232	71.19395
956.611	76.18142
956.99	76.19012
957.37	80.2028
957.749	105.2479
958.128	87.21776
958.506	69.17841
958.885	70.17606
959.264	28.0689
959.643	85.19209
960.021	89.21897
960.4	58.13126
960.778	116.28229
961.156	11.02777
961.535	71.16483
961.913	70.16318
962.291	54.13844
962.669	36.09142
963.047	85.21559
963.424	63.16041
963.802	34.08385
964.18	105.26309
964.557	81.18544
964.935	120.28051
965.312	73.18934
965.69	108.26763
966.067	92.22229
966.444	94.22978
966.821	60.15442
967.198	68.16443
967.575	110.26749
967.952	95.22194
968.329	44.1072
968.705	37.07958
969.082	80.20409
969.458	17.04104
969.835	52.12655
970.211	31.07982
970.587	108.26606
970.963	69.17643
971.339	60.1564
971.715	72.17907
972.091	93.22721
972.467	77.19113
972.843	33.08215
973.219	120.28436
973.594	47.123
973.97	101.23809
974.345	70.1669
974.721	90.21631
975.096	39.09457
975.471	59.13973
975.846	52.12489
976.221	59.14959
976.596	36.08653
976.971	68.16734
977.346	88.20337
977.72	80.20273
978.095	56.14457
978.469	40.09567
978.844	84.20991
979.218	5.01209
979.593	69.16474
979.967	70.1699
980.341	48.11057
980.715	63.15837
981.089	55.13756
981.463	52.11936
981.837	40.09793
982.21	94.21689
982.584	47.11359
982.957	58.14462
983.331	68.1602
983.704	37.09114
984.078	73.17914
984.451	114.28146
984.824	27.06604
985.197	97.23354
985.57	84.20937
985.943	111.27108
986.316	93.2267
986.688	74.17766
987.061	88.20474
987.434	73.18947
987.806	76.18343
988.179	44.10394
988.551	97.24401
988.923	33.08152
989.295	58.14473
989.667	19.04566
990.039	57.14066
990.411	57.13102
990.783	107.24358
991.155	40.09629
991.527	128.31068
991.898	55.13692
992.27	90.22098
992.641	64.16016
993.012	59.13859
993.384	70.16633
993.755	73.18535
994.126	36.08682
994.497	12.02966
994.868	84.19165
995.239	107.25654
995.61	76.19033
995.98	71.17178
996.351	37.09184
996.722	48.11137
997.092	16.03813
997.462	19.04465
997.833	99.23247
998.203	95.22837
998.573	20.05007
998.943	67.15659
999.313	89.21167
999.683	34.08184
1000.053	73.16719
1000.423	51.1239
1000.792	54.13985
1001.162	29.07164
1001.531	100.24426
1001.901	68.16894
1002.27	64.14266
1002.639	56.14292
1003.009	50.1189
1003.378	79.20094
1003.747	73.17168
1004.116	-5.01209
1004.485	44.10527
1004.853	94.23625
1005.222	96.24007
1005.591	86.20277
1005.959	22.04985
1006.328	77.17231
1006.696	40.09665
1007.064	39.09829
1007.433	40.10014
1007.801	82.20007
1008.169	35.08861
1008.537	109.23838
1008.905	70.16241
1009.273	89.21825
1009.64	51.12162
1010.008	89.21053
1010.375	116.27817
1010.743	124.28211
1011.11	63.14868
1011.478	31.07698
1011.845	58.13617
1012.212	39.08846
1012.579	50.12272
1012.946	98.23106
1013.313	77.18229
1013.68	73.16329
1014.047	47.11204
1014.414	46.10871
1014.78	66.16349
1015.147	74.17813
1015.513	96.22924
1015.88	99.25092
1016.246	66.16242
1016.612	96.2177
1016.978	87.21168
1017.344	82.20142
1017.71	70.17003
1018.076	71.16672
1018.442	87.2223
1018.808	53.13237
1019.174	10.02526
1019.539	106.24126
1019.905	41.09684
1020.27	36.08905
1020.636	70.16716
1021.001	89.21143
1021.366	32.07709
1021.731	53.13619
1022.096	19.04817
1022.461	100.23431
1022.826	48.1141
1023.191	63.16487
1023.556	98.22746
1023.92	75.18351
1024.285	54.13166
1024.649	56.13704
1025.014	75.18487
1025.378	70.1753
1025.742	61.15114
1026.107	88.19745
1026.471	88.20385
1026.835	57.14107
1027.199	42.10122
1027.562	61.14145
1027.926	87.2112
1028.29	74.18639
1028.654	80.18289
1029.017	46.11312
1029.381	43.10282
1029.744	31.0793
1030.107	73.17188
1030.471	55.13151
1030.834	85.19193
1031.197	92.21978
1031.56	110.25643
1031.923	51.13178
1032.286	110.25522
1032.648	86.20418
1033.011	21.04846
1033.374	64.14996
1033.736	35.09222
1034.099	99.23898
1034.461	65.16369
1034.823	53.13184
1035.185	41.10333
1035.548	51.12404
1035.91	57.1363
1036.272	57.1295
1036.634	76.18495
1036.995	91.21209
1037.357	33.0805
1037.719	30.0732
1038.08	84.19805
1038.442	56.1327
1038.803	53.12712
1039.165	61.15356
1039.526	81.1945
1039.887	59.14086
1040.248	63.15478
1040.609	78.19166
1040.97	50.12213
1041.331	83.20879
1041.692	21.04927
1042.053	130.29109
1042.413	70.16241
1042.774	77.18623
1043.134	100.23568
1043.495	74.18512
1043.855	54.13082
1044.215	77.19008
1044.576	51.12186
1044.936	82.18671
1045.296	93.23016
1045.656	91.2215
1046.016	68.1635
1046.375	60.14519
1046.735	63.14237
1047.095	81.18834
1047.454	65.13722
1047.814	63.15099
1048.173	99.23419
1048.533	48.10996
1048.892	19.04585
1049.251	64.16016
1049.61	39.09617
1049.969	39.09208
1050.328	38.08256
1050.687	41.09987
1051.046	16.03918
1051.405	54.13416
1051.763	47.10808
1052.122	67.16649
1052.48	11.02715
1052.839	25.05907
1053.197	66.15477
1053.555	90.20343
1053.914	94.2279
1054.272	104.24873
1054.63	31.07602
1054.988	35.08334
1055.345	78.16686
1055.703	91.21718
1056.061	73.18692
1056.419	24.06237
1056.776	71.17139
1057.134	44.10193
1057.491	85.21137
1057.848	54.13426
1058.206	49.11519
1058.563	65.14275
1058.92	89.20342
1059.277	72.17679
1059.634	43.10125
1059.991	117.27655
1060.348	4.00912
1060.704	28.06697
1061.061	126.28817
1061.418	60.14514
1061.774	64.15749
1062.131	32.08481
1062.487	41.09597
1062.843	46.1147
1063.199	34.08475
1063.555	48.11119
1063.911	38.09612
1064.267	54.11247
1064.623	40.09727
1064.979	111.25973
1065.335	93.22034
1065.691	55.13161
1066.046	34.07497
1066.402	26.05932
1066.757	56.1411
1067.112	99.24061
1067.468	17.04037
1067.823	67.16045
1068.178	40.09687
1068.533	94.22584
1068.888	76.18058
1069.243	75.18412
1069.598	44.10696
1069.952	14.03174
1070.307	11.0274
1070.662	95.22342
1071.016	4.00904
1071.371	46.10465
1071.725	81.1925
1072.079	85.20294
1072.434	19.0464
1072.788	34.08116
1073.142	73.17868
1073.496	26.06192
1073.85	37.08597
1074.203	108.25898
1074.557	70.18539
1074.911	74.17569
1075.265	85.19608
1075.618	85.20604
1075.971	53.12591
1076.325	69.17463
1076.678	57.13007
1077.031	39.08839
1077.385	48.10571
1077.738	46.10385
1078.091	48.10912
1078.444	66.15265
1078.796	75.18303
1079.149	84.20747
1079.502	18.04275
1079.855	21.04922
1080.207	101.24629
1080.56	49.12657
1080.912	36.08781
1081.264	81.19376
1081.617	62.15066
1081.969	28.07085
1082.321	45.1099
1082.673	36.08233
1083.025	52.12322
1083.377	-146.32637
1083.728	52.12117
1084.08	64.15923
1084.432	51.12288
1084.783	76.17703
1085.135	60.14999
1085.486	12.02764
1085.838	73.17888
1086.189	75.18105
1086.54	63.14995
1086.891	55.13885
1087.242	84.20304
1087.593	96.23152
1087.944	72.16208
1088.295	88.19834
1088.646	54.13068
1088.996	38.09168
1089.347	68.16616
1089.698	-7.01671
1090.048	71.18358
1090.398	82.18882
1090.749	67.15966
1091.099	60.15048
1091.449	86.21265
1091.799	70.17448
1092.149	1.00246
1092.499	37.0904
1092.849	59.14959
1093.199	84.20907
1093.548	67.16033
1093.898	69.17189
1094.248	78.19927
1094.597	11.02825
1094.947	48.12798
1095.296	42.10377
1095.645	47.1222
1095.994	40.09618
1096.343	61.15307
1096.692	25.06589
1097.041	10.02723
1097.39	102.25322
1097.739	74.19137
1098.088	68.18148
1098.437	3.00794
1098.785	39.10524
1099.134	83.21898
1099.482	35.0964
1099.83	80.20896
1100.179	34.08884
1100.527	64.1695
1100.875	-11.02935
1101.223	25.0666
1101.571	54.149
1101.919	-19.05018
1102.267	38.10708
1102.615	5.01607
1102.962	7.02255
1103.31	0
1103.658	14.04508
