Data from N2 R10 sample 11_Subt2__4__13-08-39-278.txt Node

Date: Mon Sep 01 13:08:39 PDT 2025
User: uwsun
Spectrometer: HDX01956
Trigger mode: 0
Integration Time (sec): 5.000000E-1
Scans to average: 1
Nonlinearity correction enabled: true
Boxcar width: 0
Storing dark spectrum: false
XAxis mode: Wavelengths
Number of Pixels in Spectrum: 2068
>>>>>Begin Spectral Data<<<<<
194.03	-72.20431
194.578	-48.15268
195.127	-62.19472
195.676	-64.20164
196.225	-14.03723
196.773	-37.10204
197.321	-60.16262
197.87	-80.20085
198.418	-90.22351
198.966	-133.33481
199.513	-140.33674
200.061	-114.27732
200.609	-55.1398
201.156	-139.29382
201.704	-134.32536
202.251	-124.31623
202.798	-111.27722
203.345	-84.1999
203.892	-128.31114
204.438	-93.21411
204.985	-172.39432
205.532	-143.3632
206.078	-90.21195
206.624	-129.30503
207.17	-95.21232
207.716	-137.32081
208.262	-114.21861
208.808	-185.44083
209.354	-135.31662
209.899	-47.11367
210.445	-163.39154
210.99	-171.39964
211.535	-108.24521
212.08	-100.22419
212.625	-113.27288
213.17	-108.26381
213.715	-191.41311
214.259	-57.12697
214.804	-107.25546
215.348	-96.21185
215.892	-80.18414
216.436	-42.09311
216.98	-59.12548
217.524	-125.28582
218.068	-90.21812
218.612	-107.26044
219.155	-80.18083
219.698	-84.19258
220.242	-82.19738
220.785	-81.18253
221.328	-86.20662
221.871	-65.1588
222.414	-37.08827
222.956	-143.33434
223.499	-83.18036
224.041	-43.09638
224.583	-33.06868
225.126	-63.1337
225.668	-95.22272
226.21	-97.23513
226.751	-102.21537
227.293	-81.17909
227.835	-71.16626
228.376	-39.08652
228.918	-56.13587
229.459	-149.36022
230	-104.23938
230.541	-86.19161
231.082	-80.18642
231.622	-70.15545
232.163	-117.27398
232.704	-88.2095
233.244	-96.22924
233.784	-72.17015
234.324	-132.28006
234.864	-90.1967
235.404	-51.11629
235.944	-70.15964
236.484	-51.12186
237.023	-105.23913
237.563	-95.2111
238.102	-61.13791
238.641	-95.23106
239.18	-149.33741
239.719	-78.18769
240.258	-80.17307
240.797	-68.15521
241.335	-69.16183
241.874	-114.21248
242.412	-108.24958
242.95	-105.24019
243.488	-104.22884
244.026	-117.25966
244.564	-91.18045
245.102	-87.18704
245.64	-66.15234
246.177	-111.24008
246.715	-78.17954
247.252	-78.17184
247.789	-26.04685
248.326	-157.36346
248.863	-112.23597
249.4	-70.15195
249.936	-61.11955
250.473	-97.21617
251.009	-157.3477
251.546	-125.26538
252.082	-99.20807
252.618	-87.18471
253.154	-126.29014
253.69	-93.2002
254.226	-98.22323
254.761	-87.1864
255.297	-126.265
255.832	-145.33022
256.367	-95.21346
256.903	-126.2657
257.438	-55.12247
257.972	-87.18463
258.507	-133.29111
259.042	-126.26289
259.576	-157.32444
260.111	-81.17827
260.645	-70.14397
261.179	-156.34973
261.713	-143.30545
262.247	-117.25814
262.781	-127.25455
263.315	-118.27475
263.849	-144.34412
264.382	-97.21249
264.915	-102.22613
265.449	-172.39922
265.982	-101.21892
266.515	-90.20741
267.048	-166.33834
267.58	-68.14093
268.113	-151.31232
268.646	-104.24263
269.178	-149.31758
269.71	-82.16942
270.243	-67.14423
270.775	-111.26714
271.307	-48.10863
271.838	-74.16652
272.37	-113.26316
272.902	-94.2024
273.433	-142.29628
273.965	-130.30042
274.496	-105.24742
275.027	-126.29592
275.558	-103.23533
276.089	-184.42943
276.62	-78.18683
277.15	-123.28814
277.681	-130.26919
278.211	-58.13318
278.741	-116.24031
279.272	-91.19446
279.802	-117.2758
280.332	-150.33476
280.861	-129.29331
281.391	-137.29327
281.921	-106.24067
282.45	-106.24934
282.98	-140.34476
283.509	-115.24309
284.038	-113.24169
284.567	-114.25115
285.096	-139.31681
285.625	-88.18597
286.153	-172.38116
286.682	-107.22826
287.21	-138.31142
287.739	-118.26051
288.267	-190.4347
288.795	-107.26306
289.323	-167.36599
289.851	-131.28721
290.378	-104.21699
290.906	-173.39175
291.433	-172.40316
291.961	-157.3323
292.488	-142.32998
293.015	-122.26551
293.542	-131.30688
294.069	-149.34029
294.596	-121.27835
295.122	-105.23099
295.649	-98.19947
296.175	-114.256
296.702	-145.32755
297.228	-131.2958
297.754	-147.30609
298.28	-209.44449
298.806	-159.35374
299.332	-203.41837
299.857	-185.38813
300.383	-91.21126
300.908	-213.47879
301.433	-164.36661
301.958	-99.20954
302.483	-173.39685
303.008	-133.30216
303.533	-126.30122
304.058	-111.23936
304.582	-199.4328
305.107	-210.50471
305.631	-179.37804
306.155	-167.3547
306.679	-188.40166
307.203	-171.36193
307.727	-188.40896
308.251	-189.42815
308.775	-252.54934
309.298	-246.54013
309.822	-200.46163
310.345	-182.39187
310.868	-198.43017
311.391	-161.35894
311.914	-186.42076
312.437	-189.3925
312.96	-184.39004
313.482	-227.48802
314.005	-221.50247
314.527	-209.494
315.049	-195.44516
315.571	-254.50758
316.093	-207.45919
316.615	-207.44503
317.137	-230.44831
317.659	-201.43734
318.18	-219.47386
318.702	-232.48061
319.223	-263.48328
319.744	-211.41626
320.265	-298.6441
320.786	-242.52508
321.307	-256.56232
321.828	-233.46204
322.348	-228.46767
322.869	-302.62562
323.389	-408.60569
323.909	-247.49347
324.43	-232.48943
324.95	-284.56384
325.47	-303.64551
325.989	-300.61007
326.509	-271.505
327.029	-332.64159
327.548	-303.57726
328.067	-332.68191
328.587	-281.595
329.106	-265.50339
329.625	-275.61966
330.144	-333.64677
330.662	-361.70349
331.181	-336.65867
331.7	-319.62076
332.218	-302.535
332.736	-327.63208
333.255	-354.67886
333.773	-388.76133
334.291	-329.67804
334.808	-366.66124
335.326	-371.67936
335.844	-397.73946
336.361	-441.90599
336.879	-431.80519
337.396	-394.75375
337.913	-416.7562
338.43	-387.67794
338.947	-418.78187
339.464	-444.73559
339.981	-475.8817
340.497	-413.7945
341.014	-485.92405
341.53	-487.84332
342.046	-486.92033
342.562	-430.82303
343.078	-483.86666
343.594	-447.80535
344.11	-435.77288
344.626	-493.94021
345.141	-469.78757
345.657	-418.69403
346.172	-475.84529
346.687	-536.90778
347.202	-488.78755
347.717	-495.85855
348.232	-492.89667
348.747	-483.7872
349.261	-514.77019
349.776	-542.91
350.29	-612.08069
350.805	-514.90927
351.319	-576.95182
351.833	-577.90056
352.347	-589.96874
352.861	-546.86878
353.374	-477.74348
353.888	-607.02477
354.401	-596.93486
354.915	-620.92254
355.428	-619.04961
355.941	-607.93862
356.454	-515.75657
356.967	-619.98479
357.48	-634.97497
357.993	-612.0072
358.505	-672.0958
359.018	-568.9002
359.53	-679.06861
360.042	-601.84152
360.554	-640.00618
361.066	-718.14291
361.578	-634.85417
362.09	-656.99459
362.602	-665.89694
363.113	-690.99645
363.625	-701.96436
364.136	-710.95182
364.647	-762.05123
365.158	-715.00302
365.669	-702.01521
366.18	-728.03142
366.691	-726.93351
367.201	-729.02991
367.712	-746.97183
368.222	-732.94577
368.733	-793.94127
369.243	-813.9814
369.753	-816.05311
370.263	-798.0551
370.773	-823.13251
371.282	-853.08577
371.792	-941.08158
372.301	-960.2116
372.811	-895.23054
373.32	-1015.99007
373.829	-1062.19705
374.338	-1009.97826
374.847	-1097.09905
375.356	-1106.11052
375.865	-1169.88652
376.373	-1089.84603
376.882	-1150.14676
377.39	-1286.16502
377.898	-1383.14287
378.407	-1391.8662
378.915	-1353.68699
379.423	-1441.83413
379.93	-1507.71537
380.438	-1652.78293
380.946	-1660.56653
381.453	-1851.6016
381.96	-1947.40709
382.468	-2152.16674
382.975	-2087.1214
383.482	-2081.8102
383.989	-2233.06736
384.495	-2345.66343
385.002	-2578.25518
385.509	-2676.28387
386.015	-2826.8584
386.521	-2901.86842
387.028	-3087.72414
387.534	-3124.62831
388.04	-3134.65023
388.546	-3523.54282
389.051	-3829.60407
389.557	-4082.74644
390.063	-3870.90534
390.568	-4239.16832
391.073	-4471.92801
391.578	-4710.12929
392.084	-5111.35217
392.589	-5582.45433
393.093	-6124.29362
393.598	-6252.3277
394.103	-6872.22107
394.607	-7409.59093
395.112	-7939.11973
395.616	-8415.67383
396.12	-9499.70753
396.624	-10659.9423
397.128	-11197.10817
397.632	-12016.27054
398.136	-13429.26843
398.639	-15727.15758
399.143	-18284.02711
399.646	-20229.7193
400.15	-22312.68912
400.653	-25750.07034
401.156	-29553.76292
401.659	-35330.83504
402.162	-34133.59391
402.664	-24030.81577
403.167	-9619.47035
403.67	-1536.98703
404.172	0
404.674	0
405.176	0
405.678	0
406.18	0
406.682	0
407.184	0
407.686	0
408.187	0
408.688	0
409.19	0
409.691	-12485.38597
410.192	-20101.90565
410.693	-25527.49502
411.194	-28377.52714
411.694	-26325.28182
412.195	-23726.82235
412.696	-23352.97549
413.196	-24385.18526
413.696	-24934.13663
414.196	-23470.95965
414.696	-20344.39979
415.196	-17169.18552
415.696	-11599.496
416.196	-9404.80314
416.695	-9937.33893
417.195	-10488.74344
417.694	-9832.78765
418.194	-9030.87252
418.693	-8907.06021
419.192	-8556.79611
419.691	-8481.73773
420.19	-8106.49903
420.688	-7667.31436
421.187	-6931.77628
421.685	-6236.18367
422.184	-5352.76382
422.682	-4740.58382
423.18	-4549.81137
423.678	-4245.37885
424.176	-4052.18412
424.674	-3790.48377
425.172	-3360.89464
425.669	-3074.65442
426.167	-2653.72611
426.664	-2630.76911
427.161	-2501.93298
427.659	-2276.23643
428.156	-2276.18379
428.652	-2129.7141
429.149	-2032.73829
429.646	-1917.72796
430.143	-1819.08121
430.639	-1727.16374
431.135	-1723.47254
431.632	-1648.41669
432.128	-1596.65735
432.624	-1590.89258
433.12	-1610.62591
433.616	-1492.5629
434.111	-1623.89996
434.607	-1469.90735
435.103	-1268.62631
435.598	-1222.6264
436.093	-1117.8382
436.588	-1147.90947
437.083	-1088.92862
437.578	-1083.02266
438.073	-1132.23444
438.568	-1029.19349
439.062	-1001.93305
439.557	-919.04816
440.051	-970.06575
440.546	-986.11473
441.04	-954.18811
441.534	-945.3182
442.028	-871.13335
442.522	-934.24349
443.015	-873.0186
443.509	-860.20169
444.002	-861.20732
444.496	-771.91101
444.989	-851.22367
445.482	-869.28947
445.975	-922.21438
446.468	-854.04781
446.961	-844.04061
447.454	-852.15558
447.947	-861.23041
448.439	-817.23334
448.931	-840.13922
449.424	-775.23641
449.916	-787.20139
450.408	-883.25174
450.9	-865.34833
451.392	-839.38164
451.884	-787.16163
452.375	-837.35851
452.867	-717.04568
453.358	-808.18368
453.849	-772.04998
454.341	-758.1115
454.832	-790.11189
455.323	-817.35201
455.814	-774.20354
456.304	-738.14604
456.795	-705.0809
457.285	-692.05245
457.776	-671.05781
458.266	-730.19798
458.756	-689.1579
459.247	-764.27976
459.737	-693.14564
460.226	-710.11401
460.716	-714.21735
461.206	-668.14669
461.695	-622.12414
462.185	-653.1122
462.674	-629.04761
463.163	-634.01691
463.653	-626.9479
464.142	-659.17448
464.63	-625.14253
465.119	-640.09675
465.608	-628.07671
466.096	-570.92417
466.585	-543.94285
467.073	-571.04362
467.561	-543.99592
468.05	-559.99845
468.538	-517.97737
469.026	-532.98385
469.513	-587.95954
470.001	-584.03436
470.489	-581.07961
470.976	-550.00135
471.463	-485.95414
471.951	-497.99524
472.438	-494.91812
472.925	-542.01275
473.412	-490.97964
473.899	-428.78514
474.385	-478.95786
474.872	-528.0075
475.359	-484.96854
475.845	-478.8073
476.331	-378.66653
476.817	-437.8836
477.303	-467.90445
477.789	-460.92903
478.275	-455.94612
478.761	-396.79721
479.247	-434.82345
479.732	-456.96066
480.218	-454.00937
480.703	-434.92195
481.188	-399.724
481.673	-388.75413
482.158	-437.78732
482.643	-353.77194
483.128	-465.92082
483.612	-398.80419
484.097	-341.72109
484.581	-375.75963
485.066	-395.83637
485.55	-401.76584
486.034	-376.70713
486.518	-358.72768
487.002	-397.85089
487.486	-412.89008
487.969	-362.77505
488.453	-365.81771
488.936	-400.80341
489.42	-352.69166
489.903	-328.73468
490.386	-772.27909
490.869	-308.59635
491.352	-305.66839
491.835	-311.57436
492.318	-350.70785
492.8	-327.60664
493.283	-358.81901
493.765	-325.71702
494.247	-292.61599
494.73	-330.65975
495.212	-268.58397
495.694	-337.71107
496.175	-353.75496
496.657	-285.61086
497.139	-238.37486
497.62	-403.87604
498.102	-334.75366
498.583	-341.78435
499.064	-371.75978
499.545	-275.56828
500.026	-346.71259
500.507	-282.59542
500.988	-296.67202
501.469	-332.76137
501.949	-318.72488
502.43	-356.77833
502.91	-292.5513
503.39	-285.65609
503.87	-308.66315
504.35	-279.60678
504.83	-296.59535
505.31	-326.7293
505.79	-338.74803
506.269	-300.64925
506.749	-343.72754
507.228	-320.69401
507.707	-291.59487
508.187	-250.54984
508.666	-332.75587
509.145	-300.64703
509.623	-329.71976
510.102	-270.60354
510.581	-242.53917
511.059	-316.73397
511.538	-311.75094
512.016	-275.60901
512.494	-260.58455
512.972	-268.59214
513.45	-377.81953
513.928	-332.75312
514.406	-371.83594
514.884	-268.63698
515.361	-249.55051
515.839	-304.64722
516.316	-270.60279
516.793	-244.5728
517.27	-281.63835
517.747	-279.66529
518.224	-268.57951
518.701	-275.57313
519.178	-337.78413
519.654	-264.58867
520.131	-301.69845
520.607	-251.58129
521.083	-311.67032
521.56	-257.5663
522.036	-223.45566
522.512	-232.53399
522.987	-317.70756
523.463	-259.57525
523.939	-249.5714
524.414	-226.48765
524.89	-281.628
525.365	-249.52771
525.84	-318.71111
526.315	-259.58361
526.79	-203.42515
527.265	-269.57781
527.74	-307.70786
528.215	-249.55028
528.689	-226.46713
529.164	-233.47566
529.638	-270.65406
530.112	-286.63561
530.587	-268.53829
531.061	-279.63304
531.534	-243.55428
532.008	-305.69511
532.482	-254.55112
532.956	-287.68856
533.429	-262.59918
533.903	-237.49525
534.376	-263.5508
534.849	-240.5243
535.322	-241.53572
535.795	-252.58117
536.268	-276.62814
536.741	-249.56521
537.213	-236.5149
537.686	-308.71341
538.158	-322.68941
538.631	-202.46086
539.103	-325.69779
539.575	-244.48397
540.047	-232.4819
540.519	-232.52374
540.991	-172.39289
541.463	-223.50804
541.934	-220.47369
542.406	-243.54554
542.877	-235.50087
543.348	-205.46496
543.82	-226.52288
544.291	-169.36865
544.762	-229.50968
545.233	-240.56495
545.703	-237.49349
546.174	-208.45305
546.645	-238.53048
547.115	-192.42973
547.585	-182.38918
548.056	-246.55239
548.526	-187.40497
548.996	-146.32246
549.466	-181.40986
549.935	-203.44206
550.405	-137.27282
550.875	-171.37048
551.344	-121.2635
551.814	-108.22454
552.283	-82.1609
552.752	-122.25534
553.221	-121.2359
553.69	-47.09246
554.159	-90.1967
554.628	-84.16661
555.096	-52.11668
555.565	-8.01567
556.033	101.20609
556.502	99.20844
556.97	99.1909
557.438	139.28583
557.906	206.42045
558.374	211.41548
558.842	262.53255
559.31	353.65749
559.777	313.63607
560.245	492.93989
560.712	508.95119
561.18	552.96433
561.647	545.96992
562.114	679.18961
562.581	820.53041
563.048	875.49066
563.514	906.63957
563.981	1105.75332
564.448	1134.73658
564.914	1327.02557
565.381	1442.06703
565.847	1497.19538
566.313	1723.33858
566.779	1844.29427
567.245	1941.47428
567.711	2147.65137
568.176	2251.39937
568.642	2461.94578
569.108	2713.87981
569.573	2904.67729
570.038	3052.08058
570.504	3269.29156
570.969	3597.85024
571.434	3734.97738
571.899	4074.29441
572.363	4188.97269
572.828	4519.8381
573.293	4827.65581
573.757	5062.53214
574.222	5372.18698
574.686	5578.11532
575.15	5892.33471
575.614	6148.07666
576.078	6357.15373
576.542	6580.0126
577.006	6795.98311
577.469	7188.51415
577.933	7199.07317
578.396	7469.45
578.86	7454.40796
579.323	7708.60321
579.786	7629.2755
580.249	7904.65447
580.712	7924.88111
581.175	7957.93228
581.637	7903.70375
582.1	8004.70929
582.563	7935.59296
583.025	7842.77752
583.487	7826.36042
583.95	7838.46778
584.412	7707.30512
584.874	7692.67321
585.336	7441.42951
585.797	7378.09899
586.259	7306.36586
586.721	7063.23405
587.182	7055.25621
587.643	6860.06868
588.105	6691.23218
588.566	6477.7241
589.027	6243.34203
589.488	6061.12188
589.949	5929.50254
590.41	5761.46104
590.87	5659.28095
591.331	5532.03696
591.791	5197.51908
592.252	5035.53609
592.712	4986.9036
593.172	4750.63019
593.632	4649.56679
594.092	4508.72256
594.552	4309.64099
595.011	4181.043
595.471	4072.98299
595.931	3892.05116
596.39	3750.51806
596.849	3607.42531
597.308	3502.11004
597.768	3377.02412
598.227	3413.70429
598.685	3272.50187
599.144	3128.60677
599.603	3093.69021
600.062	2965.10447
600.52	2831.40717
600.978	2762.72983
601.437	2811.56116
601.895	2672.21187
602.353	2678.42439
602.811	2510.4164
603.269	2522.75929
603.727	2366.73042
604.184	2339.44648
604.642	2305.81694
605.099	2315.58076
605.557	2266.78948
606.014	2227.24788
606.471	2161.82296
606.928	2076.18075
607.385	2097.66651
607.842	2115.45435
608.299	2073.52685
608.755	2048.63844
609.212	2036.31372
609.668	1950.25365
610.125	2057.66721
610.581	2052.63668
611.037	2031.47743
611.493	2039.60983
611.949	1966.62011
612.405	1951.97384
612.861	2042.61115
613.316	1935.58705
613.772	2047.49934
614.227	1974.56605
614.683	1968.23859
615.138	1946.52535
615.593	1818.43754
616.048	1950.47178
616.503	1925.73823
616.958	1820.7285
617.412	1885.5581
617.867	1723.21991
618.321	1797.07983
618.776	1784.2871
619.23	1726.44813
619.684	1693.31494
620.138	1736.44572
620.592	1611.49393
621.046	1566.35846
621.5	1515.41731
621.954	1555.23315
622.407	1546.19199
622.861	1417.33389
623.314	1427.16554
623.768	1359.16162
624.221	1343.73188
624.674	1299.07841
625.127	1226.04474
625.58	1271.04364
626.033	1220.91642
626.485	1175.04645
626.938	1131.99141
627.39	1156.96855
627.843	1083.87198
628.295	1071.85802
628.747	1030.8683
629.199	931.64603
629.651	973.70087
630.103	899.61985
630.555	922.51249
631.006	887.65528
631.458	915.70763
631.909	911.66329
632.361	827.56445
632.812	782.47737
633.263	794.38979
633.714	753.3258
634.165	760.53462
634.616	719.4348
635.067	746.37693
635.518	705.4218
635.968	808.31387
636.419	665.22623
636.869	681.38088
637.319	630.25142
637.769	592.14518
638.219	652.34277
638.669	612.26536
639.119	633.33952
639.569	559.18633
640.019	594.19956
640.468	527.04138
640.918	618.29947
641.367	501.00194
641.816	554.09202
642.265	515.06142
642.714	480.99966
643.163	507.04162
643.612	457.99087
644.061	426.81774
644.51	469.96394
644.958	438.87405
645.406	476.02681
645.855	470.04372
646.303	465.98757
646.751	391.81812
647.199	487.99913
647.647	449.93988
648.095	407.85687
648.543	478.88528
648.99	381.84195
649.438	505.07108
649.885	405.92594
650.333	406.72303
650.78	399.89018
651.227	386.87026
651.674	387.81656
652.121	374.84665
652.568	376.84876
653.015	398.93495
653.461	337.75126
653.908	418.89879
654.354	365.81468
654.801	381.83034
655.247	389.79412
655.693	337.82688
656.139	332.74945
656.585	340.7672
657.031	293.64697
657.477	297.60824
657.922	290.63432
658.368	313.73231
658.813	391.84996
659.259	292.66643
659.704	274.6097
660.149	314.69348
660.594	305.68809
661.039	317.68472
661.484	325.7371
661.929	299.66684
662.373	245.59429
662.818	255.60807
663.262	228.53044
663.707	267.64934
664.151	277.64912
664.595	278.64241
665.039	287.68436
665.483	269.65787
665.927	292.65917
666.371	217.48698
666.814	247.57089
667.258	231.52882
667.701	291.60458
668.145	280.67062
668.588	219.52304
669.031	193.44325
669.474	239.55833
669.917	249.53578
670.36	215.51957
670.803	234.54954
671.245	212.4382
671.688	252.5962
672.13	176.38856
672.573	221.54752
673.015	206.48417
673.457	189.40546
673.899	249.58602
674.341	179.42522
674.783	202.47421
675.225	200.48177
675.666	155.36779
676.108	147.31808
676.549	230.53234
676.991	175.3819
677.432	173.3421
677.873	176.40251
678.314	180.42389
678.755	167.40129
679.196	153.34787
679.637	229.54713
680.078	209.48096
680.518	215.49259
680.959	179.42326
681.399	149.36618
681.839	164.39506
682.28	142.34763
682.72	162.36781
683.16	162.39879
683.6	176.39814
684.039	162.33665
684.479	142.34608
684.919	154.35206
685.358	189.47235
685.798	145.37634
686.237	185.44201
686.676	177.40749
687.115	153.35758
687.554	148.34962
687.993	161.35477
688.432	148.33712
688.871	128.2905
689.309	111.26552
689.748	94.19935
690.186	177.41885
690.625	128.2998
691.063	120.28776
691.501	122.30121
691.939	113.2815
692.377	109.2662
692.815	95.2282
693.253	125.30072
693.69	111.24562
694.128	124.29984
694.565	130.30984
695.003	101.25662
695.44	131.3076
695.877	119.27823
696.314	132.28532
696.751	127.29075
697.188	119.27407
697.625	176.4017
698.061	110.26448
698.498	124.30029
698.934	132.3175
699.371	90.21327
699.807	120.28436
700.243	135.32403
700.679	131.29737
701.115	120.28359
701.551	164.38396
701.987	78.17789
702.422	111.2643
702.858	103.24648
703.294	147.33274
703.729	136.33195
704.164	132.31726
704.599	70.15829
705.035	83.1878
705.47	88.21519
705.904	102.2389
706.339	126.29407
706.774	114.26784
707.209	72.16798
707.643	76.18426
708.078	91.22282
708.512	44.1113
708.946	100.24108
709.38	70.1678
709.814	92.21236
710.248	91.22315
710.682	125.29729
711.116	82.19686
711.549	91.23554
711.983	101.23485
712.416	131.30988
712.85	82.20572
713.283	150.35352
713.716	163.40635
714.149	145.34486
714.582	56.12792
715.015	131.32741
715.448	116.29238
715.881	112.24716
716.313	117.27484
716.746	43.10286
717.178	75.18194
717.61	114.28909
718.043	103.25743
718.475	105.25538
718.907	131.33096
719.339	27.06248
719.77	74.17698
720.202	100.25341
720.634	64.1572
721.065	81.19368
721.497	96.23633
721.928	26.06488
722.359	61.14853
722.79	57.13806
723.221	112.2821
723.652	104.26877
724.083	108.24481
724.514	58.13526
724.945	66.15694
725.375	41.09665
725.806	121.30198
726.236	107.27437
726.666	93.22161
727.096	114.28001
727.526	62.15873
727.956	62.14282
728.386	82.20328
728.816	72.1833
729.246	62.15212
729.675	57.14169
730.105	90.2227
730.534	117.2743
730.964	102.25847
731.393	123.30552
731.822	78.20032
732.251	48.12315
732.68	104.24635
733.109	48.11973
733.537	73.17775
733.966	90.22441
734.395	64.14967
734.823	68.15558
735.251	63.15334
735.68	100.25124
736.108	71.18091
736.536	68.1622
736.964	47.11075
737.392	103.25817
737.82	55.13367
738.247	106.25467
738.675	133.31741
739.102	55.13871
739.53	42.10809
739.957	55.14266
740.384	106.26219
740.811	50.1281
741.238	38.09406
741.665	22.05201
742.092	116.27742
742.519	44.11015
742.945	79.19106
743.372	92.22856
743.798	85.21925
744.225	69.16562
744.651	65.16439
745.077	58.14598
745.503	83.20376
745.929	82.19806
746.355	138.34197
746.781	82.20432
747.207	24.05729
747.632	48.11829
748.058	83.20812
748.483	97.22456
748.908	80.19984
749.334	46.11437
749.759	76.18065
750.184	45.10859
750.609	91.22455
751.033	95.22586
751.458	94.21247
751.883	89.22147
752.307	37.08844
752.732	42.10602
753.156	64.15935
753.58	88.2103
754.005	73.1864
754.429	86.20332
754.853	72.17946
755.277	68.16244
755.7	59.14767
756.124	92.22881
756.548	27.06505
756.971	89.21825
757.394	72.1864
757.818	50.12975
758.241	67.17102
758.664	23.05889
759.087	13.02964
759.51	70.17537
759.933	39.09507
760.356	71.18295
760.778	58.14389
761.201	96.23423
761.623	84.20495
762.046	100.23815
762.468	93.22441
762.89	104.25696
763.312	44.10876
763.734	58.14099
764.156	72.17888
764.578	59.1374
765	97.23716
765.421	5.0129
765.843	76.19987
766.264	84.20404
766.686	85.21421
767.107	37.09083
767.528	10.02562
767.949	48.12315
768.37	77.18994
768.791	84.20419
769.212	42.10647
769.632	19.04503
770.053	47.12467
770.473	78.19067
770.894	86.21599
771.314	66.15905
771.734	53.12489
772.154	48.12426
772.575	84.19582
772.994	47.10812
773.414	82.19791
773.834	30.07591
774.254	75.18446
774.673	92.22456
775.093	110.27149
775.512	9.02253
775.931	58.14797
776.351	60.14993
776.77	47.11594
777.189	72.17226
777.607	55.14133
778.026	70.17511
778.445	36.09094
778.864	74.19038
779.282	77.18602
779.701	40.10176
780.119	36.09181
780.537	11.02784
780.955	43.11034
781.373	82.2032
781.791	25.05705
782.209	84.19435
782.627	43.11402
783.045	99.22774
783.462	63.1616
783.88	-4.0105
784.297	47.11908
784.715	19.04932
785.132	35.08564
785.549	58.14583
785.966	67.16909
786.383	71.1752
786.8	64.14961
787.217	38.09102
787.633	21.053
788.05	99.23509
788.466	86.20324
788.883	31.07974
789.299	41.09965
789.715	68.16592
790.131	49.12265
790.547	46.1157
790.963	94.23294
791.379	73.18482
791.795	47.10829
792.21	96.22423
792.626	50.11954
793.041	60.14874
793.457	52.12928
793.872	70.16517
794.287	11.02661
794.702	101.24813
795.117	46.11499
795.532	65.16328
795.947	135.32206
796.362	72.17253
796.776	120.27963
797.191	82.20075
797.605	16.03805
798.02	44.10784
798.434	69.15441
798.848	63.15563
799.262	34.08502
799.676	99.24088
800.09	76.18716
800.504	92.22288
800.918	39.09118
801.331	72.1889
801.745	73.16813
802.158	49.12313
802.572	92.2228
802.985	74.17921
803.398	62.14845
803.811	102.26113
804.224	80.19911
804.637	21.0506
805.05	104.24015
805.462	102.24961
805.875	49.12749
806.288	49.11882
806.7	56.14125
807.112	77.17876
807.525	113.2771
807.937	66.16343
808.349	68.1706
808.761	102.2498
809.173	74.17948
809.584	106.26065
809.996	28.06916
810.408	5.01305
810.819	41.09714
811.231	-28.07356
811.642	-19.04611
812.053	65.15489
812.464	80.19009
812.875	71.18148
813.286	87.22332
813.697	144.33264
814.108	127.30738
814.519	111.24593
814.929	94.23888
815.34	57.13874
815.75	55.14014
816.16	101.25051
816.571	79.20491
816.981	59.13984
817.391	55.13332
817.801	49.1222
818.211	52.12455
818.62	49.11851
819.03	94.22952
819.44	97.2522
819.849	72.18142
820.259	80.20445
820.668	59.14543
821.077	33.08251
821.486	82.19724
821.895	99.24349
822.304	100.26352
822.713	67.15861
823.122	70.17473
823.531	27.06459
823.939	80.19461
824.348	111.26795
824.756	71.17784
825.164	90.22571
825.573	52.13088
825.981	62.15403
826.389	81.20311
826.797	76.19012
827.205	96.21929
827.612	70.17277
828.02	45.1062
828.428	56.14292
828.835	58.15284
829.243	94.22309
829.65	52.12966
830.057	111.26734
830.464	68.16573
830.871	92.21944
831.278	58.14051
831.685	81.18051
832.092	86.20991
832.499	79.17262
832.905	103.25911
833.312	95.21574
833.718	102.25258
834.124	74.16904
834.531	89.22349
834.937	89.22749
835.343	80.19264
835.749	55.1289
836.155	74.19342
836.561	74.18177
836.966	92.22397
837.372	78.19808
837.777	69.17177
838.183	85.18848
838.588	74.18344
838.993	89.21582
839.399	34.08361
839.804	29.07114
840.209	64.16287
840.613	65.14473
841.018	44.11182
841.423	82.20964
841.828	87.21909
842.232	137.33495
842.637	69.16272
843.041	45.11567
843.445	75.18772
843.849	80.19745
844.253	90.21294
844.657	52.13116
845.061	88.19883
845.465	58.14025
845.869	42.09806
846.272	-4.00986
846.676	74.17867
847.079	43.10968
847.483	111.27451
847.886	110.26538
848.289	47.12567
848.692	14.03575
849.095	114.27118
849.498	100.25178
849.901	74.16945
850.304	78.1859
850.707	95.24078
851.109	99.24886
851.512	12.02976
851.914	57.1437
852.316	100.25115
852.718	-11.02874
853.121	70.17124
853.523	30.07057
853.925	32.08384
854.326	63.1574
854.728	85.21757
855.13	16.04156
855.531	40.09596
855.933	76.18197
856.334	76.18888
856.736	98.2179
857.137	82.18988
857.538	24.06071
857.939	70.17258
858.34	64.15586
858.741	53.13865
859.142	66.15839
859.542	34.09005
859.943	63.15643
860.343	-8.02005
860.744	85.20643
861.144	63.15357
861.544	8.01941
861.945	51.13013
862.345	26.06398
862.745	67.16624
863.145	145.34101
863.544	54.13655
863.944	120.28018
864.344	87.215
864.743	98.24143
865.143	71.18193
865.542	45.10468
865.941	70.17289
866.34	83.19793
866.74	84.22441
867.139	39.09372
867.537	96.24292
867.936	87.20827
868.335	65.16515
868.734	26.0668
869.132	39.09097
869.531	100.23998
869.929	31.07106
870.327	58.13903
870.726	79.19623
871.124	107.24771
871.522	87.22043
871.92	96.23511
872.318	96.23301
872.715	98.2408
873.113	46.11232
873.511	42.10492
873.908	-6.01531
874.306	48.11956
874.703	82.20424
875.1	107.27129
875.497	59.1414
875.894	29.0714
876.291	77.18826
876.688	75.19279
877.085	94.22395
877.482	94.2337
877.878	69.16568
878.275	36.09178
878.671	104.22941
879.068	63.15191
879.464	63.15208
879.86	41.09725
880.256	105.25681
880.652	37.09441
881.048	117.28669
881.444	91.21518
881.84	52.13224
882.236	61.15323
882.631	90.21951
883.027	84.20235
883.422	55.14064
883.817	28.0707
884.213	45.11567
884.608	40.09836
885.003	61.14692
885.398	41.10288
885.793	57.14303
886.188	4.01004
886.582	94.23947
886.977	67.15868
887.371	64.16161
887.766	25.06251
888.16	69.17177
888.554	89.21873
888.949	89.22212
889.343	98.23751
889.737	25.06693
890.131	60.15037
890.525	71.18104
890.918	35.08839
891.312	117.27666
891.706	82.21411
892.099	51.12986
892.492	65.13999
892.886	57.13941
893.279	43.10976
893.672	42.10715
894.065	85.21167
894.458	72.18051
894.851	80.19512
895.244	73.18581
895.637	70.16812
896.029	65.15863
896.422	105.25414
896.814	54.13426
897.206	70.1662
897.599	112.27408
897.991	70.16876
898.383	72.16956
898.775	78.17523
899.167	61.14206
899.559	64.16172
899.951	95.2222
900.342	52.13229
900.734	21.05241
901.125	65.17022
901.517	60.14711
901.908	93.22136
902.299	36.0883
902.69	50.11807
903.082	91.21884
903.473	24.05779
903.863	123.30997
904.254	83.19154
904.645	86.21265
905.036	36.08744
905.426	103.23353
905.817	117.28371
906.207	46.10976
906.597	42.09845
906.987	83.21402
907.378	66.16654
907.768	33.08753
908.158	59.14371
908.547	18.04678
908.937	68.17403
909.327	79.19092
909.717	125.31332
910.106	39.09393
910.495	91.22563
910.885	68.17177
911.274	42.10518
911.663	62.15711
912.052	94.23021
912.441	49.12468
912.83	77.17593
913.219	70.18266
913.608	54.13225
913.997	53.13285
914.385	106.2507
914.774	62.15071
915.162	29.06942
915.55	82.19731
915.939	43.10871
916.327	115.28378
916.715	58.14766
917.103	87.21279
917.491	102.25008
917.878	64.15703
918.266	53.13742
918.654	55.14044
919.041	36.09423
919.429	39.09229
919.816	53.13433
920.203	66.15965
920.591	111.27229
920.978	93.22602
921.365	48.12602
921.752	49.1169
922.139	80.1727
922.525	64.15336
922.912	40.09778
923.299	52.12924
923.685	64.1666
924.072	87.19925
924.458	57.14107
924.844	60.14825
925.231	62.14402
925.617	24.06134
926.003	40.10244
926.389	54.13616
926.774	66.16683
927.16	55.13652
927.546	63.16047
927.931	64.15935
928.317	70.16067
928.702	107.25047
929.088	39.09247
929.473	86.21747
929.858	43.10412
930.243	72.17213
930.628	45.10961
931.013	36.08947
931.398	118.26781
931.783	89.23283
932.167	71.17294
932.552	74.18465
932.937	76.18778
933.321	42.10556
933.705	69.17339
934.09	122.30442
934.474	96.22608
934.858	82.21155
935.242	42.09752
935.626	9.02321
936.009	53.14091
936.393	94.23736
936.777	31.07966
937.16	59.1533
937.544	78.18283
937.927	48.12185
938.311	95.23002
938.694	122.31877
939.077	78.18576
939.46	95.2314
939.843	82.16995
940.226	31.0798
940.609	30.06916
940.991	17.04353
941.374	58.14157
941.757	88.21567
942.139	60.13451
942.522	76.17877
942.904	55.13212
943.286	100.25187
943.668	55.14236
944.05	66.16212
944.432	48.11851
944.814	115.27991
945.196	12.02945
945.578	53.12591
945.959	48.11256
946.341	121.29319
946.722	99.23019
947.104	72.17141
947.485	58.13478
947.866	57.14344
948.247	31.07849
948.628	72.17495
949.009	52.13313
949.39	70.17366
949.771	81.1873
950.152	100.24317
950.532	-25.06235
950.913	84.20136
951.293	75.20178
951.674	53.12813
952.054	54.13372
952.434	45.11182
952.814	73.17295
953.194	87.22628
953.574	118.28705
953.954	84.19821
954.334	57.1419
954.714	42.10252
955.093	97.23645
955.473	42.10518
955.853	84.21618
956.232	66.18044
956.611	100.23761
956.99	61.15301
957.37	74.18779
957.749	85.20146
958.128	41.10347
958.506	80.20646
958.885	76.19095
959.264	42.10309
959.643	77.1743
960.021	77.18987
960.4	62.1402
960.778	63.15483
961.156	53.1328
961.535	74.17169
961.913	60.14015
962.291	46.1181
962.669	55.1392
963.047	70.17802
963.424	78.19808
963.802	22.05438
964.18	114.28518
964.557	85.19444
964.935	112.26222
965.312	57.14825
965.69	99.24573
966.067	65.15786
966.444	94.22978
966.821	92.23545
967.198	72.17397
967.575	110.26749
967.952	83.19436
968.329	66.16013
968.705	141.29648
969.082	69.17637
969.458	17.04104
969.835	64.1554
970.211	71.18155
970.587	101.24914
970.963	68.17391
971.339	39.10203
971.715	92.22798
972.091	47.11581
972.467	67.16661
972.843	32.07968
973.219	119.28204
973.594	42.11001
973.97	80.18935
974.345	81.19272
974.721	89.21395
975.096	91.21851
975.471	99.23265
975.846	114.27056
976.221	13.03323
976.596	50.11986
976.971	74.1819
977.346	87.20109
977.72	106.26737
978.095	95.2436
978.469	67.15941
978.844	87.21728
979.218	14.03379
979.593	54.1293
979.967	70.1699
980.341	82.18761
980.715	58.14593
981.089	70.17461
981.463	13.03007
981.837	37.09063
982.21	92.21236
982.584	56.13511
982.957	70.17416
983.331	92.21573
983.704	86.20991
984.078	113.27525
984.451	91.22563
984.824	0
985.197	71.17178
985.57	49.12291
985.943	123.29972
986.316	97.23628
986.688	88.2107
987.061	89.20702
987.434	86.22272
987.806	79.19056
988.179	66.15525
988.551	69.17445
988.923	65.15963
989.295	76.18902
989.667	43.10286
990.039	82.20142
990.411	37.08539
990.783	59.13562
991.155	39.0939
991.527	96.23441
991.898	33.08248
992.27	18.04478
992.641	86.21436
993.012	133.30791
993.384	71.16867
993.755	127.31936
994.126	76.1819
994.497	56.1373
994.868	86.19613
995.239	64.1547
995.61	83.2076
995.98	44.107
996.351	24.05971
996.722	54.12514
997.092	56.13245
997.462	39.09129
997.833	70.1653
998.203	104.24958
998.573	51.12696
998.943	79.1842
999.313	51.12218
999.683	57.13661
1000.053	34.07848
1000.423	99.23835
1000.792	65.16801
1001.162	44.1084
1001.531	99.24187
1001.901	65.16158
1002.27	74.1646
1002.639	60.15302
1003.009	49.11654
1003.378	57.14555
1003.747	70.16472
1004.116	58.13856
1004.485	74.17603
1004.853	90.22636
1005.222	107.26704
1005.591	74.17488
1005.959	39.08806
1006.328	29.06554
1006.696	59.14205
1007.064	80.20013
1007.433	71.17675
1007.801	130.31435
1008.169	96.24041
1008.537	81.17819
1008.905	34.07945
1009.273	81.19892
1009.64	17.04081
1010.008	68.16151
1010.375	135.32255
1010.743	120.27323
1011.11	48.11361
1011.478	88.21623
1011.845	90.20997
1012.212	85.19099
1012.579	72.176
1012.946	64.15189
1013.313	125.29317
1013.68	98.21808
1014.047	23.05508
1014.414	37.08759
1014.78	82.20253
1015.147	110.26298
1015.513	83.19869
1015.88	120.303
1016.246	67.16485
1016.612	114.25757
1016.978	44.10792
1017.344	85.20867
1017.71	113.27226
1018.076	104.24263
1018.442	45.11583
1018.808	54.13484
1019.174	14.03534
1019.539	130.29444
1019.905	70.1644
1020.27	61.15019
1020.636	79.18832
1021.001	54.12915
1021.366	19.04588
1021.731	65.16667
1022.096	22.05575
1022.461	70.16498
1022.826	73.17269
1023.191	27.07109
1023.556	68.15877
1023.92	81.19797
1024.285	98.23697
1024.649	42.10305
1025.014	83.20429
1025.378	69.17283
1025.742	96.23633
1026.107	88.19745
1026.471	103.23789
1026.835	64.15819
1027.199	25.06044
1027.562	60.13915
1027.926	26.06384
1028.29	58.14651
1028.654	105.23883
1029.017	60.14716
1029.381	34.08144
1029.744	49.12494
1030.107	83.19505
1030.471	48.11493
1030.834	60.13617
1031.197	82.19626
1031.56	78.18298
1031.923	11.02862
1032.286	98.22791
1032.648	118.27843
1033.011	54.1238
1033.374	131.30291
1033.736	34.0896
1034.099	93.22475
1034.461	20.05077
1034.823	12.03007
1035.185	79.19773
1035.548	52.12645
1035.91	65.15519
1036.272	79.17868
1036.634	98.23751
1036.995	69.16152
1037.357	73.17675
1037.719	78.18861
1038.08	41.09748
1038.442	60.14207
1038.803	65.15554
1039.165	50.12612
1039.526	55.13272
1039.887	92.21826
1040.248	46.11337
1040.609	111.27108
1040.97	61.1487
1041.331	47.119
1041.692	57.1328
1042.053	62.14077
1042.413	83.19208
1042.774	97.23371
1043.134	101.23799
1043.495	61.15296
1043.855	81.19524
1044.215	50.12404
1044.576	28.0672
1044.936	92.20905
1045.296	117.28829
1045.656	79.19272
1046.016	44.10628
1046.375	85.20472
1046.735	29.06599
1047.095	60.14009
1047.454	42.08911
1047.814	56.13439
1048.173	75.17824
1048.533	63.14388
1048.892	58.13893
1049.251	82.20454
1049.61	61.14981
1049.969	73.17121
1050.328	86.18493
1050.687	45.10953
1051.046	38.09268
1051.405	86.21241
1051.763	31.07151
1052.122	37.09244
1052.48	46.11282
1052.839	81.18931
1053.197	53.1246
1053.555	126.28271
1053.914	81.19686
1054.272	60.1447
1054.63	33.08089
1054.988	37.08807
1055.345	56.12037
1055.703	78.18662
1056.061	41.10557
1056.419	61.15751
1056.776	86.20701
1057.134	60.13855
1057.491	44.11023
1057.848	79.19552
1058.206	51.11985
1058.563	70.15357
1058.92	106.24145
1059.277	92.22506
1059.634	78.1824
1059.991	103.24412
1060.348	68.15301
1060.704	8.01921
1061.061	140.31928
1061.418	39.09471
1061.774	75.18419
1062.131	47.12425
1062.487	48.11221
1062.843	71.17623
1063.199	50.12427
1063.555	79.18188
1063.911	50.12621
1064.267	93.19201
1064.623	49.11896
1064.979	132.30759
1065.335	107.25282
1065.691	87.20692
1066.046	38.08372
1066.402	71.16052
1066.757	69.17345
1067.112	73.17828
1067.468	13.0309
1067.823	62.14862
1068.178	74.17806
1068.533	119.28454
1068.888	95.2249
1069.243	62.15257
1069.598	63.1526
1069.952	0
1070.307	16.03982
1070.662	60.14207
1071.016	56.12524
1071.371	58.13163
1071.725	91.21585
1072.079	75.17941
1072.434	59.14302
1072.788	80.18928
1073.142	81.19797
1073.496	69.16297
1073.85	68.15702
1074.203	85.20472
1074.557	60.15918
1074.911	116.27318
1075.265	65.15054
1075.618	85.20604
1075.971	80.18906
1076.325	58.14708
1076.678	74.16829
1077.031	81.18201
1077.385	89.19431
1077.738	66.14839
1078.091	29.06618
1078.444	44.10221
1078.796	29.07138
1079.149	60.14885
1079.502	79.18543
1079.855	45.10497
1080.207	57.14014
1080.56	52.13425
1080.912	95.22915
1081.264	56.1346
1081.617	73.17702
1081.969	53.13352
1082.321	93.22509
1082.673	37.0846
1083.025	29.06903
1083.377	79.16838
1083.728	82.18995
1084.08	41.10244
1084.432	70.16805
1084.783	109.25224
1085.135	58.14504
1085.486	18.04142
1085.838	103.25098
1086.189	65.15721
1086.54	98.23169
1086.891	7.01782
1087.242	79.19114
1087.593	95.22915
1087.944	63.14208
1088.295	63.14272
1088.646	78.1879
1088.996	20.04842
1089.347	47.1153
1089.698	43.10168
1090.048	85.21925
1090.398	103.23618
1090.749	91.21585
1091.099	18.04548
1091.449	43.10716
1091.799	78.19414
1092.149	46.11215
1092.499	76.18433
1092.849	64.16212
1093.199	120.29671
1093.548	42.10099
1093.898	37.09271
1094.248	99.25199
1094.597	21.05383
1094.947	74.19645
1095.296	85.20836
1095.645	87.22464
1095.994	72.17206
1096.343	58.14562
1096.692	46.12081
1097.041	53.14329
1097.39	54.13523
1097.739	59.15298
1098.088	80.21308
1098.437	37.09732
1098.785	81.21707
1099.134	73.19292
1099.482	79.21608
1099.83	91.23725
1100.179	70.18178
1100.527	59.15639
1100.875	29.07687
1101.223	88.23197
1101.571	43.11885
1101.919	33.08639
1102.267	41.11548
1102.615	-2.00643
1102.962	19.06111
1103.31	0
1103.658	18.05793
