Data from N2 R10 sample 9_Subt2__2__13-10-15-775.txt Node

Date: Mon Sep 01 13:10:15 PDT 2025
User: uwsun
Spectrometer: HDX01956
Trigger mode: 0
Integration Time (sec): 5.000000E-1
Scans to average: 1
Nonlinearity correction enabled: true
Boxcar width: 0
Storing dark spectrum: false
XAxis mode: Wavelengths
Number of Pixels in Spectrum: 2068
>>>>>Begin Spectral Data<<<<<
194.03	-25.07044
194.578	-24.07612
195.127	-32.10012
195.676	-36.11303
196.225	29.07656
196.773	12.03284
197.321	13.03482
197.87	53.12987
198.418	-22.05396
198.966	-26.06419
199.513	-79.18782
200.061	-42.10079
200.609	7.0176
201.156	-44.09107
201.704	-70.16792
202.251	-46.1157
202.798	-26.06393
203.345	30.06983
203.892	-12.02854
204.438	8.01805
204.985	-57.12766
205.532	-41.10225
206.078	-28.06514
206.624	-56.13055
207.17	-32.07059
207.716	-53.12207
208.262	-42.07914
208.808	-68.1584
209.354	-51.11765
209.899	17.04062
210.445	-39.09147
210.99	-65.14875
211.535	22.04863
212.08	-10.022
212.625	-24.05698
213.17	0
213.715	-58.12187
214.259	-19.04199
214.804	-21.04931
215.348	5.0108
215.892	12.02711
216.436	55.11947
216.98	47.09765
217.524	2.00446
218.068	2.00476
218.612	8.01905
219.155	-14.03122
219.698	11.02474
220.242	6.0142
220.785	12.02653
221.328	-28.06653
221.871	43.10294
222.414	4.00947
222.956	-69.15898
223.499	-21.04503
224.041	20.04425
224.583	33.06767
225.126	-16.03361
225.668	-19.04388
226.21	-23.05498
226.751	-70.14677
227.293	18.03897
227.835	-39.09076
228.376	49.10671
228.918	28.06686
229.459	-52.12341
230	22.04936
230.541	-32.0705
231.082	7.01603
231.622	-38.08382
232.163	-42.09691
232.704	-1.00234
233.244	-28.06599
233.784	22.05104
234.324	-50.10418
234.864	-2.00429
235.404	-11.02488
235.944	-1.00225
236.484	28.06589
237.023	-31.06954
237.563	-36.07901
238.102	-41.09232
238.641	4.00955
239.18	-11.02421
239.719	20.04723
240.258	24.05076
240.797	6.01349
241.335	1.00231
241.874	-20.03641
242.412	6.01355
242.95	-43.09714
243.488	38.08112
244.026	-56.1227
244.564	37.07117
245.102	-6.01267
245.64	26.05891
246.177	-26.05521
246.715	30.06756
247.252	2.00433
247.789	78.1368
248.326	-50.11329
248.863	-78.16311
249.4	10.02134
249.936	25.048
250.473	-55.1215
251.009	-44.09515
251.546	-19.0394
252.082	48.09761
252.618	-20.04184
253.154	-45.10194
253.69	-61.13041
254.226	-40.09005
254.761	15.03143
255.297	-60.12435
255.832	-25.05555
256.367	-13.02872
256.903	-36.07441
257.438	-17.03756
257.972	-15.03133
258.507	-49.10535
259.042	-24.04894
259.576	-81.16453
260.111	8.01728
260.645	53.10599
261.179	-43.09416
261.713	39.08002
262.247	1.00215
262.781	-61.1204
263.315	-37.08477
263.849	-40.09369
264.382	-15.03229
264.915	-23.05015
265.449	-85.19389
265.982	19.04013
266.515	-27.06144
267.048	-61.12136
267.58	39.07889
268.113	-46.0929
268.646	9.02053
269.178	-55.11483
269.71	3.00608
270.243	-17.0362
270.775	-50.11894
271.307	12.02683
271.838	40.0879
272.37	-41.09413
272.902	-12.02538
273.433	-43.08774
273.965	-9.0203
274.496	24.05513
275.027	-48.11102
275.558	-11.02467
276.089	-80.18289
276.62	-5.01181
277.15	4.00914
277.681	-11.02217
278.211	7.01586
278.741	-58.11859
279.272	-59.12521
279.802	-18.04161
280.332	-85.18715
280.861	-12.02664
281.391	-38.0796
281.921	-12.02673
282.45	-43.09991
282.98	-24.05784
283.509	5.01029
284.038	-28.05878
284.567	-19.04102
285.096	-27.06015
285.625	-39.08153
286.153	-77.16725
286.682	-44.09258
287.21	-51.11304
287.739	-62.13528
288.267	-55.12242
288.795	-30.07271
289.323	-64.13721
289.851	-35.07518
290.378	-29.0595
290.906	-52.11485
291.433	-37.08443
291.961	-26.05345
292.488	-32.07274
293.015	-52.11148
293.542	-47.10829
294.069	-69.15504
294.596	-3.00674
295.122	-54.11752
295.649	-9.01795
296.175	-33.07287
296.702	16.03495
297.228	34.07418
297.754	-11.02221
298.28	-94.19491
298.806	-77.16839
299.332	-81.16235
299.857	-67.1369
300.383	-41.09424
300.908	-68.1483
301.433	-53.11576
301.958	-20.0416
302.483	-61.13678
303.008	-62.13883
303.533	-45.10591
304.058	-3.00632
304.582	-85.18038
305.107	-100.23532
305.631	-17.03463
306.155	-65.13499
306.679	-60.12463
307.203	-64.13229
307.727	-105.22438
308.251	-51.11229
308.775	-75.15735
309.298	-45.09462
309.822	-56.12555
310.345	-41.0856
310.868	-61.12866
311.391	-76.16645
311.914	-92.20413
312.437	-38.07625
312.96	-59.12165
313.482	-55.11386
314.005	-88.19469
314.527	-88.20312
315.049	-22.04847
315.571	-87.16712
316.093	-19.0405
316.615	-82.17155
317.137	-36.06693
317.659	-14.02925
318.18	-34.07066
318.702	-67.13367
319.223	-68.11882
319.744	-87.16663
320.265	-108.22393
320.786	-80.16758
321.307	-49.10294
321.828	-67.1277
322.348	-83.16467
322.869	-120.23846
323.389	-262.37162
323.909	-104.20088
324.43	-30.06048
324.95	-89.16865
325.47	-115.23498
325.989	-91.17623
326.509	-167.30316
327.029	-168.31189
327.548	-132.24102
328.067	-121.23669
328.587	-75.15165
329.106	-112.20481
329.625	-15.032
330.144	-173.32317
330.662	-185.34542
331.181	-128.23858
331.7	-104.19201
332.218	-110.18513
332.736	-106.19404
333.255	-166.30387
333.773	-140.25861
334.291	-100.19547
334.808	-148.25248
335.326	-104.17761
335.844	-147.2568
336.361	-175.33794
336.879	-214.3783
337.396	-163.29439
337.913	-175.29863
338.43	-169.27907
338.947	-216.38383
339.464	-206.31882
339.981	-223.38794
340.497	-189.34397
341.014	-191.3379
341.53	-268.43706
342.046	-187.32824
342.562	-182.32744
343.078	-200.33275
343.594	-166.27755
344.11	-182.30213
344.626	-232.41441
345.141	-174.26865
345.657	-147.22582
346.172	-229.38153
346.687	-273.42937
347.202	-213.31699
347.717	-249.40367
348.232	-250.42766
348.747	-226.34177
349.261	-277.38533
349.776	-196.29799
350.29	-299.48584
350.805	-221.3611
351.319	-259.39039
351.833	-341.49555
352.347	-266.39818
352.861	-271.39721
353.374	-213.30641
353.888	-292.45169
354.401	-283.40358
354.915	-323.43723
355.428	-228.34645
355.941	-318.44995
356.454	-221.29536
356.967	-234.33126
357.48	-261.35722
357.993	-307.46333
358.505	-308.45188
359.018	-229.32758
359.53	-293.41048
360.042	-268.33532
360.554	-294.41677
361.066	-309.43513
361.578	-287.34238
362.09	-326.44551
362.602	-332.39858
363.113	-353.45623
363.625	-371.45567
364.136	-305.35406
364.647	-454.56473
365.158	-307.37539
365.669	-322.41144
366.18	-340.42338
366.691	-336.37425
367.201	-358.44707
367.712	-377.42957
368.222	-381.43315
368.733	-409.41712
369.243	-383.39056
369.753	-336.36329
370.263	-430.49918
370.773	-395.46896
371.282	-446.48855
371.792	-508.48953
372.301	-454.47293
372.811	-467.55377
373.32	-583.46298
373.829	-557.50755
374.338	-495.37378
374.847	-578.45365
375.356	-585.45988
375.865	-597.31734
376.373	-603.35121
376.882	-600.46048
377.39	-698.46399
377.898	-843.51243
378.407	-739.27671
378.915	-766.22365
379.423	-740.23421
379.93	-755.15445
380.438	-944.20538
380.946	-912.0787
381.453	-976.03059
381.96	-1073.92786
382.468	-1315.77892
382.975	-1095.75678
383.482	-1137.62945
383.989	-1214.69477
384.495	-1271.50387
385.002	-1501.27621
385.509	-1527.26772
386.015	-1569.15689
386.521	-1642.12375
387.028	-1741.08414
387.534	-1851.07223
388.04	-1745.10983
388.546	-2117.09878
389.051	-2306.29197
389.557	-2380.56775
390.063	-2075.84131
390.568	-2425.11444
391.073	-2649.88278
391.578	-2667.1747
392.084	-2884.40649
392.589	-3378.39585
393.093	-3838.10436
393.598	-3864.4732
394.103	-4180.78835
394.607	-4553.74346
395.112	-4698.79502
395.616	-5129.63341
396.12	-5905.77044
396.624	-6518.79703
397.128	-6734.3188
397.632	-7102.35474
398.136	-7936.44832
398.639	-9921.30312
399.143	-11888.93222
399.646	-12803.64236
400.15	-14527.17929
400.653	-16809.21453
401.156	-20089.5289
401.659	-23829.40159
402.162	-19716.41371
402.664	-5407.03049
403.167	-1068.43058
403.67	0
404.172	0
404.674	0
405.176	0
405.678	0
406.18	0
406.682	0
407.184	0
407.686	0
408.187	0
408.688	0
409.19	0
409.691	0
410.192	-510.98703
410.693	-8156.0307
411.194	-12528.02102
411.694	-11362.64013
412.195	-10079.97039
412.696	-10556.25048
413.196	-12190.75431
413.696	-13277.80216
414.196	-11781.58104
414.696	-9087.30309
415.196	-6613.07002
415.696	-2061.19772
416.196	-1217.88688
416.695	-3553.30102
417.195	-4837.97201
417.694	-4580.62416
418.194	-4126.68085
418.693	-4424.41622
419.192	-4387.9122
419.691	-4222.23866
420.19	-3878.17477
420.688	-3378.7603
421.187	-3076.34491
421.685	-2477.70602
422.184	-2043.5147
422.682	-2036.5307
423.18	-2134.84441
423.678	-2095.07141
424.176	-1926.1044
424.674	-1757.47406
425.172	-1472.88145
425.669	-1328.54473
426.167	-1097.50622
426.664	-1026.46731
427.161	-1079.40269
427.659	-1044.45314
428.156	-1121.40953
428.652	-1057.59584
429.149	-1025.62524
429.646	-863.6697
430.143	-900.80856
430.639	-765.8605
431.135	-872.99702
431.632	-837.99222
432.128	-797.10579
432.624	-834.23379
433.12	-957.15263
433.616	-790.10598
434.111	-951.28841
434.607	-851.32473
435.103	-688.19418
435.598	-597.16964
436.093	-587.31719
436.588	-544.30043
437.083	-528.33064
437.578	-550.39834
438.073	-714.65122
438.568	-548.52228
439.062	-524.38478
439.557	-502.48289
440.051	-543.49788
440.546	-597.57541
441.04	-577.62383
441.534	-533.64615
442.028	-445.49605
442.522	-564.65903
443.015	-499.50198
443.509	-482.59285
444.002	-511.63733
444.496	-477.50242
444.989	-509.65456
445.482	-554.74421
445.975	-543.62478
446.468	-534.58108
446.961	-504.54706
447.454	-499.59919
447.947	-561.72702
448.439	-487.66339
448.931	-515.62473
449.424	-501.73779
449.916	-503.7041
450.408	-560.71361
450.9	-537.75802
451.392	-500.74693
451.884	-491.6601
452.375	-543.80952
452.867	-416.5512
453.358	-549.74114
453.849	-521.6512
454.341	-465.62138
454.832	-476.60386
455.323	-521.79272
455.814	-441.61998
456.304	-435.61661
456.795	-433.61144
457.285	-416.58163
457.776	-444.65517
458.266	-479.73223
458.756	-454.71525
459.247	-488.75686
459.737	-517.81435
460.226	-474.69392
460.716	-480.76806
461.206	-445.71954
461.695	-472.8219
462.185	-401.63773
462.674	-376.58374
463.163	-433.65597
463.653	-409.57899
464.142	-451.76189
464.63	-355.60585
465.119	-374.59631
465.608	-415.67214
466.096	-381.58475
466.585	-404.67559
467.073	-372.64703
467.561	-387.68186
468.05	-347.58582
468.538	-330.59527
469.026	-354.6255
469.513	-382.58854
470.001	-398.67213
470.489	-387.68579
470.976	-321.55165
471.463	-377.7228
471.951	-332.63944
472.438	-349.6252
472.925	-396.71472
473.412	-351.67913
473.899	-283.50016
474.385	-307.59086
474.872	-307.55562
475.359	-323.62225
475.845	-288.46125
476.331	-280.48105
476.817	-288.56243
477.303	-255.46881
477.789	-323.63183
478.275	-308.61948
478.761	-271.52986
479.247	-265.48205
479.732	-310.63213
480.218	-311.67263
480.703	-283.5814
481.188	-259.4532
481.673	-285.54033
482.158	-370.65515
482.643	-263.5642
483.128	-320.61217
483.612	-270.52953
484.097	-274.57092
484.581	-262.517
485.066	-252.5169
485.55	-318.59509
486.034	-315.5835
486.518	-332.67083
487.002	-285.59608
487.486	-272.57003
487.969	-311.65852
488.453	-246.53763
488.936	-297.58235
489.42	-295.57186
489.903	-288.63979
490.386	-684.10544
490.869	-228.433
491.352	-218.46898
491.835	-217.39132
492.318	-263.52129
492.8	-260.47428
493.283	-315.71442
493.765	-271.59113
494.247	-206.42637
494.73	-244.47809
495.212	-239.51758
495.694	-279.5812
496.175	-315.66816
496.657	-228.48268
497.139	-206.32144
497.62	-300.63787
498.102	-301.67463
498.583	-238.53619
499.064	-245.48743
499.545	-258.53112
500.026	-282.57242
500.507	-228.47571
500.988	-245.55049
501.469	-305.69567
501.949	-237.53142
502.43	-333.72451
502.91	-252.47111
503.39	-245.55951
503.87	-250.53157
504.35	-252.54491
504.83	-263.52495
505.31	-275.60875
505.79	-313.6891
506.269	-221.47021
506.749	-267.55695
507.228	-263.56347
507.707	-218.43826
508.187	-197.42845
508.666	-284.64033
509.145	-280.60131
509.623	-266.5742
510.102	-215.47515
510.581	-208.46016
511.059	-250.57312
511.538	-219.51963
512.016	-237.5207
512.494	-188.41644
512.972	-257.56654
513.45	-302.64604
513.928	-240.53427
514.406	-278.61449
514.884	-236.55748
515.361	-230.50649
515.839	-197.40966
516.316	-233.51622
516.793	-224.5238
517.27	-243.54778
517.747	-233.55072
518.224	-153.3227
518.701	-181.36934
519.178	-257.58857
519.654	-167.36491
520.131	-240.55019
520.607	-189.43233
521.083	-240.50941
521.56	-252.5547
522.036	-205.41717
522.512	-139.31399
522.987	-261.57584
523.463	-236.52166
523.939	-185.41909
524.414	-170.36241
524.89	-229.5063
525.365	-233.49208
525.84	-268.59313
526.315	-255.57413
526.79	-191.39895
527.265	-203.42985
527.74	-222.50321
528.215	-179.3898
528.689	-183.37461
529.164	-232.47351
529.638	-174.4139
530.112	-224.49141
530.587	-225.44743
531.061	-215.4815
531.534	-193.43579
532.008	-236.53037
532.482	-204.43792
532.956	-221.52357
533.429	-180.40486
533.903	-164.33716
534.376	-200.41302
534.849	-179.38599
535.322	-212.46842
535.795	-188.42805
536.268	-213.47859
536.741	-181.40519
537.213	-152.32573
537.686	-245.56041
538.158	-198.41256
538.631	-141.31773
539.103	-192.40042
539.575	-139.26893
540.047	-161.32912
540.519	-111.24439
540.991	-129.29212
541.463	-155.34828
541.934	-150.31811
542.406	-189.41961
542.877	-173.36376
543.348	-162.36423
543.82	-180.41265
544.291	-117.25241
544.762	-155.33969
545.233	-166.38514
545.703	-151.3084
546.174	-132.28287
546.645	-210.46536
547.115	-128.28271
547.585	-141.29883
548.056	-141.30979
548.526	-144.30899
548.996	-104.22768
549.466	-59.13028
549.935	-114.24356
550.405	-88.17324
550.875	-77.16348
551.344	-61.13115
551.814	-53.10884
552.283	-46.08949
552.752	-74.15323
553.221	-45.08615
553.69	-7.01364
554.159	-6.01288
554.628	-11.02145
555.096	91.19817
555.565	53.1023
556.033	140.28314
556.502	85.17952
556.97	158.30035
557.438	164.33533
557.906	202.41266
558.374	202.3986
558.842	246.50186
559.31	316.59398
559.777	289.59051
560.245	375.73669
560.712	377.72874
561.18	433.78011
561.647	471.85425
562.114	523.95488
562.581	604.18686
563.048	708.25973
563.514	701.33412
563.981	822.40878
564.448	838.39414
564.914	992.66301
565.381	1065.70402
565.847	1148.8609
566.313	1271.97469
566.779	1398.00326
567.245	1454.1543
567.711	1508.26883
568.176	1660.16672
568.642	1721.58953
569.108	1865.61525
569.573	2062.56672
570.038	2144.14808
570.504	2257.38747
570.969	2445.95038
571.434	2547.31379
571.899	2645.70554
572.363	2925.47058
572.828	3117.4747
573.293	3212.4424
573.757	3455.36672
574.222	3574.13559
574.686	3658.11559
575.15	3868.367
575.614	3904.14557
576.078	4035.20766
576.542	4185.96907
577.006	4404.77887
577.469	4523.33392
577.933	4462.68591
578.396	4462.08436
578.86	4624.93485
579.323	4528.03624
579.786	4635.42058
580.249	4513.77243
580.712	4471.26735
581.175	4493.29992
581.637	4602.84454
582.1	4444.65976
582.563	4554.48674
583.025	4347.26916
583.487	4290.28855
583.95	4258.60367
584.412	4206.55751
584.874	4139.40204
585.336	4071.28789
585.797	3960.83017
586.259	3863.39576
586.721	3813.356
587.182	3833.38079
587.643	3745.22717
588.105	3490.56183
588.566	3509.94511
589.027	3508.62928
589.488	3437.37834
589.949	3372.74452
590.41	3348.62555
590.87	3406.41667
591.331	3375.13705
591.791	3295.47549
592.252	3269.42067
592.712	3312.71647
593.172	3307.35073
593.632	3291.24616
594.092	3346.29642
594.552	3344.11796
595.011	3396.40543
595.471	3369.30516
595.931	3457.24782
596.39	3569.59155
596.849	3586.43382
597.308	3753.99557
597.768	3838.86801
598.227	3896.51355
598.685	4076.15988
599.144	4280.12553
599.603	4392.15082
600.062	4659.29387
600.52	4888.48781
600.978	5062.77635
601.437	5199.50224
601.895	5506.93511
602.353	5783.07554
602.811	6103.9765
603.269	6292.32721
603.727	6753.29063
604.184	6937.03609
604.642	7414.559
605.099	7651.50698
605.557	8176.13834
606.014	8577.53041
606.471	8946.2995
606.928	9417.44619
607.385	9663.9416
607.842	10326.20657
608.299	10811.05355
608.755	11032.87361
609.212	11520.8069
609.668	11974.4713
610.125	12539.12009
610.581	12784.84187
611.037	13336.3307
611.493	13711.89303
611.949	13908.36277
612.405	14388.34932
612.861	14766.24308
613.316	14842.859
613.772	15255.5864
614.227	15338.97866
614.683	15608.44814
615.138	15674.62457
615.593	15787.94511
616.048	15979.22124
616.503	16024.25685
616.958	15949.13306
617.412	15910.83566
617.867	15954.71504
618.321	15804.10959
618.776	15754.31487
619.23	15459.08792
619.684	15328.34188
620.138	15237.86785
620.592	14870.52047
621.046	14778.14344
621.5	14613.06062
621.954	14166.10955
622.407	14007.88952
622.861	13697.1114
623.314	13622.31981
623.768	13092.98027
624.221	12966.91987
624.674	12678.15535
625.127	12465.58455
625.58	12335.94378
626.033	12066.55446
626.485	11697.89771
626.938	11590.34385
627.39	11490.98258
627.843	11223.69678
628.295	10957.48699
628.747	10580.83606
629.199	10554.89398
629.651	10356.1516
630.103	10193.55424
630.555	9795.44765
631.006	9714.04307
631.458	9469.41262
631.909	9313.04949
632.361	9096.58856
632.812	8934.26658
633.263	8763.90338
633.714	8647.69405
634.165	8416.57949
634.616	8245.32811
635.067	8141.04099
635.518	7962.08075
635.968	7731.39546
636.419	7637.52485
636.869	7461.77268
637.319	7280.56848
637.769	7078.36233
638.219	6977.69559
638.669	6791.66433
639.119	6782.81728
639.569	6624.75734
640.019	6609.52894
640.468	6517.34918
640.918	6416.81511
641.367	6179.44079
641.816	6191.42528
642.265	6205.61907
642.714	6003.68868
643.163	5893.69502
643.612	5749.01633
644.061	5759.25478
644.51	5776.68324
644.958	5499.59239
645.406	5613.08673
645.855	5530.32127
646.303	5560.98114
646.751	5328.89929
647.199	5370.88863
647.647	5252.02474
648.095	5203.02857
648.543	5315.32745
648.99	5166.33805
649.438	5246.2061
649.885	5037.6951
650.333	5062.16882
650.78	4912.5764
651.227	4898.64118
651.674	4895.18609
652.121	4821.69681
652.568	4839.66863
653.015	4766.04778
653.461	4643.63041
653.908	4659.48988
654.354	4704.64646
654.801	4502.61487
655.247	4383.26878
655.693	4406.4966
656.139	4373.85902
656.585	4272.91952
657.031	4186.74382
657.477	4217.25181
657.922	4123.70721
658.368	4078.23638
658.813	4121.80992
659.259	3999.06019
659.704	4004.85654
660.149	3959.88243
660.594	3845.06229
661.039	3810.80582
661.484	3873.11566
661.929	3769.00598
662.373	3676.55499
662.818	3644.45199
663.262	3587.25638
663.707	3598.6257
664.151	3498.39653
664.595	3559.28606
665.039	3514.52892
665.483	3361.7125
665.927	3404.18935
666.371	3302.07727
666.814	3390.28709
667.258	3301.22119
667.701	3345.70465
668.145	3253.59139
668.588	3250.49269
669.031	3117.21942
669.474	3072.38657
669.917	3169.89316
670.36	3188.573
670.803	3108.41235
671.245	3102.64089
671.688	3114.48251
672.13	3006.97451
672.573	2999.74862
673.015	2921.38392
673.457	2981.83281
673.899	2926.44432
674.341	2940.41844
674.783	2803.36299
675.225	2811.51855
675.666	2750.36544
676.108	2853.84095
676.549	2819.31331
676.991	2758.91903
677.432	2744.43226
677.873	2785.17872
678.314	2726.34579
678.755	2690.44392
679.196	2621.10147
679.637	2633.46676
680.078	2670.23751
680.518	2674.22029
680.959	2518.32088
681.399	2593.53352
681.839	2620.43887
682.28	2566.49422
682.72	2527.08592
683.16	2519.53286
683.6	2438.05973
684.039	2476.64472
684.479	2482.43969
684.919	2356.06506
685.358	2429.6134
685.798	2486.82292
686.237	2410.34705
686.676	2377.13104
687.115	2369.18111
687.554	2379.23594
687.993	2366.89569
688.432	2349.03854
688.871	2300.98404
689.309	2265.21546
689.748	2344.64699
690.186	2318.24953
690.625	2261.12326
691.063	2303.25487
691.501	2293.40828
691.939	2212.40283
692.377	2152.2595
692.815	2252.21514
693.253	2252.25243
693.69	2208.81525
694.128	2197.24895
694.565	2169.16672
695.003	2221.50413
695.44	2197.10879
695.877	2209.08202
696.314	2181.72091
696.751	2219.99297
697.188	2153.98361
697.625	2185.00968
698.061	2179.19692
698.498	2180.24718
698.934	2136.19531
699.371	2051.03412
699.807	2149.11805
700.243	2060.14124
700.679	2105.90443
701.115	2145.10273
701.551	2053.04617
701.987	2138.89268
702.422	2076.09102
702.858	2085.11294
703.294	2065.88569
703.729	2087.24126
704.164	1949.06869
704.599	2051.8049
705.035	2039.81295
705.47	1996.14466
705.904	1992.95549
706.339	2056.99977
706.774	2001.98585
707.209	2016.92609
707.643	1948.0593
708.078	1955.12351
708.512	1993.26855
708.946	2035.11415
709.38	2049.06901
709.814	1977.87274
710.248	1982.15048
710.682	1959.02202
711.116	1899.98456
711.549	1942.38321
711.983	1929.88172
712.416	1964.00635
712.85	1908.19331
713.283	1964.00635
713.716	1917.24032
714.149	1862.96803
714.582	1887.74129
715.015	1819.13861
715.448	1852.19519
715.881	1841.61979
716.313	1801.84473
716.746	1794.85519
717.178	1826.96715
717.61	1782.15545
718.043	1815.11204
718.475	1703.89334
718.907	1793.16292
719.339	1723.65242
719.77	1642.74524
720.202	1681.03865
720.634	1692.89207
721.065	1669.77495
721.497	1631.86457
721.928	1615.85095
722.359	1510.66944
722.79	1589.72994
723.221	1500.81962
723.652	1580.011
724.083	1514.45455
724.514	1498.50144
724.945	1388.45403
725.375	1407.43084
725.806	1419.69219
726.236	1406.76446
726.666	1375.46288
727.096	1361.55947
727.526	1294.57825
727.956	1332.28789
728.386	1322.52038
728.816	1227.46986
729.246	1256.38849
729.675	1195.34179
730.105	1250.42286
730.534	1185.19178
730.964	1231.47793
731.393	1238.437
731.822	1148.38172
732.251	1157.37653
732.68	1160.17995
733.109	1100.2083
733.537	1103.15912
733.966	1109.24219
734.395	1047.9718
734.823	1055.93167
735.251	975.96164
735.68	1044.16668
736.108	1002.12174
736.536	975.91584
736.964	955.84835
737.392	957.01974
737.82	897.83019
738.247	959.925
738.675	949.90578
739.102	885.89289
739.53	797.77418
739.957	805.81045
740.384	849.80804
740.811	829.82641
741.238	781.66458
741.665	799.60057
742.092	769.60567
742.519	725.58652
742.945	733.55003
743.372	719.57734
743.798	717.64072
744.225	707.48718
744.651	670.50701
745.077	648.45392
745.503	685.49009
745.929	660.4165
746.355	659.47347
746.781	628.40554
747.207	559.19458
747.632	545.21682
748.058	614.38827
748.483	597.2423
748.908	585.32397
749.334	498.13299
749.759	505.09856
750.184	514.12741
750.609	549.23736
751.033	563.21508
751.458	553.13068
751.883	511.17081
752.307	455.99998
752.732	401.94659
753.156	425.98804
753.58	459.0165
754.005	448.06533
754.429	417.92226
754.853	393.92195
755.277	428.95151
755.7	431.0034
756.124	383.90166
756.548	360.81232
756.971	433.99352
757.394	399.97388
757.818	388.94757
758.241	335.81437
758.664	349.84204
759.087	316.67628
759.51	382.90262
759.933	314.72587
760.356	366.89419
760.778	297.7044
761.201	356.8262
761.623	309.72211
762.046	343.77854
762.468	358.82032
762.89	327.77464
763.312	291.68645
763.734	251.58797
764.156	265.63506
764.578	296.65701
765	264.62531
765.421	199.4959
765.843	252.64283
766.264	296.69024
766.686	242.59262
767.107	206.48983
767.528	199.49284
767.949	271.66793
768.37	213.51221
768.791	230.54373
769.212	227.55641
769.632	152.35098
770.053	199.51435
770.473	212.50526
770.894	232.56729
771.314	258.59904
771.734	154.35574
772.154	210.52834
772.575	228.51639
772.994	161.36191
773.414	219.51482
773.834	136.33763
774.254	171.41309
774.673	203.4852
775.093	121.29803
775.512	128.31347
775.931	194.48301
776.351	166.40683
776.77	139.33706
777.189	142.33519
777.607	86.21979
778.026	95.23658
778.445	107.26685
778.864	133.33864
779.282	155.36892
779.701	139.3474
780.119	128.32113
780.537	101.25152
780.955	123.31119
781.373	124.30491
781.791	82.18497
782.209	142.32476
782.627	110.2884
783.045	135.30831
783.462	113.28731
783.88	86.22233
784.297	119.29763
784.715	43.11115
785.132	117.2819
785.549	88.22006
785.966	120.29997
786.383	100.24545
786.8	120.27742
787.217	81.19242
787.633	75.18745
788.05	194.45223
788.466	179.41538
788.883	96.24413
789.299	123.29433
789.715	100.24254
790.131	67.16715
790.547	128.31719
790.963	105.25967
791.379	112.28159
791.795	76.1741
792.21	153.35336
792.626	84.19951
793.041	101.2485
793.457	105.25853
793.872	76.17912
794.287	51.12246
794.702	126.30812
795.117	100.24753
795.532	74.18559
795.947	119.28476
796.362	127.30112
796.776	138.32043
797.191	86.21038
797.605	46.10875
798.02	77.18756
798.434	120.2657
798.848	82.20186
799.262	65.16163
799.676	127.30738
800.09	80.19687
800.504	109.26322
800.918	80.18554
801.331	92.24055
801.745	96.22009
802.158	54.13557
802.572	118.28436
802.985	126.30215
803.398	109.25864
803.811	100.2561
804.224	89.22115
804.637	62.14822
805.05	114.26272
805.462	115.28075
805.875	41.10682
806.288	49.11882
806.7	114.28456
807.112	86.1993
807.525	87.21437
807.937	44.10939
808.349	99.24699
808.761	61.15053
809.173	56.13628
809.584	57.14143
809.996	50.123
810.408	42.10892
810.819	57.13463
811.231	36.09355
811.642	-17.04124
812.053	48.11475
812.464	112.26448
812.875	113.2867
813.286	82.21067
813.697	161.37065
814.108	108.26233
814.519	77.17181
814.929	87.22136
815.34	71.17236
815.75	45.11486
816.16	94.23345
816.571	47.12258
816.981	99.23283
817.391	72.17397
817.801	51.12714
818.211	78.1859
818.62	77.18524
819.03	95.23192
819.44	88.22915
819.849	76.19136
820.259	77.19689
820.668	50.12345
821.077	44.10979
821.486	104.24911
821.895	74.18284
822.304	69.18278
822.713	55.13051
823.122	51.12774
823.531	59.14027
823.939	42.1029
824.348	90.21812
824.756	108.26871
825.164	94.23557
825.573	75.18799
825.981	123.30218
826.389	77.19321
826.797	28.07065
827.205	69.15847
827.612	109.26709
828.02	30.07101
828.428	83.21081
828.835	48.1267
829.243	98.23241
829.65	68.16906
830.057	97.23424
830.464	52.12711
830.871	59.14162
831.278	68.16443
831.685	57.12766
832.092	113.27442
832.499	75.16402
832.905	71.17963
833.312	81.18447
833.718	106.26229
834.124	111.25166
834.531	66.16642
834.937	71.18206
835.343	104.2493
835.749	96.22318
836.155	52.13643
836.561	80.19629
836.966	67.16387
837.372	66.16796
837.777	67.16685
838.183	87.19284
838.588	68.16876
838.993	107.25859
839.399	39.09581
839.804	38.09306
840.209	47.11997
840.613	62.13814
841.018	55.1395
841.423	53.13619
841.828	27.06872
842.232	123.30151
842.637	70.16504
843.041	54.13859
843.445	78.19512
843.849	67.16576
844.253	72.17095
844.657	60.15113
845.061	46.10482
845.465	83.19975
845.869	98.22629
846.272	31.07593
846.676	86.20717
847.079	79.20023
847.483	85.21121
847.886	136.3265
848.289	56.14951
848.692	39.09916
849.095	69.16556
849.498	92.23197
849.901	76.17396
850.304	94.22335
850.707	72.18323
851.109	110.27597
851.512	91.22241
851.914	40.10115
852.316	79.19916
852.718	12.03123
853.121	49.12034
853.523	70.16338
853.925	17.04465
854.326	45.1128
854.728	63.16188
855.13	41.10605
855.531	63.15047
855.933	96.22898
856.334	54.13475
856.736	55.12338
857.137	45.10497
857.538	33.08334
857.939	4.00998
858.34	90.21812
858.741	45.11788
859.142	50.12036
859.542	46.12159
859.943	47.11704
860.343	11.02747
860.744	115.27771
861.144	76.18481
861.544	20.04842
861.945	44.11241
862.345	106.25699
862.745	43.10716
863.145	111.26278
863.544	67.16903
863.944	93.21829
864.344	78.19308
864.743	89.21962
865.143	66.16927
865.542	77.17798
865.941	54.13377
866.34	103.24469
866.74	83.22177
867.139	31.07461
867.537	43.10984
867.936	86.20591
868.335	52.13243
868.734	62.15828
869.132	54.12559
869.531	109.26113
869.929	62.14123
870.327	73.17449
870.726	148.36299
871.124	101.2341
871.522	70.17789
871.92	85.20859
872.318	69.16832
872.715	126.308
873.113	54.13166
873.511	60.14939
873.908	-2.0051
874.306	39.0973
874.703	83.20669
875.1	71.18117
875.497	54.12954
875.894	47.11534
876.291	71.17378
876.688	54.13931
877.085	85.20286
877.482	86.21413
877.878	88.21054
878.275	53.13471
878.671	99.21861
879.068	64.15429
879.464	93.22323
879.86	67.15812
880.256	104.25441
880.652	47.11972
881.048	64.15836
881.444	66.15682
881.84	37.09434
882.236	105.26167
882.631	107.26015
883.027	83.19998
883.422	61.15581
883.817	46.11578
884.213	53.13605
884.608	58.14215
885.003	55.13262
885.398	39.0979
885.793	55.13806
886.188	55.13672
886.582	128.32413
886.977	125.29271
887.371	99.24842
887.766	46.11458
888.16	95.23537
888.554	115.28127
888.949	140.34616
889.343	108.26125
889.737	39.10417
890.131	46.11557
890.525	51.1305
890.918	62.15583
891.312	74.17644
891.706	81.21154
892.099	97.24497
892.492	51.11017
892.886	104.25214
893.279	51.13
893.672	54.13747
894.065	53.13275
894.458	51.12834
894.851	78.19031
895.244	50.12778
895.637	100.23879
896.029	75.18269
896.422	82.19933
896.814	52.12933
897.206	37.08841
897.599	64.15802
897.991	86.2067
898.383	71.16724
898.775	78.17523
899.167	78.18104
899.559	52.13168
899.951	94.21991
900.342	94.23736
900.734	-11.02761
901.125	117.30367
901.517	83.20263
901.908	79.18854
902.299	45.11019
902.69	90.21088
903.082	86.20701
903.473	61.14586
903.863	81.20566
904.254	48.11154
904.645	86.21265
905.036	61.14748
905.426	119.26892
905.817	68.16641
906.207	39.09318
906.597	81.18842
906.987	81.20893
907.378	54.13655
907.768	73.19234
908.158	104.25119
908.547	23.05972
908.937	63.16138
909.327	108.25957
909.717	113.28385
910.106	55.13207
910.495	102.25239
910.885	129.32229
911.274	49.12256
911.663	77.1946
912.052	105.25662
912.441	95.23975
912.83	56.12849
913.219	108.27998
913.608	84.20457
913.997	35.08802
914.385	90.21352
914.774	75.18187
915.162	62.14749
915.55	97.23274
915.939	15.03811
916.327	92.22798
916.715	76.19286
917.103	97.2368
917.491	95.23322
917.878	103.25089
918.266	58.15026
918.654	65.16568
919.041	31.08121
919.429	54.12742
919.816	114.2858
920.203	51.12372
920.591	70.17302
920.978	91.22125
921.365	73.19084
921.752	67.15929
922.139	86.18541
922.525	58.13914
922.912	85.20604
923.299	19.04751
923.685	75.19487
924.072	59.13589
924.458	68.16795
924.844	46.11395
925.231	60.13943
925.617	38.09688
926.003	78.19843
926.389	61.15362
926.774	44.11166
927.16	76.18792
927.546	44.11245
927.931	105.25948
928.317	87.19901
928.702	85.19983
929.088	71.1673
929.473	84.21248
929.858	52.12569
930.243	44.10575
930.628	74.17928
931.013	64.15825
931.398	110.25006
931.783	86.22509
932.167	58.14162
932.552	90.22392
932.937	69.17071
933.321	71.17752
933.705	41.10355
934.09	106.26526
934.474	57.13525
934.858	55.14256
935.242	69.15936
935.626	46.11785
936.009	49.13036
936.393	70.17751
936.777	64.16351
937.16	44.11462
937.544	81.18975
937.927	48.12185
938.311	92.22288
938.694	90.23644
939.077	64.15283
939.46	95.2314
939.843	83.17198
940.226	63.16126
940.609	50.11481
940.991	94.23744
941.374	62.15122
941.757	79.19394
942.139	58.13008
942.522	129.3003
942.904	79.1889
943.286	85.21467
943.668	91.23408
944.05	71.17424
944.432	29.07185
944.814	64.15726
945.196	19.04658
945.578	59.14
945.959	81.18871
946.341	96.23371
946.722	70.1637
947.104	88.20885
947.485	71.16457
947.866	45.11349
948.247	51.12866
948.628	72.17495
949.009	74.18872
949.39	84.20785
949.771	98.22584
950.152	43.10568
950.532	27.0667
950.913	78.18719
951.293	23.06241
951.674	66.15917
952.054	60.14841
952.434	77.19022
952.814	51.12134
953.194	89.2314
953.574	110.26799
953.954	26.06204
954.334	59.14682
954.714	21.05146
955.093	92.22447
955.473	20.05029
955.853	67.17294
956.232	75.20475
956.611	107.2539
956.99	31.07818
957.37	46.11731
957.749	53.12639
958.128	23.05823
958.506	57.14769
958.885	37.09361
959.264	81.19738
959.643	58.1318
960.021	32.07956
960.4	63.14243
960.778	91.22249
961.156	55.13776
961.535	84.19451
961.913	84.19528
962.291	27.06955
962.669	54.1367
963.047	57.14529
963.424	79.20058
963.802	81.19804
964.18	151.37521
964.557	71.16287
964.935	114.2668
965.312	58.15083
965.69	88.21887
966.067	63.15306
966.444	80.19607
966.821	91.23293
967.198	57.13812
967.575	69.16908
967.952	108.25167
968.329	76.18405
968.705	72.15369
969.082	59.15108
969.458	0
969.835	72.17456
970.211	57.14611
970.587	88.21759
970.963	105.26679
971.339	32.08381
971.715	60.14955
972.091	86.21038
972.467	71.17643
972.843	55.13637
973.219	127.30054
973.594	57.14891
973.97	114.26805
974.345	64.15277
974.721	65.15697
975.096	54.13058
975.471	71.16776
975.846	36.08672
976.221	40.10176
976.596	71.16951
976.971	87.21334
977.346	66.15319
977.72	70.1777
978.095	59.15224
978.469	118.278
978.844	79.19759
979.218	1.00242
979.593	69.16474
979.967	99.23898
980.341	88.2011
980.715	79.19802
981.089	66.16475
981.463	70.16009
981.837	60.14634
982.21	127.2911
982.584	70.16844
982.957	39.09758
983.331	97.22724
983.704	86.20991
984.078	45.111
984.451	106.2621
984.824	65.15786
985.197	74.17894
985.57	103.25585
985.943	105.25672
986.316	100.24345
986.688	98.2342
987.061	93.21616
987.434	67.17408
987.806	107.25673
988.179	56.13198
988.551	95.23907
988.923	73.17901
989.295	63.15706
989.667	28.06717
990.039	61.15042
990.411	73.16726
990.783	92.21007
991.155	63.15099
991.527	107.26073
991.898	97.23962
992.27	55.13592
992.641	105.26081
993.012	95.22159
993.384	57.13578
993.755	69.17532
994.126	57.13692
994.497	49.12029
994.868	113.2563
995.239	81.19516
995.61	74.18539
995.98	14.03424
996.351	63.15563
996.722	39.09065
997.092	45.10666
997.462	36.08432
997.833	64.15131
998.203	119.28476
998.573	63.15649
998.943	92.21396
999.313	69.16474
999.683	66.15791
1000.053	59.13551
1000.423	53.12871
1000.792	86.22148
1001.162	97.23663
1001.531	69.16952
1001.901	58.14436
1002.27	83.18428
1002.639	53.13533
1003.009	89.21004
1003.378	60.15312
1003.747	70.16472
1004.116	52.12436
1004.485	88.20877
1004.853	63.15922
1005.222	56.14105
1005.591	82.19349
1005.959	28.06337
1006.328	39.08796
1006.696	46.11102
1007.064	74.18532
1007.433	99.24519
1007.801	64.15668
1008.169	59.14874
1008.537	62.13694
1008.905	16.03752
1009.273	110.26869
1009.64	47.11217
1010.008	63.14978
1010.375	138.32953
1010.743	110.25097
1011.11	26.0618
1011.478	87.21382
1011.845	74.17319
1012.212	51.1154
1012.579	87.21208
1012.946	90.21253
1013.313	140.32739
1013.68	55.12348
1014.047	58.13797
1014.414	75.17625
1014.78	96.2365
1015.147	115.27467
1015.513	86.20576
1015.88	128.32274
1016.246	122.29711
1016.612	82.18648
1016.978	90.21886
1017.344	72.17718
1017.71	94.2273
1018.076	69.16209
1018.442	77.1971
1018.808	54.13484
1019.174	72.17986
1019.539	148.33398
1019.905	48.11322
1020.27	72.17692
1020.636	60.14355
1021.001	75.17865
1021.366	52.12479
1021.731	50.12855
1022.096	67.16842
1022.461	92.2159
1022.826	73.17269
1023.191	58.15191
1023.556	46.10787
1023.92	110.26739
1024.285	90.21795
1024.649	28.06888
1025.014	106.25979
1025.378	81.20245
1025.742	80.19752
1026.107	74.16652
1026.471	144.32986
1026.835	67.16551
1027.199	36.08685
1027.562	100.23008
1027.926	101.24455
1028.29	83.20872
1028.654	68.15583
1029.017	72.1762
1029.381	24.0576
1029.744	108.27251
1030.107	69.16259
1030.471	75.17865
1030.834	98.2207
1031.197	120.28513
1031.56	64.15055
1031.923	61.15735
1032.286	109.25295
1032.648	116.27382
1033.011	1.00232
1033.374	111.25769
1033.736	13.03438
1034.099	70.1699
1034.461	55.13876
1034.823	63.15643
1035.185	62.15566
1035.548	71.17204
1035.91	79.18811
1036.272	112.25161
1036.634	107.25888
1036.995	96.22353
1037.357	41.09987
1037.719	88.21239
1038.08	102.23965
1038.442	46.10922
1038.803	114.27024
1039.165	36.09103
1039.526	74.17793
1039.887	44.10535
1040.248	44.10848
1040.609	114.27825
1040.97	64.15592
1041.331	73.18397
1041.692	48.11203
1042.053	45.10252
1042.413	75.17384
1042.774	112.26909
1043.134	130.3046
1043.495	85.21221
1043.855	40.09716
1044.215	63.15592
1044.576	50.11949
1044.936	121.27333
1045.296	94.2326
1045.656	80.19512
1046.016	121.288
1046.375	62.14998
1046.735	9.02056
1047.095	81.18834
1047.454	62.13097
1047.814	52.12489
1048.173	110.25965
1048.533	49.11222
1048.892	19.04585
1049.251	68.17005
1049.61	71.17404
1049.969	79.18507
1050.328	47.10192
1050.687	86.20772
1051.046	57.13853
1051.405	67.16606
1051.763	22.05084
1052.122	55.13697
1052.48	70.17092
1052.839	69.16164
1053.197	66.15477
1053.555	124.27834
1053.914	83.20165
1054.272	118.28145
1054.63	34.08333
1054.988	66.15622
1055.345	32.06914
1055.703	72.17246
1056.061	62.15906
1056.419	33.08562
1056.776	109.26123
1057.134	48.1111
1057.491	69.17208
1057.848	70.17353
1058.206	60.14075
1058.563	47.10361
1058.92	128.29027
1059.277	85.20821
1059.634	124.28736
1059.991	66.15755
1060.348	36.08154
1060.704	11.02639
1061.061	128.29262
1061.418	35.08506
1061.774	51.1258
1062.131	17.04517
1062.487	41.09597
1062.843	63.1566
1063.199	77.19043
1063.555	61.14094
1063.911	33.08355
1064.267	119.24426
1064.623	76.18357
1064.979	88.20684
1065.335	77.18299
1065.691	85.20224
1066.046	76.1661
1066.402	42.09552
1066.757	103.25734
1067.112	107.25966
1067.468	34.08048
1067.823	95.22629
1068.178	35.08484
1068.533	77.1856
1068.888	82.19461
1069.243	86.21069
1069.598	44.10696
1069.952	47.10583
1070.307	36.08928
1070.662	60.14207
1071.016	30.06745
1071.371	64.14508
1071.725	79.18782
1072.079	53.12731
1072.434	42.10213
1072.788	45.10719
1073.142	132.31954
1073.496	42.09972
1073.85	105.24067
1074.203	69.16669
1074.557	68.18016
1074.911	102.24086
1075.265	100.22999
1075.618	91.22033
1075.971	54.12826
1076.325	74.18712
1076.678	47.10747
1077.031	27.06134
1077.385	70.15344
1077.738	108.24073
1078.091	43.09785
1078.444	75.17315
1078.796	79.19265
1079.149	58.14394
1079.502	29.06873
1079.855	65.15102
1080.207	91.22232
1080.56	38.09834
1080.912	72.17443
1081.264	71.17016
1081.617	75.1818
1081.969	64.16091
1082.321	84.20365
1082.673	-4.00922
1083.025	61.1443
1083.377	-119.26453
1083.728	126.28933
1084.08	23.05765
1084.432	76.18225
1084.783	81.18849
1085.135	86.21397
1085.486	1.00231
1085.838	57.14009
1086.189	73.17629
1086.54	39.09326
1086.891	77.19363
1087.242	93.22441
1087.593	51.12404
1087.944	67.15098
1088.295	90.20277
1088.646	82.19738
1088.996	69.16549
1089.347	33.08116
1089.698	41.09699
1090.048	96.24715
1090.398	86.19787
1090.749	91.21585
1091.099	14.0354
1091.449	67.16624
1091.799	39.09776
1092.149	-2.00492
1092.499	36.08797
1092.849	46.1169
1093.199	111.27491
1093.548	87.20739
1093.898	59.14725
1094.248	81.20683
1094.597	-2.00515
1094.947	69.18333
1095.296	64.15749
1095.645	71.18384
1095.994	80.19089
1096.343	66.16546
1096.692	62.16239
1097.041	36.0976
1097.39	36.09045
1097.739	59.15298
1098.088	65.17356
1098.437	16.04223
1098.785	94.25137
1099.134	103.27083
1099.482	78.21338
1099.83	78.20381
1100.179	33.08624
1100.527	87.22953
1100.875	39.10321
1101.223	52.13791
1101.571	97.26582
1101.919	-7.01845
1102.267	38.10708
1102.615	7.0225
1102.962	12.03863
1103.31	1.00321
1103.658	13.04186
