Data from N2 R10 sample 4_Subt2__5__13-23-33-756.txt Node

Date: Mon Sep 01 13:23:33 PDT 2025
User: uwsun
Spectrometer: HDX01956
Trigger mode: 0
Integration Time (sec): 5.000000E-1
Scans to average: 1
Nonlinearity correction enabled: true
Boxcar width: 0
Storing dark spectrum: false
XAxis mode: Wavelengths
Number of Pixels in Spectrum: 2068
>>>>>Begin Spectral Data<<<<<
194.03	26.07269
194.578	18.0568
195.127	21.06527
195.676	15.0468
196.225	100.26085
196.773	35.09543
197.321	54.14364
197.87	60.14683
198.418	53.12818
198.966	53.12896
199.513	-17.03993
200.061	15.03561
200.609	65.16169
201.156	3.00614
201.704	5.01182
202.251	40.09905
202.798	34.08268
203.345	132.30104
203.892	21.04962
204.438	106.23431
204.985	25.05504
205.532	34.08364
206.078	61.13943
206.624	40.09148
207.17	76.16385
207.716	16.03634
208.262	88.16052
208.808	30.06853
209.354	54.12196
209.899	96.2259
210.445	14.0325
210.99	62.13825
211.535	92.20039
212.08	58.1258
212.625	77.17925
213.17	101.23707
213.715	-32.06686
214.259	61.13256
214.804	91.209
215.348	103.21782
215.892	81.18044
216.436	139.29652
216.98	92.18922
217.524	51.11248
218.068	59.13897
218.612	57.13447
219.155	50.11002
219.698	89.19694
220.242	68.15902
220.785	66.14425
221.328	61.14245
221.871	104.24606
222.414	113.26181
222.956	29.06551
223.499	35.07415
224.041	115.24937
224.583	67.13634
225.126	38.07886
225.668	71.16104
226.21	50.11784
226.751	-14.02899
227.293	34.07337
227.835	36.08253
228.376	109.23434
228.918	113.26544
229.459	51.11863
230	27.06052
230.541	59.1275
231.082	92.2071
231.622	58.12537
232.163	23.05238
232.704	48.11128
233.244	50.11605
233.784	82.18799
234.324	34.06952
234.864	26.05543
235.404	65.14473
235.944	80.17691
236.484	105.24337
237.023	48.10593
237.563	40.08639
238.102	64.141
238.641	42.09953
239.18	36.07845
239.719	75.17522
240.258	76.15892
240.797	34.07601
241.335	99.22455
241.874	51.09116
242.412	75.167
242.95	47.10422
243.488	59.12537
244.026	79.16816
244.564	114.21523
245.102	42.08779
245.64	61.13723
246.177	67.13939
246.715	70.15635
247.252	76.16202
247.789	96.16757
248.326	3.00672
248.863	19.03888
249.4	89.18664
249.936	45.08598
250.473	28.06078
251.009	28.05961
251.546	41.08389
252.082	77.15555
252.618	47.09686
253.154	11.02464
253.69	67.13926
254.226	61.13448
254.761	27.05642
255.297	28.05689
255.832	47.10287
256.367	56.12193
256.903	96.19255
257.438	86.18589
257.972	84.1716
258.507	28.0592
259.042	38.07639
259.576	-3.00599
260.111	62.13235
260.645	54.10796
261.179	17.03675
261.713	43.08814
262.247	42.08958
262.781	59.11317
263.315	20.0453
263.849	84.19196
264.382	62.13126
264.915	35.07538
265.449	-17.03825
265.982	115.23776
266.515	41.09201
267.048	-34.06722
267.58	90.17993
268.113	47.0929
268.646	32.07266
269.178	-18.03727
269.71	61.12198
270.243	31.06533
270.775	38.08886
271.307	100.21948
271.838	57.12481
272.37	69.15491
272.902	54.11257
273.433	45.08999
273.965	44.09816
274.496	86.1951
275.027	45.10215
275.558	45.09974
276.089	13.02916
276.62	44.10294
277.15	84.18878
277.681	68.13456
278.211	61.13673
278.741	63.12528
279.272	46.09538
279.802	31.07097
280.332	77.16376
280.861	71.15488
281.391	43.08846
281.921	51.1121
282.45	56.12756
282.98	43.10231
283.509	65.13197
284.038	-18.03771
284.567	87.18358
285.096	55.12043
285.625	26.05357
286.153	61.1286
286.682	29.06004
287.21	58.12564
287.739	43.09173
288.267	32.06994
288.795	82.19454
289.323	-16.03395
289.851	69.14489
290.378	48.09677
290.906	-5.01093
291.433	60.13424
291.961	61.12294
292.488	65.14485
293.015	9.01904
293.542	20.04547
294.069	38.08351
294.596	79.17445
295.122	40.08531
295.649	91.17725
296.175	50.10849
296.702	78.16816
297.228	60.13019
297.754	87.17172
298.28	50.10033
298.806	-9.0194
299.332	40.07793
299.857	48.09552
300.383	116.25824
300.908	2.0043
301.433	56.11949
301.958	124.24963
302.483	32.07038
303.008	85.18455
303.533	84.19273
304.058	82.16949
304.582	52.10705
305.107	12.02762
305.631	81.1613
306.155	25.05087
306.679	25.05094
307.203	48.09672
307.727	55.11345
308.251	52.11201
308.775	28.05741
309.298	41.08458
309.822	58.12698
310.345	85.1725
310.868	74.15145
311.391	49.10448
311.914	23.04981
312.437	91.17716
312.96	50.10057
313.482	24.04881
314.005	24.05185
314.527	25.05641
315.049	82.17671
315.571	27.05044
316.093	100.20763
316.615	81.16333
317.137	52.09456
317.659	71.14554
318.18	58.11806
318.702	66.1276
319.223	76.12776
319.744	48.08893
320.265	31.06228
320.786	-13.02683
321.307	71.14521
321.828	64.1181
322.348	11.02134
322.869	14.02695
323.389	121.15099
323.909	42.07828
324.43	109.21271
324.95	26.04788
325.47	2.00398
325.989	17.03207
326.509	33.05686
327.029	52.09125
327.548	19.03337
328.067	41.07712
328.587	46.09043
329.106	66.11527
329.625	84.17534
330.144	70.1229
330.662	-21.03762
331.181	28.05017
331.7	54.09575
332.218	48.0773
332.736	9.016
333.255	32.05565
333.773	67.11735
334.291	65.12208
334.808	-19.03129
335.326	58.09474
335.844	-18.03038
336.361	-13.02413
336.879	-31.05219
337.396	26.04469
337.913	-14.02285
338.43	22.03441
338.947	13.02173
339.464	-33.04848
339.981	-5.0082
340.497	67.11402
341.014	-52.08866
341.53	-81.12517
342.046	2.00334
342.562	-1.00172
343.078	6.00942
343.594	18.02858
344.11	-8.01264
344.626	14.02342
345.141	-3.0044
345.657	89.12722
346.172	53.08147
346.687	2.0029
347.202	11.01526
347.717	27.04037
348.232	-21.03371
348.747	15.02105
349.261	-37.04751
349.776	3.00429
350.29	4.00595
350.805	1.00153
351.319	-20.02799
351.833	-43.05673
352.347	-54.07566
352.861	-60.08224
353.374	59.07769
353.888	-26.03708
354.401	-1.0013
354.915	-69.08561
355.428	10.01412
355.941	-73.09528
356.454	14.01725
356.967	-57.07617
357.48	-2.00251
357.993	42.05678
358.505	-58.07857
359.018	6.00795
359.53	-22.02816
360.042	55.06106
360.554	6.0077
361.066	-66.08576
361.578	67.06969
362.09	-11.01349
362.602	33.03441
363.113	13.01471
363.625	7.00745
364.136	-13.01345
364.647	-109.11915
365.158	21.02268
365.669	68.07529
366.18	69.07365
366.691	-43.04251
367.201	9.0098
367.712	-31.03072
368.222	-67.06713
368.733	-60.05241
369.243	-65.0576
369.753	16.01491
370.263	-25.02467
370.773	-72.07541
371.282	-55.0511
371.792	-150.12223
372.301	-78.0689
372.811	-18.01786
373.32	-79.04698
373.829	-80.05733
374.338	-61.03568
374.847	-100.05959
375.356	-175.10905
375.865	-160.05945
376.373	-141.05788
376.882	-22.01192
377.39	-116.05146
377.898	-236.08989
378.407	-174.03165
378.915	-113.00905
379.423	-120.01347
379.93	-204.00657
380.438	-237.99935
380.946	-227.97495
381.453	-292.95394
381.96	-321.9175
382.468	-467.83273
382.975	-283.88955
383.482	-249.88167
383.989	-432.82379
384.495	-492.75187
385.002	-492.72251
385.509	-503.71642
386.015	-422.77878
386.521	-502.73385
387.028	-495.76663
387.534	-614.74955
388.04	-443.81774
388.546	-877.75984
389.051	-976.93171
389.557	-905.14068
390.063	-517.18245
390.568	-717.40208
391.073	-967.89518
391.578	-1015.06641
392.084	-1098.75695
392.589	-1635.4689
393.093	-1936.49378
393.598	-1672.6924
394.103	-1706.70163
394.607	-1806.93973
395.112	-1883.33777
395.616	-2058.16846
396.12	-2506.98235
396.624	-2945.50039
397.128	-3027.47759
397.632	-2943.05732
398.136	-3301.65062
398.639	-4819.41801
399.143	-6301.97883
399.646	-6507.77047
400.15	-7344.08712
400.653	-9577.01305
401.156	-11174.22944
401.659	-14095.79582
402.162	-7741.50184
402.664	-1415.85585
403.167	0
403.67	0
404.172	0
404.674	0
405.176	0
405.678	0
406.18	0
406.682	0
407.184	0
407.686	0
408.187	0
408.688	0
409.19	0
409.691	0
410.192	0
410.693	0
411.194	435.30976
411.694	2265.21412
412.195	2818.28128
412.696	1596.31559
413.196	-797.20408
413.696	-1953.97891
414.196	-159.62038
414.696	2251.10981
415.196	4821.00127
415.696	8285.85851
416.196	6693.58591
416.695	2552.50723
417.195	446.49083
417.694	661.60596
418.194	567.00484
418.693	137.87469
419.192	15.19888
419.691	94.21567
420.19	312.87621
420.688	746.8095
421.187	827.31265
421.685	1142.91305
422.184	1260.3391
422.682	1018.29018
423.18	297.94529
423.678	4.00799
424.176	-60.08157
424.674	38.03567
425.172	287.13028
425.669	310.00541
426.167	406.92146
426.664	240.90893
427.161	68.96487
427.659	80.95413
428.156	107.9393
428.652	-2.99843
429.149	24.98717
429.646	49.9746
430.143	29.98804
430.639	-17.99382
431.135	-76.9837
431.632	-19.99558
432.128	-144.99129
432.624	-206.01577
433.12	-213.98646
433.616	-189.99152
434.111	-332.03277
434.607	-269.04895
435.103	-82.00708
435.598	-48.00509
436.093	-32.01084
436.588	-70.02648
437.083	-26.01138
437.578	-130.07286
438.073	-236.16901
438.568	-48.03588
439.062	-96.05445
439.557	-143.11624
440.051	-167.12731
440.546	-203.16242
441.04	-188.17215
441.534	-163.17136
442.028	-144.14194
442.522	-256.26494
443.015	-170.14753
443.509	-122.1309
444.002	-171.18782
444.496	-202.18916
444.989	-159.17998
445.482	-248.29941
445.975	-274.28336
446.468	-159.14763
446.961	-179.16948
447.454	-178.18888
447.947	-203.23103
448.439	-207.25615
448.931	-266.29371
449.424	-210.28169
449.916	-165.20605
450.408	-278.31968
450.9	-298.38866
451.392	-219.29933
451.884	-235.28916
452.375	-303.4188
452.867	-276.34849
453.358	-244.29628
453.849	-210.23383
454.341	-196.23849
454.832	-238.27696
455.323	-298.42324
455.814	-204.26512
456.304	-219.28919
456.795	-211.27693
457.285	-240.31661
457.776	-164.22129
458.266	-264.37778
458.756	-219.32156
459.247	-332.49131
459.737	-277.406
460.226	-268.36741
460.716	-282.42571
461.206	-271.4166
461.695	-266.43794
462.185	-193.28862
462.674	-140.20233
463.163	-273.39374
463.653	-202.26718
464.142	-270.43365
464.63	-224.36878
465.119	-267.41264
465.608	-231.35468
466.096	-201.29205
466.585	-196.30905
467.073	-209.34782
467.561	-174.28949
468.05	-208.33786
468.538	-187.32496
469.026	-226.38598
469.513	-230.33845
470.001	-206.32971
470.489	-218.36931
470.976	-202.33607
471.463	-197.36126
471.951	-212.39652
472.438	-230.39937
472.925	-238.41217
473.412	-174.32238
473.899	-206.35675
474.385	-182.33973
474.872	-221.39118
475.359	-179.33289
475.845	-228.35889
476.331	-158.26257
476.817	-203.38843
477.303	-197.35689
477.789	-141.26392
478.275	-218.42937
478.761	-197.37841
479.247	-114.19941
479.732	-233.4668
480.218	-192.40469
480.703	-204.41163
481.188	-216.37367
481.673	-138.25223
482.158	-252.43247
482.643	-218.46312
483.128	-189.35009
483.612	-197.37969
484.097	-131.26427
484.581	-178.34431
485.066	-165.33179
485.55	-239.43851
486.034	-175.31283
486.518	-188.36731
487.002	-221.45567
487.486	-232.4819
487.969	-239.4981
488.453	-208.45093
488.936	-171.3253
489.42	-174.32754
489.903	-165.35718
490.386	-614.97431
490.869	-143.26594
491.352	-167.35532
491.835	-150.26585
492.318	-201.39262
492.8	-171.30489
493.283	-204.45225
493.765	-215.46342
494.247	-136.27707
494.73	-205.39796
495.212	-150.31867
495.694	-185.37733
496.175	-274.57599
496.657	-158.32937
497.139	-182.282
497.62	-267.56363
498.102	-193.42296
498.583	-165.36618
499.064	-178.3486
499.545	-196.39785
500.026	-192.38172
500.507	-201.41686
500.988	-123.26945
501.469	-213.47682
501.949	-143.31445
502.43	-203.42947
502.91	-173.31709
503.39	-94.20814
503.87	-159.33138
504.35	-112.23493
504.83	-157.30565
505.31	-126.27025
505.79	-198.4254
506.269	-32.06528
506.749	-138.27961
507.228	-129.26837
507.707	-58.1123
508.187	-23.04817
508.666	-63.13562
509.145	-63.12896
509.623	-66.13636
510.102	-2.00422
510.581	25.05261
511.059	-14.03057
511.538	3.00681
512.016	63.12966
512.494	74.15495
512.972	75.15381
513.45	43.08511
513.928	69.14374
514.406	132.26672
514.884	144.31498
515.361	149.30197
515.839	234.43984
516.316	213.42792
516.793	279.58767
517.27	351.69474
517.747	293.6215
518.224	335.63079
518.701	393.69751
519.178	352.707
519.654	399.7672
520.131	382.76584
520.607	406.81697
521.083	355.65564
521.56	358.68686
522.036	396.69572
522.512	380.76711
522.987	309.60015
523.463	344.66797
523.939	347.70066
524.414	321.61126
524.89	273.5401
525.365	291.54389
525.84	221.43907
526.315	197.40235
526.79	248.46753
527.265	224.42997
527.74	143.30002
528.215	171.34465
528.689	166.31294
529.164	140.26159
529.638	116.26049
530.112	98.20038
530.587	89.16403
531.061	37.07855
531.534	28.06037
532.008	17.03622
532.482	6.0123
532.956	-26.05927
533.429	52.11139
533.903	19.03745
534.376	-8.01581
534.849	-18.03747
535.322	-2.00422
535.795	-26.05726
536.268	-37.08013
536.741	-33.07162
537.213	3.00621
537.686	-50.10988
538.158	-104.21217
538.631	-34.07494
539.103	-49.09894
539.575	-7.01312
540.047	-54.10771
540.519	-22.04753
540.991	-31.0688
541.463	-80.17699
541.934	-69.14374
542.406	-79.17138
542.877	-61.1251
543.348	-49.10761
543.82	-76.1706
544.291	-28.05925
544.762	-91.19674
545.233	-89.20334
545.703	-75.15054
546.174	-38.07978
546.645	-90.19445
547.115	-78.17047
547.585	-62.12913
548.056	-83.18013
548.526	-47.09874
548.996	-6.01286
549.466	-17.03721
549.935	-81.17182
550.405	-31.06021
550.875	-11.02302
551.344	-30.06407
551.814	26.05244
552.283	42.07999
552.752	35.0707
553.221	31.05825
553.69	60.11506
554.159	67.14156
554.628	63.12066
555.096	85.18534
555.565	131.24811
556.033	163.32792
556.502	143.29816
556.97	175.33129
557.438	218.44029
557.906	306.61035
558.374	303.58372
558.842	305.61387
559.31	327.613
559.777	402.80035
560.245	499.95165
560.712	511.9561
561.18	585.01167
561.647	589.03484
562.114	621.10433
562.581	753.4284
563.048	811.40511
563.514	829.5293
563.981	1055.69752
564.448	1021.61481
564.914	1194.89368
565.381	1261.90801
565.847	1403.11497
566.313	1452.13965
566.779	1573.13583
567.245	1689.33162
567.711	1800.48216
568.176	1906.29352
568.642	2072.80823
569.108	2304.81274
569.573	2492.67724
570.038	2635.16448
570.504	2756.40533
570.969	2975.98909
571.434	3109.22431
571.899	3318.61062
572.363	3544.2871
572.828	3663.28447
573.293	3889.17115
573.757	4175.02774
574.222	4299.76496
574.686	4570.62978
575.15	4680.93032
575.614	5013.53479
576.078	5183.57405
576.542	5225.39507
577.006	5358.26374
577.469	5763.67795
577.933	5695.06566
578.396	5907.35721
578.86	5947.29167
579.323	5961.32939
579.786	6003.82636
580.249	5956.08608
580.712	6050.48272
581.175	5969.5507
581.637	6062.16652
582.1	6063.92645
582.563	5992.84632
583.025	5846.4915
583.487	5770.59735
583.95	5744.86842
584.412	5749.79905
584.874	5382.71968
585.336	5437.54473
585.797	5241.13195
586.259	5264.63631
586.721	4979.72411
587.182	4930.78654
587.643	4775.67171
588.105	4659.98059
588.566	4525.40694
589.027	4351.23388
589.488	4321.95223
589.949	4183.40115
590.41	4024.27882
590.87	4049.12906
591.331	3807.94401
591.791	3699.3222
592.252	3582.30646
592.712	3434.67986
593.172	3350.3361
593.632	3361.22125
594.092	3177.35072
594.552	3056.21179
595.011	2938.52492
595.471	2935.42389
595.931	2787.42358
596.39	2800.76195
596.849	2575.63268
597.308	2576.33544
597.768	2456.03758
598.227	2515.79787
598.685	2412.58208
599.144	2382.63274
599.603	2274.67087
600.062	2227.16078
600.52	2233.39211
600.978	2137.62948
601.437	2138.49383
601.895	2044.16933
602.353	2071.35245
602.811	2065.34189
603.269	1983.59779
603.727	1998.60327
604.184	1999.35886
604.642	1951.6684
605.099	1943.45681
605.557	1914.63424
606.014	1892.15879
606.471	1905.6925
606.928	1856.11168
607.385	1943.59462
607.842	1945.39094
608.299	1992.49401
608.755	1965.59913
609.212	2009.30475
609.668	2012.27525
610.125	2047.66271
610.581	2065.64233
611.037	2149.51897
611.493	2033.60718
611.949	2031.65184
612.405	2070.99923
612.861	2134.64842
613.316	2114.66978
613.772	2159.53846
614.227	2103.62213
614.683	2119.28346
615.138	2135.60511
615.593	2154.58979
616.048	2172.55711
616.503	2225.88632
616.958	2110.90324
617.412	2122.67113
617.867	2090.3793
618.321	2182.19364
618.776	2094.41931
619.23	2086.64403
619.684	2139.53029
620.138	2097.63774
620.592	1979.75076
621.046	2006.64521
621.5	1992.76836
621.954	1962.48066
622.407	1923.4209
622.861	1877.71493
623.314	1905.50134
623.768	1800.51848
624.221	1795.97914
624.674	1798.48723
625.127	1733.50488
625.58	1808.48548
626.033	1800.37527
626.485	1691.55885
626.938	1713.57276
627.39	1679.47031
627.843	1641.42969
628.295	1579.38179
628.747	1619.50934
629.199	1552.31362
629.651	1511.27811
630.103	1474.2752
630.555	1442.03378
631.006	1428.31537
631.458	1384.28857
631.909	1378.22501
632.361	1343.22582
632.812	1298.14785
633.263	1327.00533
633.714	1342.00837
634.165	1325.33309
634.616	1238.17643
635.067	1261.03316
635.518	1257.21743
635.968	1239.77802
636.419	1200.92279
636.869	1162.09964
637.319	1106.95687
637.769	1114.89067
638.219	1104.04405
638.669	1099.0262
639.119	1032.99523
639.569	1032.96675
640.019	1014.85317
640.468	1027.79555
640.918	1045.99301
641.367	971.73386
641.816	956.7092
642.265	960.78339
642.714	963.78942
643.163	930.73098
643.612	922.79926
644.061	930.56893
644.51	836.57495
644.958	904.60855
645.406	867.71537
645.855	916.84747
646.303	917.75443
646.751	849.59519
647.199	838.58182
647.647	854.62623
648.095	849.61239
648.543	907.50062
648.99	864.7146
649.438	882.71866
649.885	803.68635
650.333	840.32864
650.78	844.70756
651.227	795.64022
651.674	808.54595
652.121	745.55689
652.568	770.59604
653.015	821.76652
653.461	752.53025
653.908	792.56424
654.354	775.58104
654.801	718.45104
655.247	750.40437
655.693	724.6458
656.139	705.46801
656.585	682.42918
657.031	599.23596
657.477	613.16409
657.922	647.30646
658.368	686.485
658.813	668.36466
659.259	607.29507
659.704	613.26602
660.149	581.20949
660.594	630.32474
661.039	562.14833
661.484	645.36554
661.929	515.09518
662.373	528.21006
662.818	536.20679
663.262	498.09455
663.707	505.17092
664.151	475.06772
664.595	499.1002
665.039	494.12886
665.483	483.13175
665.927	482.04378
666.371	423.90895
666.814	505.10508
667.258	418.9208
667.701	494.97985
668.145	451.04263
668.588	393.90718
669.031	377.83381
669.474	406.91721
669.917	429.8873
670.36	392.91548
670.803	442.99566
671.245	403.7973
671.688	370.85529
672.13	373.78944
672.573	362.87356
673.015	378.85849
673.457	389.79844
673.899	377.86506
674.341	305.70689
674.783	333.76167
675.225	357.83425
675.666	283.65487
676.108	333.69184
676.549	361.81374
676.991	313.66305
677.432	303.58091
677.873	312.69396
678.314	323.7394
678.755	300.70259
679.196	292.64517
679.637	334.7819
680.078	326.73261
680.518	317.71136
680.959	305.70353
681.399	262.63038
681.839	309.72381
682.28	293.69706
682.72	237.52989
683.16	309.73992
683.6	263.58438
684.039	285.576
684.479	200.48214
684.919	181.41153
685.358	246.60844
685.798	258.65651
686.237	234.55383
686.676	267.6036
687.115	233.53597
687.554	219.5102
687.993	196.42872
688.432	220.49381
688.871	214.47719
689.309	204.47928
689.748	217.44783
690.186	237.55431
690.625	168.39039
691.063	230.53994
691.501	214.51939
691.939	193.47378
692.377	198.47551
692.815	179.42309
693.253	194.46059
693.69	182.39675
694.128	165.39589
694.565	166.3929
695.003	151.38025
695.44	144.33727
695.877	140.32597
696.314	191.40762
696.751	201.4533
697.188	200.45316
697.625	185.42148
698.061	160.38104
698.498	208.49572
698.934	183.4359
699.371	70.16652
699.807	183.42836
700.243	131.31467
700.679	152.34357
701.115	158.37064
701.551	141.3316
701.987	234.51681
702.422	128.30378
702.858	152.36032
703.294	150.33932
703.729	167.40525
704.164	133.3196
704.599	173.38297
705.035	101.22769
705.47	104.25356
705.904	141.32772
706.339	166.38438
706.774	114.26784
707.209	101.23429
707.643	176.41866
708.078	100.24445
708.512	47.11883
708.946	138.33029
709.38	111.264
709.814	167.3797
710.248	164.3967
710.682	87.20843
711.116	90.21574
711.549	138.35428
711.983	76.17759
712.416	157.36951
712.85	132.32818
713.283	73.17462
713.716	167.41602
714.149	151.35871
714.582	145.32527
715.015	154.38329
715.448	147.36846
715.881	185.40201
716.313	125.29317
716.746	104.24587
717.178	77.18672
717.61	157.39508
718.043	136.33787
718.475	75.18344
718.907	164.41188
719.339	99.22583
719.77	49.11775
720.202	103.26087
720.634	91.22241
721.065	119.28248
721.497	111.2725
721.928	77.19036
722.359	47.11474
722.79	95.22846
723.221	127.31902
723.652	190.48367
724.083	88.20029
724.514	82.19033
724.945	110.25935
725.375	87.20325
725.806	134.33363
726.236	124.31701
726.666	123.29141
727.096	111.2728
727.526	99.25181
727.956	72.16553
728.386	75.18616
728.816	102.25829
729.246	96.23406
729.675	62.15398
730.105	106.26152
730.534	133.31084
730.964	137.345
731.393	137.33943
731.822	115.29343
732.251	106.26918
732.68	158.37035
733.109	99.24465
733.537	99.23988
733.966	111.27572
734.395	131.30231
734.823	141.31786
735.251	41.10021
735.68	152.37831
736.108	81.20603
736.536	103.24403
736.964	108.25147
737.392	63.15905
737.82	85.20542
738.247	100.24053
738.675	123.29411
739.102	73.18351
739.53	102.25976
739.957	77.19896
740.384	120.29606
740.811	96.24396
741.238	76.18682
741.665	80.18701
742.092	117.27976
742.519	45.11263
742.945	92.22196
743.372	78.19428
743.798	62.16056
744.225	70.16799
744.651	99.24886
745.077	46.11603
745.503	89.21825
745.929	82.19806
746.355	153.37809
746.781	68.16986
747.207	20.04778
747.632	19.04708
748.058	91.22785
748.483	94.21775
748.908	29.07311
749.334	47.11683
749.759	50.11944
750.184	44.1062
750.609	108.26567
751.033	87.20716
751.458	124.27857
751.883	110.27268
752.307	79.18731
752.732	24.06078
753.156	51.12728
753.58	94.22438
754.005	83.21156
754.429	60.14256
754.853	65.16222
755.277	75.17893
755.7	97.24112
756.124	61.15257
756.548	58.13893
756.971	91.22307
757.394	76.19661
757.818	103.26485
758.241	81.20624
758.664	68.17275
759.087	15.03419
759.51	47.11823
759.933	66.16007
760.356	81.20835
760.778	88.21711
761.201	129.31281
761.623	77.18812
762.046	72.17239
762.468	93.22441
762.89	111.27391
763.312	85.20851
763.734	84.20319
764.156	61.15185
764.578	104.24005
765	29.0718
765.421	31.0796
765.843	109.28505
766.264	69.16807
766.686	69.17439
767.107	53.12973
767.528	27.06897
767.949	44.11296
768.37	59.14602
768.791	94.22807
769.212	37.09388
769.632	19.04503
770.053	66.17451
770.473	85.20751
770.894	86.21599
771.314	101.24178
771.734	36.08511
772.154	73.18817
772.575	59.13822
772.994	54.12405
773.414	131.31324
773.834	62.156
774.254	101.24721
774.673	94.22935
775.093	46.11487
775.512	55.13652
775.931	56.14292
776.351	64.15981
776.77	58.14278
777.189	75.17934
777.607	84.21475
778.026	59.14789
778.445	10.02538
778.864	72.1853
779.282	50.12141
779.701	47.11942
780.119	37.09434
780.537	66.1654
780.955	76.19389
781.373	62.1542
781.791	42.09552
782.209	96.22159
782.627	43.11402
783.045	84.19381
783.462	83.21216
783.88	47.12233
784.297	38.09643
784.715	39.10088
785.132	10.02458
785.549	31.07832
785.966	80.20143
786.383	83.20436
786.8	89.20702
787.217	85.20177
787.633	62.15532
788.05	125.29535
788.466	115.27025
788.883	56.14342
789.299	81.19538
789.715	36.08836
790.131	81.20157
790.547	64.16045
790.963	19.04773
791.379	74.18732
791.795	75.17184
792.21	69.16202
792.626	69.16436
793.041	53.13155
793.457	50.12436
793.872	58.13718
794.287	47.11294
794.702	82.20216
795.117	-5.01261
795.532	24.06073
795.947	111.26602
796.362	124.29418
796.776	118.27508
797.191	48.11825
797.605	41.09703
798.02	52.12726
798.434	78.17422
798.848	43.10662
799.262	24.06013
799.676	112.27184
800.09	48.11882
800.504	30.07353
800.918	43.10046
801.331	57.14993
801.745	50.11569
802.158	42.10567
802.572	139.33363
802.985	79.19114
803.398	75.17913
803.811	100.2561
804.224	73.18192
804.637	37.08888
805.05	68.15815
805.462	88.21591
805.875	10.02619
806.288	25.0609
806.7	34.0861
807.112	80.18561
807.525	68.16814
807.937	35.08716
808.349	74.18545
808.761	76.18702
809.173	38.09279
809.584	123.30151
809.996	35.08634
810.408	40.10377
810.819	52.12294
811.231	-14.03669
811.642	31.07452
812.053	30.07197
812.464	69.1643
812.875	130.32884
813.286	68.17513
813.697	120.27853
814.108	102.24804
814.519	74.16522
814.929	103.26133
815.34	27.06609
815.75	51.13004
816.16	60.14993
816.571	65.169
816.981	58.13749
817.391	61.1477
817.801	60.14934
818.211	70.16709
818.62	36.08728
819.03	44.10844
819.44	70.18284
819.849	51.12899
820.259	40.10295
820.668	13.03232
821.077	26.06509
821.486	95.22794
821.895	99.24349
822.304	90.23756
822.713	67.15861
823.122	51.12774
823.531	62.14732
823.939	81.19701
824.348	77.18707
824.756	57.14313
825.164	71.17867
825.573	37.09338
825.981	70.17366
826.389	62.156
826.797	70.1753
827.205	63.14487
827.612	29.07211
828.02	49.11555
828.428	65.16562
828.835	60.15806
829.243	74.1763
829.65	54.1346
830.057	50.12182
830.464	67.16332
830.871	83.19831
831.278	45.10929
831.685	69.15415
832.092	66.1617
832.499	58.1273
832.905	39.09923
833.312	58.1327
833.718	74.18418
834.124	80.18252
834.531	76.19129
834.937	79.20229
835.343	59.14264
835.749	87.20261
836.155	21.05539
836.561	67.16479
836.966	72.17594
837.372	34.08702
837.777	48.11995
838.183	40.08953
838.588	54.13435
838.993	72.17515
839.399	57.13957
839.804	4.00986
840.209	31.07935
840.613	59.13154
841.018	56.14201
841.423	48.12345
841.828	63.15934
842.232	115.28231
842.637	91.21368
843.041	9.02328
843.445	55.13816
843.849	60.14863
844.253	87.20596
844.657	55.13866
845.061	20.04582
845.465	64.15458
845.869	67.15567
846.272	16.0393
846.676	56.13567
847.079	46.11727
847.483	67.16703
847.886	87.21081
848.289	40.10707
848.692	55.13945
849.095	72.17266
849.498	109.274
849.901	74.16945
850.304	30.07216
850.707	53.13533
851.109	81.20427
851.512	53.13045
851.914	25.06339
852.316	45.11414
852.718	7.01823
853.121	56.13735
853.523	58.13569
853.925	46.12024
854.326	65.16234
854.728	65.16696
855.13	33.08548
855.531	62.14811
855.933	73.17489
856.334	32.08017
856.736	13.02941
857.137	33.07716
857.538	32.08083
857.939	37.09177
858.34	100.2419
858.741	43.11268
859.142	69.16549
859.542	53.13992
859.943	56.13923
860.343	-3.00751
860.744	93.22552
861.144	56.13669
861.544	2.00486
861.945	58.14781
862.345	75.18289
862.745	53.13184
863.145	65.15525
863.544	45.11397
863.944	60.14174
864.344	113.27792
864.743	75.18555
865.143	90.22985
865.542	51.11849
865.941	60.14847
866.34	84.20028
866.74	49.13166
867.139	15.03621
867.537	102.25783
867.936	53.1277
868.335	55.13999
868.734	58.14818
869.132	38.08865
869.531	90.2164
869.929	28.06422
870.327	81.19331
870.726	43.10751
871.124	82.19078
871.522	43.1098
871.92	50.1235
872.318	56.13694
872.715	85.20936
873.113	49.11958
873.511	78.19357
873.908	33.08364
874.306	48.11956
874.703	83.20669
875.1	74.18872
875.497	33.07948
875.894	2.00495
876.291	50.12286
876.688	38.09831
877.085	55.13202
877.482	87.21658
877.878	14.03397
878.275	34.08671
878.671	54.12037
879.068	107.25585
879.464	47.1138
879.86	32.07603
880.256	69.16989
880.652	23.05883
881.048	69.17058
881.444	67.15917
881.84	74.18746
882.236	71.17803
882.631	67.16412
883.027	86.20709
883.422	62.15834
883.817	5.01268
884.213	62.1589
884.608	51.12516
885.003	38.09192
885.398	38.0954
885.793	63.15791
886.188	7.01755
886.582	124.31422
886.977	86.20293
887.371	49.12406
887.766	-16.0403
888.16	64.15947
888.554	68.16777
888.949	81.20245
889.343	90.21845
889.737	10.02684
890.131	48.12055
890.525	90.22871
890.918	37.09341
891.312	72.17174
891.706	48.12606
892.099	57.14498
892.492	64.13786
892.886	61.14909
893.279	27.06911
893.672	63.16013
894.065	87.21658
894.458	40.10086
894.851	86.20952
895.244	60.15307
895.637	70.16812
896.029	53.12963
896.422	66.16092
896.814	54.13426
897.206	44.10499
897.599	77.18966
897.991	77.18538
898.383	50.11826
898.775	38.08607
899.167	6.01412
899.559	92.23131
899.951	44.10394
900.342	93.23487
900.734	2.00501
901.125	97.25263
901.517	63.15437
901.908	86.20497
902.299	43.10533
902.69	62.14607
903.082	69.16663
903.473	39.09365
903.863	70.17808
904.254	47.10924
904.645	101.24905
905.036	-2.00489
905.426	105.23796
905.817	40.0984
906.207	35.08369
906.597	8.01888
906.987	98.25204
907.378	68.17152
907.768	44.1165
908.158	90.21795
908.547	13.03381
908.937	57.14616
909.327	97.23362
909.717	83.20962
910.106	25.06037
910.495	83.20609
910.885	43.1091
911.274	56.13989
911.663	95.23932
912.052	97.23742
912.441	74.18746
912.83	71.16241
913.219	80.20839
913.608	71.17333
913.997	42.10549
914.385	76.18079
914.774	60.14591
915.162	34.08132
915.55	99.23745
915.939	35.08861
916.327	46.11495
916.715	39.09962
917.103	76.18626
917.491	99.24286
917.878	76.18606
918.266	76.19627
918.654	58.14802
919.041	57.14866
919.429	31.07347
919.816	88.22165
920.203	-12.02945
920.591	71.17546
920.978	96.23318
921.365	91.23717
921.752	19.04559
922.139	68.14717
922.525	46.1106
922.912	74.17975
923.299	65.16116
923.685	38.09936
924.072	62.14271
924.458	59.14597
924.844	92.22598
925.231	48.11181
925.617	41.10447
926.003	90.22847
926.389	24.06084
926.774	66.16683
927.16	83.20496
927.546	51.13018
927.931	74.18391
928.317	50.11523
928.702	68.16039
929.088	12.0286
929.473	43.10957
929.858	29.0704
930.243	26.0627
930.628	43.10478
931.013	88.21663
931.398	100.22778
931.783	66.17334
932.167	29.07119
932.552	62.15504
932.937	75.18535
933.321	22.05549
933.705	53.13357
934.09	116.28976
934.474	86.20293
934.858	58.15026
935.242	35.08138
935.626	46.11785
936.009	81.21435
936.393	78.19752
936.777	30.0771
937.16	41.10686
937.544	46.1085
937.927	36.09158
938.311	76.18467
938.694	89.23386
939.077	24.05775
939.46	82.20022
939.843	79.16384
940.226	35.09003
940.609	10.02315
940.991	50.12729
941.374	10.02463
941.757	51.12585
942.139	49.1101
942.522	116.27073
942.904	64.15347
943.286	78.19724
943.668	84.21633
944.05	26.06434
944.432	81.19878
944.814	58.14268
945.196	50.12186
945.578	-10.02404
945.959	67.15653
946.341	110.26709
946.722	55.129
947.104	63.15024
947.485	66.15313
947.866	67.1683
948.247	59.14863
948.628	92.22271
949.009	30.0771
949.39	63.15649
949.771	79.18275
950.152	51.12516
950.532	-5.01242
950.913	108.2577
951.293	22.0597
951.674	79.19006
952.054	46.11408
952.434	79.19509
952.814	90.21253
953.194	79.20575
953.574	92.22489
953.954	54.12816
954.334	34.08499
954.714	37.0904
955.093	68.16666
955.473	19.04778
955.853	69.17804
956.232	47.12888
956.611	67.16021
956.99	46.1157
957.37	59.15012
957.749	53.12639
958.128	54.13596
958.506	30.07809
958.885	63.15865
959.264	36.08846
959.643	71.16091
960.021	82.20201
960.4	59.1335
960.778	75.18392
961.156	29.07298
961.535	62.14419
961.913	80.18613
962.291	20.05158
962.669	53.13419
963.047	46.11748
963.424	70.17802
963.802	27.06668
964.18	141.351
964.557	77.17642
964.935	70.16524
965.312	36.09397
965.69	117.28945
966.067	45.1097
966.444	71.1743
966.821	79.20264
967.198	64.15487
967.575	55.13512
967.952	45.10616
968.329	79.19121
968.705	98.20801
969.082	76.19403
969.458	18.04344
969.835	65.1578
970.211	43.11049
970.587	49.12203
970.963	79.20165
971.339	52.13573
971.715	71.17662
972.091	83.20316
972.467	79.19602
972.843	60.14863
973.219	128.30285
973.594	41.1074
973.97	106.24963
974.345	34.08163
974.721	71.17126
975.096	71.17113
975.471	93.2188
975.846	71.1699
976.221	51.12949
976.596	20.04822
976.971	26.06448
977.346	75.17377
977.72	61.1551
978.095	66.1701
978.469	37.08854
978.844	117.29062
979.218	16.0386
979.593	81.19294
979.967	51.12423
980.341	64.14696
980.715	32.08089
981.089	22.05535
981.463	28.06458
981.837	29.07114
982.21	69.16
982.584	60.14465
982.957	60.14955
983.331	104.2433
983.704	59.14473
984.078	63.15489
984.451	82.20365
984.824	-12.02956
985.197	60.14547
985.57	68.16999
985.943	64.15767
986.316	94.2291
986.688	76.18239
987.061	65.15191
987.434	64.16637
987.806	56.13567
988.179	82.19228
988.551	89.22421
988.923	41.10114
989.295	100.24762
989.667	27.06478
990.039	10.02489
990.411	73.16726
990.783	71.16281
991.155	7.01696
991.527	99.2416
991.898	65.16152
992.27	39.09666
992.641	55.13786
993.012	58.13627
993.384	76.18037
993.755	53.13505
994.126	60.14405
994.497	49.12029
994.868	87.19837
995.239	59.14275
995.61	29.07324
995.98	48.11664
996.351	32.0795
996.722	41.09526
997.092	42.0996
997.462	41.09594
997.833	63.14897
998.203	60.14519
998.573	45.11215
998.943	53.12421
999.313	47.11269
999.683	19.04587
1000.053	44.10136
1000.423	63.15271
1000.792	53.13728
1001.162	71.17404
1001.531	108.26341
1001.901	50.12463
1002.27	69.15364
1002.639	55.14039
1003.009	16.0383
1003.378	63.1607
1003.747	69.1624
1004.116	14.03373
1004.485	85.20177
1004.853	56.14171
1005.222	65.16346
1005.591	77.18187
1005.959	19.04308
1006.328	73.16349
1006.696	50.12059
1007.064	66.16552
1007.433	64.15952
1007.801	148.35665
1008.169	51.12876
1008.537	120.26182
1008.905	40.09336
1009.273	71.17469
1009.64	45.10744
1010.008	91.21518
1010.375	115.27582
1010.743	100.22861
1011.11	17.04048
1011.478	40.09916
1011.845	92.21455
1012.212	54.12211
1012.579	69.16876
1012.946	63.14955
1013.313	50.11899
1013.68	40.09008
1014.047	38.09074
1014.414	45.10637
1014.78	45.1119
1015.147	61.1472
1015.513	45.10851
1015.88	112.28321
1016.246	105.25653
1016.612	65.14833
1016.978	73.17808
1017.344	40.09901
1017.71	94.2273
1018.076	38.0898
1018.442	84.21475
1018.808	49.12247
1019.174	24.06047
1019.539	78.17853
1019.905	37.08746
1020.27	47.11602
1020.636	78.18598
1021.001	88.20909
1021.366	22.0531
1021.731	57.14636
1022.096	21.05323
1022.461	73.17195
1022.826	83.19596
1023.191	62.16228
1023.556	69.16107
1023.92	98.23876
1024.285	94.22747
1024.649	56.13704
1025.014	62.15319
1025.378	55.13811
1025.742	76.18778
1026.107	97.21724
1026.471	106.24467
1026.835	54.13372
1027.199	19.04599
1027.562	50.11619
1027.926	60.1464
1028.29	26.06605
1028.654	42.09675
1029.017	55.13502
1029.381	24.0576
1029.744	85.21536
1030.107	117.27312
1030.471	99.23473
1030.834	36.0821
1031.197	75.17975
1031.56	74.17373
1031.923	46.11896
1032.286	41.09642
1032.648	48.1148
1033.011	54.1238
1033.374	108.25087
1033.736	37.09745
1034.099	53.12905
1034.461	26.06593
1034.823	40.09974
1035.185	58.14572
1035.548	17.04161
1035.91	50.11972
1036.272	65.14743
1036.634	103.24939
1036.995	51.1198
1037.357	28.06837
1037.719	45.10949
1038.08	62.14681
1038.442	51.12097
1038.803	67.16027
1039.165	48.12112
1039.526	55.13272
1039.887	73.17382
1040.248	25.06185
1040.609	77.18924
1040.97	19.04668
1041.331	52.13154
1041.692	22.05161
1042.053	41.09349
1042.413	55.12799
1042.774	63.15277
1043.134	88.20789
1043.495	92.2294
1043.855	78.18811
1044.215	65.16081
1044.576	8.01927
1044.936	50.11458
1045.296	93.23016
1045.656	87.21192
1046.016	108.2577
1046.375	36.08751
1046.735	40.09082
1047.095	98.2271
1047.454	108.22584
1047.814	60.14388
1048.173	88.20861
1048.533	32.07354
1048.892	27.06505
1049.251	85.21191
1049.61	40.09862
1049.969	85.19889
1050.328	38.08256
1050.687	40.09745
1051.046	36.08784
1051.405	69.17096
1051.763	39.08982
1052.122	41.10236
1052.48	56.1371
1052.839	50.11757
1053.197	63.14782
1053.555	103.2322
1053.914	72.17528
1054.272	99.23699
1054.63	7.01724
1054.988	53.12576
1055.345	59.12674
1055.703	94.22421
1056.061	44.11324
1056.419	49.12679
1056.776	91.21884
1057.134	53.12255
1057.491	34.08533
1057.848	62.15392
1058.206	75.17542
1058.563	75.16437
1058.92	92.21015
1059.277	92.22506
1059.634	92.21455
1059.991	92.21851
1060.348	23.05223
1060.704	30.07172
1061.061	107.24565
1061.418	64.1547
1061.774	62.15263
1062.131	50.13211
1062.487	46.10757
1062.843	80.19825
1063.199	46.11441
1063.555	32.07436
1063.911	66.16612
1064.267	75.15548
1064.623	33.08035
1064.979	89.20915
1065.335	96.22731
1065.691	83.19756
1066.046	85.18542
1066.402	29.06612
1066.757	75.18833
1067.112	41.10073
1067.468	-5.01192
1067.823	80.19111
1068.178	98.23474
1068.533	68.16418
1068.888	85.20162
1069.243	93.22755
1069.598	51.12381
1069.952	9.02042
1070.307	21.05222
1070.662	78.18405
1071.016	32.07192
1071.371	53.12041
1071.725	79.18782
1072.079	28.06758
1072.434	45.10937
1072.788	38.09064
1073.142	44.10828
1073.496	37.08793
1073.85	56.12962
1074.203	65.15715
1074.557	71.18801
1074.911	95.22464
1075.265	93.21419
1075.618	83.20127
1075.971	63.14938
1076.325	73.18463
1076.678	28.06427
1077.031	38.08614
1077.385	103.22421
1077.738	29.0657
1078.091	14.03204
1078.444	72.16632
1078.796	7.0173
1079.149	73.18067
1079.502	21.04985
1079.855	14.03285
1080.207	69.16927
1080.56	38.09834
1080.912	60.14569
1081.264	25.06044
1081.617	57.13864
1081.969	39.0985
1082.321	37.0905
1082.673	37.0846
1083.025	69.16297
1083.377	83.17675
1083.728	65.15108
1084.08	36.09003
1084.432	32.07738
1084.783	91.21134
1085.135	66.16481
1085.486	20.046
1085.838	44.1084
1086.189	27.06577
1086.54	45.10748
1086.891	30.07608
1087.242	68.16486
1087.593	58.14088
1087.944	50.11306
1088.295	102.22924
1088.646	49.11869
1088.996	73.17495
1089.347	32.07872
1089.698	-2.00477
1090.048	42.10914
1090.398	74.17067
1090.749	57.13609
1091.099	44.11067
1091.449	62.15398
1091.799	65.16216
1092.149	-14.03452
1092.499	50.12186
1092.849	34.08659
1093.199	72.17959
1093.548	53.12717
1093.898	20.05027
1094.248	63.16138
1094.597	0
1094.947	49.13062
1095.296	20.04962
1095.645	64.16591
1095.994	68.16263
1096.343	46.11574
1096.692	40.10516
1097.041	26.0706
1097.39	64.15999
1097.739	20.05221
1098.088	58.15505
1098.437	26.06852
1098.785	71.19059
1099.134	60.15891
1099.482	85.23227
1099.83	47.12346
1100.179	63.1638
1100.527	38.10108
1100.875	-2.00533
1101.223	63.16677
1101.571	18.04995
1101.919	55.14344
1102.267	54.1518
1102.615	-2.00643
1102.962	7.02255
1103.31	2.00643
1103.658	14.04508
