Data from N2 R10 sample 1_Subt2__2__13-28-44-249.txt Node

Date: Mon Sep 01 13:28:44 PDT 2025
User: uwsun
Spectrometer: HDX01956
Trigger mode: 0
Integration Time (sec): 5.000000E-1
Scans to average: 1
Nonlinearity correction enabled: true
Boxcar width: 0
Storing dark spectrum: false
XAxis mode: Wavelengths
Number of Pixels in Spectrum: 2068
>>>>>Begin Spectral Data<<<<<
194.03	81.22451
194.578	90.28145
195.127	83.25591
195.676	88.272
196.225	183.47054
196.773	131.35163
197.321	180.4687
197.87	268.63036
198.418	218.51077
198.966	211.49814
199.513	187.42173
200.061	204.46654
200.609	266.63733
201.156	225.43762
201.704	205.46591
202.251	244.58151
202.798	243.56767
203.345	268.59437
203.892	237.53644
204.438	259.55418
204.985	179.38135
205.532	228.54067
206.078	243.535
206.624	228.50166
207.17	273.56364
207.716	231.50175
208.262	242.42423
208.808	213.46856
209.354	233.50696
209.899	292.66079
210.445	206.45992
210.99	231.49705
211.535	289.60311
212.08	225.47059
212.625	264.59183
213.17	297.67032
213.715	186.36979
214.259	247.51546
214.804	282.62281
215.348	260.5309
215.892	293.62394
216.436	271.56152
216.98	291.57166
217.524	246.52033
218.068	259.58624
218.612	251.56975
219.155	249.52494
219.698	209.45087
220.242	261.58715
220.785	198.42064
221.328	224.5063
221.871	209.48441
222.414	263.59117
222.956	174.38141
223.499	227.46067
224.041	241.50852
224.583	275.53309
225.126	205.40956
225.668	186.41201
226.21	204.46636
226.751	184.36411
227.293	217.44984
227.835	176.39213
228.376	245.51129
228.918	247.56499
229.459	204.46016
230	192.41571
230.541	241.50048
231.082	211.46338
231.622	230.47881
232.163	189.41595
232.704	225.50327
233.244	207.46549
233.784	220.49036
234.324	227.44383
234.864	216.44146
235.404	228.49049
235.944	235.50283
236.484	241.5435
237.023	254.53631
237.563	188.39312
238.102	236.50114
238.641	230.52515
239.18	196.41257
239.719	251.56605
240.258	259.51961
240.797	230.4933
241.335	266.58281
241.874	250.42398
242.412	227.48949
242.95	197.42316
243.488	225.46079
244.026	203.42044
244.564	255.4648
245.102	230.46068
245.64	234.50773
246.177	182.36893
246.715	265.568
247.252	249.51086
247.789	252.42182
248.326	240.51164
248.863	221.43148
249.4	264.53221
249.936	214.39214
250.473	223.46393
251.009	229.46622
251.546	224.43931
252.082	262.5068
252.618	313.60647
253.154	226.48368
253.69	195.39374
254.226	197.42189
254.761	250.49657
255.297	212.41263
255.832	225.47393
256.367	260.5415
256.903	202.39523
257.438	246.51349
257.972	186.37117
258.507	190.38744
259.042	184.35745
259.576	231.43581
260.111	288.5846
260.645	286.54103
261.179	241.49601
261.713	232.45522
262.247	279.56439
262.781	198.36704
263.315	253.54579
263.849	258.56886
264.382	280.56447
264.915	206.42732
265.449	252.53558
265.982	263.52568
266.515	266.56928
267.048	208.38788
267.58	222.43025
268.113	258.48472
268.646	220.4804
269.178	191.37699
269.71	227.43646
270.243	273.54466
270.775	234.5261
271.307	269.56935
271.838	283.59006
272.37	253.54649
272.902	250.49842
273.433	225.43116
273.965	245.52377
274.496	237.52114
275.027	224.48997
275.558	220.46982
276.089	208.44785
276.62	242.54408
277.15	282.60795
277.681	264.49843
278.211	302.64324
278.741	240.45757
279.272	251.49657
279.802	311.67176
280.332	190.39413
280.861	251.5266
281.391	281.54707
281.921	270.56608
282.45	268.58422
282.98	247.56453
283.509	281.54238
284.038	252.49633
284.567	328.65545
285.096	254.53278
285.625	263.513
286.153	218.44372
286.682	285.55618
287.21	230.47988
287.739	218.44736
288.267	238.49745
288.795	267.61073
289.323	252.50334
289.851	293.58483
290.378	237.45701
290.906	174.36611
291.433	286.60996
291.961	232.4492
292.488	277.59013
293.015	229.46112
293.542	252.54585
294.069	240.50497
294.596	302.63569
295.122	302.60742
295.649	278.5174
296.175	299.61427
296.702	249.5171
297.228	307.63099
297.754	288.54161
298.28	329.61766
298.806	232.47416
299.332	224.41731
299.857	322.5999
300.383	299.64031
300.908	268.54276
301.433	243.49743
301.958	344.65745
302.483	268.56015
303.008	316.65227
303.533	330.71966
304.058	333.64954
304.582	301.58489
305.107	243.53343
305.631	322.60526
306.155	268.51517
306.679	314.59779
307.203	295.56065
307.727	297.57932
308.251	288.58887
308.775	285.55036
309.298	227.44867
309.822	308.63862
310.345	316.60745
310.868	314.60768
311.391	337.67359
311.914	301.61308
312.437	312.57549
312.96	328.61745
313.482	303.57698
314.005	349.70146
314.527	273.58464
315.049	354.71824
315.571	349.60011
316.093	355.69509
316.615	353.6673
317.137	362.60666
317.659	424.79977
318.18	328.62657
318.702	371.66496
319.223	366.56687
319.744	373.63521
320.265	345.64291
320.786	311.5951
321.307	411.77581
321.828	381.64744
322.348	353.62911
322.869	345.61135
323.389	374.42566
323.909	406.68863
324.43	439.78971
324.95	419.69588
325.47	394.7122
325.989	401.68549
326.509	358.5636
327.029	387.61969
327.548	390.61863
328.067	416.71057
328.587	432.77213
329.106	441.69455
329.625	484.92057
330.144	418.66726
330.662	416.66179
331.181	462.73586
331.7	484.76299
332.218	448.64049
332.736	464.72805
333.255	413.64629
333.773	454.71483
334.291	498.83607
334.808	433.62428
335.326	487.70091
335.844	496.72125
336.361	443.72927
336.879	420.62086
337.396	508.76165
337.913	505.706
338.43	552.7322
338.947	452.66535
339.464	481.59689
339.981	442.63508
340.497	510.76511
341.014	497.72337
341.53	494.63632
342.046	510.73337
342.562	499.7425
343.078	474.64418
343.594	522.71044
344.11	549.7304
344.626	561.7995
345.141	570.69137
345.657	583.70641
346.172	570.7445
346.687	483.59641
347.202	587.66643
347.717	538.6822
348.232	587.78211
348.747	665.74445
349.261	546.56396
349.776	609.70887
350.29	551.68539
350.805	694.85017
351.319	643.71364
351.833	565.59684
352.347	601.66996
352.861	721.74472
353.374	707.73377
353.888	631.7182
354.401	604.62768
354.915	675.62462
355.428	619.70877
355.941	670.661
356.454	760.69727
356.967	651.67095
357.48	691.66248
357.993	688.73762
358.505	699.71832
359.018	764.76397
359.53	790.73875
360.042	761.62334
360.554	701.69147
361.066	676.66355
361.578	697.54584
362.09	709.65395
362.602	719.54889
363.113	822.65634
363.625	684.53804
364.136	828.57671
364.647	701.53335
365.158	778.59968
365.669	822.65568
366.18	742.58765
366.691	795.52044
367.201	758.59257
367.712	753.51004
368.222	758.50906
368.733	686.39988
369.243	846.45249
369.753	910.53098
370.263	894.5573
370.773	804.55788
371.282	844.48789
371.792	840.37164
372.301	936.46408
372.811	944.57838
373.32	847.23003
373.829	851.32059
374.338	1025.21964
374.847	973.22064
375.356	1051.21238
375.865	981.02004
376.373	1110.02608
376.882	1180.17158
377.39	1151.05325
377.898	1019.99639
378.407	1120.81699
378.915	1322.65502
379.423	1213.73275
379.93	1339.58077
380.438	1317.55475
380.946	1442.40249
381.453	1470.3391
381.96	1408.30586
382.468	1427.23692
382.975	1772.06358
383.482	1955.01061
383.989	1671.10875
384.495	1754.13161
385.002	1833.3324
385.509	1939.33827
386.015	2058.89376
386.521	2221.99108
387.028	2251.40537
387.534	2230.80313
388.04	2539.06836
388.546	2353.84838
389.051	2282.66805
389.557	2602.3742
390.063	3267.10357
390.568	3254.41722
391.073	2983.17739
391.578	3244.17301
392.084	3207.44084
392.589	2960.83678
393.093	2806.67854
393.598	3645.68915
394.103	3795.38056
394.607	4267.66416
395.112	4923.11015
395.616	5035.15316
396.12	4973.20808
396.624	5328.18619
397.128	6197.79445
397.632	7289.43284
398.136	7703.03329
398.639	6648.42498
399.143	6380.33197
399.646	7259.61511
400.15	8043.17039
400.653	8035.37963
401.156	8035.6628
401.659	3922.14904
402.162	839.93606
402.664	0
403.167	0
403.67	0
404.172	0
404.674	0
405.176	0
405.678	0
406.18	0
406.682	0
407.184	0
407.686	0
408.187	0
408.688	0
409.19	0
409.691	0
410.192	0
410.693	0
411.194	435.30976
411.694	4082.94878
412.195	8864.71461
412.696	12089.80453
413.196	12760.96929
413.696	12863.67595
414.196	13703.56671
414.696	17261.84252
415.196	21764.24417
415.696	29583.19008
416.196	24920.64752
416.695	16580.54568
417.195	12313.72892
417.694	11791.88134
418.194	11582.86341
418.693	10302.14488
419.192	9946.21178
419.691	9939.37639
420.19	9938.46607
420.688	9903.08448
421.187	9571.30745
421.685	9456.88688
422.184	8746.15632
422.682	7524.36365
423.18	5830.00307
423.678	4837.51327
424.176	4443.01146
424.674	4276.22679
425.172	4217.36187
425.669	4155.13423
426.167	4062.03604
426.664	3471.24232
427.161	3156.742
427.659	2912.64178
428.156	2568.52274
428.652	2483.95797
429.149	2432.92729
429.646	2340.92188
430.143	2306.84423
430.639	2000.97715
431.135	1956.06498
431.632	1863.11819
432.128	1600.37292
432.624	1423.57577
433.12	1371.48185
433.616	1385.4948
434.111	1164.6905
434.607	1104.79868
435.103	1299.68008
435.598	1203.75095
436.093	1219.96297
436.588	1177.00105
437.083	1054.09892
437.578	1051.17283
438.073	822.27284
438.568	956.36341
439.062	935.20117
439.557	871.37675
440.051	739.31357
440.546	676.31562
441.04	704.39887
441.534	680.48207
442.028	783.48369
442.522	656.43731
443.015	704.37319
443.509	634.48373
444.002	602.46924
444.496	616.37729
444.989	558.46485
445.482	531.46628
445.975	494.35602
446.468	557.35855
446.961	566.36766
447.454	532.40928
447.947	447.38679
448.439	475.44951
448.931	453.36478
449.424	480.50008
449.916	520.49723
450.408	430.36659
450.9	395.39681
451.392	361.40167
451.884	363.35363
452.375	300.33515
452.867	375.36848
453.358	352.33774
453.849	353.30961
454.341	336.33222
454.832	333.30687
455.323	259.304
455.814	353.37341
456.304	295.32335
456.795	389.40923
457.285	296.32127
457.776	344.38762
458.266	279.3321
458.756	233.2951
459.247	237.29058
459.737	217.27024
460.226	228.26275
460.716	281.35345
461.206	191.2539
461.695	246.34781
462.185	215.28218
462.674	272.3432
463.163	297.35329
463.653	268.29937
464.142	180.25238
464.63	236.33919
465.119	217.28809
465.608	145.19804
466.096	176.22607
466.585	229.3171
467.073	169.25211
467.561	225.33343
468.05	240.34105
468.538	192.30029
469.026	172.26244
469.513	112.14763
470.001	167.23903
470.489	149.22741
470.976	185.27515
471.463	131.22041
471.951	112.19272
472.438	66.10563
472.925	105.16532
473.412	151.25712
473.899	153.23978
474.385	144.24712
474.872	142.22766
475.359	103.17813
475.845	118.16724
476.331	123.18862
476.817	91.16174
477.303	102.17072
477.789	86.15194
478.275	32.05932
478.761	129.22833
479.247	92.15221
479.732	44.0825
480.218	15.03018
480.703	27.05159
481.188	76.12129
481.673	74.12801
482.158	-6.00962
482.643	77.15305
483.128	22.0386
483.612	59.10672
484.097	44.08519
484.581	81.14696
485.066	-18.03497
485.55	24.04112
486.034	-25.04296
486.518	12.02233
487.002	-24.04729
487.486	10.01965
487.969	-38.07565
488.453	-20.04162
488.936	-25.04587
489.42	14.02514
489.903	8.01668
490.386	-457.69236
490.869	29.05162
491.352	43.0873
491.835	2.0034
492.318	-41.07705
492.8	-11.0188
493.283	-17.03622
493.765	-22.04545
494.247	8.01576
494.73	-23.04271
495.212	40.08145
495.694	-48.09485
496.175	-98.19802
496.657	15.03007
497.139	82.11725
497.62	-118.24095
498.102	-85.18204
498.583	-36.07775
499.064	-103.19814
499.545	-59.11601
500.026	-20.03817
500.507	-33.06587
500.988	-13.02782
501.469	-85.18526
501.949	-79.17138
502.43	-149.3115
502.91	-92.16518
503.39	-54.11857
503.87	-91.18679
504.35	-64.13282
504.83	-113.21769
505.31	-84.17853
505.79	-125.26434
506.269	-55.11279
506.749	-120.24214
507.228	-122.25342
507.707	-93.18157
508.187	-63.13311
508.666	-83.17944
509.145	-117.24243
509.623	-117.24449
510.102	-104.22451
510.581	-58.12429
511.059	-107.23825
511.538	-100.23183
512.016	-70.14839
512.494	-70.15124
512.972	-80.16981
513.45	-139.28686
513.928	-129.28056
514.406	-155.33381
514.884	-80.18326
515.361	-123.26478
515.839	-108.22013
516.316	-46.09794
516.793	-80.18179
517.27	-86.18764
517.747	-111.25616
518.224	-92.19144
518.701	-74.14733
519.178	-97.215
519.654	-30.06365
520.131	-120.26847
520.607	-97.21778
521.083	-133.27571
521.56	-98.20874
522.036	-76.15011
522.512	-81.18081
522.987	-111.2372
523.463	-76.16237
523.939	-70.15487
524.414	-63.13118
524.89	-86.18446
525.365	-84.1716
525.84	-155.33496
526.315	-100.218
526.79	-71.14435
527.265	-96.19852
527.74	-76.16716
528.215	-83.17706
528.689	-97.19469
529.164	-72.14161
529.638	-56.13019
530.112	-126.27071
530.587	-77.14784
531.061	-130.28604
531.534	-54.11847
532.008	-73.15857
532.482	-129.27244
532.956	-133.30974
533.429	-78.17177
533.903	-49.09812
534.376	-96.19362
534.849	-41.08579
535.322	-76.16315
535.795	-114.25568
536.268	-87.19042
536.741	-76.16645
537.213	-7.01453
537.686	-64.14106
538.158	-108.22053
538.631	-30.06607
539.103	-93.18968
539.575	-22.04137
540.047	-30.0595
540.519	-29.06275
540.991	-53.11816
541.463	-41.08997
541.934	-33.0682
542.406	-15.0321
542.877	1.00202
543.348	-21.04585
543.82	-13.0288
544.291	54.11222
544.762	-6.01274
545.233	55.12201
545.703	52.10131
546.174	51.10497
546.645	-3.00636
547.115	54.11472
547.585	101.20272
548.056	18.03822
548.526	93.18934
548.996	151.31274
549.466	231.47907
549.935	160.32151
550.405	195.35832
550.875	174.34916
551.344	221.44624
551.814	276.52467
552.283	329.58299
552.752	332.62498
553.221	284.50049
553.69	361.64204
554.159	349.69175
554.628	375.66417
555.096	442.89063
555.565	463.80601
556.033	547.00167
556.502	559.05619
556.97	547.94175
557.438	545.0166
557.906	664.21306
558.374	628.1142
558.842	662.2216
559.31	698.18809
559.777	719.32468
560.245	786.39379
560.712	872.48594
561.18	914.44532
561.647	916.47428
562.114	1017.62689
562.581	1061.86391
563.048	1119.78375
563.514	1129.92909
563.981	1242.89524
564.448	1237.83814
564.914	1384.07801
565.381	1466.08624
565.847	1473.17553
566.313	1533.20523
566.779	1581.14131
567.245	1689.33162
567.711	1736.44113
568.176	1736.21068
568.642	1838.67296
569.108	1897.63441
569.573	2102.58224
570.038	2088.13706
570.504	2129.35863
570.969	2215.87862
571.434	2234.29104
571.899	2338.66719
572.363	2445.4905
572.828	2477.53142
573.293	2499.52706
573.757	2497.53097
574.222	2634.38062
574.686	2630.39535
575.15	2690.68263
575.614	2754.51127
576.078	2765.61739
576.542	2771.48598
577.006	2755.43124
577.469	2874.93178
577.933	2720.38527
578.396	2815.70305
578.86	2730.6604
579.323	2685.69775
579.786	2729.24685
580.249	2613.48322
580.712	2607.84878
581.175	2512.87037
581.637	2537.57655
582.1	2553.36432
582.563	2475.27808
583.025	2321.74909
583.487	2418.00859
583.95	2202.2167
584.412	2273.1715
584.874	2145.70747
585.336	2130.60151
585.797	2030.22148
586.259	2029.56526
586.721	1986.50505
587.182	1889.47983
587.643	1867.34695
588.105	1798.45258
588.566	1752.04939
589.027	1759.47325
589.488	1663.24552
589.949	1637.42806
590.41	1571.72833
590.87	1590.21173
591.331	1516.99747
591.791	1448.11435
592.252	1365.01079
592.712	1401.19992
593.172	1322.94479
593.632	1389.94605
594.092	1306.91055
594.552	1221.7498
595.011	1184.85099
595.471	1224.84229
595.931	1169.77735
596.39	1137.90344
596.849	1080.77766
597.308	1109.66663
597.768	1010.88203
598.227	1119.90582
598.685	1102.786
599.144	1075.7826
599.603	1063.79944
600.062	1045.52301
600.52	1045.64159
600.978	1052.78699
601.437	993.64523
601.895	1000.49971
602.353	1041.6381
602.811	998.58505
603.269	970.7005
603.727	1003.74245
604.184	955.55509
604.642	1057.86073
605.099	1034.71483
605.557	1075.87579
606.014	1031.55341
606.471	960.75868
606.928	1066.56957
607.385	1041.80105
607.842	1116.76934
608.299	1166.87437
608.755	1135.91145
609.212	1141.72836
609.668	1050.61579
610.125	1130.91999
610.581	1252.03952
611.037	1190.87977
611.493	1091.84502
611.949	1098.87944
612.405	1180.56764
612.861	1168.93484
613.316	1160.94263
613.772	1125.81885
614.227	1050.78742
614.683	1151.70639
615.138	1100.83174
615.593	1065.77856
616.048	1098.79644
616.503	1110.97819
616.958	1031.90845
617.412	1025.77797
617.867	1021.62684
618.321	991.48748
618.776	1051.68152
619.23	1024.77015
619.684	1030.70817
620.138	988.71858
620.592	913.69969
621.046	949.691
621.5	943.74785
621.954	940.60647
622.407	949.59632
622.861	847.61405
623.314	919.6037
623.768	856.55597
624.221	825.24993
624.674	794.45181
625.127	814.51019
625.58	830.50022
626.033	897.53892
626.485	740.43612
626.938	764.47291
627.39	782.4644
627.843	731.38052
628.295	718.3609
628.747	747.45145
629.199	714.33289
629.651	680.27933
630.103	715.34827
630.555	633.12106
631.006	705.37428
631.458	697.37024
631.909	731.39468
632.361	652.28556
632.812	620.2172
633.263	663.19993
633.714	665.19744
634.165	617.28626
634.616	558.15458
635.067	599.14575
635.518	625.28334
635.968	587.01298
636.419	592.11129
636.869	586.21369
637.319	560.13027
637.769	574.11507
638.219	566.18789
638.669	522.1007
639.119	592.26384
639.569	525.1223
640.019	563.14492
640.468	496.98887
640.918	558.18858
641.367	493.98952
641.816	520.03305
642.265	524.07782
642.714	521.07332
643.163	537.09592
643.612	487.04722
644.061	522.97886
644.51	445.91956
644.958	512.00245
645.406	562.19037
645.855	505.11345
646.303	569.17922
646.751	515.04618
647.199	525.06605
647.647	534.09497
648.095	463.96276
648.543	525.96095
648.99	476.02901
649.438	565.18292
649.885	532.18311
650.333	485.84611
650.78	512.11358
651.227	490.07919
651.674	526.07416
652.121	510.1205
652.568	476.05049
653.015	566.28378
653.461	501.07692
653.908	556.15814
654.354	557.19184
654.801	501.06212
655.247	568.11074
655.693	485.15501
656.139	523.13248
656.585	576.23495
657.031	520.09167
657.477	510.99411
657.922	522.08383
658.368	515.15495
658.813	551.15509
659.259	539.16669
659.704	549.14987
660.149	549.15089
660.594	543.16334
661.039	541.1106
661.484	535.1595
661.929	506.07811
662.373	504.16052
662.818	533.20076
663.262	531.15913
663.707	529.22084
664.151	506.13032
664.595	490.08235
665.039	496.13299
665.483	535.24106
665.927	567.20595
666.371	493.04149
666.814	556.2038
667.258	493.06696
667.701	589.14073
668.145	590.32691
668.588	527.1819
669.031	549.16862
669.474	518.14144
669.917	532.07316
670.36	593.32794
670.803	561.23092
671.245	561.06723
671.688	586.2942
672.13	523.06875
672.573	547.27144
673.015	557.217
673.457	517.02875
673.899	529.17472
674.341	534.17921
674.783	555.21058
675.225	533.20027
675.666	494.09302
676.108	536.06143
676.549	513.11836
676.991	499.01224
677.432	530.96057
677.873	574.20523
678.314	550.1994
678.755	536.19497
679.196	534.11816
679.637	556.24269
680.078	537.15245
680.518	589.24575
680.959	482.07041
681.399	557.26257
681.839	548.22126
682.28	541.22328
682.72	524.10009
683.16	539.2316
683.6	571.18548
684.039	542.02926
684.479	534.20326
684.919	497.05546
685.358	589.36217
685.798	534.28959
686.237	538.19597
686.676	612.28401
687.115	553.18837
687.554	534.16446
687.993	512.04315
688.432	526.10429
688.871	504.0543
689.309	533.16939
689.748	546.04191
690.186	552.20886
690.625	539.15824
691.063	492.09356
691.501	599.3458
691.939	548.25395
692.377	498.12523
692.815	543.19037
693.253	555.22335
693.69	531.06991
694.128	499.11855
694.565	578.25629
695.003	524.2282
695.44	569.21913
695.877	533.14238
696.314	596.15844
696.751	536.12384
697.188	524.10686
697.625	604.25717
698.061	568.24394
698.498	576.27315
698.934	596.30425
699.371	516.11944
699.807	548.18847
700.243	531.17575
700.679	563.16364
701.115	569.2249
701.551	583.25025
701.987	606.23223
702.422	530.15768
702.858	564.2279
703.294	597.22521
703.729	581.2973
704.164	573.25887
704.599	616.23552
705.035	516.06229
705.47	537.20041
705.904	528.13091
706.339	638.33628
706.774	561.20042
707.209	567.1913
707.643	572.2543
708.078	574.27611
708.512	553.26819
708.946	569.24692
709.38	522.14066
709.814	537.12718
710.248	529.18882
710.682	552.20225
711.116	535.17083
711.549	528.25973
711.983	524.11411
712.416	571.2329
712.85	549.258
713.283	579.24806
713.716	533.23642
714.149	551.20539
714.582	576.17539
715.015	543.25269
715.448	545.26479
715.881	583.15764
716.313	501.08615
716.746	530.14693
717.178	504.12121
717.61	543.26858
718.043	539.23753
718.475	506.13543
718.907	585.35452
719.339	524.09041
719.77	484.06417
720.202	560.29939
720.634	508.14226
721.065	509.11478
721.497	509.15456
721.928	493.12273
722.359	447.00713
722.79	497.10127
723.221	502.1729
723.652	543.29284
724.083	483.00918
724.514	472.00859
724.945	459.00636
725.375	491.05357
725.806	463.081
726.236	515.22281
726.666	497.08983
727.096	463.06109
727.526	473.12036
727.956	426.90968
728.386	488.11692
728.816	440.04427
729.246	419.95948
729.675	415.96366
730.105	422.9801
730.534	446.97794
730.964	440.04507
731.393	497.14734
731.822	429.0312
732.251	404.97119
732.68	452.99818
733.109	444.02499
733.537	379.86965
733.966	419.98177
734.395	408.88936
734.823	410.87325
735.251	359.82509
735.68	403.95683
736.108	425.01228
736.536	394.88067
736.964	389.85532
737.392	364.86909
737.82	367.83942
738.247	368.83985
738.675	471.04876
739.102	341.81559
739.53	326.79709
739.957	379.92749
740.384	419.9764
740.811	365.88295
741.238	342.79905
741.665	290.64985
742.092	328.7525
742.519	306.72952
742.945	317.73207
743.372	349.82611
743.798	333.8216
744.225	329.75041
744.651	300.72671
745.077	312.74923
745.503	321.75309
745.929	304.70331
746.355	332.79331
746.781	263.63363
747.207	288.65253
747.632	247.58629
748.058	238.58002
748.483	268.59932
748.908	247.59824
749.334	247.59148
749.759	275.62852
750.184	212.49536
750.609	248.59421
751.033	266.6115
751.458	292.63329
751.883	300.71769
752.307	232.53377
752.732	193.47396
753.156	245.58982
753.58	252.58326
754.005	258.63718
754.429	177.41106
754.853	192.4681
755.277	212.49244
755.7	193.47133
756.124	175.42864
756.548	227.52613
756.971	200.48031
757.394	206.52088
757.818	188.47622
758.241	159.39925
758.664	194.48178
759.087	174.38382
759.51	191.468
759.933	149.35573
760.356	205.51585
760.778	171.41543
761.201	231.54937
761.623	207.49343
762.046	201.46938
762.468	213.50228
762.89	176.42909
763.312	214.51237
763.734	141.33741
764.156	150.36735
764.578	184.41793
765	187.44952
765.421	140.35262
765.843	160.41477
766.264	213.50481
766.686	174.43148
767.107	145.34883
767.528	52.13224
767.949	135.34106
768.37	123.30084
768.791	146.35077
769.212	102.25581
769.632	65.15269
770.053	108.28354
770.473	159.3828
770.894	143.35546
771.314	167.39473
771.734	132.30626
772.154	146.37154
772.575	163.37406
772.994	65.14899
773.414	128.30624
773.834	78.19569
774.254	101.24721
774.673	144.34807
775.093	91.22538
775.512	78.19279
775.931	97.24576
776.351	90.22368
776.77	85.20821
777.189	86.20521
777.607	115.2924
778.026	105.261
778.445	51.12848
778.864	128.3262
779.282	117.28051
779.701	83.20954
780.119	71.17995
780.537	58.14557
780.955	117.29633
781.373	84.20808
781.791	110.24671
782.209	151.34472
782.627	71.18738
783.045	100.22999
783.462	91.23228
783.88	67.17378
784.297	61.15417
784.715	58.14953
785.132	96.23222
785.549	72.18057
785.966	76.19149
786.383	78.19223
786.8	99.22983
787.217	98.23205
787.633	64.16028
788.05	134.31606
788.466	64.15189
788.883	86.21909
789.299	94.22618
789.715	68.16592
790.131	66.16469
790.547	108.26861
790.963	54.13479
791.379	87.21972
791.795	98.2235
792.21	120.27897
792.626	65.15495
793.041	50.12418
793.457	122.29944
793.872	86.20229
794.287	57.13671
794.702	73.18027
795.117	38.09513
795.532	37.09341
795.947	85.20472
796.362	117.27794
796.776	133.30913
797.191	92.22481
797.605	7.01667
798.02	70.17073
798.434	53.11899
798.848	68.16783
799.262	77.19106
799.676	125.30265
800.09	57.14086
800.504	64.15586
800.918	90.20832
801.331	110.28673
801.745	54.12484
802.158	55.13806
802.572	74.17981
802.985	91.21967
803.398	91.21668
803.811	94.24099
804.224	108.26743
804.637	88.20934
805.05	105.24241
805.462	65.16016
805.875	71.18403
806.288	40.09716
806.7	47.11874
807.112	55.12824
807.525	101.24822
807.937	53.13155
808.349	66.16564
808.761	83.20399
809.173	56.13628
809.584	85.20983
809.996	60.14732
810.408	39.10119
810.819	83.19505
811.231	28.07286
811.642	40.09599
812.053	142.33337
812.464	208.482
812.875	151.38053
813.286	105.26867
813.697	140.32366
814.108	74.18089
814.519	97.21554
814.929	125.31591
815.34	63.15317
815.75	73.18542
816.16	58.14499
816.571	83.21513
816.981	70.16556
817.391	103.24742
817.801	43.10736
818.211	93.22102
818.62	65.15673
819.03	73.17894
819.44	94.24452
819.849	54.1365
820.259	64.16402
820.668	9.02239
821.077	48.11969
821.486	95.22794
821.895	114.2796
822.304	73.19324
822.713	71.16795
823.122	60.15004
823.531	52.12379
823.939	68.16579
824.348	101.24427
824.756	37.09324
825.164	95.23804
825.573	67.16818
825.981	105.25881
826.389	99.24743
826.797	68.17036
827.205	54.1244
827.612	104.25508
828.02	48.11322
828.428	104.26317
828.835	44.11622
829.243	73.17395
829.65	41.10244
830.057	66.16032
830.464	107.25888
830.871	57.13687
831.278	84.20251
831.685	65.14533
832.092	30.07399
832.499	94.20475
832.905	100.25169
833.312	87.19789
833.718	42.10514
834.124	64.14649
834.531	91.22843
834.937	117.29759
835.343	53.12828
835.749	105.24366
836.155	66.17275
836.561	75.18419
836.966	92.22397
837.372	105.26537
837.777	74.18405
838.183	48.10726
838.588	97.23945
838.993	60.14629
839.399	37.09093
839.804	-7.01729
840.209	76.193
840.613	50.11168
841.018	91.22933
841.423	97.24733
841.828	64.16184
842.232	83.20496
842.637	68.16039
843.041	44.11312
843.445	48.12073
843.849	60.14863
844.253	95.22455
844.657	64.16109
845.061	73.16544
845.465	56.13546
845.869	65.15108
846.272	49.11962
846.676	113.27082
847.079	78.19773
847.483	81.20142
847.886	89.21557
848.289	36.09643
848.692	69.17451
849.095	49.11802
849.498	129.32311
849.901	55.12642
850.304	89.21167
850.707	78.19829
851.109	106.26613
851.512	60.14749
851.914	17.04316
852.316	83.20909
852.718	23.05974
853.121	70.17124
853.523	78.18176
853.925	15.03941
854.326	17.04283
854.728	84.21505
855.13	34.08805
855.531	91.21618
855.933	78.18669
856.334	48.1199
856.736	24.05418
857.137	25.05854
857.538	60.1508
857.939	28.06956
858.34	83.20142
858.741	74.1929
859.142	73.17495
859.542	57.15038
859.943	30.07494
860.343	39.09691
860.744	65.15845
861.144	84.20396
861.544	40.09647
861.945	32.08193
862.345	58.14189
862.745	63.15643
863.145	106.25118
863.544	67.16903
863.944	35.08308
864.344	95.23442
864.743	119.29203
865.143	48.12349
865.542	36.08389
865.941	29.07217
866.34	78.18619
866.74	96.25595
867.139	33.07939
867.537	82.20802
867.936	45.10859
868.335	67.17018
868.734	49.12538
869.132	72.16685
869.531	56.13552
869.929	11.02531
870.327	72.17213
870.726	80.19868
871.124	83.19307
871.522	87.22043
871.92	73.17954
872.318	81.19716
872.715	111.27209
873.113	63.15334
873.511	67.16661
873.908	14.0356
874.306	47.11709
874.703	56.14014
875.1	68.1736
875.497	72.17213
875.894	26.06405
876.291	79.19308
876.688	50.12908
877.085	38.09151
877.482	49.12282
877.878	42.10137
878.275	37.09431
878.671	112.24664
879.068	95.22768
879.464	88.21143
879.86	27.06422
880.256	79.19415
880.652	28.07156
881.048	92.22648
881.444	62.14743
881.84	35.08928
882.236	71.17803
882.631	70.17137
883.027	67.16192
883.422	54.1381
883.817	3.00761
884.213	62.1589
884.608	-4.00992
885.003	45.10871
885.398	49.12278
885.793	45.11316
886.188	29.07243
886.582	128.32413
886.977	93.21914
887.371	66.1666
887.766	7.01756
888.16	76.18895
888.554	88.21631
888.949	102.25396
889.343	116.28018
889.737	13.03487
890.131	65.16275
890.525	103.26115
890.918	32.08086
891.312	113.26741
891.706	54.14168
892.099	95.24001
892.492	89.19068
892.886	7.01728
893.279	80.20287
893.672	42.10715
894.065	78.19449
894.458	70.17556
894.851	96.23345
895.244	18.04626
895.637	99.23645
896.029	45.11023
896.422	46.11257
896.814	51.12687
897.206	16.03838
897.599	88.21631
897.991	25.06078
898.383	50.11826
898.775	75.16859
899.167	34.0796
899.559	80.20157
899.951	40.09457
900.342	86.21747
900.734	0
901.125	80.20896
901.517	78.1906
901.908	76.18148
902.299	33.08098
902.69	39.09229
903.082	88.21175
903.473	26.06259
903.863	22.05644
904.254	55.12763
904.645	64.15889
905.036	28.06811
905.426	100.22686
905.817	43.10572
906.207	42.10029
906.597	63.14707
906.987	62.16045
907.378	26.06607
907.768	41.10861
908.158	91.22033
908.547	52.13434
908.937	60.15377
909.327	73.17662
909.717	113.28385
910.106	-3.00728
910.495	41.10258
910.885	75.18921
911.274	48.12008
911.663	57.14457
912.052	99.24223
912.441	49.12468
912.83	41.09435
913.219	94.24427
913.608	85.20697
913.997	20.05043
914.385	40.09581
914.774	93.22475
915.162	25.05989
915.55	96.23038
915.939	40.10118
916.327	88.21823
916.715	35.08946
917.103	86.21038
917.491	83.20421
917.878	92.22456
918.266	58.15026
918.654	79.20087
919.041	63.16414
919.429	29.06876
919.816	89.22413
920.203	43.10447
920.591	52.12895
920.978	87.21168
921.365	53.13903
921.752	102.24086
922.139	54.11722
922.525	52.12489
922.912	61.14853
923.299	62.15381
923.685	29.07594
924.072	55.12678
924.458	82.20201
924.844	47.11641
925.231	58.13484
925.617	27.06897
926.003	42.10753
926.389	67.16855
926.774	54.13679
927.16	47.11683
927.546	14.03597
927.931	66.16427
928.317	64.14708
928.702	83.1952
929.088	27.06417
929.473	47.11967
929.858	-5.01222
930.243	54.12954
930.628	13.03186
931.013	56.13867
931.398	61.14004
931.783	81.21219
932.167	58.14162
932.552	81.20186
932.937	94.23149
933.321	29.07306
933.705	49.12357
934.09	91.22834
934.474	59.13995
934.858	70.18097
935.242	23.05361
935.626	30.07707
936.009	29.07741
936.393	54.13733
936.777	55.14074
937.16	81.20966
937.544	46.1085
937.927	34.08653
938.311	84.20381
938.694	67.17671
939.077	44.10547
939.46	101.24574
939.843	123.25258
940.226	37.09514
940.609	40.09203
940.991	53.13486
941.374	60.1464
941.757	79.19394
942.139	41.09228
942.522	69.16253
942.904	74.17711
943.286	80.20222
943.668	78.20109
944.05	75.18392
944.432	52.12829
944.814	87.21287
945.196	13.0319
945.578	6.01438
945.959	57.13343
946.341	114.27659
946.722	51.11971
947.104	22.05288
947.485	5.01174
947.866	82.20543
948.247	3.00763
948.628	93.22509
949.009	18.04636
949.39	64.15894
949.771	92.21227
950.152	41.1008
950.532	-6.01491
950.913	91.21784
951.293	30.08131
951.674	47.11376
952.054	25.06224
952.434	37.09207
952.814	73.17295
953.194	79.20575
953.574	77.18875
953.954	57.1352
954.334	26.06509
954.714	73.17715
955.093	102.24841
955.473	31.07779
955.853	81.20857
956.232	54.14791
956.611	51.12232
956.99	56.1406
957.37	43.10972
957.749	51.12167
958.128	57.14344
958.506	71.18352
958.885	86.21568
959.264	34.08358
959.643	28.06401
960.021	28.06967
960.4	38.08635
960.778	66.16212
961.156	37.09298
961.535	93.21496
961.913	23.05411
962.291	46.1181
962.669	41.10403
963.047	50.1276
963.424	88.22308
963.802	55.13512
964.18	131.3267
964.557	61.14021
964.935	51.12083
965.312	67.17396
965.69	99.24573
966.067	78.18897
966.444	80.19607
966.821	59.15187
967.198	118.28264
967.575	52.12782
967.952	57.13416
968.329	26.06356
968.705	82.17466
969.082	57.14601
969.458	0
969.835	46.11207
970.211	36.09262
970.587	79.19566
970.963	91.23179
971.339	42.10982
971.715	90.22311
972.091	80.19592
972.467	98.24232
972.843	31.0772
973.219	74.17691
973.594	42.11001
973.97	88.20797
974.345	54.12915
974.721	91.21868
975.096	65.15685
975.471	83.19566
975.846	76.18169
976.221	49.12446
976.596	42.10083
976.971	57.14055
977.346	103.23732
977.72	45.11474
978.095	88.22592
978.469	63.15001
978.844	97.24182
979.218	52.1246
979.593	90.21401
979.967	76.18426
980.341	83.18986
980.715	81.20296
981.089	78.19428
981.463	80.1826
981.837	77.18721
982.21	109.25074
982.584	92.22045
982.957	37.09261
983.331	95.22264
983.704	33.08134
984.078	56.13786
984.451	99.2451
984.824	38.09275
985.197	89.2146
985.57	85.21183
985.943	123.29972
986.316	92.22431
986.688	117.27859
987.061	58.13574
987.434	97.25072
987.806	82.19768
988.179	63.14828
988.551	92.23164
988.923	32.07907
989.295	80.19883
989.667	45.1076
990.039	68.16746
990.411	55.12647
990.783	53.12197
991.155	37.08912
991.527	108.26312
991.898	48.11964
992.27	5.01247
992.641	60.15026
993.012	105.24443
993.384	53.12634
993.755	55.14009
994.126	56.13454
994.497	74.18082
994.868	86.19613
995.239	34.08265
995.61	70.17549
995.98	46.11182
996.351	31.07703
996.722	53.12285
997.092	41.09725
997.462	22.05167
997.833	95.22325
998.203	83.19998
998.573	50.12449
998.943	44.1033
999.313	42.10079
999.683	56.13424
1000.053	65.14911
1000.423	66.15989
1000.792	70.18078
1001.162	29.07164
1001.531	65.15981
1001.901	68.16894
1002.27	95.21039
1002.639	31.07946
1003.009	93.21931
1003.378	65.16574
1003.747	40.09468
1004.116	46.11014
1004.485	46.11001
1004.853	69.1742
1005.222	90.22531
1005.591	58.13749
1005.959	7.01591
1006.328	25.05654
1006.696	54.13013
1007.064	51.12825
1007.433	69.17183
1007.801	97.23601
1008.169	54.13626
1008.537	55.12165
1008.905	48.11185
1009.273	73.17954
1009.64	30.07183
1010.008	59.14038
1010.375	121.28988
1010.743	132.29982
1011.11	48.11361
1011.478	54.13352
1011.845	126.29187
1012.212	57.12881
1012.579	46.11299
1012.946	98.23106
1013.313	86.20324
1013.68	106.23549
1014.047	27.06461
1014.414	58.13675
1014.78	59.14634
1015.147	76.18287
1015.513	25.06051
1015.88	92.23347
1016.246	118.28759
1016.612	60.13706
1016.978	71.17327
1017.344	59.14554
1017.71	77.18679
1018.076	42.09918
1018.442	94.23989
1018.808	72.1792
1019.174	42.10549
1019.539	148.33398
1019.905	52.12256
1020.27	18.04467
1020.636	78.18598
1021.001	78.18569
1021.366	67.16033
1021.731	63.1616
1022.096	27.06836
1022.461	47.11127
1022.826	64.15166
1023.191	56.14672
1023.556	91.21151
1023.92	95.23158
1024.285	55.13407
1024.649	55.13462
1025.014	107.26219
1025.378	50.12567
1025.742	86.2121
1026.107	88.19745
1026.471	95.21976
1026.835	55.13617
1027.199	12.02908
1027.562	85.19616
1027.926	104.25167
1028.29	74.18639
1028.654	57.13091
1029.017	63.15443
1029.381	52.12413
1029.744	55.14009
1030.107	80.18811
1030.471	53.12678
1030.834	77.17415
1031.197	98.23384
1031.56	98.22899
1031.923	71.18282
1032.286	90.20964
1032.648	68.16201
1033.011	49.11245
1033.374	54.12678
1033.736	-2.0053
1034.099	26.06363
1034.461	-10.02552
1034.823	55.13677
1035.185	65.1631
1035.548	63.15288
1035.91	69.16461
1036.272	41.09345
1036.634	80.19454
1036.995	47.11049
1037.357	53.12881
1037.719	53.12876
1038.08	67.15849
1038.442	42.0998
1038.803	57.13661
1039.165	52.13112
1039.526	42.1016
1039.887	43.10298
1040.248	32.07907
1040.609	99.24232
1040.97	47.11487
1041.331	69.17401
1041.692	32.07492
1042.053	46.10478
1042.413	74.17156
1042.774	65.15756
1043.134	110.25875
1043.495	63.15791
1043.855	49.11882
1044.215	54.13387
1044.576	48.11475
1044.936	105.23796
1045.296	94.2326
1045.656	54.13235
1046.016	78.18719
1046.375	62.14998
1046.735	39.08857
1047.095	28.06579
1047.454	88.18483
1047.814	51.12251
1048.173	110.25965
1048.533	46.10542
1048.892	8.01934
1049.251	115.28513
1049.61	53.13035
1049.969	66.15501
1050.328	46.09977
1050.687	58.14083
1051.046	45.10961
1051.405	68.16851
1051.763	27.06233
1052.122	64.15912
1052.48	79.19258
1052.839	63.14776
1053.197	79.18478
1053.555	110.24762
1053.914	55.13432
1054.272	62.14947
1054.63	60.14634
1054.988	57.13515
1055.345	70.15001
1055.703	98.23357
1056.061	78.19955
1056.419	29.0753
1056.776	91.21884
1057.134	40.09273
1057.491	74.18438
1057.848	82.20283
1058.206	14.03314
1058.563	79.17299
1058.92	52.11974
1059.277	80.19614
1059.634	134.30991
1059.991	88.20917
1060.348	56.12632
1060.704	71.16841
1061.061	130.29708
1061.418	29.07056
1061.774	51.1258
1062.131	49.12949
1062.487	43.10062
1062.843	64.15906
1063.199	48.11934
1063.555	54.12494
1063.911	71.17854
1064.267	112.23025
1064.623	54.13097
1064.979	92.21607
1065.335	77.18299
1065.691	81.19287
1066.046	88.19184
1066.402	88.19826
1066.757	53.13361
1067.112	57.13962
1067.468	36.08518
1067.823	91.21693
1068.178	75.18043
1068.533	91.21876
1068.888	74.1759
1069.243	24.05947
1069.598	48.11659
1069.952	20.04528
1070.307	37.09174
1070.662	29.06908
1071.016	21.0473
1071.371	42.09563
1071.725	69.16436
1072.079	74.17705
1072.434	32.07796
1072.788	96.22643
1073.142	128.31009
1073.496	61.1443
1073.85	57.13191
1074.203	96.23073
1074.557	46.12232
1074.911	123.28927
1075.265	70.16196
1075.618	112.27011
1075.971	83.19604
1076.325	82.20706
1076.678	61.13909
1077.031	34.07713
1077.385	96.20928
1077.738	45.10161
1078.091	-24.05535
1078.444	81.18678
1078.796	57.13957
1079.149	63.1562
1079.502	43.10164
1079.855	38.08876
1080.207	89.21752
1080.56	14.03638
1080.912	60.14569
1081.264	104.24768
1081.617	36.0879
1081.969	32.08092
1082.321	30.07347
1082.673	23.05274
1083.025	14.03342
1083.377	72.15369
1083.728	97.22403
1084.08	26.06514
1084.432	35.08459
1084.783	80.1862
1085.135	63.1574
1085.486	46.10525
1085.838	69.1692
1086.189	42.10202
1086.54	94.2224
1086.891	31.0786
1087.242	45.10957
1087.593	110.26458
1087.944	76.17095
1088.295	93.2094
1088.646	45.10908
1088.996	43.10364
1089.347	58.14199
1089.698	58.13675
1090.048	120.30765
1090.398	92.21142
1090.749	58.13845
1091.099	22.05555
1091.449	99.24421
1091.799	75.18677
1092.149	48.11699
1092.499	40.09767
1092.849	49.12446
1093.199	100.24817
1093.548	44.10575
1093.898	-7.01768
1094.248	89.22693
1094.597	11.02825
1094.947	65.17281
1095.296	28.06936
1095.645	81.20937
1095.994	35.08423
1096.343	66.16546
1096.692	31.08162
1097.041	44.11914
1097.39	121.29935
1097.739	100.25745
1098.088	118.31231
1098.437	37.09732
1098.785	65.17465
1099.134	88.23197
1099.482	47.12921
1099.83	70.18316
1100.179	47.12254
1100.527	74.19566
1100.875	37.09795
1101.223	54.14316
1101.571	58.15993
1101.919	20.05247
1102.267	44.12388
1102.615	9.02892
1102.962	19.06111
1103.31	-1.00322
1103.658	26.0836
