Data from N2 R10 sample 6_Subt2__0__13-19-31-262.txt Node

Date: Mon Sep 01 13:19:31 PDT 2025
User: uwsun
Spectrometer: HDX01956
Trigger mode: 0
Integration Time (sec): 5.000000E-1
Scans to average: 1
Nonlinearity correction enabled: true
Boxcar width: 0
Storing dark spectrum: false
XAxis mode: Wavelengths
Number of Pixels in Spectrum: 2068
>>>>>Begin Spectral Data<<<<<
194.03	201.54657
194.578	201.61968
195.127	198.60128
195.676	180.54968
196.225	268.67882
196.773	263.69052
197.321	383.96223
197.87	507.13465
198.418	511.12623
198.966	459.02916
199.513	415.89215
200.061	399.87656
200.609	466.07161
201.156	403.75064
201.704	443.95806
202.251	445.01732
202.798	443.99404
203.345	466.99077
203.892	408.89124
204.438	514.03726
204.985	436.87693
205.532	453.02525
206.078	451.9495
206.624	447.93818
207.17	486.95543
207.716	506.03278
208.262	481.79054
208.808	436.91409
209.354	460.95247
209.899	503.08725
210.445	456.9653
210.99	476.97017
211.535	545.07097
212.08	531.03359
212.625	539.13785
213.17	498.07574
213.715	445.83135
214.259	453.9021
214.804	579.1973
215.348	517.99412
215.892	483.986
216.436	543.05499
216.98	529.98099
217.524	488.97745
218.068	525.12181
218.612	517.10803
219.155	428.86679
219.698	456.93152
220.242	467.00413
220.785	492.97817
221.328	447.96423
221.871	501.09169
222.414	467.0037
222.956	428.8878
223.499	498.94813
224.041	422.85503
224.583	533.9697
225.126	440.83117
225.668	400.8464
226.21	423.9242
226.751	372.70374
227.293	517.99986
227.835	383.81663
228.376	410.82426
228.918	474.03254
229.459	407.87985
230	422.86871
230.541	416.83015
231.082	445.92904
231.622	434.86245
232.163	408.85652
232.704	438.93652
233.244	402.86774
233.784	418.89338
234.324	375.7075
234.864	421.82042
235.404	440.90332
235.944	466.9472
236.484	476.01979
237.023	417.84896
237.563	446.87927
238.102	438.88907
238.641	479.03661
239.18	379.76562
239.719	442.95774
240.258	475.90543
240.797	407.83953
241.335	471.98724
241.874	468.74713
242.412	426.87932
242.95	413.84579
243.488	393.77423
244.026	426.83826
244.564	477.82073
245.102	451.85717
245.64	431.89582
246.177	408.78432
246.715	486.9919
247.252	474.92306
247.789	501.78183
248.326	422.86402
248.863	463.85214
249.4	429.83204
249.936	418.72668
250.473	448.88529
251.009	465.89584
251.546	449.83384
252.082	410.76501
252.618	464.86664
253.154	443.90353
253.69	494.92908
254.226	435.88358
254.761	440.83524
255.297	437.80509
255.832	415.83758
256.367	401.80895
256.903	403.75101
257.438	507.99695
257.972	466.86952
258.507	438.8428
259.042	477.86205
259.576	439.78607
260.111	461.89881
260.645	495.88866
261.179	468.91397
261.713	456.84748
262.247	513.98215
262.781	426.74491
263.315	455.93896
263.849	447.94646
264.382	511.97548
264.915	483.93991
265.449	486.98019
265.982	510.96107
266.515	494.00322
267.048	412.72953
267.58	496.89846
268.113	486.86196
268.646	494.01417
269.178	467.8621
269.71	520.92948
270.243	527.98946
270.775	497.055
271.307	506.0136
271.838	510.00796
272.37	502.0246
272.902	483.91085
273.433	490.879
273.965	540.07885
274.496	479.99957
275.027	530.08235
275.558	513.02409
276.089	513.03026
276.62	551.15814
277.15	529.0781
277.681	495.88181
278.211	497.01185
278.741	483.86666
279.272	479.8971
279.802	539.10549
280.332	505.97385
280.861	495.98252
281.391	477.88541
281.921	551.08177
282.45	502.03805
282.98	520.12094
283.509	538.97457
284.038	539.99007
284.567	589.10429
285.096	543.06453
285.625	522.9557
286.153	466.89496
286.682	524.96469
287.21	532.03382
287.739	515.98598
288.267	512.0034
288.795	576.23336
289.323	495.93303
289.851	572.06628
290.378	558.99332
290.906	484.94881
291.433	577.15104
291.961	482.87755
292.488	563.12306
293.015	506.954
293.542	522.06357
294.069	543.06453
294.596	539.07361
295.122	563.06272
295.649	566.97839
296.175	553.06935
296.702	571.09895
297.228	589.13203
297.754	557.97845
298.28	565.99928
298.806	572.07737
299.332	576.97981
299.857	516.91519
300.383	569.14557
300.908	541.02561
301.433	583.10001
301.958	650.14914
302.483	541.0606
303.008	632.21045
303.533	618.26352
304.058	603.09945
304.582	557.01489
305.107	521.07477
305.631	634.09924
306.155	620.08972
306.679	638.11791
307.203	610.0693
307.727	665.18275
308.251	694.28716
308.775	627.11041
309.298	592.06872
309.822	625.2025
310.345	619.1019
310.868	701.23018
311.391	685.2575
311.914	683.26893
312.437	672.12711
312.96	690.18266
313.482	676.16976
314.005	675.25341
314.527	654.28346
315.049	722.34053
315.571	615.98291
316.093	749.32907
316.615	677.1774
317.137	696.05981
317.659	765.32171
318.18	771.31444
318.702	698.14532
319.223	758.04029
319.744	777.17975
320.265	713.20683
320.786	700.21268
321.307	787.34828
321.828	823.23278
322.348	830.29771
322.869	780.22634
323.389	884.81875
323.909	780.1896
324.43	838.35365
324.95	797.1865
325.47	808.30651
325.989	792.21227
326.509	848.14862
327.029	868.2021
327.548	879.20139
328.067	903.34259
328.587	901.41692
329.106	868.20055
329.625	918.56204
330.144	920.26143
330.662	914.24991
331.181	978.33192
331.7	928.27824
332.218	1001.18924
332.736	926.26148
333.255	991.29586
333.773	970.30376
334.291	1005.45717
334.808	1009.20058
335.326	1076.27227
335.844	1012.24241
336.361	994.39008
336.879	1047.25985
337.396	1017.29616
337.913	1037.21002
338.43	1152.23309
338.947	1130.32904
339.464	1092.07436
339.981	1129.28561
340.497	1118.37873
341.014	1186.37123
341.53	1051.10446
342.046	1160.34078
342.562	1219.4314
343.078	1201.25947
343.594	1208.28988
344.11	1228.27947
344.626	1211.38545
345.141	1207.14397
345.657	1304.19133
346.172	1225.26033
346.687	1226.13457
347.202	1319.10534
347.717	1317.24188
348.232	1377.37626
348.747	1345.13534
349.261	1251.9416
349.776	1337.1586
350.29	1284.2053
350.805	1481.33545
351.319	1366.118
351.833	1384.01296
352.347	1456.12493
352.861	1518.09412
353.374	1500.08987
353.888	1419.1634
354.401	1440.02315
354.915	1402.90687
355.428	1493.18476
355.941	1543.00345
356.454	1549.9585
356.967	1537.05332
357.48	1549.97718
357.993	1563.13726
358.505	1530.07595
359.018	1658.0886
359.53	1729.00828
360.042	1657.8181
360.554	1647.0293
361.066	1707.00833
361.578	1758.71658
362.09	1641.93973
362.602	1684.70954
363.113	1668.82224
363.625	1679.72417
364.136	1671.67387
364.647	1679.6961
365.158	1893.7234
365.669	1796.80923
366.18	1743.75872
366.691	1804.56858
367.201	1833.73948
367.712	1825.57466
368.222	1814.57113
368.733	1853.38338
369.243	1856.39749
369.753	1935.48882
370.263	1941.543
370.773	2043.57531
371.282	1998.421
371.792	2004.19523
372.301	2006.33623
372.811	2123.49941
373.32	1976.94009
373.829	2007.09442
374.338	2204.82494
374.847	2238.80208
375.356	2309.76273
375.865	2286.44509
376.373	2652.29653
376.882	2706.50919
377.39	2625.36783
377.898	2572.26117
378.407	2861.90345
378.915	3014.7574
379.423	3061.76175
379.93	3139.65749
380.438	3295.59023
380.946	3417.55573
381.453	3484.57107
381.96	3677.69236
382.468	3836.04596
382.975	4262.39166
383.482	4438.08497
383.989	4278.61636
384.495	4562.8797
385.002	4674.56802
385.509	4921.25032
386.015	5313.09382
386.521	5603.32091
387.028	5837.06895
387.534	5825.66752
388.04	6193.25815
388.546	6048.1373
389.051	6275.11574
389.557	6884.92839
390.063	7932.97373
390.568	7989.27259
391.073	8076.8844
391.578	8524.87542
392.084	8597.19814
392.589	8722.65244
393.093	8948.50235
393.598	10074.37534
394.103	11071.26302
394.607	12514.37417
395.112	13248.38389
395.616	14056.21975
396.12	14961.76166
396.624	16277.09321
397.128	17839.77443
397.632	20046.97421
398.136	21441.32655
398.639	21539.64942
399.143	22925.85173
399.646	26226.74572
400.15	24189.81669
400.653	19844.40819
401.156	13866.23708
401.659	5169.95759
402.162	1054.15589
402.664	0
403.167	0
403.67	0
404.172	0
404.674	0
405.176	0
405.678	0
406.18	0
406.682	0
407.184	0
407.686	0
408.187	0
408.688	0
409.19	0
409.691	0
410.192	0
410.693	0
411.194	435.30976
411.694	4082.94878
412.195	8864.71461
412.696	12089.80453
413.196	12760.96929
413.696	12863.67595
414.196	13703.56671
414.696	17261.84252
415.196	21764.24417
415.696	29583.19008
416.196	36460.31858
416.695	33385.52225
417.195	27331.31117
417.694	25859.08937
418.194	24813.24529
418.693	22312.27607
419.192	21658.88845
419.691	21344.27115
420.19	21084.03535
420.688	21179.91396
421.187	20085.95003
421.685	19187.17999
422.184	17571.66056
422.682	15105.45013
423.18	12392.99197
423.678	11109.22817
424.176	10197.62853
424.674	9618.2255
425.172	9366.96613
425.669	8844.98881
426.167	8380.9856
426.664	7493.3475
427.161	6945.61062
427.659	6189.57365
428.156	5637.67578
428.652	5560.76527
429.149	5242.72538
429.646	5115.32599
430.143	4851.89982
430.639	4471.22769
431.135	4175.72912
431.632	3991.65137
432.128	3757.52742
432.624	3401.59887
433.12	3154.61056
433.616	3113.63104
434.111	2922.76066
434.607	2877.86648
435.103	2870.83568
435.598	2872.86253
436.093	2747.19949
436.588	2490.37923
437.083	2467.49371
437.578	2366.66776
438.073	2025.00013
438.568	2177.08252
439.062	2122.82331
439.557	2027.18716
440.051	1885.15914
440.546	1785.22628
441.04	1718.40638
441.534	1672.60962
442.028	1786.50915
442.522	1708.52853
443.015	1633.37511
443.509	1592.67104
444.002	1585.6772
444.496	1586.45464
444.989	1469.73075
445.482	1456.77513
445.975	1442.55506
446.468	1455.48669
446.961	1503.49256
447.454	1444.63548
447.947	1349.71139
448.439	1282.8134
448.931	1299.64014
449.424	1354.94409
449.916	1381.8628
450.408	1241.67897
450.9	1212.82773
451.392	1238.93982
451.884	1177.77185
452.375	1097.86985
452.867	1229.79771
453.358	1140.74291
453.849	1095.64915
454.341	1143.76731
454.832	1068.67917
455.323	1040.88526
455.814	1049.81515
456.304	1092.8445
456.795	1054.82625
457.285	1045.81697
457.776	1077.89079
458.266	903.83915
458.756	970.92668
459.247	857.82655
459.737	824.81407
460.226	922.79763
460.716	782.81641
461.206	815.86459
461.695	812.9474
462.185	729.79519
462.674	803.83135
463.163	838.80632
463.653	776.70311
464.142	811.91439
464.63	814.96386
465.119	660.74934
465.608	720.80353
466.096	733.7665
466.585	708.83224
467.073	679.85942
467.561	633.82336
468.05	664.81969
468.538	701.93691
469.026	682.88577
469.513	553.62295
470.001	583.72734
470.489	640.83673
470.976	637.81957
471.463	603.8855
471.951	593.89061
472.438	577.79084
472.925	507.70653
473.412	530.811
473.899	517.72558
474.385	551.84342
474.872	522.74736
475.359	539.82503
475.845	423.54232
476.331	502.68453
476.817	439.71023
477.303	436.66348
477.789	440.70602
478.275	414.6946
478.761	460.74444
479.247	465.6906
479.732	389.66748
480.218	422.76945
480.703	413.71551
481.188	383.55801
481.673	338.54383
482.158	282.41525
482.643	361.67006
483.128	304.49411
483.612	347.58168
484.097	367.65576
484.581	311.53132
485.066	326.58143
485.55	268.42921
486.034	224.35935
486.518	272.47357
487.002	170.3197
487.486	248.45996
487.969	179.33836
488.453	245.47971
488.936	201.34781
489.42	257.43267
489.903	248.48937
490.386	-225.31721
490.869	277.46151
491.352	231.44887
491.835	243.38683
492.318	219.38522
492.8	227.36323
493.283	183.37291
493.765	181.35691
494.247	219.41012
494.73	189.33245
495.212	230.4481
495.694	172.32234
496.175	69.13408
496.657	230.43807
497.139	234.31869
497.62	89.17319
498.102	98.20156
498.583	105.2199
499.064	87.1597
499.545	96.18187
500.026	106.1961
500.507	55.10754
500.988	111.23113
501.469	67.14131
501.949	127.26339
502.43	48.09596
502.91	77.13224
503.39	127.26822
503.87	70.13845
504.35	86.17249
504.83	65.11986
505.31	41.08477
505.79	101.203
506.269	98.19402
506.749	-4.00786
507.228	44.08801
507.707	55.10361
508.187	87.17777
508.666	33.06957
509.145	-2.00404
509.623	19.03851
510.102	22.04621
510.581	55.11498
511.059	28.0606
511.538	41.09239
512.016	71.14587
512.494	34.07182
512.972	23.04772
513.45	-33.06648
513.928	17.03582
514.406	-8.01668
514.884	5.01126
515.361	25.0521
515.839	18.03564
516.316	23.04823
516.793	35.07768
517.27	16.03415
517.747	18.04047
518.224	12.02439
518.701	31.06021
519.178	-30.06557
519.654	46.09598
520.131	9.0196
520.607	32.06994
521.083	-34.06892
521.56	29.06006
522.036	20.03861
522.512	58.12574
522.987	-26.05454
523.463	-11.02317
523.939	29.06283
524.414	68.13746
524.89	11.0231
525.365	32.06365
525.84	-38.08006
526.315	55.11595
526.79	15.0299
527.265	22.04429
527.74	18.03881
528.215	44.09127
528.689	-5.00982
529.164	15.0289
529.638	-6.01381
530.112	2.00418
530.587	-17.03217
531.061	-6.01286
531.534	-14.03046
532.008	-3.00642
532.482	-29.0599
532.956	-63.14469
533.429	25.05386
533.903	5.00989
534.376	52.10131
534.849	45.09237
535.322	-25.05308
535.795	-12.02635
536.268	-30.06487
536.741	51.1087
537.213	20.04127
537.686	-53.11655
538.158	6.01193
538.631	22.04792
539.103	11.02191
539.575	62.11418
540.047	12.02357
540.519	40.08527
540.991	18.03954
541.463	18.03901
541.934	48.09739
542.406	16.03401
542.877	29.05826
543.348	43.09261
543.82	59.12876
544.291	104.21371
544.762	64.13377
545.233	71.15698
545.703	83.16051
546.174	72.14749
546.645	31.06524
547.115	109.22879
547.585	97.19487
548.056	78.16347
548.526	92.18735
548.996	193.39597
549.466	190.39766
549.935	124.25124
550.405	181.33376
550.875	201.40082
551.344	236.47489
551.814	239.45843
552.283	242.43853
552.752	208.4035
553.221	241.42948
553.69	357.63558
554.159	279.56206
554.628	264.48108
555.096	323.66867
555.565	358.6405
556.033	309.60072
556.502	322.64466
556.97	268.49581
557.438	302.59817
557.906	364.71626
558.374	374.70821
558.842	387.76421
559.31	403.74132
559.777	415.82373
560.245	404.78823
560.712	411.78799
561.18	434.78172
561.647	435.79618
562.114	471.87123
562.581	548.09081
563.048	602.10012
563.514	616.19625
563.981	672.19739
564.448	713.22643
564.914	729.30891
565.381	759.31898
565.847	826.45882
566.313	841.46879
566.779	901.48984
567.245	859.5011
567.711	928.63689
568.176	976.56502
568.642	996.82112
569.108	1083.89178
569.573	1178.91405
570.038	1155.62774
570.504	1178.77577
570.969	1280.1795
571.434	1296.82884
571.899	1344.09339
572.363	1394.01854
572.828	1470.10504
573.293	1438.07528
573.757	1501.12803
574.222	1538.05587
574.686	1495.03495
575.15	1492.21255
575.614	1599.18715
576.078	1616.26839
576.542	1602.17373
577.006	1629.15464
577.469	1602.46051
577.933	1654.13715
578.396	1636.34024
578.86	1703.35576
579.323	1606.31236
579.786	1599.01269
580.249	1589.1579
580.712	1549.36786
581.175	1489.33665
581.637	1536.18306
582.1	1434.96989
582.563	1482.94942
583.025	1351.15367
583.487	1341.68013
583.95	1282.77364
584.412	1353.79476
584.874	1169.96788
585.336	1283.02947
585.797	1246.77095
586.259	1220.96716
586.721	1141.8552
587.182	1129.85508
587.643	1095.74134
588.105	1042.76709
588.566	1022.51358
589.027	946.67045
589.488	941.56907
589.949	959.71238
590.41	873.21801
590.87	943.58103
591.331	926.45849
591.791	833.44486
592.252	763.32945
592.712	813.49224
593.172	807.37229
593.632	803.33317
594.092	766.30485
594.552	729.20399
595.011	647.16793
595.471	722.2489
595.931	658.15123
596.39	663.25249
596.849	614.14021
597.308	724.21258
597.768	579.19302
598.227	656.25529
598.685	634.16165
599.144	623.16069
599.603	651.22377
600.062	598.99204
600.52	654.14241
600.978	594.1326
601.437	666.202
601.895	606.01558
602.353	623.09758
602.811	593.05006
603.269	615.17755
603.727	652.23679
604.184	626.11238
604.642	619.21324
605.099	670.22157
605.557	646.25342
606.014	616.04254
606.471	625.24061
606.928	655.08445
607.385	657.25144
607.842	786.36277
608.299	819.44455
608.755	808.48044
609.212	731.24139
609.668	696.18149
610.125	762.42196
610.581	820.49644
611.037	835.45216
611.493	827.49745
611.949	695.3169
612.405	714.09442
612.861	862.5471
613.316	733.36944
613.772	722.29864
614.227	774.41446
614.683	854.37881
615.138	775.40452
615.593	751.36094
616.048	804.42209
616.503	820.5697
616.958	757.49607
617.412	742.38252
617.867	746.28094
618.321	752.20884
618.776	773.33344
619.23	727.35486
619.684	799.40846
620.138	750.38571
620.592	741.43773
621.046	717.35338
621.5	708.38831
621.954	722.30529
622.407	674.21771
622.861	651.29892
623.314	686.26977
623.768	580.12729
624.221	626.00404
624.674	633.20389
625.127	588.15156
625.58	653.23296
626.033	614.13228
626.485	552.11868
626.938	624.24294
627.39	600.17344
627.843	554.091
628.295	525.0413
628.747	526.07514
629.199	520.01671
629.651	489.96427
630.103	480.95831
630.555	479.88337
631.006	482.99043
631.458	507.04068
631.909	483.97795
632.361	427.88751
632.812	448.91642
633.263	437.83744
633.714	433.82697
634.165	384.84308
634.616	345.74902
635.067	404.81032
635.518	424.9113
635.968	418.75482
636.419	421.82472
636.869	381.82647
637.319	339.72
637.769	333.68505
638.219	387.84556
638.669	278.6186
639.119	353.79376
639.569	282.63556
640.019	336.7197
640.468	292.60977
640.918	291.65678
641.367	295.61918
641.816	298.62368
642.265	312.67349
642.714	242.53068
643.163	320.68632
643.612	189.4332
644.061	239.47948
644.51	256.55143
644.958	285.58895
645.406	233.52975
645.855	252.58603
646.303	254.56426
646.751	210.45701
647.199	279.59929
647.647	223.49015
648.095	203.44657
648.543	256.50041
648.99	234.53299
649.438	246.55217
649.885	206.48983
650.333	226.42124
650.78	213.49349
651.227	245.5683
651.674	172.38004
652.121	214.50023
652.568	209.48787
653.015	246.59503
653.461	215.4914
653.908	233.52095
654.354	212.48815
654.801	172.39147
655.247	235.49652
655.693	186.46914
656.139	154.36027
656.585	192.44634
657.031	139.31681
657.477	165.34801
657.922	143.3225
658.368	207.49438
658.813	216.48702
659.259	176.41108
659.704	157.35783
660.149	185.4196
660.594	141.32876
661.039	195.43221
661.484	199.46288
661.929	196.44645
662.373	148.36554
662.818	197.47499
663.262	171.40231
663.707	162.40173
664.151	175.41828
664.595	176.41496
665.039	191.46384
665.483	151.37739
665.927	176.40672
666.371	142.32358
666.814	165.38759
667.258	133.31047
667.701	225.47435
668.145	159.3896
668.588	137.33233
669.031	128.2978
669.474	154.36577
669.917	160.35087
670.36	149.36456
670.803	169.40193
671.245	188.39068
671.688	204.48712
672.13	96.21549
672.573	165.41297
673.015	174.41151
673.457	137.2972
673.899	217.5139
674.341	184.43668
674.783	114.27223
675.225	161.39069
675.666	116.27732
676.108	139.30128
676.549	197.45895
676.991	138.30352
677.432	81.16363
677.873	143.32922
678.314	140.33226
678.755	154.37097
679.196	108.2478
679.637	168.40607
680.078	239.54669
680.518	168.38854
680.959	122.29166
681.399	175.42801
681.839	183.43924
682.28	191.46331
682.72	107.24565
683.16	139.34363
683.6	161.36532
684.039	83.17552
684.479	130.31754
684.919	82.19018
685.358	161.40442
685.798	141.36621
686.237	153.3678
686.676	177.40749
687.115	193.44751
687.554	162.38165
687.993	194.42453
688.432	169.38332
688.871	162.36512
689.309	159.37684
689.748	151.31624
690.186	212.49827
690.625	202.46624
691.063	124.29712
691.501	157.38513
691.939	143.35429
692.377	150.36352
692.815	141.33573
693.253	185.43998
693.69	179.39046
694.128	147.35391
694.565	174.4112
695.003	158.39738
695.44	166.38712
695.877	163.3778
696.314	165.35412
696.751	195.44031
697.188	185.42046
697.625	184.41928
698.061	141.33702
698.498	158.38017
698.934	151.36188
699.371	133.31254
699.807	155.36481
700.243	124.29826
700.679	194.43474
701.115	186.43393
701.551	135.31786
701.987	172.38481
702.422	181.42517
702.858	209.48998
703.294	212.47351
703.729	166.4029
704.164	154.36858
704.599	171.3787
705.035	127.28478
705.47	147.35552
705.904	120.28007
706.339	214.49079
706.774	207.4775
707.209	150.34457
707.643	150.3586
708.078	95.23244
708.512	93.23319
708.946	185.4388
709.38	183.42919
709.814	181.41036
710.248	168.40607
710.682	167.39397
711.116	140.33239
711.549	167.42656
711.983	153.3521
712.416	212.49361
712.85	167.41254
713.283	132.31219
713.716	171.42567
714.149	226.5291
714.582	170.37939
715.015	212.52205
715.448	181.45089
715.881	199.43114
716.313	184.42656
716.746	174.40577
717.178	141.33779
717.61	195.48735
718.043	179.4412
718.475	133.32178
718.907	228.56599
719.339	177.39738
719.77	116.2752
720.202	171.42784
720.634	186.44652
721.065	170.39956
721.497	184.44558
721.928	126.30869
722.359	118.28425
722.79	133.31753
723.221	187.46465
723.652	216.54733
724.083	142.31966
724.514	185.42063
724.945	126.29615
725.375	133.30791
725.806	167.41329
726.236	163.41385
726.666	183.42852
727.096	190.46011
727.526	160.40256
727.956	182.40919
728.386	151.36959
728.816	128.32263
729.246	128.31021
729.675	136.33319
730.105	158.38607
730.534	168.38993
730.964	174.43526
731.393	185.45431
731.822	163.41238
732.251	157.39508
732.68	190.44256
733.109	133.32662
733.537	125.3014
733.966	192.46984
734.395	181.41353
734.823	161.36146
735.251	132.31714
735.68	186.46006
736.108	163.40856
736.536	136.32015
736.964	142.32841
737.392	181.44728
737.82	163.38811
738.247	145.34578
738.675	202.4757
739.102	158.39109
739.53	120.30463
739.957	136.34781
740.384	180.43917
740.811	148.37263
741.238	152.36837
741.665	167.3837
742.092	152.36102
742.519	128.31556
742.945	113.27154
743.372	166.40683
743.798	157.39989
744.225	122.28988
744.651	158.39296
745.077	113.2816
745.503	144.34951
745.929	171.40606
746.355	185.45448
746.781	125.30902
747.207	79.18659
747.632	116.28229
748.058	129.32078
748.483	125.28778
748.908	125.3097
749.334	138.33733
749.759	105.24819
750.184	97.23176
750.609	138.33758
751.033	161.3779
751.458	136.30477
751.883	126.31143
752.307	147.34396
752.732	82.2055
753.156	111.27401
753.58	131.31048
754.005	162.40715
754.429	117.27495
754.853	122.30133
755.277	110.26066
755.7	108.26792
756.124	84.20922
756.548	99.23528
756.971	129.31398
757.394	146.37312
757.818	120.30765
758.241	148.37237
758.664	85.21528
759.087	100.22401
759.51	94.23447
759.933	72.17443
760.356	96.24629
760.778	123.30151
761.201	128.31044
761.623	125.30265
762.046	88.21006
762.468	163.38811
762.89	123.30285
763.312	133.32336
763.734	102.2459
764.156	89.22043
764.578	120.2761
765	113.27545
765.421	66.16844
765.843	88.23096
766.264	142.34116
766.686	104.2612
767.107	55.13457
767.528	50.1272
767.949	95.24172
768.37	113.27689
768.791	89.21614
769.212	20.0509
769.632	58.13643
770.053	81.21363
770.473	76.18585
770.894	91.22834
771.314	129.30716
771.734	53.12489
772.154	123.31429
772.575	102.23694
772.994	52.1195
773.414	106.25467
773.834	80.20063
774.254	80.19658
774.673	106.25805
775.093	101.24969
775.512	80.19767
775.931	88.22332
776.351	77.19182
776.77	63.15495
777.189	71.1699
777.607	51.13114
778.026	102.25369
778.445	39.09846
778.864	100.2561
779.282	79.19078
779.701	63.15962
780.119	31.07913
780.537	93.23193
780.955	80.20395
781.373	87.21539
781.791	69.15606
782.209	107.24644
782.627	99.26004
783.045	41.09541
783.462	45.11579
783.88	57.1481
784.297	59.14917
784.715	52.1342
785.132	62.15094
785.549	54.13587
785.966	103.25827
786.383	60.14836
786.8	91.21159
787.217	85.20177
787.633	56.14044
788.05	111.26298
788.466	74.17529
788.883	66.16873
789.299	92.22146
789.715	74.18035
790.131	99.24555
790.547	56.1406
790.963	103.25482
791.379	69.17482
791.795	150.33849
792.21	66.15507
792.626	127.29914
793.041	65.16099
793.457	81.20032
793.872	87.20461
794.287	51.12246
794.702	108.26498
795.117	67.16685
795.532	87.21768
795.947	107.25663
796.362	69.16543
796.776	131.3046
797.191	61.14992
797.605	51.12046
798.02	70.17073
798.434	89.19834
798.848	75.18487
799.262	37.09248
799.676	87.21216
800.09	76.18716
800.504	66.16068
800.918	31.07259
801.331	126.32754
801.745	54.12484
802.158	27.06812
802.572	136.32662
802.985	79.19114
803.398	71.16971
803.811	72.1853
804.224	97.24068
804.637	17.04099
805.05	69.16044
805.462	107.26161
805.875	62.16095
806.288	44.1068
806.7	31.07854
807.112	96.22203
807.525	112.2747
807.937	90.22188
808.349	62.15572
808.761	97.23777
809.173	87.21049
809.584	91.22439
809.996	46.11324
810.408	38.09861
810.819	90.21121
811.231	60.15528
811.642	49.11739
812.053	157.3675
812.464	205.47533
812.875	180.45125
813.286	144.36594
813.697	109.25355
814.108	94.22893
814.519	81.18059
814.929	93.23638
815.34	74.17954
815.75	84.21294
816.16	91.22612
816.571	56.14583
816.981	87.20509
817.391	72.17397
817.801	30.07508
818.211	59.14113
818.62	51.1233
819.03	83.20308
819.44	109.28281
819.849	81.20376
820.259	79.20193
820.668	50.12345
821.077	67.16649
821.486	105.25145
821.895	87.21445
822.304	76.20108
822.713	57.1352
823.122	62.15499
823.531	31.0741
823.939	88.21375
824.348	94.22764
824.756	76.19019
825.164	116.28955
825.573	48.1209
825.981	89.22002
826.389	71.17835
826.797	47.11819
827.205	35.08093
827.612	99.24304
828.02	39.09215
828.428	84.21332
828.835	35.09259
829.243	78.18569
829.65	45.11235
830.057	58.14109
830.464	60.14645
830.871	110.26147
831.278	61.1477
831.685	89.19801
832.092	53.13016
832.499	77.16832
832.905	100.25169
833.312	107.2424
833.718	96.23798
834.124	53.12158
834.531	73.18384
834.937	114.29011
835.343	73.17602
835.749	162.37169
836.155	41.10777
836.561	60.14776
836.966	72.17594
837.372	84.21309
837.777	55.13727
838.183	103.22754
838.588	86.21272
838.993	94.22773
839.399	59.14441
839.804	38.09306
840.209	38.09715
840.613	64.14254
841.018	116.29102
841.423	39.10046
841.828	70.17682
842.232	117.28712
842.637	109.25505
843.041	56.14367
843.445	73.18278
843.849	95.23382
844.253	92.21759
844.657	42.10613
845.061	80.18105
845.465	87.20922
845.869	55.12809
846.272	50.12204
846.676	55.13327
847.079	60.15259
847.483	78.19407
847.886	101.24409
848.289	48.12832
848.692	65.16451
849.095	83.19862
849.498	136.34021
849.901	82.18746
850.304	64.15295
850.707	27.06926
851.109	86.21669
851.512	69.16933
851.914	41.10366
852.316	67.16927
852.718	-8.02089
853.121	44.10816
853.523	78.18176
853.925	31.08124
854.326	57.14257
854.728	76.19484
855.13	60.15469
855.531	67.1599
855.933	83.19847
856.334	60.14955
856.736	78.17415
857.137	74.17162
857.538	55.13836
857.939	14.03487
858.34	68.16548
858.741	79.20575
859.142	73.17495
859.542	70.18428
859.943	86.21265
860.343	39.09691
860.744	98.23742
861.144	87.21113
861.544	56.13465
861.945	61.15538
862.345	107.25937
862.745	79.19559
863.145	82.19521
863.544	48.12151
863.944	36.08544
864.344	68.16863
864.743	116.28482
865.143	76.19457
865.542	67.15517
865.941	91.22389
866.34	73.17442
866.74	54.14498
867.139	68.16251
867.537	62.15784
867.936	56.13485
868.335	79.20023
868.734	71.18097
869.132	45.10484
869.531	80.19272
869.929	46.10512
870.327	80.19096
870.726	106.262
871.124	95.22046
871.522	76.19293
871.92	101.24712
872.318	36.08836
872.715	80.19723
873.113	19.04663
873.511	69.17152
873.908	29.07355
874.306	27.06751
874.703	79.19688
875.1	90.22888
875.497	43.10337
875.894	46.11291
876.291	101.24583
876.688	51.13164
877.085	89.21224
877.482	60.1501
877.878	111.2644
878.275	36.09178
878.671	120.26382
879.068	75.18043
879.464	61.14731
879.86	67.15812
880.256	75.18446
880.652	78.19759
881.048	76.18764
881.444	69.16385
881.84	79.19994
882.236	102.25433
882.631	35.08624
883.027	74.1786
883.422	79.20115
883.817	42.10579
884.213	53.13605
884.608	-1.00248
885.003	68.16356
885.398	15.03782
885.793	97.24165
886.188	48.11947
886.582	142.35868
886.977	125.29271
887.371	98.24595
887.766	31.07742
888.16	82.20365
888.554	92.22598
888.949	84.20983
889.343	103.24939
889.737	44.11743
890.131	65.16275
890.525	60.15329
890.918	29.07332
891.312	75.17879
891.706	78.20381
892.099	105.2648
892.492	68.14635
892.886	63.15392
893.279	59.15018
893.672	50.12738
894.065	108.26782
894.458	63.1582
894.851	86.20952
895.244	19.04882
895.637	71.17049
896.029	83.20187
896.422	77.18735
896.814	54.13426
897.206	21.05033
897.599	110.26929
897.991	25.06078
898.383	97.22732
898.775	84.18847
899.167	49.11439
899.559	93.23378
899.951	78.18305
900.342	99.24976
900.734	0
901.125	47.12346
901.517	31.07641
901.908	107.25399
902.299	13.03202
902.69	74.17393
903.082	111.26592
903.473	70.16709
903.863	37.09468
904.254	40.0931
904.645	97.23936
905.036	43.10431
905.426	75.17101
905.817	53.13006
906.207	20.04796
906.597	51.11933
906.987	65.16813
907.378	61.15406
907.768	69.18192
908.158	88.21319
908.547	53.1369
908.937	78.19927
909.327	65.1575
909.717	119.2986
910.106	45.10826
910.495	94.23294
910.885	75.18921
911.274	85.21121
911.663	87.21948
912.052	124.30198
912.441	56.14231
912.83	63.14435
913.219	115.29776
913.608	72.17574
913.997	27.06799
914.385	116.27382
914.774	47.11457
915.162	59.14043
915.55	84.20205
915.939	84.21082
916.327	62.15448
916.715	54.13757
917.103	108.26312
917.491	104.25489
917.878	105.25567
918.266	85.21918
918.654	36.09223
919.041	47.12279
919.429	72.1693
919.816	75.18935
920.203	62.15009
920.591	33.08212
920.978	88.21407
921.365	82.21404
921.752	73.17335
922.139	53.11507
922.525	29.06995
922.912	89.21557
923.299	69.17096
923.685	52.13564
924.072	68.15633
924.458	54.13372
924.844	84.20663
925.231	54.12564
925.617	13.03329
926.003	95.24095
926.389	45.11365
926.774	70.17682
927.16	105.25824
927.546	12.03084
927.931	114.28126
928.317	83.19002
928.702	74.17434
929.088	65.15334
929.473	51.12977
929.858	-10.02445
930.243	55.13192
930.628	59.14334
931.013	59.14602
931.398	108.24561
931.783	75.19667
932.167	63.15369
932.552	81.20186
932.937	72.17803
933.321	44.11055
933.705	50.12607
934.09	122.30442
934.474	52.12351
934.858	45.11684
935.242	26.06056
935.626	58.14828
936.009	88.2326
936.393	41.10451
936.777	42.10772
937.16	54.14042
937.544	43.10148
937.927	60.15199
938.311	103.24901
938.694	100.26227
939.077	82.19514
939.46	72.17613
939.843	69.14342
940.226	98.24931
940.609	63.14429
940.991	61.15499
941.374	81.19686
941.757	77.1891
942.139	65.14557
942.522	81.19035
942.904	37.08918
943.286	82.2072
943.668	71.18327
944.05	72.17666
944.432	46.11362
944.814	70.17181
945.196	3.00738
945.578	6.01438
945.959	72.16804
946.341	127.30738
946.722	70.1637
947.104	43.10294
947.485	61.14167
947.866	45.11349
948.247	63.1586
948.628	76.18454
949.009	78.19878
949.39	71.1761
949.771	126.28875
950.152	82.20007
950.532	20.04947
950.913	67.16113
951.293	51.13775
951.674	47.11376
952.054	30.07461
952.434	69.17071
952.814	72.17062
953.194	91.23652
953.574	82.20082
953.954	69.16329
954.334	17.04263
954.714	62.15077
955.093	96.23406
955.473	61.15224
955.853	63.16273
956.232	74.20205
956.611	92.21893
956.99	66.1654
957.37	47.11984
957.749	49.11694
958.128	46.11599
958.506	9.02351
958.885	76.19095
959.264	51.12497
959.643	37.08443
960.021	58.14352
960.4	49.1111
960.778	61.14997
961.156	95.23623
961.535	97.22403
961.913	72.16778
962.291	48.12319
962.669	41.10403
963.047	82.20809
963.424	37.09464
963.802	32.07895
964.18	84.21127
964.557	93.2124
964.935	73.17222
965.312	22.05756
965.69	73.18206
966.067	55.13382
966.444	83.20331
966.821	40.1033
967.198	62.15009
967.575	96.23406
967.952	89.20817
968.329	56.13613
968.705	120.25349
969.082	70.1789
969.458	3.00726
969.835	41.09998
970.211	35.09006
970.587	51.12696
970.963	110.27924
971.339	32.08381
971.715	83.20602
972.091	48.11825
972.467	100.24717
972.843	30.07472
973.219	100.23788
973.594	38.0996
973.97	130.30472
974.345	61.14569
974.721	98.23518
975.096	48.1162
975.471	110.25794
975.846	59.14151
976.221	37.09418
976.596	58.13882
976.971	84.2061
977.346	72.16692
977.72	77.19523
978.095	78.2006
978.469	60.14295
978.844	79.19759
979.218	42.10083
979.593	90.21401
979.967	84.20335
980.341	98.2235
980.715	68.17078
981.089	91.22612
981.463	61.13976
981.837	49.11976
982.21	92.21236
982.584	56.13511
982.957	70.17416
983.331	63.14857
983.704	81.19789
984.078	74.18156
984.451	130.32002
984.824	37.09033
985.197	110.26418
985.57	81.20201
985.943	88.21583
986.316	99.24106
986.688	78.18712
987.061	120.27742
987.434	59.15351
987.806	78.18818
988.179	53.12499
988.551	85.21429
988.923	72.17659
989.295	104.25734
989.667	48.11471
990.039	58.1431
990.411	81.18529
990.783	73.16732
991.155	39.0939
991.527	129.31304
991.898	40.09985
992.27	18.04478
992.641	80.19962
993.012	118.27399
993.384	98.2316
993.755	58.14766
994.126	53.12741
994.497	62.15184
994.868	101.22964
995.239	76.18329
995.61	63.15814
995.98	81.19561
996.351	60.1483
996.722	8.01871
997.092	44.10431
997.462	6.01414
997.833	76.17926
998.203	69.16669
998.573	32.07994
998.943	47.11028
999.313	36.08649
999.683	56.13424
1000.053	62.14231
1000.423	85.20519
1000.792	80.20625
1001.162	50.12304
1001.531	60.14765
1001.901	64.15912
1002.27	68.15145
1002.639	43.10999
1003.009	54.12831
1003.378	58.14807
1003.747	44.10406
1004.116	42.10064
1004.485	61.14547
1004.853	94.23625
1005.222	61.15351
1005.591	73.17255
1005.959	33.07461
1006.328	32.07227
1006.696	75.18002
1007.064	67.168
1007.433	95.23546
1007.801	108.26223
1008.169	74.18605
1008.537	61.13476
1008.905	9.02113
1009.273	54.13328
1009.64	15.03602
1010.008	52.12389
1010.375	105.25232
1010.743	135.30645
1011.11	37.08776
1011.478	80.19687
1011.845	103.23968
1012.212	95.21302
1012.579	59.14457
1012.946	55.13076
1013.313	99.23337
1013.68	81.18088
1014.047	24.05746
1014.414	48.11339
1014.78	62.1537
1015.147	71.171
1015.513	64.15377
1015.88	86.21847
1016.246	110.26849
1016.612	90.20434
1016.978	80.1949
1017.344	53.13088
1017.71	129.30987
1018.076	70.1644
1018.442	69.17687
1018.808	36.09019
1019.174	76.18971
1019.539	148.33398
1019.905	36.08511
1020.27	48.11847
1020.636	92.21877
1021.001	75.17865
1021.366	40.09621
1021.731	83.21216
1022.096	45.11357
1022.461	49.11596
1022.826	64.15166
1023.191	36.09464
1023.556	73.17028
1023.92	69.16901
1024.285	67.16296
1024.649	70.17086
1025.014	69.17027
1025.378	31.07818
1025.742	49.12167
1026.107	73.1643
1026.471	75.17418
1026.835	65.16063
1027.199	2.00486
1027.562	71.16431
1027.926	53.12949
1028.29	52.13149
1028.654	109.24773
1029.017	146.35237
1029.381	79.1876
1029.744	79.20037
1030.107	120.27996
1030.471	79.18803
1030.834	72.16301
1031.197	112.26653
1031.56	54.12727
1031.923	59.15224
1032.286	97.22563
1032.648	50.11954
1033.011	57.1306
1033.374	59.13838
1033.736	41.10792
1034.099	66.16032
1034.461	45.11373
1034.823	40.09974
1035.185	48.12081
1035.548	73.17682
1035.91	50.11972
1036.272	57.1295
1036.634	100.24226
1036.995	36.08481
1037.357	74.17914
1037.719	80.19337
1038.08	87.20501
1038.442	3.00718
1038.803	79.18854
1039.165	45.11361
1039.526	106.25332
1039.887	75.17851
1040.248	54.13289
1040.609	96.23511
1040.97	54.13181
1041.331	82.20632
1041.692	42.09814
1042.053	78.17652
1042.413	86.1989
1042.774	107.25732
1043.134	72.17062
1043.495	75.18759
1043.855	60.14519
1044.215	63.15592
1044.576	23.05525
1044.936	66.15076
1045.296	114.28105
1045.656	87.21192
1046.016	90.21549
1046.375	56.13562
1046.735	32.07277
1047.095	105.24299
1047.454	88.18483
1047.814	59.14151
1048.173	115.27119
1048.533	63.14388
1048.892	41.09852
1049.251	81.20208
1049.61	50.12304
1049.969	81.18968
1050.328	94.20179
1050.687	72.17436
1051.046	65.15774
1051.405	92.22698
1051.763	56.12854
1052.122	55.13697
1052.48	40.09822
1052.839	56.13152
1053.197	72.16864
1053.555	165.36724
1053.914	101.24455
1054.272	63.15185
1054.63	11.02707
1054.988	70.16556
1055.345	43.09269
1055.703	40.0964
1056.061	73.18692
1056.419	69.17792
1056.776	75.18091
1057.134	83.19078
1057.491	59.14741
1057.848	67.16618
1058.206	60.14075
1058.563	72.15789
1058.92	48.11062
1059.277	83.20338
1059.634	80.18701
1059.991	97.23017
1060.348	50.11293
1060.704	29.06934
1061.061	96.22088
1061.418	-6.01469
1061.774	88.21559
1062.131	46.12163
1062.487	45.10525
1062.843	56.13938
1063.199	64.15865
1063.555	75.17281
1063.911	52.13121
1064.267	72.14936
1064.623	27.06582
1064.979	109.25515
1065.335	38.09099
1065.691	64.15289
1066.046	24.05303
1066.402	58.13147
1066.757	51.12862
1067.112	73.17828
1067.468	25.05928
1067.823	79.18876
1068.178	76.1828
1068.533	46.11153
1068.888	98.23187
1069.243	61.15014
1069.598	56.13582
1069.952	-14.03192
1070.307	28.06954
1070.662	48.11392
1071.016	28.06298
1071.371	48.10916
1071.725	45.10768
1072.079	84.20059
1072.434	40.09731
1072.788	58.13781
1073.142	126.30536
1073.496	41.09736
1073.85	46.10669
1074.203	58.14041
1074.557	38.10118
1074.911	72.17101
1075.265	51.11845
1075.618	117.2819
1075.971	104.24463
1076.325	42.10681
1076.678	40.09159
1077.031	33.07488
1077.385	75.16423
1077.738	48.10832
1078.091	45.10236
1078.444	74.17088
1078.796	-1.00247
1079.149	75.18555
1079.502	45.10633
1079.855	57.13264
1080.207	98.23911
1080.56	53.13681
1080.912	55.13367
1081.264	73.17489
1081.617	56.13623
1081.969	27.06834
1082.321	40.09778
1082.673	-6.01384
1083.025	53.12557
1083.377	104.22046
1083.728	95.2195
1084.08	59.14693
1084.432	21.05089
1084.783	105.24318
1085.135	48.12025
1085.486	48.10978
1085.838	90.21984
1086.189	86.20717
1086.54	138.32372
1086.891	35.08868
1087.242	76.18398
1087.593	58.14088
1087.944	44.09962
1088.295	73.16504
1088.646	59.14264
1088.996	57.13703
1089.347	71.1734
1089.698	37.08759
1090.048	55.14261
1090.398	53.12275
1090.749	79.18782
1091.099	20.05052
1091.449	71.17604
1091.799	60.14983
1092.149	28.0685
1092.499	46.1122
1092.849	59.14959
1093.199	104.25791
1093.548	84.20036
1093.898	85.21114
1094.248	89.22693
1094.597	-10.02577
1094.947	48.12798
1095.296	58.14289
1095.645	85.21956
1095.994	40.09618
1096.343	65.16299
1096.692	35.09209
1097.041	37.1003
1097.39	93.23126
1097.739	49.12727
1098.088	88.23408
1098.437	23.06064
1098.785	81.21707
1099.134	67.17724
1099.482	64.17547
1099.83	102.26543
1100.179	48.12512
1100.527	50.13274
1100.875	2.00533
1101.223	106.27857
1101.571	65.17904
1101.919	27.07075
1102.267	18.05088
1102.615	6.01929
1102.962	17.05469
1103.31	1.00321
1103.658	18.05793
