Data from N1R0 105C sample 9_Subt2__2__12-49-15-705.txt Node

Date: Tue Sep 16 12:49:15 PDT 2025
User: uwsun
Spectrometer: HDX01956
Trigger mode: 0
Integration Time (sec): 5.000000E-1
Scans to average: 1
Nonlinearity correction enabled: true
Boxcar width: 0
Storing dark spectrum: false
XAxis mode: Wavelengths
Number of Pixels in Spectrum: 2068
>>>>>Begin Spectral Data<<<<<
194.03	0
194.578	-5.01627
195.127	-15.04818
195.676	4.01286
196.225	14.0373
196.773	2.00559
197.321	-6.01682
197.87	7.01832
198.418	37.09703
198.966	33.0885
199.513	81.20821
200.061	11.0286
200.609	57.1524
201.156	35.07845
201.704	31.07957
202.251	46.12415
202.798	5.01326
203.345	67.16836
203.892	20.05167
204.438	55.13272
204.985	-9.02203
205.532	36.0963
206.078	12.03002
206.624	73.18574
207.17	105.24857
207.716	61.15213
208.262	-9.01853
208.808	43.11015
209.354	84.21036
209.899	53.13552
210.445	30.07667
210.99	31.07737
211.535	61.14636
212.08	28.06656
212.625	39.09923
213.17	91.23416
213.715	58.13516
214.259	68.16139
214.804	53.13203
215.348	59.13897
215.892	92.22581
216.436	33.07697
216.98	30.06742
217.524	27.06606
218.068	114.28919
218.612	70.18034
219.155	69.16549
219.698	88.21143
220.242	23.05786
220.785	105.24838
221.328	4.01011
221.871	96.2462
222.414	41.10292
222.956	17.04149
223.499	35.07948
224.041	73.1684
224.583	34.07305
225.126	-16.03612
225.668	21.05195
226.21	69.17631
226.751	48.10872
227.293	45.10327
227.835	55.13642
228.376	40.09233
228.918	51.12834
229.459	13.03304
230	69.16738
230.541	48.1119
231.082	65.15987
231.622	5.01156
232.163	35.08564
232.704	82.20661
233.244	76.18985
233.784	56.13704
234.324	91.20632
234.864	28.06437
235.404	16.03835
235.944	49.11676
236.484	77.19342
237.023	38.09085
237.563	89.20817
238.102	67.1599
238.641	26.06628
239.18	48.11423
239.719	52.13154
240.258	53.1206
240.797	78.18769
241.335	67.16418
241.874	74.14609
242.412	116.28208
242.95	87.2116
243.488	27.06169
244.026	75.17611
244.564	90.1867
245.102	64.14684
245.64	6.01461
246.177	29.06556
246.715	76.18398
247.252	85.19397
247.789	127.23524
248.326	64.15586
248.863	82.1821
249.4	72.16473
249.936	75.15909
250.473	51.12228
251.009	43.09991
251.546	106.23784
252.082	57.12466
252.618	47.10678
253.154	67.16284
253.69	77.17415
254.226	92.22146
254.761	67.15203
255.297	40.08883
255.832	44.1062
256.367	63.14961
256.903	89.19949
257.438	53.12576
257.972	72.16195
258.507	39.09086
259.042	69.15186
259.576	66.14809
260.111	38.08862
260.645	50.10969
261.179	92.21683
261.713	78.17638
262.247	31.072
262.781	58.12419
263.315	47.11538
263.849	55.13925
264.382	77.17833
264.915	77.18391
265.449	41.10151
265.982	67.15388
266.515	93.22924
267.048	63.13545
267.58	62.13539
268.113	34.07497
268.646	36.08934
269.178	43.09765
269.71	94.20952
270.243	97.22617
270.775	113.29036
271.307	40.09643
271.838	67.15972
272.37	63.15586
272.902	44.1012
273.433	97.21661
273.965	47.11568
274.496	68.16992
275.027	88.22038
275.558	65.1604
276.089	40.10144
276.62	56.14256
277.15	60.14901
277.681	61.13301
278.211	74.18183
278.741	97.21697
279.272	70.16209
279.802	55.13831
280.332	25.06019
280.861	43.10427
281.391	73.16773
281.921	49.11864
282.45	59.14778
282.98	75.1968
283.509	142.32254
284.038	82.1895
284.567	27.06414
285.096	98.23902
285.625	22.05054
286.153	113.27102
286.682	91.21084
287.21	-6.01463
287.739	30.07219
288.267	85.20867
288.795	24.06365
289.323	61.14525
289.851	87.20652
290.378	-6.01374
290.906	67.16588
291.433	67.16873
291.961	69.15981
292.488	56.14055
293.015	88.20966
293.542	101.26097
294.069	51.12825
294.596	58.14341
295.122	132.31677
295.649	68.15082
296.175	59.14377
296.702	113.2774
297.228	60.14623
297.754	33.07582
298.28	85.1978
298.806	73.17788
299.332	78.17695
299.857	91.20892
300.383	99.25011
300.908	41.10258
301.433	82.20305
301.958	84.19458
302.483	10.02531
303.008	145.36003
303.533	43.11245
304.058	52.12313
304.582	58.13919
305.107	58.15269
305.631	98.22404
306.155	66.15604
306.679	100.23715
307.203	49.11587
307.727	94.22473
308.251	84.20922
308.775	107.26219
309.298	58.14204
309.822	43.10972
310.345	99.23871
310.868	81.19767
311.391	66.16469
311.914	114.28683
312.437	129.29604
312.96	21.05067
313.482	66.15736
314.005	54.1367
314.527	15.03975
315.049	76.1945
315.571	103.23438
316.093	60.1508
316.615	61.14859
317.137	91.20111
317.659	94.22978
318.18	67.16192
318.702	108.25533
319.223	38.0796
319.744	85.1942
320.265	81.19988
320.786	110.27676
321.307	48.12064
321.828	79.18108
322.348	75.1792
322.869	128.30659
323.389	95.19006
323.909	53.12358
324.43	117.28126
324.95	69.16082
325.47	60.15129
325.989	73.17602
326.509	71.16222
327.029	93.21556
327.548	87.20021
328.067	105.25738
328.587	97.24576
329.106	64.14708
329.625	78.2052
330.144	144.33634
330.662	99.23555
331.181	150.35503
331.7	94.22137
332.218	119.26135
332.736	109.25804
333.255	101.24095
333.773	92.2202
334.291	120.30225
334.808	125.28467
335.326	95.21679
335.844	129.3061
336.361	156.40189
336.879	105.25049
337.396	151.36904
337.913	134.31225
338.43	99.22692
338.947	156.3738
339.464	102.22406
339.981	121.28966
340.497	99.24627
341.014	92.2274
341.53	80.18414
342.046	183.45604
342.562	151.37712
343.078	154.36408
343.594	138.33029
344.11	196.46766
344.626	157.39692
345.141	112.25996
345.657	152.34637
346.172	159.38483
346.687	163.37541
347.202	184.42081
347.717	122.294
348.232	152.37968
348.747	151.35124
349.261	166.36694
349.776	167.39824
350.29	141.35507
350.805	166.41044
351.319	149.34864
351.833	183.42197
352.347	190.44813
352.861	171.40246
353.374	155.3547
353.888	187.4565
354.401	154.35291
354.915	178.40381
355.428	196.48639
355.941	144.33806
356.454	172.38417
356.967	95.22534
357.48	166.37796
357.993	161.39669
358.505	138.33771
359.018	209.50887
359.53	191.46523
360.042	189.42397
360.554	211.51336
361.066	139.34035
361.578	235.51565
362.09	168.40071
362.602	197.43955
363.113	214.50121
363.625	219.4949
364.136	212.46431
364.647	170.40439
365.158	228.52646
365.669	208.49401
366.18	164.38742
366.691	193.42332
367.201	192.459
367.712	252.57028
368.222	224.51269
368.733	208.45189
369.243	226.50269
369.753	229.52361
370.263	251.59808
370.773	177.43032
371.282	224.53078
371.792	271.61813
372.301	198.47605
372.811	244.63009
373.32	251.53846
373.829	241.56145
374.338	263.5766
374.847	263.59819
375.356	223.52136
375.865	273.57756
376.373	284.63404
376.882	255.63474
377.39	316.74179
377.898	301.72131
378.407	319.70584
378.915	356.75396
379.423	342.77013
379.93	377.84285
380.438	336.78165
380.946	342.77045
381.453	387.89049
381.96	402.91779
382.468	440.98143
382.975	460.06242
383.482	430.91504
383.989	492.18446
384.495	497.0848
385.002	542.05179
385.509	579.26993
386.015	590.10209
386.521	601.24786
387.028	667.36108
387.534	581.13487
388.04	741.58131
388.546	695.36566
389.051	682.33913
389.557	750.52687
390.063	804.57239
390.568	878.80555
391.073	857.62288
391.578	952.95697
392.084	1013.89555
392.589	977.74102
393.093	1109.14238
393.598	1172.12742
394.103	1247.31367
394.607	1439.58326
395.112	1526.75196
395.616	1653.84511
396.12	1715.69051
396.624	1903.96044
397.128	2115.20332
397.632	2411.24985
398.136	2546.19077
398.639	2670.3338
399.143	2954.67774
399.646	3375.37714
400.15	3728.16444
400.653	4134.87771
401.156	4679.52231
401.659	5462.6134
402.162	6640.84381
402.664	8654.47609
403.167	12528.73342
403.67	24260.67385
404.172	59303.76327
404.674	63858.43483
405.176	63738.15102
405.678	63977.72923
406.18	64011.81569
406.682	63863.44694
407.184	63926.60148
407.686	63841.39382
408.187	37579.93126
408.688	22579.94266
409.19	15504.86106
409.691	12461.32859
410.192	10380.88146
410.693	9005.41452
411.194	8100.25399
411.694	7463.06481
412.195	6983.29113
412.696	6280.99957
413.196	5809.49528
413.696	5687.35706
414.196	5553.88894
414.696	5612.63136
415.196	5262.39714
415.696	4763.43115
416.196	3923.12936
416.695	3081.36628
417.195	2632.43074
417.694	2629.74124
418.194	2357.74816
418.693	2173.00969
419.192	2165.13612
419.691	1999.97752
420.19	2026.13333
420.688	1977.18203
421.187	1850.39776
421.685	1770.79599
422.184	1618.71064
422.682	1411.25133
423.18	1219.18351
423.678	1063.96489
424.176	1017.8965
424.674	948.74537
425.172	934.83389
425.669	837.76012
426.167	789.57905
426.664	717.42352
427.161	693.40333
427.659	623.35738
428.156	657.23689
428.652	541.24956
429.149	543.20536
429.646	464.96118
430.143	472.04947
430.639	449.99342
431.135	436.02005
431.632	473.00178
432.128	394.89409
432.624	357.87724
433.12	398.85653
433.616	330.69248
434.111	333.75616
434.607	323.74058
435.103	265.53828
435.598	339.67256
436.093	307.68638
436.588	316.68154
437.083	280.60572
437.578	292.65109
438.073	238.57958
438.568	243.58124
439.062	222.46422
439.557	251.56882
440.051	200.44043
440.546	238.52542
441.04	238.55523
441.534	187.46143
442.028	189.44638
442.522	176.41512
443.015	151.3203
443.509	184.4387
444.002	142.34323
444.496	109.23585
444.989	160.38206
445.482	184.44608
445.975	200.45206
446.468	99.21431
446.961	176.37586
447.454	133.29553
447.947	157.36908
448.439	176.42332
448.931	234.52113
449.424	185.46052
449.916	153.36752
450.408	173.3884
450.9	126.30272
451.392	164.40862
451.884	136.30891
452.375	119.29148
452.867	98.21943
453.358	147.33206
453.849	119.25275
454.341	137.30568
454.832	102.21953
455.323	165.4031
455.814	96.21858
456.304	125.28617
456.795	142.31979
457.285	158.34195
457.776	115.25978
458.266	110.25875
458.756	73.17208
459.247	124.29304
459.737	127.30344
460.226	125.28191
460.716	136.3204
461.206	112.2652
461.695	95.23287
462.185	126.29534
462.674	118.26694
463.163	171.3757
463.653	145.30421
464.142	113.27082
464.63	133.31729
465.119	87.20125
465.608	144.33185
466.096	129.27638
466.585	95.21548
467.073	78.18312
467.561	90.21426
468.05	52.11984
468.538	111.26785
469.026	89.20947
469.513	88.18491
470.001	91.20766
470.489	91.21468
470.976	162.37065
471.463	87.21476
471.951	100.24572
472.438	103.2394
472.925	72.16884
473.412	70.16895
473.899	116.26273
474.385	81.19686
474.872	114.26251
475.359	126.30502
475.845	46.09572
476.331	72.15296
476.817	115.27603
477.303	116.26615
477.789	35.0835
478.275	38.0943
478.761	48.11388
479.247	88.19493
479.732	36.08986
480.218	87.22581
480.703	40.09851
481.188	55.11921
481.673	101.22992
482.158	96.20599
482.643	93.23512
483.128	81.18782
483.612	92.21742
484.097	55.13227
484.581	60.13855
485.066	89.21614
485.55	108.23644
486.034	50.10863
486.518	116.27414
487.002	25.06094
487.486	55.13312
487.969	-6.01471
488.453	31.0772
488.936	39.08806
489.42	98.21491
489.903	67.16576
490.386	-24.05056
490.869	110.23848
491.352	30.07232
491.835	31.06386
492.318	27.06099
492.8	88.18124
493.283	48.12224
493.765	34.08345
494.247	39.09093
494.73	57.12613
495.212	57.13473
495.694	84.19667
496.175	72.1722
496.657	110.25724
497.139	54.09306
497.62	41.09871
498.102	89.21962
498.583	5.01235
499.064	13.02923
499.545	72.16341
500.026	52.11773
500.507	44.1014
500.988	71.17649
501.469	0
501.949	48.11834
502.43	29.07014
502.91	81.17122
503.39	13.03237
503.87	41.0971
504.35	31.07274
504.83	60.13108
505.31	8.01941
505.79	-26.0623
506.269	24.05535
506.749	26.0597
507.228	39.09201
507.707	41.09179
508.187	40.09574
508.666	38.09427
509.145	-33.07843
509.623	53.12401
510.102	12.02921
510.581	48.11581
511.059	27.06817
511.538	58.14901
512.016	29.06977
512.494	39.09386
512.972	50.11972
513.45	6.01412
513.928	8.0196
514.406	10.0247
514.884	27.06981
515.361	19.04574
515.839	53.12217
516.316	46.1119
516.793	60.15102
517.27	42.10114
517.747	45.11547
518.224	22.051
518.701	27.06005
519.178	54.13499
519.654	0
520.131	1.0025
520.607	-20.04947
521.083	-21.04831
521.56	2.00476
522.036	11.02419
522.512	47.11611
522.987	19.04607
523.463	37.08797
523.939	64.15848
524.414	39.08954
524.89	62.14771
525.365	29.06588
525.84	4.00971
526.315	44.10676
526.79	39.08832
527.265	8.01867
527.74	-2.0049
528.215	9.02117
528.689	1.00222
529.164	25.054
529.638	11.02805
530.112	5.01187
530.587	23.04964
531.061	25.06083
531.534	39.09422
532.008	55.13372
532.482	54.1242
532.956	-11.02834
533.429	62.1515
533.903	42.09238
534.376	20.04458
534.849	-15.03497
535.322	8.01905
535.795	-11.02687
536.268	58.1403
536.741	1.0024
537.213	-39.09136
537.686	-6.01484
538.158	46.10495
538.631	0
539.103	10.02282
539.575	5.01043
540.047	13.02863
540.519	3.00724
540.991	39.09535
541.463	-7.01703
541.934	-28.0644
542.406	64.15359
542.877	29.06588
543.348	-20.049
543.82	-24.05921
544.291	14.03298
544.762	28.06707
545.233	56.14191
545.703	48.10721
546.174	7.01641
546.645	20.04876
547.115	39.09454
547.585	58.13356
548.056	20.04958
548.526	70.16607
548.996	28.06737
549.466	-10.02463
549.935	23.05542
550.405	27.0599
550.875	9.02161
551.344	-11.0266
551.814	34.07848
552.283	103.22354
552.752	34.08029
553.221	24.05361
553.69	103.23163
554.159	66.16433
554.628	107.24121
555.096	63.1603
555.565	17.03806
556.033	110.26046
556.502	15.03655
556.97	101.22368
557.438	62.14578
557.906	102.23918
558.374	105.24202
558.842	104.24749
559.31	94.2097
559.777	109.26441
560.245	46.10605
560.712	70.16035
561.18	109.23969
561.647	94.20761
562.114	135.30558
562.581	177.42645
563.048	147.33166
563.514	232.56455
563.981	186.4163
564.448	224.49079
564.914	239.53634
565.381	227.50271
565.847	261.58475
566.313	261.58234
566.779	321.68564
567.245	228.51114
567.711	339.76884
568.176	327.69543
568.642	370.87935
569.108	392.90433
569.573	384.83244
570.038	417.80645
570.504	466.96835
570.969	441.01341
571.434	538.07783
571.899	542.16395
572.363	577.18676
572.828	650.31883
573.293	587.20357
573.757	649.33149
574.222	672.31885
574.686	704.4123
575.15	755.57641
575.614	787.59683
576.078	690.41986
576.542	725.43207
577.006	720.41054
577.469	771.64254
577.933	784.52816
578.396	769.57233
578.86	765.55285
579.323	768.6011
579.786	774.42942
580.249	788.59487
580.712	708.50919
581.175	685.49009
581.637	705.40032
582.1	679.28904
582.563	651.20936
583.025	651.40647
583.487	677.20726
583.95	574.09705
584.412	630.16243
584.874	635.38005
585.336	559.19768
585.797	522.0269
586.259	516.09898
586.721	486.04484
587.182	507.06457
587.643	454.95182
588.105	437.95801
588.566	457.87365
589.027	471.0639
589.488	430.91624
589.949	438.98867
590.41	444.8067
590.87	467.98447
591.331	420.85214
591.791	367.80017
592.252	348.76663
592.712	325.74009
593.172	327.70602
593.632	429.88451
594.092	377.78779
594.552	332.68068
595.011	312.68013
595.471	367.78286
595.931	344.73428
596.39	279.64279
596.849	256.57437
597.308	272.55515
597.768	267.66364
598.227	265.61249
598.685	295.64212
599.144	296.66711
599.603	246.55511
600.062	252.51129
600.52	243.53029
600.978	222.50873
601.437	211.46631
601.895	238.49282
602.353	249.52702
602.811	268.58075
603.269	223.5142
603.727	187.4384
604.184	218.48228
604.642	209.49954
605.099	208.47263
605.557	211.49853
606.014	200.41951
606.471	169.41548
606.928	256.54788
607.385	182.44571
607.842	180.4037
608.299	197.44863
608.755	140.33405
609.212	196.42619
609.668	226.49392
610.125	160.37826
610.581	214.48685
611.037	151.3326
611.493	158.36179
611.949	171.40794
612.405	222.43766
612.861	174.39121
613.316	170.39863
613.772	182.40701
614.227	165.38864
614.683	121.25364
615.138	131.30291
615.593	134.30646
616.048	144.32403
616.503	116.27827
616.958	107.2652
617.412	105.24703
617.867	162.35525
618.321	143.29021
618.776	124.26963
619.23	124.28656
619.684	135.29648
620.138	153.34322
620.592	155.3685
621.046	204.46805
621.5	112.26632
621.954	179.38566
622.407	117.25544
622.861	183.43288
623.314	157.34784
623.768	176.40559
624.221	147.2836
624.674	156.3529
625.127	104.23919
625.58	114.25263
626.033	197.41751
626.485	162.37883
626.938	207.47769
627.39	167.38139
627.843	173.38888
628.295	168.37803
628.747	181.42035
629.199	173.38393
629.651	173.38665
630.103	158.35436
630.555	155.31916
631.006	146.33256
631.458	182.41657
631.909	131.28818
632.361	112.25481
632.812	171.3858
633.263	182.38378
633.714	150.31046
634.165	150.35187
634.616	177.40716
635.067	187.39943
635.518	166.38377
635.968	207.39148
636.419	213.44885
636.869	212.48503
637.319	221.49453
637.769	207.44982
638.219	232.52652
638.669	174.40258
639.119	215.49654
639.569	234.53988
640.019	248.5491
640.468	226.48744
640.918	222.5073
641.367	221.47635
641.816	252.53558
642.265	273.6076
642.714	218.48188
643.163	257.56843
643.612	287.67044
644.061	265.54
644.51	285.62141
644.958	287.60159
645.406	267.60975
645.855	280.64805
646.303	247.547
646.751	289.63574
647.199	298.63996
647.647	322.70579
648.095	305.65796
648.543	315.59984
648.99	327.74193
649.438	313.6839
649.885	384.89574
650.333	383.68471
650.78	364.82469
651.227	399.90966
651.674	359.76646
652.121	425.96657
652.568	366.841
653.015	399.91956
653.461	405.89385
653.908	354.76087
654.354	421.92722
654.801	423.91638
655.247	464.91347
655.693	458.09874
656.139	488.05995
656.585	520.12286
657.031	521.10604
657.477	576.11471
657.922	530.08137
658.368	547.21173
658.813	518.05971
659.259	619.33155
659.704	609.2808
660.149	567.16564
660.594	671.39279
661.039	635.26929
661.484	695.43112
661.929	711.43654
662.373	670.48116
662.818	745.59397
663.262	750.56285
663.707	827.79769
664.151	829.71272
664.595	863.7536
665.039	845.77618
665.483	940.99371
665.927	937.80397
666.371	970.86091
666.814	1029.96717
667.258	1060.04799
667.701	1072.77322
668.145	1128.23043
668.588	1161.2665
669.031	1174.13859
669.474	1164.17895
669.917	1216.00038
670.36	1335.52386
670.803	1397.49227
671.245	1324.93003
671.688	1431.5532
672.13	1473.35769
672.573	1480.74144
673.015	1583.68376
673.457	1638.36779
673.899	1695.80023
674.341	1723.80819
674.783	1789.84314
675.225	1867.01951
675.666	2009.10039
676.108	2003.55727
676.549	2019.87649
676.991	2168.68655
677.432	2219.28847
677.873	2303.91033
678.314	2369.14043
678.755	2552.39804
679.196	2510.97058
679.637	2598.23282
680.078	2729.11722
680.518	2799.02168
680.959	2899.2354
681.399	2984.48328
681.839	3060.35482
682.28	3193.50834
682.72	3307.94118
683.16	3508.48656
683.6	3532.84352
684.039	3698.19786
684.479	3767.33517
684.919	3987.89515
685.358	4009.29786
685.798	4173.60007
686.237	4309.82797
686.676	4459.36948
687.115	4648.55724
687.554	4752.61649
687.993	4844.00342
688.432	4924.16681
688.871	5237.03
689.309	5307.31912
689.748	5517.27502
690.186	5666.94141
690.625	5823.90699
691.063	6039.9251
691.501	6246.11656
691.939	6471.18843
692.377	6651.873
692.815	6747.92551
693.253	6976.74144
693.69	7157.34858
694.128	7281.90627
694.565	7453.824
695.003	7743.36278
695.44	7840.03485
695.877	8091.21092
696.314	8257.09933
696.751	8407.44676
697.188	8730.96065
697.625	8881.16247
698.061	9038.53266
698.498	9181.78851
698.934	9367.18326
699.371	9617.76736
699.807	9789.21146
700.243	9928.57324
700.679	10085.18396
701.115	10376.03766
701.551	10305.80961
701.987	10380.26424
702.422	10597.75443
702.858	10927.03441
703.294	10922.19518
703.729	10934.98653
704.164	11015.40319
704.599	11031.80556
705.035	11268.87306
705.47	11251.34137
705.904	11272.70567
706.339	11396.348
706.774	11569.0692
707.209	11569.10734
707.643	11579.98109
708.078	11657.25759
708.512	11730.41182
708.946	11671.51785
709.38	11652.3927
709.814	11631.63652
710.248	11666.26131
710.682	11616.13253
711.116	11677.3428
711.549	11468.05089
711.983	11281.76935
712.416	11283.61615
712.85	11108.63056
713.283	11051.61812
713.716	11028.29468
714.149	10783.59712
714.582	10635.12902
715.015	10523.41707
715.448	10333.72242
715.881	10116.39743
716.313	10060.01071
716.746	9906.5361
717.178	9784.1861
717.61	9770.13713
718.043	9639.81582
718.475	9271.99246
718.907	9254.99262
719.339	9152.69984
719.77	8870.2377
720.202	8579.93588
720.634	8539.82488
721.065	8393.51718
721.497	8263.50243
721.928	7898.18609
722.359	7973.22998
722.79	7821.04397
723.221	7661.12407
723.652	7436.17848
724.083	7349.50672
724.514	7133.53813
724.945	6912.60445
725.375	6996.60991
725.806	6647.93552
726.236	6544.22543
726.666	6464.67137
727.096	6277.96758
727.526	6312.37154
727.956	6115.56785
728.386	5909.11899
728.816	5840.51319
729.246	5787.24075
729.675	5447.30277
730.105	5345.37537
730.534	5376.99811
730.964	5169.62947
731.393	5205.4616
731.822	5137.86262
732.251	4946.90912
732.68	4809.25492
733.109	4750.78487
733.537	4732.73494
733.966	4576.98639
734.395	4539.4102
734.823	4427.15605
735.251	4402.759
735.68	4227.04162
736.108	4079.21842
736.536	4020.75675
736.964	3983.70463
737.392	3876.30164
737.82	3754.00345
738.247	3697.01085
738.675	3619.93829
739.102	3572.38614
739.53	3484.65554
739.957	3377.7186
740.384	3342.17954
740.811	3233.42216
741.238	3162.35295
741.665	3223.06977
742.092	2975.93939
742.519	2998.43946
742.945	3059.30299
743.372	2894.43985
743.798	2858.62027
744.225	2749.11217
744.651	2661.4331
745.077	2649.4124
745.503	2573.1991
745.929	2575.23647
746.355	2560.23728
746.781	2435.25828
747.207	2388.07767
747.632	2346.30417
748.058	2298.36066
748.483	2296.87278
748.908	2186.23329
749.334	2277.22701
749.759	2110.97678
750.184	2109.03103
750.609	2034.05061
751.033	2002.80356
751.458	1982.60073
751.883	1917.98934
752.307	1799.71812
752.732	1865.14322
753.156	1816.91659
753.58	1741.67271
754.005	1732.92192
754.429	1801.75641
754.853	1648.8223
755.277	1587.58034
755.7	1588.7433
756.124	1506.66507
756.548	1523.49329
756.971	1531.61858
757.394	1420.66103
757.818	1420.70122
758.241	1414.63942
758.664	1377.56826
759.087	1418.2479
759.51	1273.35392
759.933	1283.31618
760.356	1293.53777
760.778	1218.27588
761.201	1238.2454
761.623	1081.99724
762.046	1119.99991
762.468	1103.0427
762.89	1056.02569
763.312	1056.04218
763.734	1039.97963
764.156	1050.05371
764.578	976.75221
765	983.92072
765.421	927.94779
765.843	903.96128
766.264	871.68073
766.686	862.76547
767.107	835.67585
767.528	864.8555
767.949	791.69319
768.37	839.7334
768.791	744.5009
769.212	741.59496
769.632	784.53178
770.053	668.51782
770.473	713.4577
770.894	669.41271
771.314	657.32426
771.734	661.31524
772.154	677.49136
772.575	610.20994
772.994	586.14601
773.414	588.21404
773.834	524.15806
774.254	519.1219
774.673	586.25696
775.093	564.23984
775.512	577.25226
775.931	523.18252
776.351	514.14349
776.77	496.08832
777.189	497.04812
777.607	423.98378
778.026	471.05352
778.445	407.94546
778.864	415.95604
779.282	394.85156
779.701	369.84942
780.119	383.89113
780.537	350.80135
780.955	411.94456
781.373	367.8303
781.791	381.78661
782.209	327.67392
782.627	347.847
783.045	300.62787
783.462	358.842
783.88	288.69817
784.297	290.68024
784.715	320.76756
785.132	304.67617
785.549	271.63233
785.966	335.77825
786.383	283.65253
786.8	301.64404
787.217	287.63823
787.633	274.64623
788.05	251.54264
788.466	282.60613
788.883	271.65364
789.299	224.49866
789.715	269.61234
790.131	257.59801
790.547	204.48022
790.963	205.47947
791.379	201.48152
791.795	181.38461
792.21	210.4574
792.626	185.41056
793.041	208.48277
793.457	138.32347
793.872	173.38089
794.287	189.43407
794.702	147.33896
795.117	154.36689
795.532	212.50603
795.947	153.34421
796.362	139.30861
796.776	182.39271
797.191	199.46069
797.605	141.31994
798.02	174.40034
798.434	170.35643
798.848	176.41737
799.262	130.30865
799.676	181.41736
800.09	128.30074
800.504	137.31502
800.918	99.21733
801.331	91.22447
801.745	100.21837
802.158	103.24488
802.572	130.30066
802.985	118.26955
803.398	133.30081
803.811	127.3053
804.224	142.33167
804.637	165.37379
805.05	110.24112
805.462	114.26617
805.875	69.17395
806.288	118.27421
806.7	45.10851
807.112	89.19571
807.525	57.13364
807.937	50.12017
808.349	85.20333
808.761	129.30409
809.173	152.35126
809.584	50.11885
809.996	41.09721
810.408	43.10926
810.819	73.16551
811.231	106.27356
811.642	143.33918
812.053	96.22529
812.464	54.1235
812.875	78.1935
813.286	105.26233
813.697	45.09879
814.108	50.11743
814.519	143.30413
814.929	110.26779
815.34	68.15702
815.75	118.28984
816.16	34.08107
816.571	43.10802
816.981	83.18527
817.391	27.06258
817.801	93.2228
818.211	69.15765
818.62	79.18384
819.03	28.06638
819.44	64.15854
819.849	80.19162
820.259	37.0908
820.668	81.19242
821.077	78.1884
821.486	53.12134
821.895	68.15908
822.304	50.12819
822.713	72.16261
823.122	81.19376
823.531	15.03397
823.939	109.25485
824.348	66.15325
824.756	73.17482
825.164	51.1233
825.573	78.1884
825.981	50.11894
826.389	87.20922
826.797	140.3398
827.205	78.17285
827.612	66.15573
828.02	19.04299
828.428	31.0765
828.835	81.20712
829.243	40.09126
829.65	37.08989
830.057	62.14391
830.464	67.15917
830.871	121.27656
831.278	64.14884
831.685	45.096
832.092	4.00942
832.499	101.21087
832.905	19.04639
833.312	46.09875
833.718	37.08992
834.124	91.19876
834.531	46.11081
834.937	65.16146
835.343	46.10597
835.749	44.0973
836.155	59.14933
836.561	22.05256
836.966	40.09402
837.372	46.11253
837.777	72.17312
838.183	50.1059
838.588	64.15406
838.993	46.10808
839.399	66.15592
839.804	-2.00476
840.209	41.10236
840.613	45.09587
841.018	33.08044
841.423	36.08957
841.828	35.08621
842.232	36.08455
842.637	96.2185
843.041	24.06008
843.445	24.05788
843.849	27.06505
844.253	45.10257
844.657	33.08107
845.061	86.18955
845.465	50.11638
845.869	22.04938
846.272	40.0946
846.676	1.00231
847.079	59.14597
847.483	57.13645
847.886	64.1479
848.289	26.06845
848.692	6.01467
849.095	29.06695
849.498	28.06763
849.901	42.09168
850.304	94.21377
850.707	33.08113
851.109	63.15243
851.512	36.08574
851.914	9.02224
852.316	88.21591
852.718	81.20668
853.121	49.11578
853.523	15.03365
853.925	35.08956
854.326	29.07075
854.728	35.08754
855.13	47.11853
855.531	-14.03269
855.933	59.13442
856.334	40.09723
856.736	61.13211
857.137	15.03408
857.538	62.15128
857.939	67.16155
858.34	12.02802
858.741	24.06069
859.142	12.02775
859.542	59.15155
859.943	46.11014
860.343	48.1155
860.744	42.09872
861.144	69.16303
861.544	38.08946
861.945	38.09351
862.345	28.06581
862.745	52.1255
863.145	75.16776
863.544	47.11504
863.944	19.04336
864.344	-7.01669
864.743	85.2013
865.143	81.20171
865.542	-3.00665
865.941	54.1292
866.34	10.02287
866.74	31.08093
867.139	61.14229
867.537	-2.0049
867.936	24.0561
868.335	31.07613
868.734	44.10888
869.132	-16.03565
869.531	9.02081
869.929	39.0859
870.327	37.08546
870.726	62.14681
871.124	32.07136
871.522	21.05167
871.92	66.15622
872.318	21.04925
872.715	55.12874
873.113	7.01644
873.511	-11.02659
873.908	16.03991
874.306	49.11851
874.703	12.02881
875.1	15.03666
875.497	50.11463
875.894	65.15596
876.291	69.16272
876.688	42.10488
877.085	12.02764
877.482	20.04845
877.878	43.10113
878.275	44.10824
878.671	1.00208
879.068	99.22719
879.464	29.06759
879.86	36.08194
880.256	37.08651
880.652	14.03454
881.048	47.11079
881.444	40.09008
881.84	22.05408
882.236	64.15435
882.631	77.18194
883.027	76.175
883.422	12.02958
883.817	42.10275
884.213	15.03738
884.608	67.16137
885.003	-8.01857
885.398	54.13023
885.793	21.05079
886.188	2.00482
886.582	41.1005
886.977	52.11744
887.371	1.00244
887.766	20.04849
888.16	25.05921
888.554	50.11793
888.949	52.12555
889.343	87.20149
889.737	20.05237
890.131	30.07276
890.525	68.16839
890.918	34.08256
891.312	53.12021
891.706	34.08616
892.099	34.0833
892.492	33.06764
892.886	24.05656
893.279	18.04433
893.672	64.15784
894.065	42.10152
894.458	-5.0121
894.851	43.10058
895.244	-19.04733
895.637	76.17556
896.029	37.0878
896.422	-4.00936
896.814	44.10495
897.206	54.12524
897.599	72.17022
897.991	45.10538
898.383	58.13158
898.775	65.14179
899.167	70.15848
899.559	21.05096
899.951	42.09408
900.342	6.01466
900.734	71.17333
901.125	26.06563
901.517	27.06414
901.908	35.07942
902.299	26.06161
902.69	59.13464
903.082	44.10245
903.473	15.03533
903.863	24.05891
904.254	59.13274
904.645	28.0663
905.036	45.10711
905.426	47.10126
905.817	-2.00473
906.207	6.01367
906.597	30.06831
906.987	19.04732
907.378	50.12254
907.768	13.03354
908.158	24.05634
908.547	29.07366
908.937	8.01967
909.327	50.11628
909.717	47.1129
910.106	42.09644
910.495	10.02389
910.885	67.16338
911.274	66.15791
911.663	20.04865
912.052	31.07282
912.441	41.10147
912.83	49.10675
913.219	37.09324
913.608	38.09005
913.997	74.17968
914.385	81.18447
914.774	44.10273
915.162	32.07436
915.55	12.02783
915.939	41.10069
916.327	73.17289
916.715	84.20846
917.103	13.03037
917.491	73.17208
917.878	39.09204
918.266	14.03507
918.654	72.17809
919.041	96.24336
919.429	34.07713
919.816	25.06119
920.203	35.08263
920.591	36.08626
920.978	61.14313
921.365	61.15488
921.752	-12.0273
922.139	51.10558
922.525	50.11578
922.912	43.10038
923.299	47.1126
923.685	-25.06314
924.072	38.08175
924.458	35.08404
924.844	26.06218
925.231	-4.00892
925.617	39.09691
926.003	64.15656
926.389	5.01223
926.774	39.09493
927.16	49.11672
927.546	60.14993
927.931	19.04552
928.317	45.09841
928.702	91.20338
929.088	86.19843
929.473	45.11137
929.858	59.13951
930.243	33.07716
930.628	71.16717
931.013	13.03125
931.398	38.08217
931.783	16.04042
932.167	115.26982
932.552	8.01936
932.937	71.1675
933.321	40.09767
933.705	-9.0218
934.09	27.06444
934.474	16.03625
934.858	61.15268
935.242	-1.00223
935.626	34.08459
936.009	52.13508
936.393	116.28514
936.777	52.12914
937.16	52.13163
937.544	21.0468
937.927	60.14727
938.311	68.15746
938.694	97.24646
939.077	36.08286
939.46	-1.00232
939.843	23.04465
940.226	33.08131
940.609	43.09587
940.991	20.04894
941.374	32.07592
941.757	35.08279
942.139	80.17136
942.522	62.13894
942.904	65.14947
943.286	30.07333
943.668	78.19611
944.05	16.03815
944.432	4.00952
944.814	24.05641
945.196	19.04515
945.578	45.10463
945.959	50.11085
946.341	27.06256
946.722	29.065
947.104	80.1823
947.485	53.11801
947.866	39.09564
948.247	90.21927
948.628	-8.01853
949.009	36.08905
949.39	55.13046
949.771	12.0262
950.152	15.03565
950.532	71.17236
950.913	28.06491
951.293	45.11884
951.674	24.05597
952.054	89.21484
952.434	60.14317
952.814	18.04075
953.194	11.02755
953.574	37.08722
953.954	16.03621
954.334	65.15691
954.714	39.09197
955.093	29.06868
955.473	27.06601
955.853	31.07768
956.232	26.06911
956.611	28.06368
956.99	38.09251
957.37	43.10482
957.749	24.05416
958.128	73.17742
958.506	3.00758
958.885	13.03164
959.264	65.15477
959.643	84.18273
960.021	48.11528
960.4	34.07371
960.778	-21.0495
961.156	-17.0413
961.535	9.02
961.913	64.14384
962.291	65.16252
962.669	37.09097
963.047	33.08185
963.424	103.25445
963.802	6.01433
964.18	-18.04356
964.557	46.10071
964.935	28.0637
965.312	41.10381
965.69	36.08593
966.067	30.06944
966.444	20.04659
966.821	64.15877
967.198	65.14869
967.575	41.09612
967.952	63.14115
968.329	100.23284
968.705	65.13324
969.082	86.21436
969.458	60.13993
969.835	57.13285
970.211	34.0853
970.587	24.05784
970.963	19.04673
971.339	8.02041
971.715	34.08203
972.091	34.08051
972.467	26.06156
972.843	35.08481
973.219	89.20072
973.594	11.02796
973.97	41.09084
974.345	44.10156
974.721	51.11634
975.096	50.11711
975.471	44.09954
975.846	68.15464
976.221	64.15627
976.596	78.18162
976.971	76.18072
977.346	40.08835
977.72	31.07582
978.095	44.10955
978.469	7.01605
978.844	72.172
979.218	94.21784
979.593	37.08464
979.967	-10.02315
980.341	15.03343
980.715	34.08287
981.089	67.16045
981.463	41.09012
981.837	10.02395
982.21	17.03693
982.584	44.10253
982.957	19.04619
983.331	-27.06099
983.704	70.16677
984.078	24.05694
984.451	22.05185
984.824	26.06149
985.197	22.05062
985.57	27.06419
985.943	34.07917
986.316	-21.04925
986.688	9.02091
987.061	47.10587
987.434	44.11225
987.806	26.05973
988.179	30.06767
988.551	25.06094
988.923	-21.04997
989.295	57.13572
989.667	33.0771
990.039	75.18043
990.411	25.05428
990.783	29.06305
991.155	16.0373
991.527	47.10864
991.898	52.12512
992.27	11.02661
992.641	48.11484
993.012	18.03959
993.384	21.04794
993.755	3.00747
994.126	46.10715
994.497	18.04267
994.868	45.09746
995.239	24.05582
995.61	3.00733
995.98	33.07694
996.351	-9.02182
996.722	68.1522
997.092	47.10725
997.462	26.0592
997.833	13.02939
998.203	-10.02311
998.573	39.0939
998.943	24.05445
999.313	66.15204
999.683	12.02791
1000.053	9.01942
1000.423	49.11313
1000.792	-6.01494
1001.162	13.03067
1001.531	34.08085
1001.901	6.01439
1002.27	-23.04862
1002.639	23.05632
1003.009	0
1003.378	22.05452
1003.747	9.02035
1004.116	46.10521
1004.485	49.112
1004.853	-28.06811
1005.222	-29.06987
1005.591	51.1153
1005.959	7.01526
1006.328	53.11419
1006.696	14.03241
1007.064	22.05286
1007.433	13.03112
1007.801	28.06489
1008.169	0
1008.537	45.09479
1008.905	41.0922
1009.273	14.0331
1009.64	30.0698
1010.008	72.16301
1010.375	50.11389
1010.743	-16.03451
1011.11	100.22898
1011.478	69.16455
1011.845	42.09389
1012.212	66.14388
1012.579	46.10858
1012.946	18.04069
1013.313	31.07009
1013.68	34.07255
1014.047	11.02526
1014.414	-2.00455
1014.78	34.08172
1015.147	45.10281
1015.513	35.08096
1015.88	50.12186
1016.246	10.0235
1016.612	53.11444
1016.978	39.09247
1017.344	57.13525
1017.71	54.12499
1018.076	38.08477
1018.442	86.21218
1018.808	37.08996
1019.174	6.01447
1019.539	-2.00423
1019.905	-29.06685
1020.27	3.00715
1020.636	22.04995
1021.001	59.1354
1021.366	30.06961
1021.731	82.20476
1022.096	22.05418
1022.461	38.08645
1022.826	62.14185
1023.191	36.09129
1023.556	45.10016
1023.92	13.03051
1024.285	43.09939
1024.649	11.02583
1025.014	15.03539
1025.378	64.15522
1025.742	44.10386
1026.107	28.06034
1026.471	28.06218
1026.835	12.02873
1027.199	43.09947
1027.562	23.05068
1027.926	63.14608
1028.29	36.08784
1028.654	44.09612
1029.017	69.16246
1029.381	68.15546
1029.744	16.0395
1030.107	43.09729
1030.471	74.16972
1030.834	10.02146
1031.197	52.11955
1031.56	-5.01132
1031.923	32.08005
1032.286	49.10983
1032.648	15.03398
1033.011	63.13982
1033.374	40.08879
1033.736	7.0179
1034.099	55.12839
1034.461	36.08839
1034.823	41.09864
1035.185	35.08391
1035.548	85.1978
1035.91	33.07564
1036.272	62.13499
1036.634	76.17696
1036.995	-3.00674
1037.357	37.08695
1037.719	35.0819
1038.08	62.14168
1038.442	8.01826
1038.803	14.03179
1039.165	5.01215
1039.526	52.12031
1039.887	26.05968
1040.248	73.17495
1040.609	-6.01419
1040.97	13.03053
1041.331	64.15645
1041.692	87.19645
1042.053	46.09909
1042.413	42.0928
1042.774	54.12593
1043.134	32.07195
1043.495	31.075
1043.855	81.18923
1044.215	30.07117
1044.576	25.05792
1044.936	41.0891
1045.296	28.06725
1045.656	32.07454
1046.016	28.06448
1046.375	14.03273
1046.735	91.19893
1047.095	46.10292
1047.454	89.17451
1047.814	34.07851
1048.173	-13.02956
1048.533	22.04831
1048.892	17.0395
1049.251	50.11935
1049.61	16.03805
1049.969	-46.10516
1050.328	50.10284
1050.687	15.03491
1051.046	19.04434
1051.405	10.02377
1051.763	3.00673
1052.122	-7.01689
1052.48	36.08508
1052.839	63.14382
1053.197	21.0474
1053.555	49.10371
1053.914	30.07024
1054.272	7.01593
1054.63	-3.00712
1054.988	43.09884
1055.345	13.02632
1055.703	64.1472
1056.061	55.13766
1056.419	85.21413
1056.776	22.05034
1057.134	-31.0682
1057.491	38.09154
1057.848	0
1058.206	-33.074
1058.563	21.0441
1058.92	35.07667
1059.277	17.04042
1059.634	8.01782
1059.991	31.07146
1060.348	25.05435
1060.704	62.14453
1061.061	24.05228
1061.418	42.09779
1061.774	-4.00956
1062.131	30.07801
1062.487	4.00895
1062.843	37.08857
1063.199	32.07662
1063.555	74.16447
1063.911	21.05081
1064.267	93.17812
1064.623	28.06622
1064.979	-4.00878
1065.335	75.16859
1065.691	-30.06864
1066.046	64.1327
1066.402	-23.05013
1066.757	45.1092
1067.112	29.06804
1067.468	26.05985
1067.823	-14.03184
1068.178	12.02774
1068.533	82.18882
1068.888	7.01601
1069.243	23.05468
1069.598	-10.02334
1069.952	77.16825
1070.307	45.10752
1070.662	58.13329
1071.016	11.02405
1071.371	27.05915
1071.725	79.17751
1072.079	11.02556
1072.434	44.1029
1072.788	-58.13276
1073.142	89.20833
1073.496	33.07479
1073.85	51.11238
1074.203	39.09083
1074.557	56.14538
1074.911	82.18406
1075.265	4.00894
1075.618	83.19292
1075.971	30.06831
1076.325	21.05199
1076.678	-18.03982
1077.031	-14.02985
1077.385	5.0105
1077.738	24.05165
1078.091	36.07905
1078.444	11.02419
1078.796	35.08308
1079.149	54.12895
1079.502	63.14295
1079.855	33.07379
1080.207	18.04254
1080.56	26.06539
1080.912	33.07691
1081.264	50.11569
1081.617	57.13337
1081.969	22.05394
1082.321	38.08862
1082.673	43.09535
1083.025	-6.01365
1083.377	11.02484
1083.728	33.07318
1084.08	35.08337
1084.432	5.01158
1084.783	13.02861
1085.135	9.02192
1085.486	18.03979
1085.838	41.09729
1086.189	56.13121
1086.54	12.02743
1086.891	67.16564
1087.242	71.16802
1087.593	33.07576
1087.944	72.15603
1088.295	37.07996
1088.646	113.26441
1088.996	-2.00469
1089.347	17.0399
1089.698	51.11662
1090.048	12.02998
1090.398	2.00443
1090.749	-1.00228
1091.099	42.10297
1091.449	35.08423
1091.799	39.09379
1092.149	-6.0144
1092.499	22.05167
1092.849	-2.00494
1093.199	20.04785
1093.548	41.09556
1093.898	47.1123
1094.248	41.10028
1094.597	18.04508
1094.947	21.05445
1095.296	59.14027
1095.645	40.09978
1095.994	17.03928
1096.343	47.11406
1096.692	30.07761
1097.041	15.04016
1097.39	25.06003
1097.739	10.02517
1098.088	14.03612
1098.437	38.098
1098.785	30.07764
1099.134	10.02531
1099.482	34.09107
1099.83	51.12917
1100.179	82.2092
1100.527	-19.04865
1100.875	20.05171
1101.223	49.12652
1101.571	-25.06742
1101.919	63.16222
1102.267	2.00555
1102.615	-1.00321
1102.962	-4.01284
1103.31	4.01285
1103.658	-13.04174
