Data from N1R0 105C sample 9_Subt2__1__12-49-14-705.txt Node

Date: Tue Sep 16 12:49:14 PDT 2025
User: uwsun
Spectrometer: HDX01956
Trigger mode: 0
Integration Time (sec): 5.000000E-1
Scans to average: 1
Nonlinearity correction enabled: true
Boxcar width: 0
Storing dark spectrum: false
XAxis mode: Wavelengths
Number of Pixels in Spectrum: 2068
>>>>>Begin Spectral Data<<<<<
194.03	-5.01453
194.578	-2.0065
195.127	-5.01604
195.676	0
196.225	17.04527
196.773	-34.09552
197.321	-15.0421
197.87	46.11958
198.418	37.09703
198.966	53.14166
199.513	81.20821
200.061	38.09834
200.609	83.22096
201.156	34.07623
201.704	36.09233
202.251	39.10537
202.798	57.14983
203.345	41.10351
203.892	65.16661
204.438	28.06791
204.985	28.06806
205.532	35.09364
206.078	22.05494
206.624	97.24576
207.17	107.25321
207.716	51.12742
208.262	51.10359
208.808	60.15323
209.354	67.1683
209.899	14.03604
210.445	59.15002
210.99	46.11449
211.535	90.21475
212.08	33.07837
212.625	32.08152
213.17	89.22909
213.715	85.19702
214.259	66.1567
214.804	42.10484
215.348	97.22679
215.892	80.19679
216.436	38.08855
216.98	103.22802
217.524	82.19858
218.068	68.17391
218.612	77.19813
219.155	57.13703
219.698	74.17826
220.242	59.14746
220.785	106.2507
221.328	46.11537
221.871	110.28142
222.414	41.10292
222.956	0
223.499	40.09075
224.041	49.11358
224.583	53.11341
225.126	3.00675
225.668	98.23902
226.21	99.25163
226.751	72.16228
227.293	55.12597
227.835	51.12659
228.376	40.09233
228.918	17.04304
229.459	44.11122
230	90.21746
230.541	50.11651
231.082	58.14283
231.622	-12.02783
232.163	64.15575
232.704	91.22892
233.244	35.08808
233.784	83.2021
234.324	125.28145
234.864	56.12802
235.404	26.06221
235.944	45.10731
236.484	99.2477
237.023	9.02164
237.563	53.12484
238.102	54.1292
238.641	-12.0308
239.18	30.07164
239.719	61.15406
240.258	48.10934
240.797	49.11855
241.335	29.07156
241.874	80.15771
242.412	59.145
242.95	56.13699
243.488	-37.08563
244.026	27.06399
244.564	114.23521
245.102	74.16945
245.64	19.04614
246.177	16.03627
246.715	80.19352
247.252	37.08525
247.789	123.22806
248.326	31.07596
248.863	61.13605
249.4	63.1444
249.936	79.16743
250.473	76.18135
251.009	27.06293
251.546	97.21805
252.082	31.06817
252.618	65.14713
253.154	30.07342
253.69	54.12271
254.226	50.12131
254.761	78.17659
255.297	30.06676
255.832	87.20827
256.367	65.1543
256.903	104.23239
257.438	55.13046
257.972	70.15751
258.507	10.02343
259.042	51.11267
259.576	113.25109
260.111	29.06775
260.645	71.15508
261.179	82.19364
261.713	53.12046
262.247	28.06507
262.781	101.21424
263.315	20.04934
263.849	58.14677
264.382	68.15777
264.915	48.11528
265.449	40.09905
265.982	88.20126
266.515	86.21226
267.048	51.10993
267.58	33.0725
268.113	54.11857
268.646	61.15069
269.178	-18.04138
269.71	66.14797
270.243	88.20555
270.775	125.32052
271.307	29.07006
271.838	94.22292
272.37	37.09197
272.902	51.11713
273.433	104.23191
273.965	93.22696
274.496	52.13032
275.027	94.23515
275.558	77.18959
276.089	45.11401
276.62	3.00771
277.15	46.11453
277.681	36.07891
278.211	40.09891
278.741	45.10174
279.272	66.15295
279.802	32.0808
280.332	76.18121
280.861	24.05841
281.391	97.2218
281.921	42.10183
282.45	22.05547
282.98	63.16565
283.509	139.31591
284.038	70.16215
284.567	39.09244
285.096	92.22464
285.625	34.07792
286.153	127.30379
286.682	76.17661
287.21	-1.00244
287.739	49.11748
288.267	74.18203
288.795	58.15294
289.323	55.13111
289.851	75.17845
290.378	51.11549
290.906	83.20489
291.433	61.15378
291.961	105.24144
292.488	62.15544
293.015	52.12474
293.542	96.24827
294.069	113.28099
294.596	81.19944
295.122	96.23196
295.649	39.08702
296.175	60.14618
296.702	96.23641
297.228	51.12451
297.754	47.10769
298.28	118.2728
298.806	-11.02722
299.332	84.19033
299.857	79.1818
300.383	73.18528
300.908	109.26937
301.433	65.16146
301.958	51.11891
302.483	40.10071
303.008	62.15628
303.533	52.13578
304.058	60.14185
304.582	95.22638
305.107	46.12134
305.631	87.19933
306.155	94.22103
306.679	77.18342
307.203	113.26389
307.727	57.13723
308.251	79.19695
308.775	132.32195
309.298	83.20233
309.822	36.09197
310.345	96.23161
310.868	102.24794
311.391	63.15729
311.914	69.17501
312.437	122.28037
312.96	94.22369
313.482	26.06247
314.005	62.15672
314.527	36.09506
315.049	80.2046
315.571	98.22323
316.093	83.20775
316.615	77.187
317.137	70.15538
317.659	100.24417
318.18	43.10439
318.702	133.31291
319.223	89.18433
319.744	84.19196
320.265	97.23866
320.786	120.30138
321.307	75.18759
321.828	84.19234
322.348	85.2027
322.869	70.16952
323.389	86.17241
323.909	79.18326
324.43	86.20795
324.95	63.14701
325.47	121.30176
325.989	131.3124
326.509	137.30884
327.029	116.26764
327.548	62.14339
328.067	63.15563
328.587	127.32005
329.106	60.138
329.625	135.35171
330.144	105.24713
330.662	111.26349
331.181	137.32508
331.7	62.14692
332.218	99.21834
332.736	136.32028
333.255	116.27594
333.773	108.2577
334.291	113.28497
334.808	134.30461
335.326	87.19885
335.844	156.36823
336.361	128.33136
336.879	96.22942
337.396	159.38801
337.913	157.36419
338.43	103.2359
338.947	138.3318
339.464	116.25406
339.981	83.20013
340.497	93.2316
341.014	128.31428
341.53	96.22026
342.046	166.41495
342.562	107.26936
343.078	138.32726
343.594	132.31629
344.11	171.40997
344.626	129.32776
345.141	148.34107
345.657	165.375
346.172	154.37308
346.687	116.26967
347.202	165.3788
347.717	162.38743
348.232	126.31622
348.747	150.34898
349.261	145.32193
349.776	172.40977
350.29	134.33787
350.805	144.35749
351.319	101.23855
351.833	159.36839
352.347	153.36346
352.861	210.49049
353.374	132.30347
353.888	202.49174
354.401	163.37286
354.915	148.3378
355.428	169.42146
355.941	155.3631
356.454	147.33003
356.967	142.33376
357.48	160.36474
357.993	189.46328
358.505	156.38048
359.018	204.49717
359.53	208.50502
360.042	185.41534
360.554	199.48525
361.066	147.3594
361.578	210.46323
362.09	178.42374
362.602	194.43313
363.113	191.44936
363.625	208.4711
364.136	169.37349
364.647	165.39287
365.158	194.45099
365.669	195.4643
366.18	180.42389
366.691	209.45687
367.201	204.48656
367.712	210.4793
368.222	258.58647
368.733	199.43317
369.243	291.63852
369.753	234.5345
370.263	232.55482
370.773	147.3594
371.282	239.56468
371.792	209.48269
372.301	188.45287
372.811	237.61276
373.32	236.50792
373.829	201.47196
374.338	237.52245
374.847	247.56363
375.356	219.51241
375.865	213.45655
376.373	292.65083
376.882	281.69614
377.39	282.66638
377.898	263.63482
378.407	335.73877
378.915	281.60489
379.423	287.65357
379.93	399.88798
380.438	306.71608
380.946	372.83287
381.453	399.91589
381.96	411.93663
382.468	410.9202
382.975	484.11263
383.482	442.93812
383.989	500.20193
384.495	543.17386
385.002	488.96072
385.509	556.2253
386.015	641.18247
386.521	612.26763
387.028	661.35065
387.534	594.15674
388.04	677.46457
388.546	670.3242
389.051	701.37035
389.557	736.50309
390.063	807.57715
390.568	866.78564
391.073	833.58656
391.578	938.93421
392.084	1009.88991
392.589	968.72893
393.093	1027.02232
393.598	1182.14023
394.103	1236.29942
394.607	1323.44426
395.112	1461.67749
395.616	1607.79888
396.12	1686.6664
396.624	1940.98694
397.128	2045.15867
397.632	2309.20953
398.136	2504.18024
398.639	2632.32608
399.143	2893.67081
399.646	3335.38427
400.15	3627.19798
400.653	4033.92511
401.156	4522.60971
401.659	5400.64726
402.162	6496.86847
402.664	8406.78079
403.167	12553.88609
403.67	24313.42345
404.172	59313.89353
404.674	63858.43483
405.176	63738.15102
405.678	63977.72923
406.18	64011.81569
406.682	63863.44694
407.184	63926.60148
407.686	63841.39382
408.187	37099.09798
408.688	21863.52667
409.19	15035.21242
409.691	12141.49307
410.192	10253.47984
410.693	8847.12785
411.194	7940.11959
411.694	7479.07001
412.195	6927.29501
412.696	6187.03031
413.196	5894.46348
413.696	5631.38526
414.196	5592.87012
414.696	5512.68468
415.196	5190.43716
415.696	4638.50167
416.196	3852.1577
416.695	2979.36847
417.195	2575.41564
417.694	2518.73182
418.194	2328.74111
418.693	2163.00487
419.192	2091.09448
419.691	1992.97307
420.19	2016.12655
420.688	1981.18503
421.187	1878.41218
421.685	1747.77722
422.184	1632.72397
422.682	1404.2445
423.18	1247.21792
423.678	1095.00675
424.176	1013.89089
424.674	914.69693
425.172	879.74805
425.669	833.75324
426.167	882.7276
426.664	765.50201
427.161	631.29567
427.659	637.38381
428.156	610.16148
428.652	546.25987
429.149	546.21127
429.646	494.01463
430.143	540.18403
430.639	483.05908
431.135	445.03931
431.632	396.85442
432.128	397.90035
432.624	415.00652
433.12	368.79708
433.616	366.76192
434.111	315.7179
434.607	356.81083
435.103	308.61948
435.598	330.65608
436.093	282.63374
436.588	283.61469
437.083	257.5587
437.578	272.60901
438.073	267.64667
438.568	288.68293
439.062	261.54105
439.557	207.47331
440.051	173.38313
440.546	194.43223
441.04	192.45197
441.534	216.53014
442.028	219.51422
442.522	197.46275
443.015	100.21448
443.509	205.48679
444.002	169.40641
444.496	186.39583
444.989	141.33792
445.482	205.49503
445.975	193.43686
446.468	173.36857
446.961	219.46332
447.454	130.28905
447.947	159.37364
448.439	170.40936
448.931	196.43994
449.424	178.44366
449.916	190.45318
450.408	222.49338
450.9	169.4027
451.392	148.36983
451.884	131.29785
452.375	125.30584
452.867	154.34084
453.358	121.27478
453.849	135.28574
454.341	217.47616
454.832	153.32568
455.323	175.42674
455.814	132.29836
456.304	181.4097
456.795	122.27587
457.285	103.22554
457.776	178.39692
458.266	97.22875
458.756	112.26201
459.247	110.26066
459.737	144.34294
460.226	161.36042
460.716	106.25118
461.206	102.24199
461.695	86.21116
462.185	143.33407
462.674	102.23149
463.163	146.32246
463.653	146.30625
464.142	131.31288
464.63	85.20464
465.119	102.23525
465.608	148.34079
466.096	96.20715
466.585	43.09856
467.073	74.17386
467.561	87.20724
468.05	64.14714
468.538	113.27257
469.026	51.12092
469.513	85.17873
470.001	73.16719
470.489	82.19379
470.976	152.34847
471.463	101.24868
471.951	61.15097
472.438	88.20514
472.925	97.22635
473.412	102.24469
473.899	125.2826
474.385	94.2279
474.872	93.21505
475.359	84.20495
475.845	109.22363
476.331	46.09828
476.817	80.1933
477.303	60.13921
477.789	33.07876
478.275	63.15563
478.761	57.13499
479.247	54.12047
479.732	76.18833
480.218	86.22325
480.703	115.27928
481.188	88.1894
481.673	91.20758
482.158	80.17225
482.643	110.27726
483.128	142.32528
483.612	108.25444
484.097	53.12751
484.581	55.12713
485.066	78.18982
485.55	101.22144
486.034	60.13008
486.518	121.28567
487.002	34.08274
487.486	46.11153
487.969	38.09237
488.453	18.04493
488.936	40.0903
489.42	59.13045
489.903	28.06977
490.386	-35.07392
490.869	112.24271
491.352	46.11056
491.835	36.07408
492.318	79.17656
492.8	73.15086
493.283	86.21754
493.765	50.12236
494.247	74.17135
494.73	65.14359
495.212	10.02385
495.694	61.14346
496.175	55.13197
496.657	123.2869
497.139	31.05375
497.62	65.15578
498.102	45.11194
498.583	3.00741
499.064	13.02923
499.545	42.0959
500.026	26.05918
500.507	-1.00233
500.988	124.30525
501.469	58.14399
501.949	41.10121
502.43	34.08215
502.91	122.25556
503.39	19.04726
503.87	43.1018
504.35	23.05405
504.83	26.05721
505.31	7.01699
505.79	12.02855
506.269	-2.00464
506.749	32.07339
507.228	9.02136
507.707	75.16672
508.187	48.11471
508.666	66.16289
509.145	24.05641
509.623	28.06584
510.102	84.20174
510.581	70.16818
511.059	42.10575
511.538	10.02591
512.016	30.07216
512.494	36.08669
512.972	22.05296
513.45	-1.00236
513.928	27.06592
514.406	46.11286
514.884	14.03628
515.361	52.12441
515.839	70.1608
516.316	70.16952
516.793	-12.03059
517.27	25.0604
517.747	11.02839
518.224	5.01163
518.701	74.16296
519.178	2.00505
519.654	-6.01437
520.131	1.0025
520.607	-33.08182
521.083	-52.12036
521.56	10.02376
522.036	19.04171
522.512	74.1819
522.987	55.13247
523.463	32.07615
523.939	45.11182
524.414	0
524.89	21.05043
525.365	52.11759
525.84	29.07003
526.315	-1.00245
526.79	79.17744
527.265	52.12031
527.74	-16.03932
528.215	36.08425
528.689	14.03097
529.164	-29.06337
529.638	-2.00511
530.112	15.03554
530.587	7.01516
531.061	23.05598
531.534	9.02187
532.008	36.08784
532.482	14.03246
532.956	-13.03351
533.429	73.17802
533.903	64.14011
534.376	28.06231
534.849	4.00929
535.322	7.01667
535.795	1.00244
536.268	47.11393
536.741	9.02155
537.213	8.01857
537.686	6.01481
538.158	30.06867
538.631	43.10435
539.103	12.02738
539.575	6.01251
540.047	14.03083
540.519	30.07202
540.991	25.06128
541.463	14.03393
541.934	18.04102
542.406	24.05803
542.877	16.03645
543.348	28.06799
543.82	20.04894
544.291	37.08678
544.762	51.12162
545.233	76.19191
545.703	7.01577
546.174	12.02811
546.645	0
547.115	25.06076
547.585	50.11532
548.056	33.08161
548.526	61.14497
548.996	10.02414
549.466	30.07333
549.935	40.09607
550.405	20.04443
550.875	68.16145
551.344	7.01687
551.814	47.10821
552.283	74.16159
552.752	40.09435
553.221	36.08021
553.69	103.23163
554.159	61.15202
554.628	37.0846
555.096	67.17036
555.565	41.09133
556.033	108.25582
556.502	52.12584
556.97	48.10748
557.438	83.19436
557.906	91.21385
558.374	77.17848
558.842	77.18419
559.31	107.23806
559.777	105.2549
560.245	80.18319
560.712	100.22769
561.18	92.20303
561.647	101.22275
562.114	140.31657
562.581	160.38674
563.048	177.39689
563.514	260.62936
563.981	205.45702
564.448	227.49705
564.914	204.4611
565.381	245.54054
565.847	273.61012
566.313	268.59709
566.779	288.61956
567.245	253.56426
567.711	320.72856
568.176	321.68356
568.642	362.86167
569.108	380.87875
569.573	409.8819
570.038	411.79599
570.504	501.03112
570.969	443.01761
571.434	565.12497
571.899	479.04235
572.363	564.16337
572.828	635.29275
573.293	630.27936
573.757	671.36987
574.222	639.26372
574.686	719.43746
575.15	721.51666
575.614	778.58178
576.078	679.40064
576.542	755.48096
577.006	729.42517
577.469	773.64609
577.933	764.49617
578.396	730.50564
578.86	799.60941
579.323	776.61493
579.786	759.40691
580.249	752.53441
580.712	697.48925
581.175	750.60917
581.637	701.39365
582.1	714.34408
582.563	655.2156
583.025	651.40647
583.487	688.22344
583.95	581.10857
584.412	629.16087
584.874	602.3174
585.336	589.2539
585.797	562.09535
586.259	561.18333
586.721	518.10611
587.182	530.10732
587.643	496.02837
588.105	420.92404
588.566	444.85147
589.027	484.09043
589.488	476.00222
589.949	461.03365
590.41	430.78404
590.87	437.92731
591.331	410.83375
591.791	388.84219
592.252	411.89343
592.712	357.80768
593.172	362.77571
593.632	429.88451
594.092	403.83726
594.552	339.69393
595.011	270.59382
595.471	335.71957
595.931	349.74415
596.39	299.68612
596.849	302.67116
597.308	240.4934
597.768	313.77142
598.227	238.55304
598.685	251.55146
599.144	257.58384
599.603	206.46865
600.062	233.4748
600.52	296.63868
600.978	219.50216
601.437	270.58933
601.895	252.52017
602.353	202.43194
602.811	294.63355
603.269	207.47883
603.727	197.46094
604.184	245.53895
604.642	226.53841
605.099	254.57176
605.557	217.51211
606.014	236.49108
606.471	171.42025
606.928	235.50522
607.385	199.4858
607.842	183.41018
608.299	183.41793
608.755	163.38722
609.212	208.45112
609.668	221.48351
610.125	224.52298
610.581	193.44095
611.037	171.37507
611.493	167.3817
611.949	201.47674
612.405	240.47114
612.861	123.27944
613.316	169.39636
613.772	125.28283
614.227	238.55261
614.683	180.37239
615.138	170.39004
615.593	124.28416
616.048	151.33929
616.503	140.33431
616.958	156.38317
617.412	178.41281
617.867	151.3319
618.321	183.36799
618.776	177.38053
619.23	151.34708
619.684	163.35586
620.138	167.37354
620.592	182.43043
621.046	193.44379
621.5	118.28027
621.954	116.25331
622.407	167.36073
622.861	137.32696
623.314	161.35641
623.768	159.36766
624.221	151.29103
624.674	171.38565
625.127	152.34623
625.58	157.3448
626.033	181.38494
626.485	149.34932
626.938	159.37043
627.39	184.41878
627.843	127.28817
628.295	153.34533
628.747	202.46717
629.199	171.37965
629.651	150.33683
630.103	187.4169
630.555	141.29125
631.006	117.26807
631.458	170.39004
631.909	153.33502
632.361	162.36483
632.812	174.39233
633.263	248.51536
633.714	172.35424
634.165	155.36324
634.616	163.37601
635.067	180.38507
635.518	218.49876
635.968	156.29872
636.419	222.46689
636.869	184.42335
637.319	216.48384
637.769	184.4018
638.219	235.533
638.669	161.37346
639.119	188.43652
639.569	204.47348
640.019	232.51539
640.468	171.37317
640.918	244.5551
641.367	213.4599
641.816	241.51343
642.265	293.6494
642.714	181.40319
643.163	259.57262
643.612	274.64171
644.061	255.52081
644.51	262.57405
644.958	275.57797
645.406	267.60975
645.855	269.62396
646.303	267.58882
646.751	360.78009
647.199	311.66601
647.647	330.7221
648.095	301.64989
648.543	312.59456
648.99	316.71858
649.438	317.69205
649.885	352.82628
650.333	363.6523
650.78	362.82049
651.227	377.86333
651.674	351.75068
652.121	420.95617
652.568	412.93796
653.015	403.92803
653.461	409.90193
653.908	403.85703
654.354	482.046
654.801	468.00219
655.247	449.88706
655.693	466.11627
656.139	488.05995
656.585	512.10745
657.031	471.01058
657.477	554.07768
657.922	527.07597
658.368	571.25867
658.813	578.16666
659.259	577.25226
659.704	663.378
660.149	639.29265
660.594	690.42623
661.039	682.34858
661.484	715.46576
661.929	700.41784
662.373	733.59931
662.818	756.61369
663.262	783.61977
663.707	747.65117
664.151	825.70597
664.595	877.77641
665.039	943.93975
665.483	948.00551
665.927	972.8558
666.371	1051.97742
666.814	1042.98584
667.258	1049.03199
667.701	1119.82739
668.145	1141.24937
668.588	1168.27645
669.031	1152.10998
669.474	1220.25282
669.917	1286.07548
670.36	1342.53284
670.803	1384.47718
671.245	1404.99781
671.688	1499.62879
672.13	1481.36527
672.573	1540.81093
673.015	1667.76409
673.457	1648.37515
673.899	1719.82168
674.341	1774.85159
674.783	1849.89014
675.225	1897.0432
675.666	1988.08597
676.108	2070.58586
676.549	2131.93566
676.991	2237.70967
677.432	2292.29968
677.873	2300.90933
678.314	2422.15837
678.755	2619.41637
679.196	2617.98783
679.637	2640.24117
680.078	2787.12161
680.518	2919.02076
680.959	2986.2351
681.399	3106.48283
681.839	3230.34028
682.28	3315.49507
682.72	3368.92598
683.16	3487.49119
683.6	3659.79847
684.039	3761.16869
684.479	3974.25726
684.919	4028.8765
685.358	4020.29328
685.798	4217.58103
686.237	4435.76186
686.676	4526.33224
687.115	4682.53816
687.554	4947.50595
687.993	5055.88474
688.432	5175.02682
688.871	5338.97557
689.309	5518.20696
689.748	5729.18923
690.186	5883.84575
690.625	6098.80014
691.063	6291.84182
691.501	6452.05543
691.939	6624.15254
692.377	6789.85902
692.815	7068.92153
693.253	7165.76562
693.69	7359.42804
694.128	7509.97649
694.565	7667.92565
695.003	7974.48908
695.44	8051.19994
695.877	8259.37859
696.314	8448.37089
696.751	8612.73516
697.188	8910.25845
697.625	9076.53852
698.061	9307.05643
698.498	9390.22905
698.934	9593.70423
699.371	9762.1408
699.807	9968.71488
700.243	10086.02835
700.679	10201.56853
701.115	10447.28722
701.551	10570.75037
701.987	10712.55484
702.422	10815.5831
702.858	10980.25417
703.294	11095.94823
703.729	10968.12116
704.164	11323.76525
704.599	11363.35505
705.035	11395.48603
705.47	11445.23269
705.904	11570.15102
706.339	11757.18835
706.774	11695.71605
707.209	11821.42253
707.643	11754.86979
708.078	11770.83543
708.512	11854.03994
708.946	11829.34375
709.38	11798.14844
709.814	11909.13933
710.248	11905.49667
710.682	11765.89611
711.116	11642.16672
711.549	11554.45162
711.983	11460.62847
712.416	11391.11744
712.85	11292.42738
713.283	11328.86224
713.716	11084.52766
714.149	10759.50071
714.582	10769.66764
715.015	10666.93114
715.448	10456.11826
715.881	10450.60241
716.313	10175.3728
716.746	9957.68282
717.178	9945.62838
717.61	9923.52658
718.043	9610.74665
718.475	9357.16947
718.907	9381.24532
719.339	9122.63755
719.77	8970.40693
720.202	8742.14885
720.634	8602.90528
721.065	8486.63398
721.497	8369.61331
721.928	8110.3508
722.359	8031.27521
722.79	7856.06784
723.221	7670.12834
723.652	7468.18723
724.083	7311.4911
724.514	7199.55515
724.945	7044.61847
725.375	6940.60428
725.806	6770.9208
726.236	6548.22445
726.666	6457.67267
727.096	6409.93077
727.526	6305.37399
727.956	6213.54011
728.386	6039.0653
728.816	5912.47913
729.246	5808.23092
729.675	5641.20317
730.105	5519.28268
730.534	5461.95434
730.964	5300.55615
731.393	5167.48287
731.822	5167.84561
732.251	5061.84385
732.68	4877.21631
733.109	4842.73306
733.537	4788.70345
733.966	4719.90801
734.395	4559.39904
734.823	4443.14712
735.251	4420.74942
735.68	4328.99098
736.108	4163.18054
736.536	4031.75158
736.964	3931.72853
737.392	3895.2944
737.82	3855.96317
738.247	3792.97467
738.675	3758.88677
739.102	3548.3924
739.53	3610.62839
739.957	3513.69682
740.384	3382.17084
740.811	3353.40486
741.238	3326.33086
741.665	3184.07633
742.092	3082.92702
742.519	3033.43955
742.945	3001.30507
743.372	2968.4437
743.798	2890.6245
744.225	2788.1148
744.651	2689.43917
745.077	2737.43001
745.503	2632.21096
745.929	2660.25367
746.355	2563.238
746.781	2465.26826
747.207	2492.10734
747.632	2439.34135
748.058	2447.42651
748.483	2368.89424
748.908	2264.27415
749.334	2377.27001
749.759	2224.03121
750.184	2195.07532
750.609	2051.06121
751.033	2121.86446
751.458	2042.62873
751.883	1913.98642
752.307	1903.79012
752.732	1924.1928
753.156	1807.90925
753.58	1802.71872
754.005	1722.91267
754.429	1722.69469
754.853	1648.8223
755.277	1676.65943
755.7	1616.77151
756.124	1611.77527
756.548	1511.48167
756.971	1569.65702
757.394	1421.66226
757.818	1474.76791
758.241	1479.71734
758.664	1405.60269
759.087	1372.20287
759.51	1354.45413
759.933	1297.33327
760.356	1307.55692
760.778	1237.30072
761.201	1224.22775
761.623	1161.10154
762.046	1150.03791
762.468	1206.17723
762.89	1114.10758
763.312	1123.13753
763.734	1030.96672
764.156	1023.01348
764.578	967.74001
765	978.91319
765.421	911.92086
765.843	929.00493
766.264	901.72626
766.686	851.74723
767.107	840.68396
767.528	903.9231
767.949	835.77052
768.37	843.74012
768.791	773.54913
769.212	739.59133
769.632	772.51257
770.053	683.54723
770.473	730.48677
770.894	670.41452
771.314	651.31395
771.734	669.32871
772.154	638.41681
772.575	651.27907
772.994	609.1846
773.414	614.26043
773.834	545.19927
774.254	593.26188
774.673	555.1983
775.093	594.29768
775.512	555.21007
775.931	520.17644
776.351	506.12753
776.77	450.99875
777.189	501.05565
777.607	488.11826
778.026	483.07775
778.445	455.04481
778.864	431.98972
779.282	386.8357
779.701	391.8961
780.119	419.96794
780.537	358.81835
780.955	386.89156
781.373	385.86783
781.791	444.90372
782.209	379.77195
782.627	340.831
783.045	323.67256
783.462	342.80688
783.88	343.82287
784.297	351.81347
784.715	281.67903
785.132	289.64481
785.549	286.66535
785.966	303.70837
786.383	304.69801
786.8	309.66001
787.217	302.66949
787.633	255.60364
788.05	217.47255
788.466	242.52464
788.883	276.66507
789.299	212.47312
789.715	300.67861
790.131	225.52686
790.547	226.52972
790.963	204.47723
791.379	216.51597
791.795	217.45748
792.21	204.4449
792.626	208.45939
793.041	208.48277
793.457	171.39823
793.872	175.38514
794.287	213.48683
794.702	171.39242
795.117	172.40836
795.532	185.44387
795.947	156.35074
796.362	133.29565
796.776	173.37401
797.191	188.43618
797.605	105.24
798.02	120.27908
798.434	202.42052
798.848	229.53749
799.262	147.34786
799.676	144.33449
800.09	157.36678
800.504	127.29261
800.918	101.22163
801.331	59.14639
801.745	154.33244
802.158	118.27973
802.572	163.37451
802.985	145.32942
803.398	130.2942
803.811	117.28179
804.224	94.22163
804.637	99.22728
805.05	75.16562
805.462	96.22494
805.875	62.1565
806.288	106.24691
806.7	65.15614
807.112	107.2344
807.525	42.09876
807.937	92.21936
808.349	62.14896
808.761	108.25563
809.173	88.20595
809.584	72.17042
809.996	57.13473
810.408	69.17451
810.819	63.14313
811.231	125.32153
811.642	88.21094
812.053	84.19759
812.464	69.15733
812.875	63.15672
813.286	120.29899
813.697	60.1313
814.108	68.15914
814.519	161.34107
814.929	60.14743
815.34	42.09749
815.75	69.17102
816.16	65.15406
816.571	40.10053
816.981	73.16329
817.391	62.14271
817.801	54.13033
818.211	79.18013
818.62	60.14015
819.03	27.06402
819.44	21.05243
819.849	59.14189
820.259	29.07127
820.668	29.06958
821.077	68.16455
821.486	62.14168
821.895	69.16139
822.304	51.13073
822.713	23.05246
823.122	66.15833
823.531	71.15895
823.939	50.11826
824.348	83.19208
824.756	31.07483
825.164	43.10412
825.573	48.11659
825.981	56.13306
826.389	76.18315
826.797	85.20844
827.205	87.19244
827.612	23.05472
828.02	35.07894
828.428	33.0814
828.835	45.11579
829.243	39.089
829.65	36.08748
830.057	27.0631
830.464	75.1779
830.871	76.17528
831.278	36.08419
831.685	57.12128
832.092	56.1306
832.499	60.12641
832.905	69.16688
833.312	-4.00868
833.718	54.13082
834.124	51.11234
834.531	29.07009
834.937	53.13194
835.343	49.11281
835.749	24.0533
836.155	57.14431
836.561	3.00719
836.966	41.09635
837.372	56.13674
837.777	48.11594
838.183	83.17452
838.588	45.10871
838.993	64.14984
839.399	44.10439
839.804	-25.05976
840.209	63.15666
840.613	48.1022
841.018	-1.00245
841.423	45.11178
841.828	52.12768
842.232	24.0565
842.637	97.22073
843.041	55.13692
843.445	-7.01698
843.849	38.09137
844.253	80.18105
844.657	50.12245
845.061	99.21761
845.465	-22.05193
845.869	24.05385
846.272	20.04749
846.676	31.07103
847.079	30.07461
847.483	46.11035
847.886	63.14562
848.289	78.20353
848.692	-10.02453
849.095	38.08757
849.498	71.1701
849.901	61.13261
850.304	67.1532
850.707	46.11282
851.109	42.10202
851.512	48.11405
851.914	-3.00743
852.316	64.15773
852.718	56.14352
853.121	17.04042
853.523	24.05374
853.925	35.08956
854.326	4.0098
854.728	43.10739
855.13	12.03045
855.531	2.00466
855.933	2.00461
856.334	39.09482
856.736	33.07189
857.137	59.13284
857.538	28.06875
857.939	103.24666
858.34	11.02569
858.741	7.01775
859.142	15.03467
859.542	37.09541
859.943	14.03373
860.343	19.04597
860.744	64.14978
861.144	38.09033
861.544	35.08244
861.945	24.05921
862.345	41.09612
862.745	10.02433
863.145	-4.00909
863.544	23.05655
863.944	22.05017
864.344	40.09449
864.743	57.13572
865.143	78.19435
865.542	36.07918
865.941	38.09119
866.34	10.02287
866.74	-16.04211
867.139	64.1492
867.537	12.02934
867.936	60.13926
868.335	23.05657
868.734	41.10151
869.132	10.02216
869.531	28.0645
869.929	50.10988
870.327	19.04404
870.726	33.07858
871.124	30.06693
871.522	30.07369
871.92	40.09515
872.318	-3.00707
872.715	39.09158
873.113	6.01409
873.511	27.06481
873.908	12.02995
874.306	54.13048
874.703	59.14038
875.1	15.03666
875.497	-15.03484
875.894	29.07006
876.291	49.116
876.688	20.05014
877.085	32.07342
877.482	4.00972
877.878	29.06839
878.275	25.06171
878.671	-11.02293
879.068	57.13191
879.464	33.07685
879.86	4.00916
880.256	-3.00707
880.652	-15.03721
881.048	-1.00238
881.444	-15.03416
881.84	48.11742
882.236	43.10412
882.631	26.06204
883.027	39.09047
883.422	-24.05956
883.817	13.03197
884.213	41.10169
884.608	80.19221
885.003	-15.03486
885.398	-2.00487
885.793	7.01697
886.188	6.01445
886.582	35.08589
886.977	41.09281
887.371	14.03407
887.766	6.01459
888.16	20.04741
888.554	29.06868
888.949	32.07755
889.343	41.09582
889.737	16.04192
890.131	1.00244
890.525	63.15615
890.918	27.06565
891.312	-12.02758
891.706	18.04574
892.099	0
892.492	43.08794
892.886	18.04247
893.279	36.08836
893.672	45.11137
894.065	38.09192
894.458	26.06254
894.851	30.07035
895.244	-2.00497
895.637	65.15048
896.029	59.13941
896.422	12.028
896.814	62.14737
897.206	48.11146
897.599	82.19349
897.991	32.07513
898.383	43.09785
898.775	47.10292
899.167	34.07754
899.559	51.12307
899.951	21.04724
900.342	27.06572
900.734	93.22611
901.125	3.0076
901.517	43.10184
901.908	30.06814
902.299	40.09453
902.69	56.12787
903.082	125.2864
903.473	56.13085
903.863	31.07599
904.254	64.14384
904.645	31.07336
905.036	41.09766
905.426	55.1183
905.817	38.08914
906.207	4.00912
906.597	30.06831
906.987	53.13117
907.378	73.17815
907.768	45.11547
908.158	19.04465
908.547	22.05595
908.937	-22.05438
909.327	19.04446
909.717	17.04107
910.106	30.06905
910.495	17.04056
910.885	19.04675
911.274	35.08423
911.663	26.06318
912.052	12.02829
912.441	28.06946
912.83	59.12827
913.219	37.09324
913.608	56.13224
913.997	30.07344
914.385	73.16652
914.774	22.05159
915.162	32.07436
915.55	63.14464
915.939	29.07138
916.327	38.0906
916.715	50.12485
917.103	-1.00234
917.491	73.17208
917.878	18.04265
918.266	27.06748
918.654	49.12171
919.041	29.07439
919.429	38.08614
919.816	12.02944
920.203	27.06385
920.591	81.19242
920.978	64.15008
921.365	35.08928
921.752	33.07439
922.139	73.15038
922.525	61.14094
922.912	-6.01414
923.299	29.06971
923.685	-7.01762
924.072	0
924.458	67.1599
924.844	34.08119
925.231	17.03774
925.617	49.12154
926.003	11.02717
926.389	16.03907
926.774	46.11182
927.16	38.09071
927.546	52.13013
927.931	63.14966
928.317	58.12649
928.702	59.13274
929.088	110.25259
929.473	49.12118
929.858	41.09729
930.243	34.07948
930.628	55.1299
931.013	13.03125
931.398	69.14822
931.783	29.07308
932.167	88.20756
932.552	53.12717
932.937	21.05002
933.321	47.11461
933.705	13.03136
934.09	8.01916
934.474	44.09913
934.858	18.0454
935.242	0
935.626	58.14368
936.009	38.09895
936.393	86.21257
936.777	16.04
937.16	80.2015
937.544	32.07115
937.927	50.12295
938.311	76.1757
938.694	68.17366
939.077	31.07143
939.46	55.12637
939.843	69.13248
940.226	-28.06977
940.609	55.12232
940.991	-13.03201
941.374	63.14857
941.757	37.08749
942.139	28.06065
942.522	57.12787
942.904	46.10618
943.286	50.12177
943.668	53.13385
944.05	34.08079
944.432	3.00714
944.814	4.00944
945.196	20.04752
945.578	47.10924
945.959	30.06679
946.341	12.02789
946.722	15.03372
947.104	32.07363
947.485	48.10699
947.866	61.14898
948.247	84.20488
948.628	7.01617
949.009	12.02981
949.39	29.06913
949.771	-30.06609
950.152	76.17849
950.532	84.20342
950.913	61.14049
951.293	37.09785
951.674	40.09299
952.054	50.12159
952.434	41.09819
952.814	22.04977
953.194	32.07985
953.574	3.00712
953.954	21.04748
954.334	76.18308
954.714	13.03081
955.093	63.14822
955.473	34.08302
955.853	59.14709
956.232	29.07705
956.611	30.0682
956.99	19.04642
957.37	25.06115
957.749	1.00227
958.128	41.10024
958.506	9.02273
958.885	16.03892
959.264	63.15007
959.643	93.20192
960.021	32.07709
960.4	-1.00218
960.778	19.04444
961.156	-5.01212
961.535	29.06417
961.913	77.17259
962.291	55.13776
962.669	37.09097
963.047	28.06951
963.424	83.20579
963.802	10.02386
964.18	31.07432
964.557	75.16319
964.935	32.07274
965.312	57.1439
965.69	38.09067
966.067	37.08552
966.444	15.03497
966.821	76.18813
967.198	15.03466
967.575	25.0588
967.952	66.14778
968.329	48.11291
968.705	121.24488
969.082	75.18732
969.458	22.05169
969.835	52.12132
970.211	59.14735
970.587	33.07939
970.963	6.01479
971.339	-3.00767
971.715	51.12265
972.091	43.10164
972.467	-6.01429
972.843	56.13516
973.219	50.11366
973.594	-29.07423
973.97	12.02675
974.345	28.06484
974.721	33.07555
975.096	64.14949
975.471	64.14419
975.846	31.07103
976.221	4.00988
976.596	59.13789
976.971	65.15489
977.346	13.02887
977.72	-28.06923
978.095	31.07737
978.469	43.09789
978.844	76.18142
979.218	23.05405
979.593	31.071
979.967	-1.00231
980.341	49.10843
980.715	41.0998
981.089	60.14388
981.463	45.09883
981.837	45.10707
982.21	7.01524
982.584	39.09097
982.957	16.03892
983.331	-4.00899
983.704	67.15972
984.078	58.1367
984.451	14.03305
984.824	75.1757
985.197	1.00231
985.57	10.02385
985.943	-8.01878
986.316	-13.03044
986.688	62.14254
987.061	91.20313
987.434	43.10972
987.806	-22.05102
988.179	25.05645
988.551	26.06337
988.923	50.11734
989.295	35.08369
989.667	36.08405
990.039	65.15667
990.411	-3.00655
990.783	53.11463
991.155	-1.00234
991.527	67.15425
991.898	67.16076
992.27	53.12722
992.641	38.09109
993.012	-6.01326
993.384	38.08645
993.755	5.01245
994.126	80.1851
994.497	49.11546
994.868	59.12739
995.239	48.1111
995.61	43.10427
995.98	41.09545
996.351	30.07219
996.722	68.1522
997.092	-8.01846
997.462	59.13344
997.833	60.13435
998.203	16.03678
998.573	18.04351
998.943	113.25172
999.313	54.12469
999.683	6.01397
1000.053	36.07725
1000.423	21.04875
1000.792	9.02235
1001.162	10.02361
1001.531	27.06429
1001.901	7.01679
1002.27	20.04188
1002.639	-12.02957
1003.009	30.06834
1003.378	79.19372
1003.747	46.10321
1004.116	-15.03473
1004.485	51.11652
1004.853	31.07458
1005.222	5.01197
1005.591	62.13986
1005.959	31.06725
1006.328	28.06065
1006.696	-16.03725
1007.064	7.01687
1007.433	38.09053
1007.801	29.06719
1008.169	37.08891
1008.537	67.14044
1008.905	68.15207
1009.273	9.0213
1009.64	39.09058
1010.008	46.1047
1010.375	24.05496
1010.743	-11.0237
1011.11	69.15898
1011.478	23.05533
1011.845	48.10717
1012.212	50.10937
1012.579	46.10858
1012.946	19.04294
1013.313	44.09921
1013.68	38.08101
1014.047	12.02756
1014.414	37.08358
1014.78	38.09126
1015.147	33.07558
1015.513	29.06717
1015.88	27.06609
1016.246	12.02819
1016.612	32.06941
1016.978	45.10657
1017.344	37.08814
1017.71	107.24506
1018.076	14.03139
1018.442	55.13647
1018.808	47.11406
1019.174	-3.00725
1019.539	-9.01907
1019.905	33.07512
1020.27	9.02141
1020.636	8.01822
1021.001	75.17156
1021.366	33.07652
1021.731	73.18258
1022.096	23.05663
1022.461	70.15822
1022.826	83.1891
1023.191	25.06352
1023.556	-10.02251
1023.92	19.04455
1024.285	28.06491
1024.649	28.06553
1025.014	21.04948
1025.378	79.19106
1025.742	32.07571
1026.107	18.03887
1026.471	72.15843
1026.835	27.06446
1027.199	36.08339
1027.562	62.1355
1027.926	27.06305
1028.29	36.08784
1028.654	74.16064
1029.017	24.057
1029.381	40.09196
1029.744	44.10808
1030.107	85.19068
1030.471	43.09923
1030.834	-9.01939
1031.197	82.18739
1031.56	31.06969
1031.923	34.08502
1032.286	60.13418
1032.648	28.06326
1033.011	70.15512
1033.374	48.10637
1033.736	7.0179
1034.099	63.14684
1034.461	44.10788
1034.823	34.08191
1035.185	34.08153
1035.548	34.07992
1035.91	17.03909
1036.272	59.12854
1036.634	53.12397
1036.995	0
1037.357	26.06123
1037.719	51.11896
1038.08	72.1642
1038.442	34.0772
1038.803	-32.07333
1039.165	70.16799
1039.526	36.08356
1039.887	47.10743
1040.248	64.15365
1040.609	38.08907
1040.97	4.00941
1041.331	59.14436
1041.692	70.15861
1042.053	41.08841
1042.413	-6.01339
1042.774	49.11439
1043.134	41.09201
1043.495	9.02187
1043.855	59.13843
1044.215	30.07117
1044.576	51.11756
1044.936	20.04366
1045.296	59.14086
1045.656	3.00703
1046.016	36.08277
1046.375	33.07685
1046.735	61.13419
1047.095	68.15145
1047.454	40.07934
1047.814	58.13329
1048.173	17.03842
1048.533	28.0614
1048.892	-13.03038
1049.251	25.05996
1049.61	46.10875
1049.969	-11.02497
1050.328	52.1069
1050.687	25.05806
1051.046	12.02804
1051.405	9.0214
1051.763	34.07575
1052.122	18.04323
1052.48	62.14578
1052.839	53.12124
1053.197	34.07654
1053.555	27.05742
1053.914	30.07024
1054.272	39.08817
1054.63	-15.03568
1054.988	42.09656
1055.345	19.03842
1055.703	28.06486
1056.061	87.2165
1056.419	59.14933
1056.776	-21.04846
1057.134	-36.07928
1057.491	42.1011
1057.848	47.11144
1058.206	-8.01785
1058.563	28.05871
1058.92	6.01322
1059.277	57.13447
1059.634	-12.02685
1059.991	50.11481
1060.348	25.05435
1060.704	65.15144
1061.061	54.11687
1061.418	24.05608
1061.774	19.04522
1062.131	40.10384
1062.487	20.04458
1062.843	59.14065
1063.199	41.098
1063.555	24.05389
1063.911	33.07966
1064.267	63.12154
1064.623	65.15263
1064.979	-11.02418
1065.335	55.12414
1065.691	14.03175
1066.046	86.17744
1066.402	33.07107
1066.757	64.15476
1067.112	42.0983
1067.468	38.08726
1067.823	-14.03184
1068.178	41.09424
1068.533	78.17975
1068.888	56.12684
1069.243	38.09008
1069.598	1.00233
1069.952	70.15318
1070.307	12.02885
1070.662	60.13783
1071.016	62.13407
1071.371	41.08955
1071.725	31.07034
1072.079	16.03714
1072.434	38.08897
1072.788	7.01581
1073.142	41.09688
1073.496	27.06127
1073.85	25.05539
1074.203	6.01406
1074.557	64.16591
1074.911	73.16416
1075.265	38.08432
1075.618	53.12392
1075.971	42.0954
1076.325	29.07169
1076.678	18.03952
1077.031	-20.04269
1077.385	46.09576
1077.738	18.03879
1078.091	-9.01995
1078.444	34.0744
1078.796	71.16737
1079.149	62.14783
1079.502	57.1295
1079.855	33.07379
1080.207	12.02839
1080.56	26.06539
1080.912	54.12534
1081.264	52.12027
1081.617	86.20009
1081.969	62.15088
1082.321	-3.00705
1082.673	36.07994
1083.025	50.11242
1083.377	58.12971
1083.728	51.11267
1084.08	12.02871
1084.432	-11.02555
1084.783	31.06797
1085.135	57.1376
1085.486	50.10979
1085.838	47.1114
1086.189	38.08935
1086.54	58.13137
1086.891	50.12399
1087.242	71.16802
1087.593	29.06663
1087.944	63.13679
1088.295	56.12053
1088.646	124.28952
1088.996	-24.05652
1089.347	45.10505
1089.698	24.05518
1090.048	25.0623
1090.398	20.04412
1090.749	16.03643
1091.099	10.02466
1091.449	40.09618
1091.799	71.16971
1092.149	12.0287
1092.499	50.11679
1092.849	-1.00247
1093.199	30.07164
1093.548	40.09325
1093.898	-4.00965
1094.248	2.00493
1094.597	37.09234
1094.947	49.12644
1095.296	51.12144
1095.645	28.06999
1095.994	11.02545
1096.343	19.04635
1096.692	41.10587
1097.041	58.15418
1097.39	39.0934
1097.739	57.14226
1098.088	23.05925
1098.437	25.06462
1098.785	2.0052
1099.134	-17.04324
1099.482	12.03226
1099.83	14.03569
1100.179	58.14859
1100.527	0
1100.875	-9.02338
1101.223	39.10088
1101.571	-20.05389
1101.919	34.08799
1102.267	19.05263
1102.615	-6.01929
1102.962	-2.00642
1103.31	5.01606
1103.658	-3.00962
