Data from N2 R5 sample 8_Subt2__4__12-01-54-369.txt Node

Date: Fri Aug 29 12:01:54 PDT 2025
User: uwsun
Spectrometer: HDX01956
Trigger mode: 0
Integration Time (sec): 5.000000E-1
Scans to average: 1
Nonlinearity correction enabled: true
Boxcar width: 0
Storing dark spectrum: false
XAxis mode: Wavelengths
Number of Pixels in Spectrum: 2068
>>>>>Begin Spectral Data<<<<<
194.03	162.44329
194.578	164.50804
195.127	175.53307
195.676	154.47191
196.225	196.50282
196.773	196.52046
197.321	272.69702
197.87	392.89965
198.418	369.8389
198.966	368.84222
199.513	298.65677
200.061	309.6917
200.609	362.8514
201.156	282.54104
201.704	337.74536
202.251	335.78439
202.798	342.78335
203.345	380.82307
203.892	406.88725
204.438	435.89527
204.985	340.69897
205.532	430.97972
206.078	433.91521
206.624	351.75231
207.17	439.87259
207.716	361.76238
208.262	344.58692
208.808	288.62355
209.354	374.78931
209.899	447.97951
210.445	398.85322
210.99	384.79903
211.535	434.87653
212.08	390.78586
212.625	416.90333
213.17	398.87969
213.715	302.58417
214.259	388.78434
214.804	395.85172
215.348	347.69455
215.892	339.71467
216.436	419.83944
216.98	393.75348
217.524	369.75945
218.068	383.84496
218.612	402.88445
219.155	357.73475
219.698	384.79725
220.242	347.76683
220.785	344.70752
221.328	396.86357
221.871	372.83425
222.414	376.82552
222.956	349.73672
223.499	356.70117
224.041	400.81453
224.583	379.71645
225.126	327.63481
225.668	316.68095
226.21	351.77858
226.751	305.58644
227.293	348.70026
227.835	362.77538
228.376	408.82061
228.918	364.81295
229.459	314.69232
230	335.70313
230.541	369.7444
231.082	360.76577
231.622	316.64524
232.163	344.73237
232.704	343.74849
233.244	325.71312
233.784	390.83859
234.324	267.51709
234.864	342.67899
235.404	362.75628
235.944	346.72253
236.484	353.7778
237.023	366.75378
237.563	310.63069
238.102	315.65736
238.641	387.85556
239.18	319.65329
239.719	317.70522
240.258	370.72326
240.797	318.66907
241.335	363.77903
241.874	322.53547
242.412	361.75603
242.95	307.6438
243.488	381.75271
244.026	307.62103
244.564	364.64519
245.102	354.6887
245.64	390.81802
246.177	328.64268
246.715	405.84179
247.252	360.72007
247.789	409.65532
248.326	329.6878
248.863	353.66762
249.4	392.767
249.936	318.56746
250.473	367.739
251.009	336.66739
251.546	295.56886
252.082	419.78006
252.618	366.70018
253.154	361.75001
253.69	312.61306
254.226	382.78531
254.761	350.67897
255.297	289.5522
255.832	367.74887
256.367	382.77398
256.903	380.71219
257.438	422.84642
257.972	366.69984
258.507	314.62223
259.042	360.67003
259.576	366.66766
260.111	368.73334
260.645	394.72567
261.179	364.7284
261.713	381.72129
262.247	337.67266
262.781	343.61287
263.315	351.74126
263.849	401.85761
264.382	388.76276
264.915	326.65811
265.449	345.71837
265.982	429.82449
266.515	383.7989
267.048	331.59845
267.58	373.69682
268.113	387.70401
268.646	402.84393
269.178	320.61247
269.71	378.70039
270.243	375.73043
270.775	410.88841
271.307	396.81483
271.838	435.87633
272.37	417.86904
272.902	373.72239
273.433	360.66737
273.965	416.85636
274.496	409.86676
275.027	418.87674
275.558	384.79085
276.089	339.70933
276.62	373.81601
277.15	419.8767
277.681	373.68544
278.211	356.74935
278.741	385.7082
279.272	371.71336
279.802	448.93924
280.332	388.76924
280.861	379.77265
281.391	391.74131
281.921	456.91673
282.45	432.9089
282.98	426.93842
283.509	417.77865
284.038	391.74493
284.567	424.82843
285.096	465.92987
285.625	427.80048
286.153	403.78572
286.682	395.75073
287.21	371.74981
287.739	384.75846
288.267	416.83516
288.795	452.99526
289.323	458.87111
289.851	412.79964
290.378	423.77929
290.906	396.79244
291.433	471.96412
291.961	405.75174
292.488	477.97198
293.015	456.87027
293.542	449.93157
294.069	463.9263
294.596	438.89434
295.122	461.89326
295.649	459.81596
296.175	450.89299
296.702	429.8551
297.228	507.99507
297.754	474.85072
298.28	458.83257
298.806	425.83058
299.332	445.78368
299.857	418.76023
300.383	457.9452
300.908	451.87513
301.433	441.86226
301.958	492.90667
302.483	470.93834
303.008	532.04317
303.533	550.14156
304.058	561.03358
304.582	411.77771
305.107	468.97857
305.631	510.91442
306.155	455.83531
306.679	478.8738
307.203	546.97447
307.727	485.90385
308.251	491.95776
308.775	499.91427
309.298	500.92511
309.822	575.11941
310.345	571.02889
310.868	540.98867
311.391	554.05005
311.914	556.06514
312.437	550.95425
312.96	537.95914
313.482	540.96923
314.005	570.0857
314.527	590.17511
315.049	627.1913
315.571	604.96833
316.093	620.13651
316.615	554.9959
317.137	621.96764
317.659	656.16581
318.18	653.14816
318.702	639.06548
319.223	635.90688
319.744	640.01084
320.265	607.0565
320.786	618.09358
321.307	650.15392
321.828	697.08311
322.348	679.10755
322.869	643.05043
323.389	625.64509
323.909	759.16467
324.43	757.25037
324.95	713.08804
325.47	696.16047
325.989	675.06843
326.509	707.00124
327.029	810.14234
327.548	746.06304
328.067	766.18551
328.587	785.27528
329.106	683.00021
329.625	834.4508
330.144	780.11729
330.662	814.14874
331.181	828.18192
331.7	810.15756
332.218	864.07677
332.736	883.21945
333.255	857.17039
333.773	815.15052
334.291	935.38451
334.808	875.09095
335.326	999.21371
335.844	915.16122
336.361	920.3164
336.879	926.16189
337.396	961.24789
337.913	965.15529
338.43	935.0851
338.947	967.20401
339.464	964.9992
339.981	960.16134
340.497	1026.30547
341.014	1008.24097
341.53	966.04896
342.046	965.19475
342.562	1063.31812
343.078	1076.18359
343.594	1145.25222
344.11	1132.22386
344.626	1066.28433
345.141	1170.12615
345.657	1196.14372
346.172	1133.20815
346.687	1118.08267
347.202	1128.02919
347.717	1196.18545
348.232	1249.31278
348.747	1175.06955
349.261	1135.90427
349.776	1233.11844
350.29	1223.17765
350.805	1300.2647
351.319	1255.08065
351.833	1159.94702
352.347	1314.08573
352.861	1310.04571
353.374	1327.04968
353.888	1306.12731
354.401	1329.99908
354.915	1308.89062
355.428	1336.1399
355.941	1347.97197
356.454	1389.93897
356.967	1501.0482
357.48	1388.95589
357.993	1447.11485
358.505	1429.05783
359.018	1502.07041
359.53	1466.99063
360.042	1447.8174
360.554	1518.01811
361.066	1468.99092
361.578	1478.73715
362.09	1476.93028
362.602	1563.71974
363.113	1528.82509
363.625	1579.73227
364.136	1617.67989
364.647	1531.70807
365.158	1654.75698
365.669	1674.82068
366.18	1649.76789
366.691	1718.5859
367.201	1665.76077
367.712	1587.61539
368.222	1679.59717
368.733	1685.42854
369.243	1688.44195
369.753	1746.53663
370.263	1762.58568
370.773	1768.64145
371.282	1868.46087
371.792	1803.26844
372.301	2037.32495
372.811	1910.5638
373.32	1929.96142
373.829	2016.09058
374.338	2139.85773
374.847	2120.86188
375.356	2183.82815
375.865	2257.46137
376.373	2415.43099
376.882	2473.64006
377.39	2514.43085
377.898	2555.2708
378.407	2755.9575
378.915	2785.86262
379.423	2913.82838
379.93	2932.73664
380.438	3093.64993
380.946	3293.57247
381.453	3451.57127
381.96	3606.6748
382.468	3908.09433
382.975	4092.23371
383.482	4114.67001
383.989	4165.49291
384.495	4341.49574
385.002	4584.34143
385.509	4792.89275
386.015	5130.35936
386.521	5501.86956
387.028	5473.25197
387.534	5815.61107
388.04	5993.08398
388.546	5995.79333
389.051	6582.50933
389.557	7054.45022
390.063	7665.25596
390.568	7578.93253
391.073	7803.77852
391.578	8227.31055
392.084	8193.12576
392.589	8643.59684
393.093	9528.66944
393.598	10376.76853
394.103	11216.35165
394.607	12291.37762
395.112	13117.75318
395.616	13704.24581
396.12	14505.43992
396.624	15585.47106
397.128	17211.67822
397.632	19019.44907
398.136	20188.60357
398.639	21538.63312
399.143	24284.69942
399.646	26669.33594
400.15	24313.32338
400.653	20018.55695
401.156	13866.23708
401.659	5169.95759
402.162	1054.15589
402.664	0
403.167	0
403.67	0
404.172	0
404.674	0
405.176	0
405.678	0
406.18	0
406.682	0
407.184	0
407.686	0
408.187	0
408.688	0
409.19	0
409.691	0
410.192	0
410.693	0
411.194	435.30976
411.694	4082.94878
412.195	8864.71461
412.696	12089.80453
413.196	12760.96929
413.696	12863.67595
414.196	13703.56671
414.696	17261.84252
415.196	21764.24417
415.696	29583.19008
416.196	31950.86572
416.695	25604.6101
417.195	23592.31645
417.694	22778.01288
418.194	20781.13582
418.693	19573.63481
419.192	19457.25721
419.691	19031.20739
420.19	18668.64117
420.688	18734.38863
421.187	17247.46989
421.685	15961.47391
422.184	14180.6459
422.682	11961.43659
423.18	10497.59985
423.678	9363.27463
424.176	8585.08132
424.674	8170.07075
425.172	7891.01947
425.669	7256.21267
426.167	6698.4628
426.664	6148.5442
427.161	5614.64217
427.659	5235.97034
428.156	4906.25193
428.652	4561.52717
429.149	4392.11606
429.646	4278.886
430.143	4145.11787
430.639	3777.76984
431.135	3522.57338
431.632	3390.57308
432.128	3122.62705
432.624	2907.77931
433.12	2707.76948
433.616	2826.73429
434.111	2617.90442
434.607	2575.02257
435.103	2614.96392
435.598	2445.08658
436.093	2254.47805
436.588	2245.5172
437.083	2072.70916
437.578	1945.88327
438.073	1768.10687
438.568	1815.22881
439.062	1795.97551
439.557	1676.3081
440.051	1589.25699
440.546	1489.30929
441.04	1589.4354
441.534	1531.62626
442.028	1545.55294
442.522	1465.56326
443.015	1443.41211
443.509	1385.6782
444.002	1280.67732
444.496	1312.4873
444.989	1317.7236
445.482	1303.76295
445.975	1275.56013
446.468	1239.49978
446.961	1213.50987
447.454	1208.62771
447.947	1117.6803
448.439	1180.79246
448.931	1104.61874
449.424	1143.88713
449.916	1114.80483
450.408	1084.65344
450.9	1016.76847
451.392	954.8288
451.884	1039.7344
452.375	840.75061
452.867	1067.75632
453.358	879.6587
453.849	902.59834
454.341	917.69343
454.832	924.63682
455.323	860.79345
455.814	898.75037
456.304	879.75247
456.795	775.69232
457.285	873.74089
457.776	896.80489
458.266	766.75442
458.756	811.82737
459.247	644.67763
459.737	746.76093
460.226	759.70607
460.716	657.72023
461.206	686.76482
461.695	714.86293
462.185	706.77692
462.674	712.76409
463.163	692.70729
463.653	640.61519
464.142	645.77277
464.63	663.82804
465.119	580.67828
465.608	625.72268
466.096	584.64718
466.585	547.68089
467.073	576.75491
467.561	591.77958
468.05	558.7145
468.538	605.83416
469.026	533.7271
469.513	508.582
470.001	532.67551
470.489	496.67987
470.976	441.60538
471.463	433.66894
471.951	478.74264
472.438	388.56442
472.925	394.5689
473.412	420.66356
473.899	457.65358
474.385	414.65936
474.872	350.5281
475.359	346.55987
475.845	284.3815
476.331	410.57581
476.817	293.49356
477.303	320.50376
477.789	323.53551
478.275	290.50304
478.761	286.48557
479.247	307.47783
479.732	272.48134
480.218	213.40895
480.703	259.46706
481.188	271.40849
481.673	231.38295
482.158	159.24296
482.643	246.46969
483.128	187.31395
483.612	212.36851
484.097	210.39045
484.581	211.37017
485.066	205.37707
485.55	142.23559
486.034	189.30622
486.518	139.25053
487.002	119.2266
487.486	133.25375
487.969	151.28739
488.453	137.27511
488.936	145.25465
489.42	198.3387
489.903	153.30865
490.386	158.19585
490.869	187.31928
491.352	172.33893
491.835	150.24515
492.318	113.20429
492.8	100.16582
493.283	73.15248
493.765	81.16348
494.247	133.25437
494.73	94.16946
495.212	95.19103
495.694	-4.00782
496.175	18.0354
496.657	88.1734
497.139	71.10187
497.62	1.00199
498.102	45.09366
498.583	55.11646
499.064	6.01124
499.545	26.0501
500.026	-18.03433
500.507	18.0355
500.988	19.04037
501.469	-21.04515
501.949	30.06357
502.43	-61.12504
502.91	-40.07086
503.39	48.10313
503.87	-9.01813
504.35	-19.03903
504.83	-46.08719
505.31	-31.06513
505.79	-1.00206
506.269	-12.02437
506.749	-40.07923
507.228	-53.10839
507.707	-2.00382
508.187	18.03736
508.666	-77.16626
509.145	-48.09792
509.623	-49.10085
510.102	-18.03814
510.581	2.00423
511.059	-83.18389
511.538	-4.0091
512.016	-23.04826
512.494	11.02335
512.972	-35.07356
513.45	-33.06648
513.928	-33.07031
514.406	-71.15015
514.884	-31.07031
515.361	-41.0867
515.839	-36.07217
516.316	-95.20442
516.793	-46.10381
517.27	-19.04087
517.747	-79.18115
518.224	-64.13235
518.701	-72.14328
519.178	-110.24448
519.654	-19.04022
520.131	-77.17074
520.607	-7.01543
521.083	-78.15971
521.56	-111.2371
522.036	-39.07636
522.512	-53.11762
522.987	-95.20231
523.463	-57.12128
523.939	-45.09904
524.414	-38.07869
524.89	-40.08494
525.365	-64.13015
525.84	-123.26398
526.315	-81.17587
526.79	-77.15676
527.265	-79.16274
527.74	-123.2732
528.215	-55.11662
528.689	-123.24836
529.164	-40.07808
529.638	-44.10205
530.112	-123.2641
530.587	-89.17137
531.061	-88.19192
531.534	-31.06768
532.008	-80.17403
532.482	-59.12269
532.956	-87.20077
533.429	-39.08518
533.903	-69.13881
534.376	-95.19156
534.849	-53.1112
535.322	-43.09165
535.795	-72.16009
536.268	-74.16153
536.741	-87.19099
537.213	-62.13028
537.686	-93.20622
538.158	-111.22681
538.631	-82.18255
539.103	-80.16269
539.575	-57.10812
540.047	-14.02766
540.519	-23.0497
540.991	-14.03096
541.463	-25.05467
541.934	-20.04121
542.406	-35.07522
542.877	-9.01824
543.348	-17.03708
543.82	9.01985
544.291	39.08132
544.762	27.0569
545.233	-3.00674
545.703	15.02948
546.174	26.05381
546.645	17.03589
547.115	71.15028
547.585	70.14151
548.056	-33.07086
548.526	95.19332
548.996	104.21767
549.466	183.3836
549.935	140.28262
550.405	107.20097
550.875	164.32986
551.344	122.25194
551.814	207.40012
552.283	241.43683
552.752	196.38131
553.221	145.26483
553.69	212.39162
554.159	269.54316
554.628	262.47768
555.096	264.55375
555.565	274.50083
556.033	315.61151
556.502	274.55466
556.97	275.50787
557.438	320.63116
557.906	374.7342
558.374	391.73733
558.842	288.58193
559.31	394.7264
559.777	378.75677
560.245	472.90605
560.712	467.88326
561.18	499.88388
561.647	483.87335
562.114	527.96121
562.581	595.17161
563.048	644.16458
563.514	616.19625
563.981	688.22091
564.448	726.24452
564.914	801.41199
565.381	877.47724
565.847	885.53935
566.313	922.57646
566.779	936.53298
567.245	986.66641
567.711	1025.76298
568.176	1016.61101
568.642	1061.90862
569.108	1148.97163
569.573	1179.91514
570.038	1210.67634
570.504	1211.80792
570.969	1334.23924
571.434	1316.84565
571.899	1391.13785
572.363	1396.02022
572.828	1529.15066
573.293	1477.10666
573.757	1490.11949
574.222	1529.04968
574.686	1510.04571
575.15	1580.28283
575.614	1549.15183
576.078	1577.24003
576.542	1614.18178
577.006	1573.11788
577.469	1654.50292
577.933	1580.0908
578.396	1581.29902
578.86	1596.28081
579.323	1538.25964
579.786	1538.97589
580.249	1378.9972
580.712	1458.28692
581.175	1435.28605
581.637	1370.04576
582.1	1399.94288
582.563	1410.89799
583.025	1245.04328
583.487	1230.59905
583.95	1182.68662
584.412	1186.6586
584.874	1166.9644
585.336	1153.89155
585.797	1009.53918
586.259	1030.74855
586.721	1007.69789
587.182	1089.80889
587.643	1020.65626
588.105	931.62555
588.566	908.39058
589.027	866.56066
589.488	867.47462
589.949	841.54683
590.41	803.14499
590.87	819.41901
591.331	768.26403
591.791	748.32626
592.252	708.25127
592.712	718.34898
593.172	688.207
593.632	757.2725
594.092	650.14138
594.552	695.15848
595.011	659.186
595.471	714.23764
595.931	627.1058
596.39	605.15892
596.849	603.1228
597.308	615.0603
597.768	589.21094
598.227	622.19988
598.685	652.18929
599.144	584.0984
599.603	643.21108
600.062	542.91298
600.52	609.07622
600.978	677.26525
601.437	650.17785
601.895	598.00433
602.353	652.1401
602.811	624.09619
603.269	647.22938
603.727	647.22878
604.184	649.14648
604.642	677.30898
605.099	677.23218
605.557	747.41493
606.014	671.11898
606.471	785.50079
606.928	783.25135
607.385	752.3998
607.842	842.43853
608.299	869.51304
608.755	826.50665
609.212	828.36989
609.668	814.33849
610.125	913.64094
610.581	938.66145
611.037	893.52959
611.493	830.50175
611.949	808.48937
612.405	794.18882
612.861	894.59153
613.316	857.55267
613.772	862.49568
614.227	858.53517
614.683	845.36769
615.138	877.54872
615.593	840.48824
616.048	925.58541
616.503	910.70457
616.958	842.63129
617.412	813.4885
617.867	803.35813
618.321	863.34442
618.776	808.38102
619.23	824.4992
619.684	854.48412
620.138	855.53883
620.592	790.5151
621.046	827.51951
621.5	739.43861
621.954	794.40947
622.407	772.3604
622.861	748.45927
623.314	738.34854
623.768	657.25387
624.221	672.06398
624.674	690.29436
625.127	670.28707
625.58	686.28495
626.033	645.18036
626.485	611.22181
626.938	653.29205
627.39	625.2152
627.843	602.17235
628.295	535.0587
628.747	606.21655
629.199	529.03214
629.651	497.97821
630.103	527.03894
630.555	508.93006
631.006	524.06474
631.458	493.01508
631.909	548.09131
632.361	468.96383
632.812	447.91458
633.263	462.88001
633.714	433.82697
634.165	424.92305
634.616	392.84253
635.067	381.76825
635.518	413.88976
635.968	382.69615
636.419	415.81411
636.869	366.79647
637.319	325.69238
637.769	320.66023
638.219	368.80728
638.669	320.70584
639.119	319.72232
639.569	319.7135
640.019	278.60293
640.468	282.5902
640.918	293.66102
641.367	258.54595
641.816	259.54674
642.265	281.61061
642.714	259.56592
643.163	272.58942
643.612	224.50981
644.061	263.52471
644.51	234.50643
644.958	267.55398
645.406	223.50804
645.855	230.5372
646.303	239.5326
646.751	251.54148
647.199	240.51986
647.647	207.45651
648.095	191.42123
648.543	236.46351
648.99	204.46748
649.438	238.53509
649.885	232.54888
650.333	230.42827
650.78	167.39045
651.227	201.4703
651.674	218.47704
652.121	180.42356
652.568	239.5546
653.015	204.49735
653.461	189.43424
653.908	210.47175
654.354	214.49256
654.801	192.43521
655.247	231.48849
655.693	213.53464
656.139	117.2757
656.585	176.41044
657.031	120.27456
657.477	126.26803
657.922	158.35524
658.368	142.34336
658.813	161.3671
659.259	165.38622
659.704	128.29345
660.149	158.36033
660.594	152.35363
661.039	152.33992
661.484	196.45618
661.929	180.41133
662.373	114.28332
662.818	118.28877
663.262	85.20333
663.707	93.23353
664.151	140.33687
664.595	85.20395
665.039	128.31452
665.483	147.36766
665.927	192.44228
666.371	122.27913
666.814	130.30746
667.258	102.23956
667.701	161.3442
668.145	178.43462
668.588	154.37238
669.031	72.16936
669.474	133.31717
669.917	148.32537
670.36	121.29759
670.803	145.34645
671.245	133.27978
671.688	170.40858
672.13	40.09082
672.573	131.32989
673.015	113.27041
673.457	116.25277
673.899	187.44542
674.341	132.31641
674.783	104.24882
675.225	121.29583
675.666	71.1712
676.108	76.16695
676.549	149.35041
676.991	89.19776
677.432	46.09367
677.873	125.28881
678.314	101.24151
678.755	119.28856
679.196	82.18912
679.637	138.33545
680.078	140.32662
680.518	133.30974
680.959	100.24007
681.399	83.20647
681.839	114.27722
682.28	105.25881
682.72	80.18466
683.16	93.23185
683.6	94.21619
684.039	88.18589
684.479	73.1802
684.919	72.16732
685.358	121.30613
685.798	97.25384
686.237	119.28791
686.676	153.35392
687.115	71.1686
687.554	95.22673
687.993	76.17045
688.432	97.22323
688.871	73.16753
689.309	88.21143
689.748	101.21387
690.186	112.26837
690.625	142.33167
691.063	85.20519
691.501	124.30604
691.939	89.22268
692.377	80.19643
692.815	71.17133
693.253	125.30072
693.69	98.21744
694.128	72.17581
694.565	80.1925
695.003	102.25912
695.44	74.17569
695.877	57.13489
696.314	101.21976
696.751	88.20304
697.188	81.18797
697.625	127.29273
698.061	78.18868
698.498	136.32861
698.934	111.26805
699.371	34.08144
699.807	122.28899
700.243	59.14366
700.679	157.35451
701.115	149.35014
701.551	87.20676
701.987	137.30872
702.422	86.20576
702.858	70.16856
703.294	87.19933
703.729	87.21429
704.164	84.20373
704.599	120.26858
705.035	104.23431
705.47	49.12069
705.904	106.24808
706.339	147.34167
706.774	107.25174
707.209	95.22063
707.643	103.24845
708.078	92.22523
708.512	62.15633
708.946	145.34658
709.38	119.28259
709.814	120.27544
710.248	95.23279
710.682	114.2717
711.116	75.1803
711.549	117.30148
711.983	86.20056
712.416	124.29372
712.85	94.23532
713.283	129.30527
713.716	171.42567
714.149	174.41151
714.582	124.27937
715.015	135.33716
715.448	108.27261
715.881	193.41868
716.313	123.28859
716.746	86.20403
717.178	90.21771
717.61	133.33613
718.043	167.41254
718.475	102.24822
718.907	127.32108
719.339	71.16287
719.77	94.22395
720.202	97.24594
720.634	115.2798
721.065	100.23825
721.497	136.33232
721.928	62.1537
722.359	38.09293
722.79	108.25908
723.221	112.2821
723.652	140.35954
724.083	70.1599
724.514	105.2426
724.945	100.23623
725.375	87.20325
725.806	133.3312
726.236	134.34197
726.666	62.14862
727.096	90.22205
727.526	90.22928
727.956	82.18814
728.386	121.29781
728.816	64.16316
729.246	89.21727
729.675	59.14661
730.105	149.36469
730.534	95.22368
730.964	144.36217
731.393	152.37555
731.822	109.27842
732.251	97.24672
732.68	152.3567
733.109	140.34337
733.537	104.25176
733.966	87.21705
734.395	110.25491
734.823	139.31348
735.251	66.16056
735.68	138.34434
736.108	120.30311
736.536	119.28106
736.964	89.208
737.392	88.22117
737.82	93.22441
738.247	89.21452
738.675	127.30344
739.102	90.22555
739.53	96.24474
739.957	89.22949
740.384	146.35848
740.811	124.31355
741.238	67.16497
741.665	75.17549
742.092	136.32401
742.519	41.1027
742.945	84.20297
743.372	112.27724
743.798	97.24968
744.225	85.2034
744.651	112.28088
745.077	76.19067
745.503	86.21101
745.929	78.18854
746.355	139.34438
746.781	107.26539
747.207	54.12816
747.632	60.14754
748.058	87.21799
748.483	103.23817
748.908	74.18505
749.334	109.26788
749.759	98.23196
750.184	76.18232
750.609	112.27531
751.033	117.27698
751.458	110.24783
751.883	112.27754
752.307	58.13808
752.732	71.17829
753.156	93.23033
753.58	111.2641
754.005	120.30387
754.429	73.17302
754.853	56.13999
755.277	77.18363
755.7	108.26792
756.124	51.12779
756.548	56.13419
756.971	97.23751
757.394	107.27533
757.818	82.21162
758.241	72.18362
758.664	104.26251
759.087	27.06139
759.51	94.23447
759.933	97.23389
760.356	105.26896
760.778	86.21226
761.201	141.34114
761.623	116.28134
762.046	111.26379
762.468	112.26929
762.89	91.22538
763.312	82.20127
763.734	54.13136
764.156	108.26655
764.578	78.18097
765	87.2131
765.421	26.06682
765.843	105.27478
766.264	128.30834
766.686	82.20676
767.107	94.22833
767.528	61.15488
767.949	94.23922
768.37	70.17289
768.791	77.18742
769.212	50.12657
769.632	42.0991
770.053	56.14832
770.473	73.17861
770.894	78.19618
771.314	113.26989
771.734	62.14584
772.154	75.19326
772.575	103.23921
772.994	46.10584
773.414	80.19315
773.834	39.09853
774.254	53.13088
774.673	69.16914
775.093	45.11239
775.512	41.10203
775.931	69.17569
776.351	-9.02277
776.77	12.02979
777.189	66.15809
777.607	66.16927
778.026	52.13051
778.445	27.06831
778.864	93.23847
779.282	25.06099
779.701	19.04852
780.119	59.14986
780.537	-6.01523
780.955	72.18381
781.373	52.12957
781.791	25.05705
782.209	61.14178
782.627	40.10612
783.045	38.08848
783.462	41.10557
783.88	30.07831
784.297	70.17663
784.715	29.07514
785.132	12.02949
785.549	18.04558
785.966	75.18901
786.383	29.07211
786.8	28.06592
787.217	31.07435
787.633	24.06054
788.05	83.19771
788.466	69.1636
788.883	24.06181
789.299	45.10929
789.715	58.14178
790.131	48.12016
790.547	53.13314
790.963	34.08518
791.379	24.06129
791.795	48.11057
792.21	42.09914
792.626	25.06005
793.041	47.11679
793.457	63.15632
793.872	23.05477
794.287	-19.04623
794.702	41.10184
795.117	26.06523
795.532	-13.03311
795.947	85.20472
796.362	80.1914
796.776	47.1111
797.191	37.09134
797.605	-49.11797
798.02	34.08348
798.434	35.07887
798.848	16.03987
799.262	-1.00252
799.676	79.19293
800.09	18.0448
800.504	26.06377
800.918	15.03524
801.331	66.17334
801.745	0
802.158	-2.00507
802.572	43.10509
802.985	91.21967
803.398	18.04346
803.811	32.08293
804.224	82.20402
804.637	1.00242
805.05	47.10976
805.462	41.10147
805.875	13.03403
806.288	-24.059
806.7	30.07602
807.112	9.02117
807.525	57.14122
807.937	-5.01254
808.349	30.07578
808.761	31.07692
809.173	32.07822
809.584	57.14143
809.996	35.08634
810.408	28.07279
810.819	68.16027
811.231	116.29729
811.642	81.19287
812.053	77.18306
812.464	30.07197
812.875	31.0798
813.286	3.00781
813.697	82.19176
814.108	15.03707
814.519	22.04965
814.929	70.17865
815.34	14.03435
815.75	30.07678
816.16	28.07037
816.571	15.03933
816.981	5.01197
817.391	60.1453
817.801	-1.00252
818.211	5.01208
818.62	8.0195
819.03	32.07904
819.44	48.12585
819.849	12.03056
820.259	30.07734
820.668	15.03727
821.077	-17.04289
821.486	26.0632
821.895	59.14618
822.304	13.03476
822.713	27.06441
823.122	25.06291
823.531	-5.01203
823.939	30.07366
824.348	8.01969
824.756	18.04552
825.164	25.06343
825.573	10.02536
825.981	18.04508
826.389	34.08598
826.797	86.21475
827.205	26.06023
827.612	36.08941
828.02	14.03324
828.428	14.03599
828.835	41.10835
829.243	31.07447
829.65	14.03515
830.057	1.00246
830.464	21.05163
830.871	43.10353
831.278	64.15487
831.685	-23.05236
832.092	20.04942
832.499	-15.03343
832.905	38.09671
833.312	13.03001
833.718	37.09271
834.124	41.09428
834.531	41.10384
834.937	9.02333
835.343	21.05113
835.749	24.05659
836.155	37.09732
836.561	27.0669
836.966	5.01237
837.372	49.12507
837.777	-1.00252
838.183	38.08509
838.588	12.03008
838.993	18.04423
839.399	4.00989
839.804	9.02216
840.209	-7.01804
840.613	1.00226
841.018	37.09414
841.423	55.14128
841.828	-5.0128
842.232	12.03002
842.637	13.03099
843.041	-28.07289
843.445	35.08824
843.849	33.08215
844.253	2.00481
844.657	-51.131
845.061	7.01608
845.465	39.09464
845.869	4.00941
846.272	-7.01727
846.676	16.03905
847.079	-22.05676
847.483	65.1621
847.886	55.13407
848.289	23.06174
848.692	18.04594
849.095	10.02426
849.498	65.16469
849.901	26.06011
850.304	-1.00242
850.707	32.08201
851.109	51.12931
851.512	-10.0249
851.914	-4.01019
852.316	38.0965
852.718	-34.08917
853.121	-9.02234
853.523	-9.02133
853.925	2.00527
854.326	-14.03546
854.728	10.02593
855.13	3.00781
855.531	-15.03636
855.933	24.05803
856.334	-7.01766
856.736	-17.0387
857.137	-10.02358
857.538	0
857.939	4.00998
858.34	9.02214
858.741	28.07356
859.142	2.00486
859.542	26.06895
859.943	25.06251
860.343	-14.03512
860.744	41.10039
861.144	-5.01234
861.544	-17.04144
861.945	39.09972
862.345	24.05908
862.745	5.01255
863.145	59.14108
863.544	14.03565
863.944	5.01194
864.344	46.11453
864.743	26.0649
865.143	-1.00259
865.542	11.02576
865.941	-3.00751
866.34	66.15791
866.74	60.16093
867.139	-35.08529
867.537	58.14776
867.936	-31.07588
868.335	18.04612
868.734	18.04631
869.132	19.04449
869.531	-6.01469
869.929	-45.10472
870.327	-3.00727
870.726	54.13475
871.124	34.07985
871.522	10.02568
871.92	9.0224
872.318	14.0345
872.715	31.07712
873.113	0
873.511	-15.03786
873.908	-50.12859
874.306	-30.07578
874.703	44.11035
875.1	49.12551
875.497	3.00727
875.894	-64.16028
876.291	23.0568
876.688	6.01561
877.085	8.01937
877.482	-16.04057
877.878	9.02186
878.275	12.03072
878.671	24.05383
879.068	44.10648
879.464	9.02195
879.86	-11.02635
880.256	46.11374
880.652	-25.06449
881.048	-27.06792
881.444	17.04077
881.84	17.0435
882.236	9.02282
882.631	-7.01738
883.027	45.1092
883.422	14.03606
883.817	-40.10223
884.213	0
884.608	-30.07472
885.003	-2.00487
885.398	6.01515
885.793	25.06309
886.188	-21.05292
886.582	35.09009
886.977	25.05969
887.371	-3.00767
887.766	-28.07068
888.16	40.1001
888.554	30.07453
888.949	42.10571
889.343	28.06875
889.737	-22.05936
890.131	25.06305
890.525	9.0232
890.918	-5.01272
891.312	21.05058
891.706	4.01058
892.099	29.07413
892.492	16.03482
892.886	9.02221
893.279	19.0487
893.672	-4.01029
894.065	44.11039
894.458	37.09334
894.851	37.09097
895.244	-1.00258
895.637	37.08942
896.029	-24.05954
896.422	30.07363
896.814	15.03756
897.206	-13.03136
897.599	65.16046
897.991	20.04867
898.383	5.01193
898.775	-14.03204
899.167	-20.04732
899.559	36.09142
899.951	-4.00954
900.342	27.06899
900.734	-69.17501
901.125	9.02379
901.517	15.03708
901.908	3.00726
902.299	0
902.69	-20.04787
903.082	54.13077
903.473	4.00967
903.863	15.03853
904.254	21.04906
904.645	28.06997
905.036	-43.10599
905.426	16.03692
905.817	17.042
906.207	-61.14853
906.597	-30.07131
906.987	39.10133
907.378	19.04834
907.768	25.0664
908.158	31.07591
908.547	-20.05231
908.937	39.10032
909.327	13.03181
909.717	33.08409
910.106	-25.06094
910.495	67.16685
910.885	29.07376
911.274	50.12504
911.663	22.05615
912.052	23.05707
912.441	32.08167
912.83	-2.00464
913.219	57.14906
913.608	24.0591
913.997	-20.05079
914.385	9.02168
914.774	8.01964
915.162	-39.09457
915.55	25.06081
915.939	-3.00765
916.327	49.12238
916.715	-4.01029
917.103	56.13776
917.491	3.00749
917.878	23.05686
918.266	-13.03409
918.654	-10.02583
919.041	1.00263
919.429	14.03329
919.816	38.09657
920.203	2.0049
920.591	-15.03765
920.978	21.05173
921.365	11.02906
921.752	31.07421
922.139	-12.02642
922.525	-1.00243
922.912	8.01967
923.299	-2.00502
923.685	1.00263
924.072	1.00233
924.458	-24.06028
924.844	-26.06525
925.231	16.0375
925.617	7.01794
926.003	6.01546
926.389	-13.03317
926.774	31.07885
927.16	32.07976
927.546	5.01287
927.931	12.03016
928.317	34.0786
928.702	40.09486
929.088	-25.06001
929.473	-18.04636
929.858	-25.06131
930.243	-17.04133
930.628	0
931.013	14.03493
931.398	3.00697
931.783	24.06348
932.167	-7.0173
932.552	10.02524
932.937	19.04744
933.321	36.09058
933.705	12.03046
934.09	55.1389
934.474	5.01198
934.858	4.01046
935.242	5.01169
935.626	-18.04663
936.009	13.03479
936.393	12.03074
936.777	19.04892
937.16	-2.00525
937.544	38.08977
937.927	22.05611
938.311	-5.01233
938.694	20.05317
939.077	0
939.46	-2.00496
939.843	28.05873
940.226	4.01034
940.609	14.03238
940.991	4.01027
941.374	12.02954
941.757	46.11362
942.139	-24.05474
942.522	37.0877
942.904	17.04113
943.286	31.07905
943.668	25.06505
944.05	2.00497
944.432	0
944.814	19.04708
945.196	-48.11912
945.578	-17.04093
945.959	24.05654
946.341	32.07883
946.722	41.09642
947.104	30.072
947.485	2.0047
947.866	-18.04591
948.247	29.07345
948.628	26.06372
949.009	-6.01552
949.39	-4.01006
949.771	26.06078
950.152	-6.01488
950.532	-76.19129
950.913	21.05094
951.293	1.00272
951.674	-12.02937
952.054	11.02745
952.434	13.03249
952.814	-13.03131
953.194	32.08401
953.574	54.13293
953.954	-5.012
954.334	30.07505
954.714	-15.037
955.093	-5.01242
955.473	-37.09398
955.853	34.08826
956.232	48.1316
956.611	19.04585
956.99	2.00507
957.37	17.04358
957.749	23.05517
958.128	56.14095
958.506	-2.00523
958.885	8.02034
959.264	-18.04467
959.643	10.02294
960.021	51.12636
960.4	-9.02065
960.778	39.09627
961.156	6.01516
961.535	7.01646
961.913	-3.00709
962.291	-31.08066
962.669	-18.04615
963.047	-15.03872
963.424	26.06663
963.802	24.0593
964.18	34.08628
964.557	35.08087
964.935	10.02388
965.312	43.11211
965.69	40.10035
966.067	8.01964
966.444	-16.03991
966.821	29.07504
967.198	47.1141
967.575	40.09854
967.952	59.13881
968.329	-4.00983
968.705	-9.01955
969.082	23.05927
969.458	-44.10744
969.835	44.10724
970.211	-22.05717
970.587	30.07497
970.963	22.05672
971.339	12.03154
971.715	13.03268
972.091	23.05692
972.467	36.09003
972.843	10.025
973.219	48.11532
973.594	6.01581
973.97	57.13551
974.345	32.07685
974.721	41.09946
975.096	43.10419
975.471	13.03106
975.846	13.03145
976.221	-2.00513
976.596	-21.05102
976.971	12.02983
977.346	6.01409
977.72	45.11474
978.095	29.07522
978.469	21.05041
978.844	55.13816
979.218	-37.09016
979.593	46.11031
979.967	-1.00246
980.341	11.02553
980.715	27.06831
981.089	0
981.463	-25.05827
981.837	-10.02471
982.21	57.13248
982.584	-10.02443
982.957	-26.06582
983.331	16.03808
983.704	12.02969
984.078	-16.03991
984.451	44.11003
984.824	-25.06174
985.197	35.08525
985.57	21.05294
985.943	65.1601
986.316	70.17137
986.688	11.02672
987.061	1.00237
987.434	7.01837
987.806	-13.0319
988.179	-24.05744
988.551	53.13438
988.923	10.02481
989.295	48.11999
989.667	-37.08986
990.039	6.01494
990.411	-9.02096
990.783	33.07625
991.155	-23.05602
991.527	45.11092
991.898	-20.05047
992.27	-33.08287
992.641	42.10552
993.012	32.07557
993.384	-4.00964
993.755	28.07166
994.126	-11.02676
994.497	-3.00744
994.868	28.0646
995.239	4.00978
995.61	-9.02288
995.98	-7.01718
996.351	6.01498
996.722	-48.11348
997.092	-61.14753
997.462	-61.14558
997.833	2.00479
998.203	23.05605
998.573	-29.07324
998.943	-14.03324
999.313	-38.09258
999.683	-11.0267
1000.053	5.01161
1000.423	21.05131
1000.792	27.07025
1001.162	-9.02239
1001.531	22.05452
1001.901	-18.04542
1002.27	31.06957
1002.639	21.05392
1003.009	43.10239
1003.378	-7.01808
1003.747	25.05935
1004.116	23.05531
1004.485	46.11001
1004.853	22.05601
1005.222	19.04817
1005.591	17.04062
1005.959	-19.04341
1006.328	3.00682
1006.696	-33.08083
1007.064	4.01014
1007.433	14.03521
1007.801	41.1008
1008.169	15.03811
1008.537	11.02455
1008.905	-16.03775
1009.273	34.08422
1009.64	-30.07265
1010.008	-12.02894
1010.375	55.13342
1010.743	81.18589
1011.11	-19.04555
1011.478	9.02244
1011.845	-4.0095
1012.212	37.08396
1012.579	-18.04474
1012.946	30.07167
1013.313	60.14251
1013.68	17.03847
1014.047	-20.04829
1014.414	-36.08643
1014.78	25.06239
1015.147	35.08487
1015.513	19.04604
1015.88	37.09481
1016.246	33.0817
1016.612	46.10537
1016.978	26.06398
1017.344	-15.0375
1017.71	49.11949
1018.076	32.07571
1018.442	62.15912
1018.808	29.07274
1019.174	-16.0406
1019.539	64.1469
1019.905	-15.03581
1020.27	-28.07007
1020.636	15.0362
1021.001	7.01689
1021.366	13.03143
1021.731	3.00778
1022.096	1.00254
1022.461	20.04759
1022.826	35.0834
1023.191	17.04484
1023.556	-12.02846
1023.92	24.05928
1024.285	12.02949
1024.649	-6.01485
1025.014	23.05724
1025.378	-24.06112
1025.742	25.06235
1026.107	3.00685
1026.471	-2.00472
1026.835	-14.0351
1027.199	-40.09789
1027.562	-7.01645
1027.926	34.08336
1028.29	14.03564
1028.654	20.04627
1029.017	28.06908
1029.381	10.02406
1029.744	16.04103
1030.107	54.12762
1030.471	8.0193
1030.834	14.03207
1031.197	30.07252
1031.56	-11.02625
1031.923	28.07264
1032.286	37.08709
1032.648	35.08391
1033.011	-1.00232
1033.374	38.08949
1033.736	-7.01857
1034.099	1.00246
1034.461	12.03051
1034.823	-12.0302
1035.185	18.04555
1035.548	-4.00983
1035.91	9.02172
1036.272	-1.0023
1036.634	31.07608
1036.995	-7.01663
1037.357	7.01716
1037.719	15.0367
1038.08	25.05962
1038.442	3.00718
1038.803	-18.04376
1039.165	25.06334
1039.526	25.06067
1039.887	7.01688
1040.248	-11.02739
1040.609	55.13572
1040.97	-13.03213
1041.331	31.07871
1041.692	-23.05443
1042.053	53.12056
1042.413	14.03284
1042.774	35.08532
1043.134	53.12605
1043.495	26.06561
1043.855	18.0439
1044.215	17.04243
1044.576	-7.01691
1044.936	40.09185
1045.296	54.1346
1045.656	48.11777
1046.016	8.01945
1046.375	21.05119
1046.735	-14.03213
1047.095	-3.00709
1047.454	-7.01501
1047.814	4.00969
1048.173	21.05043
1048.533	18.04148
1048.892	-39.09514
1049.251	55.13786
1049.61	-22.05486
1049.969	-12.02861
1050.328	15.03275
1050.687	33.0805
1051.046	-8.01968
1051.405	46.11445
1051.763	-12.02792
1052.122	5.01256
1052.48	15.037
1052.839	19.04495
1053.197	-3.00713
1053.555	76.17228
1053.914	51.12465
1054.272	45.10883
1054.63	-6.01481
1054.988	20.04776
1055.345	18.03901
1055.703	10.02424
1056.061	52.13364
1056.419	10.02605
1056.776	45.10916
1057.134	-1.00234
1057.491	26.06535
1057.848	24.06
1058.206	7.01659
1058.563	-3.00668
1058.92	1.00233
1059.277	3.00746
1059.634	23.05437
1059.991	37.08881
1060.348	1.00228
1060.704	-4.00962
1061.061	64.1482
1061.418	13.03173
1061.774	22.05456
1062.131	-2.00533
1062.487	8.01885
1062.843	32.07999
1063.199	18.045
1063.555	3.00701
1063.911	-1.00255
1064.267	16.03361
1064.623	28.06824
1064.979	56.13245
1065.335	43.10286
1065.691	30.07213
1066.046	3.00666
1066.402	-4.00918
1066.757	49.12362
1067.112	0
1067.468	15.03563
1067.823	-5.01214
1068.178	-23.05636
1068.533	10.02441
1068.888	55.13121
1069.243	2.00498
1069.598	-15.03687
1069.952	-31.07091
1070.307	13.03237
1070.662	11.02629
1071.016	-29.06599
1071.371	10.02292
1071.725	40.09581
1072.079	21.05075
1072.434	9.02202
1072.788	-10.02407
1073.142	41.10095
1073.496	5.01196
1073.85	36.08366
1074.203	20.04876
1074.557	6.01606
1074.911	30.07183
1075.265	-5.01174
1075.618	30.07347
1075.971	25.05971
1076.325	6.01536
1076.678	-28.06499
1077.031	-40.09211
1077.385	8.01777
1077.738	-7.01597
1078.091	-59.13703
1078.444	23.05365
1078.796	32.07872
1079.149	33.08227
1079.502	-12.02867
1079.855	-14.03303
1080.207	6.01489
1080.56	-6.01565
1080.912	24.05867
1081.264	1.00243
1081.617	-16.03945
1081.969	5.0127
1082.321	-27.06682
1082.673	-34.07885
1083.025	13.03104
1083.377	3.0065
1083.728	-12.02832
1084.08	-32.081
1084.432	-10.02437
1084.783	21.04945
1085.135	-26.066
1085.486	-22.05102
1085.838	-7.01741
1086.189	12.02931
1086.54	25.05994
1086.891	25.06345
1087.242	21.05136
1087.593	46.11199
1087.944	27.06134
1088.295	41.0933
1088.646	-20.04907
1088.996	-2.00486
1089.347	24.05913
1089.698	-50.12036
1090.048	28.07294
1090.398	5.01169
1090.749	16.0385
1091.099	-22.05599
1091.449	1.00251
1091.799	34.0853
1092.149	-39.09659
1092.499	9.0221
1092.849	-35.09022
1093.199	6.01515
1093.548	-22.05354
1093.898	33.08275
1094.248	27.0696
1094.597	-34.08799
1094.947	22.05891
1095.296	9.02237
1095.645	48.12478
1095.994	17.04105
1096.343	15.03795
1096.692	8.02115
1097.041	-27.07395
1097.39	9.02272
1097.739	15.03919
1098.088	33.08858
1098.437	-22.05844
1098.785	28.07569
1099.134	29.07721
1099.482	28.07721
1099.83	36.09474
1100.179	-28.07393
1100.527	18.04804
1100.875	-7.01867
1101.223	28.07456
1101.571	11.03056
1101.919	-31.08204
1102.267	0
1102.615	7.0225
1102.962	6.01933
1103.31	1.00321
1103.658	9.02899
