Data from N2 R5 sample 8_Subt2__7__12-01-57-363.txt Node

Date: Fri Aug 29 12:01:57 PDT 2025
User: uwsun
Spectrometer: HDX01956
Trigger mode: 0
Integration Time (sec): 5.000000E-1
Scans to average: 1
Nonlinearity correction enabled: true
Boxcar width: 0
Storing dark spectrum: false
XAxis mode: Wavelengths
Number of Pixels in Spectrum: 2068
>>>>>Begin Spectral Data<<<<<
194.03	151.41392
194.578	157.4868
195.127	153.46743
195.676	150.45989
196.225	180.46307
196.773	196.52046
197.321	275.70433
197.87	375.86357
198.418	388.8787
198.966	356.81672
199.513	352.76698
200.061	355.78713
200.609	433.00213
201.156	297.56776
201.704	325.72062
202.251	362.84311
202.798	378.85953
203.345	399.86071
203.892	408.89124
204.438	435.89527
204.985	382.77788
205.532	369.85112
206.078	401.85352
206.624	367.78388
207.17	422.84212
207.716	408.85275
208.262	373.63144
208.808	354.75563
209.354	332.70713
209.899	455.99536
210.445	356.7701
210.99	389.80853
211.535	457.91811
212.08	405.81326
212.625	367.80526
213.17	413.90998
213.715	269.52445
214.259	388.78434
214.804	356.77405
215.348	330.66312
215.892	376.78622
216.436	379.76633
216.98	388.74479
217.524	403.82307
218.068	362.80214
218.612	391.86224
219.155	368.75551
219.698	314.66211
220.242	374.82182
220.785	338.69612
221.328	330.72972
221.871	374.83839
222.414	320.71086
222.956	308.65602
223.499	279.55947
224.041	400.81453
224.583	421.78768
225.126	362.69689
225.668	314.67694
226.21	326.7269
226.751	269.52171
227.293	314.63679
227.835	341.73372
228.376	374.75812
228.918	363.81089
229.459	326.71697
230	320.67387
230.541	334.67921
231.082	325.69659
231.622	354.7166
232.163	352.7481
232.704	346.75455
233.244	315.69263
233.784	337.7329
234.324	311.59596
234.864	307.61448
235.404	332.69822
235.944	351.73216
236.484	369.81033
237.023	320.66587
237.563	332.67206
238.102	409.8357
238.641	360.80037
239.18	294.6055
239.719	379.83228
240.258	359.70359
240.797	351.73313
241.335	400.85158
241.874	310.51722
242.412	332.69976
242.95	311.65161
243.488	340.67817
244.026	329.66218
244.564	377.66598
245.102	383.73998
245.64	395.82759
246.177	369.71601
246.715	394.82093
247.252	323.6516
247.789	417.66662
248.326	304.63906
248.863	371.69858
249.4	377.74027
249.936	328.58379
250.473	374.75188
251.009	335.66556
251.546	357.67817
252.082	379.71259
252.618	326.62969
253.154	376.77855
253.69	357.69404
254.226	387.7947
254.761	362.70024
255.297	319.60509
255.832	346.70938
256.367	406.8181
256.903	352.66427
257.438	401.80821
257.972	392.74484
258.507	306.60752
259.042	412.75693
259.576	318.58715
260.111	402.79476
260.645	415.76033
261.179	360.72107
261.713	397.74865
262.247	340.67817
262.781	374.66292
263.315	365.76846
263.849	391.83803
264.382	366.72325
264.915	399.79197
265.449	347.72221
265.982	428.82277
266.515	421.87075
267.048	420.74215
267.58	382.71205
268.113	413.74636
268.646	370.78224
269.178	403.75586
269.71	395.72879
270.243	432.83006
270.775	384.8367
271.307	423.86509
271.838	427.86179
272.37	419.87282
272.902	398.7662
273.433	404.74073
273.965	386.79997
274.496	380.81041
275.027	427.89384
275.558	401.8227
276.089	346.72285
276.62	449.96647
277.15	435.90696
277.681	441.79657
278.211	407.84708
278.741	367.67814
279.272	389.74473
279.802	378.80475
280.332	409.80689
280.861	422.8519
281.391	365.69641
281.921	455.91493
282.45	410.8668
282.98	427.94043
283.509	400.75005
284.038	500.92742
284.567	453.87901
285.096	437.87955
285.625	376.71374
286.153	445.85895
286.682	391.74385
287.21	387.77927
287.739	407.79955
288.267	400.80601
288.795	481.0507
289.323	424.81311
289.851	448.86205
290.378	490.88759
290.906	440.87152
291.433	456.93659
291.961	450.82592
292.488	470.95925
293.015	439.84127
293.542	456.94461
294.069	483.96184
294.596	460.93458
295.122	451.87597
295.649	435.7781
296.175	499.97891
296.702	489.9611
297.228	507.99507
297.754	468.84125
298.28	472.85498
298.806	469.90702
299.332	471.82384
299.857	514.91212
300.383	494.01143
300.908	420.82101
301.433	450.87798
301.958	555.0051
302.483	455.91156
303.008	528.03628
303.533	512.07154
304.058	556.02563
304.582	459.85836
305.107	513.06013
305.631	542.96383
306.155	532.95781
306.679	466.85444
307.203	512.92179
307.727	514.95102
308.251	538.03606
308.775	481.88528
309.298	490.90887
309.822	558.09064
310.345	518.94742
310.868	580.04968
311.391	556.05333
311.914	560.07179
312.437	557.96461
312.96	586.03198
313.482	576.0228
314.005	576.09556
314.527	562.12652
315.049	616.17349
315.571	555.90211
316.093	650.18264
316.615	614.08536
317.137	622.96891
317.659	690.21559
318.18	642.13202
318.702	665.10105
319.223	627.89768
319.744	641.01213
320.265	618.07257
320.786	635.11877
321.307	674.18919
321.828	681.06311
322.348	606.00838
322.869	631.03423
323.389	672.6805
323.909	701.0938
324.43	751.24249
324.95	740.12036
325.47	701.16723
325.989	775.19212
326.509	701.9957
327.029	721.04506
327.548	759.07723
328.067	721.13034
328.587	724.19604
329.106	760.08716
329.625	857.48188
330.144	821.16123
330.662	777.10915
331.181	822.17552
331.7	827.17567
332.218	849.06352
332.736	868.20442
333.255	839.1524
333.773	893.23016
334.291	890.33559
334.808	820.04171
335.326	905.13575
335.844	896.14441
336.361	900.29569
336.879	926.16189
337.396	1001.28263
337.913	911.11151
338.43	978.11736
338.947	989.22213
339.464	956.99405
339.981	986.18194
340.497	1023.30297
341.014	961.20236
341.53	1006.07578
342.046	970.19888
342.562	1122.36323
343.078	1044.16224
343.594	1127.24091
344.11	1096.2012
344.626	1112.3182
345.141	1155.11864
345.657	1157.12446
346.172	1162.22528
346.687	1138.09292
347.202	1143.03611
347.717	1197.18596
348.232	1186.27707
348.747	1101.03448
349.261	1090.88729
349.776	1212.1094
350.29	1263.19608
350.805	1291.26057
351.319	1264.08399
351.833	1270.98391
352.347	1234.05763
352.861	1313.04661
353.374	1336.05226
353.888	1302.12587
354.401	1302.99197
354.915	1348.89822
355.428	1358.14718
355.941	1271.95311
356.454	1458.94931
356.967	1377.02433
357.48	1321.94225
357.993	1412.10639
358.505	1412.05414
359.018	1509.07155
359.53	1509.99633
360.042	1457.81801
360.554	1489.01422
361.066	1418.98291
361.578	1472.73713
362.09	1422.92367
362.602	1514.72167
363.113	1506.82454
363.625	1570.73274
364.136	1529.68647
364.647	1422.70935
365.158	1674.75526
365.669	1604.82372
366.18	1677.76564
366.691	1572.60729
367.201	1657.76142
367.712	1652.60696
368.222	1690.59536
368.733	1745.41376
369.243	1748.42743
369.753	1756.53449
370.263	1857.56476
370.773	1808.63391
371.282	1790.48153
371.792	1765.28065
372.301	1990.34192
372.811	1995.54025
373.32	1896.97604
373.829	2048.07674
374.338	2091.8814
374.847	2087.87811
375.356	2220.80923
375.865	2274.45183
376.373	2450.41117
376.882	2511.61896
377.39	2511.43255
377.898	2592.24986
378.407	2677.99852
378.915	2894.81088
379.423	2943.81441
379.93	2993.71186
380.438	3158.62896
380.946	3360.56247
381.453	3393.57311
381.96	3699.6985
382.468	3793.01907
382.975	4090.232
383.482	4151.71247
383.989	4104.43113
384.495	4399.59153
385.002	4662.53725
385.509	4708.66882
386.015	5262.88767
386.521	5450.64688
387.028	5603.88369
387.534	5859.86048
388.04	6128.87446
388.546	6102.49853
389.051	6717.60166
389.557	7158.40178
390.063	7550.11381
390.568	7602.1731
391.073	7624.78646
391.578	8296.12733
392.084	8175.91286
392.589	8602.04371
393.093	9373.47102
393.598	10334.14894
394.103	11206.20575
394.607	12239.67907
395.112	13012.43011
395.616	13670.86429
396.12	14304.49601
396.624	15661.09167
397.128	17066.51227
397.632	19083.07711
398.136	20113.64803
398.639	21351.64408
399.143	24230.89871
399.646	26801.38816
400.15	24356.2113
400.653	19977.56325
401.156	13866.23708
401.659	5169.95759
402.162	1054.15589
402.664	0
403.167	0
403.67	0
404.172	0
404.674	0
405.176	0
405.678	0
406.18	0
406.682	0
407.184	0
407.686	0
408.187	0
408.688	0
409.19	0
409.691	0
410.192	0
410.693	0
411.194	435.30976
411.694	4082.94878
412.195	8864.71461
412.696	12089.80453
413.196	12760.96929
413.696	12863.67595
414.196	13703.56671
414.696	17261.84252
415.196	21764.24417
415.696	29583.19008
416.196	32231.48193
416.695	25489.75651
417.195	23663.30152
417.694	22863.06051
418.194	21207.18252
418.693	19990.13368
419.192	19422.9801
419.691	19038.26367
420.19	18950.88563
420.688	18622.48446
421.187	17621.72241
421.685	16101.94919
422.184	14447.07468
422.682	12158.2846
423.18	10494.5565
423.678	9660.22123
424.176	8628.60645
424.674	8054.79801
425.172	7825.3691
425.669	7314.6987
426.167	6717.59497
426.664	6030.89271
427.161	5515.21777
427.659	5250.01499
428.156	4887.19764
428.652	4742.85084
429.149	4435.17921
429.646	4353.98595
430.143	4079.06762
430.639	3853.80154
431.135	3485.5727
431.632	3340.57625
432.128	3149.61905
432.624	2902.78154
433.12	2821.72246
433.616	2822.73593
434.111	2547.94026
434.607	2524.05026
435.103	2549.99836
435.598	2418.10155
436.093	2301.45169
436.588	2309.48148
437.083	2088.70082
437.578	1900.90416
438.073	1804.09315
438.568	1860.21292
439.062	1706.01234
439.557	1678.30754
440.051	1583.25862
440.546	1632.27364
441.04	1530.44616
441.534	1532.62618
442.028	1537.55392
442.522	1428.56594
443.015	1406.41733
443.509	1455.6784
444.002	1345.68171
444.496	1289.48828
444.989	1376.72797
445.482	1334.76655
445.975	1187.55651
446.468	1247.49974
446.961	1165.50828
447.454	1149.62065
447.947	1162.68894
448.439	1164.78857
448.931	1145.62517
449.424	1178.89864
449.916	1119.80635
450.408	1047.64515
450.9	986.75708
451.392	1013.85656
451.884	981.71483
452.375	943.80416
452.867	964.72081
453.358	900.66721
453.849	943.61121
454.341	899.68602
454.832	866.61577
455.323	897.81428
455.814	865.73402
456.304	895.76052
456.795	822.71889
457.285	888.74837
457.776	899.80651
458.266	851.80868
458.756	826.83757
459.247	738.74774
459.737	697.7251
460.226	722.68249
460.716	684.74207
461.206	668.74983
461.695	688.83919
462.185	692.7656
462.674	679.73807
463.163	692.70729
463.653	681.6432
464.142	629.75793
464.63	652.8174
465.119	626.71978
465.608	585.68643
466.096	647.69982
466.585	592.72537
467.073	557.73464
467.561	553.73868
468.05	608.76529
468.538	592.81963
469.026	582.78138
469.513	489.5642
470.001	442.57864
470.489	464.64259
470.976	513.6879
471.463	466.71298
471.951	446.69938
472.438	391.56826
472.925	431.61519
473.412	434.68293
473.899	390.56944
474.385	378.60821
474.872	356.53618
475.359	321.52307
475.845	277.37295
476.331	381.54
476.817	347.57594
477.303	281.44734
477.789	298.49746
478.275	276.48053
478.761	305.51518
479.247	317.49196
479.732	214.38443
480.218	271.51303
480.703	308.54847
481.188	273.41125
481.673	222.36895
482.158	242.36071
482.643	258.49117
483.128	197.32983
483.612	212.36851
484.097	252.46364
484.581	196.34521
485.066	136.2545
485.55	177.29082
486.034	227.36385
486.518	161.28854
487.002	161.30344
487.486	186.3503
487.969	152.28923
488.453	131.26342
488.936	174.30325
489.42	155.26821
489.903	118.23996
490.386	173.2133
490.869	142.24538
491.352	180.35402
491.835	111.18339
492.318	62.11355
492.8	85.14153
493.283	68.14219
493.765	67.13566
494.247	135.25807
494.73	53.09655
495.212	105.21065
495.694	80.15334
496.175	12.02363
496.657	88.1734
497.139	50.07221
497.62	-23.04595
498.102	16.03352
498.583	73.15397
499.064	46.08531
499.545	68.1297
500.026	-26.04969
500.507	23.04531
500.988	69.14502
501.469	0
501.949	48.10131
502.43	-77.15841
502.91	27.04699
503.39	25.05398
503.87	0
504.35	22.04478
504.83	-12.02256
505.31	-25.05245
505.79	-82.17177
506.269	-10.0203
506.749	-58.11536
507.228	-62.12706
507.707	-17.03259
508.187	15.03115
508.666	-82.17724
509.145	-49.09999
509.623	-78.16159
510.102	-14.02964
510.581	20.04214
511.059	-78.17264
511.538	-22.05021
512.016	-51.10766
512.494	-38.08154
512.972	-16.03349
513.45	-111.22763
513.928	0
514.406	-88.18679
514.884	-22.04981
515.361	-29.06117
515.839	-90.18269
516.316	-84.18032
516.793	-31.06974
517.27	-55.11921
517.747	-29.06583
518.224	-48.0989
518.701	-50.09899
519.178	-113.2513
519.654	-57.12165
520.131	-48.10579
520.607	-26.05752
521.083	-85.17431
521.56	-109.23273
522.036	18.03477
522.512	-10.02199
522.987	-108.23064
523.463	-56.11913
523.939	-46.10126
524.414	-22.04539
524.89	-19.04016
525.365	-91.1862
525.84	-139.29935
526.315	-77.16704
526.79	-89.18169
527.265	-69.14182
527.74	-29.06315
528.215	-61.12951
528.689	-86.17218
529.164	-76.14962
529.638	-67.1561
530.112	-104.22239
530.587	-131.25479
531.061	-94.20527
531.534	-72.15856
532.008	-95.20732
532.482	-87.18205
532.956	-126.29303
533.429	-62.13608
533.903	-86.17369
534.376	-116.23503
534.849	-79.1667
535.322	-93.20037
535.795	-63.13982
536.268	-79.17262
536.741	-54.11772
537.213	-24.05001
537.686	-90.19944
538.158	-120.2457
538.631	-16.03513
539.103	-72.14615
539.575	-44.08319
540.047	-88.17691
540.519	-26.05622
540.991	-38.08446
541.463	-50.10993
541.934	-72.15009
542.406	-62.13401
542.877	-49.10021
543.348	7.01519
543.82	-6.01327
544.291	11.02308
544.762	-4.00849
545.233	-9.02023
545.703	-40.07964
546.174	38.07844
546.645	4.00847
547.115	58.12311
547.585	43.08746
548.056	-4.00853
548.526	65.13318
548.996	106.22175
549.466	106.22598
549.935	62.12741
550.405	88.16606
550.875	73.14991
551.344	129.26598
551.814	177.34459
552.283	169.31195
552.752	185.36085
553.221	168.30505
553.69	192.35645
554.159	199.40828
554.628	219.40363
555.096	201.42748
555.565	215.39885
556.033	276.54079
556.502	236.48189
556.97	307.56243
557.438	264.52756
557.906	259.52225
558.374	256.49875
558.842	335.6696
559.31	339.63361
559.777	346.69784
560.245	431.83552
560.712	419.80178
561.18	427.77048
561.647	448.81728
562.114	465.86141
562.581	509.02221
563.048	584.072
563.514	556.09494
563.981	640.14967
564.448	619.09109
564.914	668.21792
565.381	765.32732
565.847	725.31372
566.313	803.41626
566.779	817.38187
567.245	843.47925
567.711	943.65693
568.176	867.43265
568.642	952.75975
569.108	932.69186
569.573	1032.74443
570.038	1074.5516
570.504	1084.67915
570.969	1119.98762
571.434	1114.66068
571.899	1219.9672
572.363	1226.86625
572.828	1317.9745
573.293	1305.95987
573.757	1295.95287
574.222	1388.94525
574.686	1367.93673
575.15	1397.12961
575.614	1374.01253
576.078	1464.15101
576.542	1468.07611
577.006	1398.98794
577.469	1440.31419
577.933	1350.92019
578.396	1387.13414
578.86	1424.1412
579.323	1355.09909
579.786	1308.80882
580.249	1250.88171
580.712	1314.14474
581.175	1220.06018
581.637	1199.88161
582.1	1260.82583
582.563	1212.73518
583.025	1173.96396
583.487	1108.49856
583.95	1059.56823
584.412	1037.51778
584.874	1050.82387
585.336	998.70682
585.797	973.49982
586.259	987.69471
586.721	900.56098
587.182	891.55961
587.643	855.4518
588.105	813.46307
588.566	841.31307
589.027	741.37758
589.488	774.34901
589.949	730.37964
590.41	709.04034
590.87	741.31007
591.331	752.24311
591.791	647.17687
592.252	632.13876
592.712	644.23169
593.172	645.14414
593.632	667.14834
594.092	572.02463
594.552	561.97051
595.011	519.96867
595.471	552.99893
595.931	581.03678
596.39	566.09427
596.849	530.00447
597.308	553.97041
597.768	507.06129
598.227	518.0238
598.685	567.05616
599.144	513.9831
599.603	571.0942
600.062	493.84148
600.52	516.93518
600.978	531.02771
601.437	541.00713
601.895	555.94432
602.353	595.0558
602.811	505.91594
603.269	589.13475
603.727	517.0125
604.184	544.98846
604.642	575.13854
605.099	620.14452
605.557	619.20866
606.014	591.00689
606.471	623.23721
606.928	615.0293
607.385	724.35693
607.842	748.30977
608.299	759.35941
608.755	683.29035
609.212	697.19436
609.668	715.2076
610.125	754.40979
610.581	843.52958
611.037	764.35329
611.493	771.41571
611.949	695.3169
612.405	673.04387
612.861	768.41125
613.316	716.34323
613.772	755.34668
614.227	712.32127
614.683	829.34775
615.138	762.38547
615.593	717.31042
616.048	778.38529
616.503	810.55426
616.958	701.40336
617.412	690.302
617.867	705.22362
618.321	740.19353
618.776	794.36212
619.23	704.31938
619.684	700.26543
620.138	786.43933
620.592	716.39741
621.046	692.31408
621.5	632.26124
621.954	675.23475
622.407	734.3061
622.861	631.26478
623.314	676.25434
623.768	677.28586
624.221	599.96933
624.674	590.13368
625.127	583.14309
625.58	620.17998
626.033	621.14322
626.485	516.05418
626.938	530.07843
627.39	571.12427
627.843	535.05821
628.295	519.03082
628.747	501.02973
629.199	482.95248
629.651	438.87405
630.103	458.91905
630.555	437.81438
631.006	430.89394
631.458	429.89763
631.909	470.95446
632.361	367.77301
632.812	370.77025
633.263	407.7856
633.714	406.78047
634.165	400.87525
634.616	369.79703
635.067	363.73498
635.518	351.76627
635.968	361.66138
636.419	351.69897
636.869	331.72567
637.319	292.62654
637.769	246.516
638.219	314.69667
638.669	257.57436
639.119	276.63043
639.569	262.5929
640.019	304.65566
640.468	243.51297
640.918	244.55599
641.367	255.53995
641.816	263.5547
642.265	241.52815
642.714	162.36124
643.163	216.47367
643.612	182.41774
644.061	187.37967
644.51	211.4589
644.958	195.4111
645.406	174.40034
645.855	165.39031
646.303	186.41904
646.751	164.3604
647.199	194.42435
647.647	163.36279
648.095	133.29688
648.543	171.341
648.99	196.44987
649.438	221.4986
649.885	202.48069
650.333	182.34294
650.78	172.40174
651.227	145.343
651.674	106.23745
652.121	159.37568
652.568	136.32202
653.015	190.46443
653.461	139.32256
653.908	197.44373
654.354	206.47491
654.801	115.26476
655.247	158.33947
655.693	122.31124
656.139	131.30784
656.585	173.40368
657.031	98.22521
657.477	92.19715
657.922	121.27411
658.368	158.38089
658.813	160.36489
659.259	127.29949
659.704	137.31351
660.149	107.24653
660.594	116.2718
661.039	57.12997
661.484	138.32486
661.929	127.29332
662.373	82.20498
662.818	58.14352
663.262	59.14183
663.707	106.26555
664.151	129.31105
664.595	107.25566
665.039	124.30491
665.483	124.31143
665.927	134.31225
666.371	27.06295
666.814	137.32357
667.258	101.23725
667.701	171.36478
668.145	85.21114
668.588	130.31577
669.031	67.15776
669.474	76.18322
669.917	132.29118
670.36	108.26626
670.803	126.30215
671.245	100.21189
671.688	88.21479
672.13	62.14014
672.573	132.33235
673.015	76.18315
673.457	80.17566
673.899	106.25641
674.341	114.2742
674.783	35.08484
675.225	102.25026
675.666	64.15452
676.108	50.11043
676.549	149.35041
676.991	63.14075
677.432	76.15371
677.873	90.20939
678.314	92.22036
678.755	90.21943
679.196	56.12983
679.637	124.30221
680.078	101.23744
680.518	124.28929
680.959	96.23065
681.399	82.20402
681.839	86.21022
682.28	54.13435
682.72	56.12988
683.16	53.13309
683.6	95.21845
684.039	30.06418
684.479	75.18507
684.919	24.0563
685.358	127.32097
685.798	95.24869
686.237	93.22611
686.676	158.36513
687.115	109.25694
687.554	53.12751
687.993	50.11274
688.432	115.2637
688.871	63.14487
689.309	90.21615
689.748	51.10917
690.186	82.19761
690.625	79.18681
691.063	53.12871
691.501	91.22596
691.939	71.17822
692.377	62.15274
692.815	66.15941
693.253	67.16296
693.69	66.14742
694.128	104.25243
694.565	60.14492
695.003	90.22912
695.44	87.20604
695.877	56.13255
696.314	88.192
696.751	92.2121
697.188	87.20165
697.625	79.18384
698.061	77.1863
698.498	122.29556
698.934	84.20388
699.371	63.15007
699.807	64.1533
700.243	76.18447
700.679	94.21498
701.115	111.26278
701.551	95.22542
701.987	138.31091
702.422	52.12522
702.858	110.26287
703.294	73.16773
703.729	112.27459
704.164	99.23943
704.599	78.17609
705.035	54.1229
705.47	25.06185
705.904	109.25495
706.339	114.26669
706.774	111.26095
707.209	3.00709
707.643	113.27206
708.078	78.19145
708.512	54.13635
708.946	105.25289
709.38	111.264
709.814	87.20101
710.248	74.18203
710.682	54.13018
711.116	38.09199
711.549	123.3166
711.983	60.14064
712.416	109.25894
712.85	99.24761
713.283	74.17698
713.716	144.36022
714.149	99.23754
714.582	119.26838
715.015	128.32008
715.448	98.24781
715.881	132.29008
716.313	113.26565
716.746	84.19936
717.178	86.20819
717.61	64.16374
718.043	119.29656
718.475	89.21711
718.907	116.29385
719.339	76.17417
719.77	75.17934
720.202	82.20846
720.634	71.17417
721.065	88.21014
721.497	114.2797
721.928	79.19523
722.359	49.11958
722.79	87.20954
723.221	74.18766
723.652	168.42934
724.083	90.20476
724.514	95.21993
724.945	56.13342
725.375	23.05441
725.806	92.23081
726.236	93.23905
726.666	85.20286
727.096	102.2511
727.526	94.2393
727.956	51.11774
728.386	107.26404
728.816	52.13285
729.246	59.14484
729.675	31.07742
730.105	73.1812
730.534	73.17262
730.964	115.29074
731.393	81.20274
731.822	104.26588
732.251	95.24172
732.68	78.18569
733.109	56.13948
733.537	66.16092
733.966	59.14794
734.395	95.22081
734.823	103.234
735.251	73.17735
735.68	93.23395
736.108	71.18091
736.536	115.27183
736.964	59.1387
737.392	106.26555
737.82	84.20304
738.247	98.23581
738.675	114.27306
739.102	51.12871
739.53	73.18686
739.957	70.18109
740.384	168.41081
740.811	85.21643
741.238	99.24232
741.665	60.14081
742.092	146.34717
742.519	54.13494
742.945	62.15043
743.372	100.24808
743.798	78.20144
744.225	72.17272
744.651	76.19184
745.077	52.13102
745.503	108.2639
745.929	58.14072
746.355	142.35162
746.781	34.08545
747.207	43.10227
747.632	59.14511
748.058	111.27692
748.483	53.12377
748.908	79.19738
749.334	110.27029
749.759	90.21335
750.184	44.1062
750.609	115.28252
751.033	117.27698
751.458	105.2368
751.883	102.25322
752.307	55.13101
752.732	32.08092
753.156	40.10003
753.58	109.25944
754.005	60.15356
754.429	67.15898
754.853	74.18438
755.277	51.12223
755.7	83.20684
756.124	50.12531
756.548	73.17435
756.971	90.22066
757.394	62.16078
757.818	69.17848
758.241	93.2363
758.664	94.23769
759.087	12.02737
759.51	80.20006
759.933	67.16247
760.356	68.17531
760.778	73.1806
761.201	96.23423
761.623	59.14463
762.046	93.22178
762.468	111.26694
762.89	78.19364
763.312	79.19401
763.734	70.16978
764.156	64.15923
764.578	103.23779
765	80.19621
765.421	31.0796
765.843	107.27991
766.264	108.26115
766.686	75.18935
767.107	71.1732
767.528	25.06388
767.949	67.17132
768.37	13.03244
768.791	68.16579
769.212	39.09892
769.632	22.05211
770.053	46.12204
770.473	85.20751
770.894	59.1489
771.314	91.21826
771.734	41.09684
772.154	75.19326
772.575	68.15902
772.994	27.06236
773.414	69.16694
773.834	47.11857
774.254	71.17475
774.673	75.18364
775.093	31.07762
775.512	29.07232
775.931	76.19327
776.351	89.22123
776.77	62.15252
777.189	20.04833
777.607	50.12859
778.026	27.06807
778.445	22.05571
778.864	58.14963
779.282	49.119
779.701	25.06377
780.119	13.03329
780.537	21.05306
780.955	62.15856
781.373	61.15174
781.791	21.04796
782.209	38.08872
782.627	48.12717
783.045	10.02341
783.462	42.10813
783.88	22.0575
784.297	37.09391
784.715	25.06482
785.132	23.0564
785.549	37.09338
785.966	14.03567
786.383	43.10666
786.8	54.12648
787.217	55.13131
787.633	-13.03301
788.05	66.15773
788.466	45.10719
788.883	38.09763
789.299	40.09723
789.715	10.02466
790.131	51.12761
790.547	61.15301
790.963	31.0777
791.379	16.04092
791.795	31.07165
792.21	38.08977
792.626	11.02649
793.041	16.03998
793.457	62.15387
793.872	16.03815
794.287	-20.04867
794.702	85.20944
795.117	58.14467
795.532	30.07583
795.947	74.1786
796.362	61.14647
796.776	83.19482
797.191	30.07415
797.605	-22.0527
798.02	30.07372
798.434	48.10788
798.848	24.05971
799.262	-11.02773
799.676	52.12763
800.09	26.06462
800.504	12.02951
800.918	24.05628
801.331	40.10551
801.745	10.02332
802.158	14.0354
802.572	69.16782
802.985	40.09749
803.398	30.07227
803.811	43.11122
804.224	23.05784
804.637	30.07216
805.05	6.01412
805.462	28.06946
805.875	-5.01313
806.288	-32.07878
806.7	4.01018
807.112	-2.00472
807.525	62.15347
807.937	-1.00251
808.349	43.10837
808.761	36.08924
809.173	15.03678
809.584	43.10697
809.996	-4.00994
810.408	21.05466
810.819	83.19505
811.231	82.2114
811.642	43.10313
812.053	101.23901
812.464	30.07197
812.875	41.10535
813.286	31.08035
813.697	92.21472
814.108	57.13978
814.519	15.0339
814.929	65.16603
815.34	8.01965
815.75	8.02055
816.16	57.14251
816.571	51.13292
816.981	20.04776
817.391	7.01712
817.801	15.03764
818.211	45.10793
818.62	-6.01466
819.03	57.14014
819.44	53.13884
819.849	42.10639
820.259	70.17921
820.668	23.05707
821.077	-8.02015
821.486	42.10179
821.895	63.15598
822.304	14.03743
822.713	21.05016
823.122	15.03782
823.531	11.02639
823.939	31.0761
824.348	35.0857
824.756	68.17042
825.164	27.06848
825.573	7.01776
825.981	23.05755
826.389	56.14105
826.797	6.0152
827.205	27.06253
827.612	52.12877
828.02	-43.10321
828.428	24.0616
828.835	12.03187
829.243	44.10543
829.65	-33.08355
830.057	7.01719
830.464	3.0074
830.871	28.0676
831.278	-15.03684
831.685	-9.02043
832.092	8.01981
832.499	-9.02003
832.905	7.01791
833.312	29.06674
833.718	21.05277
834.124	-1.00232
834.531	40.10133
834.937	25.06462
835.343	38.09223
835.749	40.09402
836.155	-7.01855
836.561	-25.06253
836.966	11.02718
837.372	9.02313
837.777	41.10258
838.183	7.01577
838.588	-9.02265
838.993	32.07843
839.399	-21.05216
839.804	-55.13702
840.209	20.05129
840.613	-6.01356
841.018	18.04595
841.423	10.02589
841.828	-4.01024
842.232	62.1537
842.637	30.07128
843.041	-18.04678
843.445	25.06314
843.849	21.05239
844.253	52.12394
844.657	6.01526
845.061	28.06404
845.465	15.03657
845.869	-10.02359
846.272	-26.06436
846.676	27.06577
847.079	-29.07491
847.483	26.0653
847.886	61.14853
848.289	16.043
848.692	37.09411
849.095	24.05808
849.498	67.16969
849.901	14.03244
850.304	-22.05344
850.707	16.04112
851.109	31.07888
851.512	33.08152
851.914	-45.11551
852.316	33.08388
852.718	-44.1156
853.121	-5.0124
853.523	-14.03321
853.925	8.02105
854.326	3.00758
854.728	-6.0156
855.13	34.08805
855.531	13.03135
855.933	28.06766
856.334	9.02264
856.736	-26.0593
857.137	-36.08531
857.538	-20.05099
857.939	-9.02251
858.34	12.02951
858.741	26.06833
859.142	6.01456
859.542	-3.00799
859.943	43.10716
860.343	-35.08814
860.744	50.12222
861.144	42.10278
861.544	-39.09546
861.945	-18.04649
862.345	35.08599
862.745	-1.00251
863.145	49.11739
863.544	40.1014
863.944	13.03099
864.344	36.0898
864.743	32.07979
865.143	19.04913
865.542	2.00469
865.941	24.05978
866.34	48.11524
866.74	18.04861
867.139	-40.09756
867.537	25.06406
867.936	-32.07834
868.335	16.04101
868.734	14.03604
869.132	3.00705
869.531	34.08262
869.929	-34.07895
870.327	-46.11245
870.726	34.08515
871.124	31.07285
871.522	28.07168
871.92	51.12594
872.318	47.11513
872.715	44.1092
873.113	12.02949
873.511	-51.12954
873.908	-14.03578
874.306	9.02258
874.703	12.03027
875.1	52.13313
875.497	17.04107
875.894	-48.11986
876.291	30.07399
876.688	1.0026
877.085	56.13439
877.482	14.03531
877.878	-33.08077
878.275	10.02561
878.671	35.07832
879.068	41.09927
879.464	-36.08853
879.86	-67.16223
880.256	36.08918
880.652	5.01283
881.048	16.03994
881.444	-4.00963
881.84	59.14986
882.236	7.01775
882.631	8.01981
883.027	18.0439
883.422	37.09491
883.817	-26.06628
884.213	54.13859
884.608	-26.06471
885.003	-2.00487
885.398	-32.08135
885.793	-35.08928
886.188	-37.09351
886.582	43.11053
886.977	39.09286
887.371	5.01276
887.766	1.00251
888.16	-3.00757
888.554	49.12131
888.949	44.11071
889.343	48.11742
889.737	-38.10279
890.131	24.06054
890.525	27.06938
890.918	0
891.312	7.0169
891.706	2.00529
892.099	41.10458
892.492	13.02831
892.886	14.03452
893.279	-16.04126
893.672	15.03845
894.065	-2.00506
894.458	-2.00508
894.851	73.17828
895.244	-32.08296
895.637	-4.00974
896.029	-11.02722
896.422	14.03446
896.814	9.02256
897.206	-36.08722
897.599	30.07453
897.991	-21.0515
898.383	-4.00956
898.775	-5.01142
899.167	-44.10459
899.559	18.04586
899.951	45.10629
900.342	42.10704
900.734	-23.05786
901.125	38.09997
901.517	9.02227
901.908	48.11524
902.299	-37.09197
902.69	-6.01432
903.082	38.0923
903.473	-22.05344
903.863	21.05389
904.254	-19.04474
904.645	16.04007
905.036	-19.04663
905.426	60.13722
905.817	-12.0298
906.207	-32.0775
906.597	-9.02131
906.987	26.0677
907.378	-15.0384
907.768	-10.02672
908.158	1.00246
908.547	-11.02873
908.937	24.0619
909.327	38.09255
909.717	66.16719
910.106	-7.01701
910.495	41.10258
910.885	39.09902
911.274	12.03021
911.663	41.10429
912.052	58.14299
912.441	10.02562
912.83	-27.06298
913.219	59.15424
913.608	14.03454
913.997	-11.02789
914.385	27.06483
914.774	45.10974
915.162	-23.05561
915.55	40.09702
915.939	-30.07683
916.327	36.09012
916.715	-35.09056
917.103	42.10358
917.491	49.12131
917.878	33.08143
918.266	26.06773
918.654	41.10495
919.041	-3.0079
919.429	44.10402
919.816	34.08647
920.203	-18.04423
920.591	34.08459
920.978	9.02222
921.365	13.03433
921.752	8.01924
922.139	3.00658
922.525	-20.04869
922.912	-3.00739
923.299	14.03504
923.685	-10.02636
924.072	86.197
924.458	-4.01001
924.844	-20.05014
925.231	26.06083
925.617	-25.06444
926.003	56.14302
926.389	20.05074
926.774	32.08138
927.16	8.02003
927.546	8.02057
927.931	16.04018
928.317	15.03481
928.702	10.02385
929.088	-49.11815
929.473	15.03841
929.858	-51.12567
930.243	-13.03158
930.628	-15.03695
931.013	-1.0025
931.398	70.16042
931.783	13.03445
932.167	-1.00247
932.552	4.01011
932.937	22.0549
933.321	-14.03554
933.705	6.01525
934.09	76.19122
934.474	50.1188
934.858	59.15282
935.242	0
935.626	5.0129
936.009	11.02945
936.393	18.04607
936.777	15.03865
937.16	36.09391
937.544	33.07803
937.927	-14.03593
938.311	31.07596
938.694	53.14011
939.077	17.04096
939.46	44.1082
939.843	28.05873
940.226	2.00517
940.609	-9.02091
940.991	1.00257
941.374	-13.03215
941.757	14.03478
942.139	-5.01136
942.522	17.04045
942.904	-1.00243
943.286	34.08665
943.668	-1.00261
944.05	13.03224
944.432	-18.04498
944.814	14.03472
945.196	-31.07669
945.578	-21.0506
945.959	0
946.341	51.1252
946.722	50.11738
947.104	-23.05575
947.485	-25.05905
947.866	-6.01527
948.247	13.03302
948.628	19.04663
949.009	-23.05966
949.39	-8.02013
949.771	38.08862
950.152	-24.05971
950.532	-39.09751
950.913	3.0073
951.293	19.05159
951.674	-29.07119
952.054	8.01998
952.434	0
952.814	38.09064
953.194	31.0814
953.574	9.02234
953.954	-30.07235
954.334	-3.00755
954.714	-37.09164
955.093	36.08875
955.473	24.0603
955.853	19.04945
956.232	64.17503
956.611	21.05066
956.99	14.03541
957.37	-3.00772
957.749	-13.03139
958.128	-26.0664
958.506	18.04695
958.885	-14.03574
959.264	-30.07461
959.643	25.05719
960.021	7.01748
960.4	13.02969
960.778	42.10362
961.156	-26.06607
961.535	17.03989
961.913	34.07982
962.291	-26.06759
962.669	-9.02304
963.047	12.03083
963.424	33.08447
963.802	-29.07235
964.18	56.14156
964.557	46.10605
964.935	17.04054
965.312	20.05235
965.69	36.09038
966.067	25.06117
966.444	-6.01494
966.821	39.10074
967.198	39.09482
967.575	20.04945
967.952	24.05685
968.329	4.00982
968.705	50.10724
969.082	5.01292
969.458	-4.00969
969.835	25.06115
970.211	-13.03373
970.587	56.13928
970.963	52.13336
971.339	20.05249
971.715	-16.04043
972.091	6.0149
972.467	-3.00755
972.843	-34.08567
973.219	71.16984
973.594	14.03684
973.97	32.07644
974.345	-17.04121
974.721	9.02196
975.096	-14.03429
975.471	39.09272
975.846	5.01212
976.221	9.02302
976.596	-2.00484
976.971	32.07927
977.346	20.04684
977.72	0
978.095	5.01302
978.469	37.08854
978.844	34.08573
979.218	-41.09998
979.593	26.06259
979.967	12.02944
980.341	-2.00465
980.715	47.11849
981.089	33.08287
981.463	-20.04657
981.837	9.02216
982.21	27.06313
982.584	-14.03422
982.957	-19.04804
983.331	-5.01195
983.704	4.00991
984.078	-9.02242
984.451	58.14467
984.824	-12.02956
985.197	53.12867
985.57	74.18478
985.943	66.16254
986.316	45.11068
986.688	11.02672
987.061	31.07293
987.434	6.01575
987.806	40.0972
988.179	-14.03344
988.551	34.0865
988.923	21.05199
989.295	41.10262
989.667	-23.05571
990.039	-18.04503
990.411	-8.01863
990.783	18.04171
991.155	-30.07317
991.527	83.20316
991.898	2.00503
992.27	0
992.641	35.08805
993.012	30.07087
993.384	1.00241
993.755	48.12241
994.126	-3.00729
994.497	-14.03477
994.868	28.0646
995.239	21.05117
995.61	12.0304
995.98	-25.06158
996.351	-45.11337
996.722	-4.00938
997.092	-22.05282
997.462	-31.07356
997.833	19.04531
998.203	10.02443
998.573	13.03259
998.943	-9.02135
999.313	15.03618
999.683	-24.05841
1000.053	-2.00465
1000.423	21.05131
1000.792	25.06507
1001.162	16.03962
1001.531	56.13791
1001.901	3.00754
1002.27	13.02928
1002.639	14.03599
1003.009	6.01439
1003.378	28.07186
1003.747	22.05225
1004.116	-35.0851
1004.485	4.00964
1004.853	46.11661
1005.222	17.04312
1005.591	35.08334
1005.959	10.02271
1006.328	27.06104
1006.696	10.0243
1007.064	25.06316
1007.433	43.10759
1007.801	52.12759
1008.169	22.05583
1008.537	3.00671
1008.905	14.03284
1009.273	29.0719
1009.64	-36.08728
1010.008	25.05987
1010.375	27.06584
1010.743	61.14055
1011.11	-12.02873
1011.478	-16.04007
1011.845	22.05201
1012.212	30.06817
1012.579	-22.05472
1012.946	21.05025
1013.313	3.0072
1013.68	54.12126
1014.047	-3.00722
1014.414	-67.1618
1014.78	-1.00251
1015.147	25.06074
1015.513	-7.01704
1015.88	47.12022
1016.246	45.11117
1016.612	69.15733
1016.978	34.08355
1017.344	41.10147
1017.71	27.06611
1018.076	65.15281
1018.442	1.00259
1018.808	6.01511
1019.174	4.01011
1019.539	42.09683
1019.905	-22.0526
1020.27	-5.01246
1020.636	13.03138
1021.001	-27.06557
1021.366	-5.01213
1021.731	35.09022
1022.096	-17.04338
1022.461	8.01908
1022.826	1.0024
1023.191	7.01849
1023.556	-2.00473
1023.92	18.04451
1024.285	38.09293
1024.649	25.06153
1025.014	38.0943
1025.378	-2.00507
1025.742	30.07475
1026.107	14.03189
1026.471	35.08193
1026.835	0
1027.199	10.02424
1027.562	13.03043
1027.926	40.09796
1028.29	6.0153
1028.654	12.02781
1029.017	46.11312
1029.381	-52.12659
1029.744	3.00771
1030.107	8.01907
1030.471	12.02893
1030.834	23.05259
1031.197	21.05085
1031.56	-10.02386
1031.923	15.039
1032.286	39.09176
1032.648	30.072
1033.011	-27.0629
1033.374	48.11282
1033.736	-10.02655
1034.099	-4.00984
1034.461	-59.15187
1034.823	-3.00754
1035.185	44.11083
1035.548	15.03673
1035.91	4.00966
1036.272	-8.01841
1036.634	43.10529
1036.995	-3.00712
1037.357	20.04891
1037.719	0
1038.08	24.05725
1038.442	-13.03122
1038.803	19.04587
1039.165	29.07342
1039.526	3.00731
1039.887	42.1006
1040.248	-33.08251
1040.609	32.0793
1040.97	-5.01234
1041.331	9.02294
1041.692	-27.06394
1042.053	13.02981
1042.413	8.01879
1042.774	39.095
1043.134	57.13546
1043.495	21.05304
1043.855	-17.04173
1044.215	22.05486
1044.576	-17.04115
1044.936	4.00925
1045.296	73.18133
1045.656	32.07875
1046.016	39.09429
1046.375	-17.04173
1046.735	-6.01375
1047.095	5.0118
1047.454	2.00428
1047.814	-1.00243
1048.173	42.10045
1048.533	-13.03014
1048.892	-81.19914
1049.251	40.10053
1049.61	-4.00994
1049.969	33.078
1050.328	-10.02195
1050.687	5.01226
1051.046	37.09026
1051.405	-2.00502
1051.763	-30.07005
1052.122	-14.0353
1052.48	0
1052.839	-18.04288
1053.197	-15.03573
1053.555	30.06864
1053.914	1.00247
1054.272	20.0486
1054.63	-9.02223
1054.988	38.09043
1055.345	-15.03273
1055.703	29.07003
1056.061	-5.01298
1056.419	11.02865
1056.776	23.05602
1057.134	-40.0942
1057.491	43.10774
1057.848	41.10218
1058.206	-30.07161
1058.563	-9.02007
1058.92	15.0348
1059.277	16.03969
1059.634	21.04966
1059.991	3.00725
1060.348	-24.05502
1060.704	-24.05797
1061.061	30.06994
1061.418	-4.00979
1061.774	-8.01995
1062.131	-29.07764
1062.487	4.00943
1062.843	18.04511
1063.199	-9.02261
1063.555	-24.05639
1063.911	-7.01785
1064.267	1.00211
1064.623	-5.01226
1064.979	49.11605
1065.335	23.05523
1065.691	18.04338
1066.046	-2.00444
1066.402	-32.07386
1066.757	29.07342
1067.112	33.08119
1067.468	-39.09361
1067.823	16.03869
1068.178	43.10408
1068.533	12.02928
1068.888	8.01926
1069.243	-1.00249
1069.598	-7.01718
1069.952	-49.11249
1070.307	0
1070.662	-31.07469
1071.016	-23.05227
1071.371	-4.00919
1071.725	1.00241
1072.079	22.05316
1072.434	-8.01964
1072.788	20.04787
1073.142	60.14721
1073.496	-16.03841
1073.85	-9.0211
1074.203	25.0609
1074.557	15.04009
1074.911	3.00722
1075.265	7.0164
1075.618	12.02949
1075.971	50.11885
1076.325	-15.03853
1076.678	-4.00924
1077.031	18.04097
1077.385	13.02884
1077.738	-7.01597
1078.091	-57.13233
1078.444	15.03504
1078.796	-44.10975
1079.149	23.05744
1079.502	-24.05746
1079.855	-16.03777
1080.207	47.11577
1080.56	6.01561
1080.912	61.14809
1081.264	-15.03654
1081.617	-9.02216
1081.969	0
1082.321	8.01967
1082.673	-34.07885
1083.025	-22.05288
1083.377	2.00433
1083.728	29.06788
1084.08	17.04266
1084.432	-3.0073
1084.783	31.07285
1085.135	5.01262
1085.486	-18.04171
1085.838	-16.03985
1086.189	13.03175
1086.54	55.13111
1086.891	-21.05374
1087.242	4.00981
1087.593	47.1144
1087.944	21.04777
1088.295	34.07748
1088.646	42.10187
1088.996	-36.08807
1089.347	32.07872
1089.698	-11.02628
1090.048	56.14518
1090.398	43.09979
1090.749	12.0289
1091.099	-28.07133
1091.449	16.04007
1091.799	8.02016
1092.149	-49.12158
1092.499	-4.00985
1092.849	14.03578
1093.199	24.06039
1093.548	-12.02915
1093.898	9.02266
1094.248	45.11563
1094.597	-6.01545
1094.947	14.03754
1095.296	-8.01995
1095.645	5.01309
1095.994	0
1096.343	65.16299
1096.692	-20.05311
1097.041	2.00545
1097.39	40.10043
1097.739	42.10922
1098.088	30.08057
1098.437	7.01851
1098.785	31.08376
1099.134	45.11948
1099.482	39.10735
1099.83	2.00529
1100.179	-10.02633
1100.527	-6.01608
1100.875	3.00799
1101.223	16.04269
1101.571	21.05824
1101.919	-13.0343
1102.267	18.05088
1102.615	0
1102.962	19.06111
1103.31	6.01928
1103.658	15.04829
