Data from N2 R5 sample 9_Subt2__1__11-54-48-875.txt Node

Date: Fri Aug 29 11:54:48 PDT 2025
User: uwsun
Spectrometer: HDX01956
Trigger mode: 0
Integration Time (sec): 5.000000E-1
Scans to average: 1
Nonlinearity correction enabled: true
Boxcar width: 0
Storing dark spectrum: false
XAxis mode: Wavelengths
Number of Pixels in Spectrum: 2068
>>>>>Begin Spectral Data<<<<<
194.03	201.54657
194.578	200.61668
195.127	181.55091
195.676	181.55266
196.225	234.5963
196.773	185.49216
197.321	263.67502
197.87	427.97308
198.418	410.92435
198.966	405.91998
199.513	363.7891
200.061	373.82393
200.609	446.02962
201.156	340.64319
201.704	384.84096
202.251	402.92887
202.798	403.91173
203.345	429.91946
203.892	466.00348
204.438	471.9615
204.985	400.8112
205.532	399.91479
206.078	401.85352
206.624	413.87333
207.17	431.85828
207.716	437.90748
208.262	446.74014
208.808	379.8046
209.354	411.86035
209.899	398.88116
210.445	380.8178
210.99	337.70858
211.535	453.91091
212.08	388.78219
212.625	428.92701
213.17	428.94006
213.715	364.69366
214.259	414.83191
214.804	418.89686
215.348	389.77104
215.892	343.72246
216.436	398.80124
216.98	357.6904
217.524	353.72913
218.068	437.95317
218.612	378.83585
219.155	379.77616
219.698	387.80294
220.242	349.77093
220.785	372.76028
221.328	365.80121
221.871	375.84045
222.414	395.86376
222.956	335.70934
223.499	336.6649
224.041	420.85136
224.583	400.75227
225.126	341.65978
225.668	289.62639
226.21	338.75178
226.751	308.59178
227.293	360.7224
227.835	332.71574
228.376	378.76553
228.918	414.91505
229.459	318.70055
230	354.73989
230.541	350.70915
231.082	374.79312
231.622	382.76832
232.163	338.72054
232.704	361.78476
233.244	308.67824
233.784	362.78308
234.324	322.6154
234.864	307.61448
235.404	379.7888
235.944	391.80834
236.484	384.8406
237.023	408.83233
237.563	347.70002
238.102	408.83385
238.641	389.85963
239.18	291.59973
239.719	392.85847
240.258	409.79211
240.797	341.71383
241.335	441.93049
241.874	344.5686
242.412	383.79819
242.95	341.70972
243.488	354.7038
244.026	371.73949
244.564	334.59663
245.102	384.74173
245.64	409.85427
246.177	348.67864
246.715	386.8057
247.252	393.78006
247.789	455.71952
248.326	348.72445
248.863	374.70371
249.4	349.68981
249.936	395.69087
250.473	405.80838
251.009	323.64351
251.546	375.70924
252.082	378.71089
252.618	355.68094
253.154	339.70776
253.69	386.74524
254.226	387.7947
254.761	398.76325
255.297	372.6965
255.832	365.74512
256.367	380.77028
256.903	394.73588
257.438	397.80088
257.972	386.73451
258.507	357.70033
259.042	439.80106
259.576	344.63102
260.111	384.76238
260.645	438.79782
261.179	385.76668
261.713	389.735
262.247	389.76707
262.781	390.68841
263.315	373.78392
263.849	424.90228
264.382	435.84569
264.915	443.87028
265.449	358.74328
265.982	436.83653
266.515	475.97055
267.048	384.6849
267.58	438.80511
268.113	370.67599
268.646	410.8592
269.178	319.6107
269.71	410.75363
270.243	410.79196
270.775	461.98803
271.307	431.87985
271.838	482.96052
272.37	471.96979
272.902	431.82315
273.433	429.78162
273.965	454.92659
274.496	414.8764
275.027	440.9184
275.558	438.8911
276.089	343.71706
276.62	443.95479
277.15	475.98155
277.681	423.76756
278.211	451.92945
278.741	368.67982
279.272	410.78095
279.802	435.91461
280.332	394.78004
280.861	432.87008
281.391	429.80582
281.921	447.9005
282.45	469.9787
282.98	456.99818
283.509	371.70064
284.038	398.75698
284.567	477.92029
285.096	469.937
285.625	456.84874
286.153	441.85205
286.682	440.8271
287.21	407.81577
287.739	449.87333
288.267	454.90346
288.795	508.10346
289.323	490.92473
289.851	500.95009
290.378	440.80716
290.906	418.8322
291.433	464.9513
291.961	469.85669
292.488	458.9373
293.015	469.89226
293.542	446.92596
294.069	442.88859
294.596	527.05258
295.122	510.97664
295.649	483.8533
296.175	565.08947
296.702	479.94367
297.228	501.98469
297.754	462.83174
298.28	573.00982
298.806	523.9984
299.332	450.79145
299.857	496.88428
300.383	567.14206
300.908	462.89412
301.433	520.99772
301.958	550.99886
302.483	490.97374
303.008	534.0466
303.533	522.09009
304.058	555.02403
304.582	485.90116
305.107	492.02143
305.631	580.01979
306.155	528.95158
306.679	511.92635
307.203	572.01253
307.727	574.04461
308.251	562.07614
308.775	515.93979
309.298	560.01908
309.822	640.22698
310.345	580.04274
310.868	560.01856
311.391	616.15018
311.914	569.08668
312.437	592.0143
312.96	599.05135
313.482	600.0589
314.005	610.15078
314.527	707.37035
315.049	621.1816
315.571	643.01822
316.093	697.25326
316.615	666.16159
317.137	629.97783
317.659	684.20688
318.18	703.22014
318.702	712.16381
319.223	689.9675
319.744	658.03397
320.265	640.10438
320.786	656.14953
321.307	707.23684
321.828	724.11635
322.348	723.16504
322.869	717.14751
323.389	677.68417
323.909	780.1896
324.43	820.3312
324.95	714.08925
325.47	783.27487
325.989	703.10395
326.509	753.05118
327.029	825.15807
327.548	757.07506
328.067	739.15262
328.587	820.31926
329.106	805.13562
329.625	907.54783
330.144	804.14319
330.662	839.17482
331.181	809.16155
331.7	844.19354
332.218	848.06263
332.736	882.21845
333.255	943.25263
333.773	946.28135
334.291	1001.45313
334.808	935.14184
335.326	944.16896
335.844	946.188
336.361	931.32764
336.879	912.14979
337.396	985.26889
337.913	1020.19747
338.43	1052.16945
338.947	1082.29442
339.464	991.01559
339.981	1062.23904
340.497	1078.34772
341.014	1014.24578
341.53	1065.11307
342.046	1121.31398
342.562	1159.39011
343.078	1198.25778
343.594	1205.28816
344.11	1176.25021
344.626	1163.3538
345.141	1173.12763
345.657	1145.11831
346.172	1186.23898
346.687	1121.08423
347.202	1141.0352
347.717	1282.22665
348.232	1292.33545
348.747	1198.07965
349.261	1173.91751
349.776	1301.14555
350.29	1220.17622
350.805	1396.30509
351.319	1334.1081
351.833	1218.96768
352.347	1314.08573
352.861	1398.06964
353.374	1417.07302
353.888	1342.13975
354.401	1385.0121
354.915	1325.89397
355.428	1474.1802
355.941	1427.98777
356.454	1452.94853
356.967	1390.02729
357.48	1450.96598
357.993	1433.11156
358.505	1449.06193
359.018	1602.08377
359.53	1528.99849
360.042	1538.82075
360.554	1484.01349
361.066	1524.99805
361.578	1493.73712
362.09	1546.93623
362.602	1602.71729
363.113	1630.82408
363.625	1660.72611
364.136	1678.67298
364.647	1645.69985
365.158	1704.7523
365.669	1696.81919
366.18	1656.76737
366.691	1679.59263
367.201	1751.75163
367.712	1731.59394
368.222	1836.5661
368.733	1864.38002
369.243	1824.40686
369.753	1908.49657
370.263	1891.55631
370.773	1914.6104
371.282	1962.43269
371.792	1910.2312
372.301	1980.34543
372.811	2060.52029
373.32	2040.91015
373.829	2086.05993
374.338	2237.80798
374.847	2333.75216
375.356	2400.71395
375.865	2399.38123
376.373	2523.36975
376.882	2649.54147
377.39	2673.34058
377.898	2773.14852
378.407	2826.92106
378.915	2946.78723
379.423	3047.7678
379.93	3194.63895
380.438	3269.59698
380.946	3595.54575
381.453	3750.59297
381.96	3979.80672
382.468	4222.3564
382.975	4366.50112
383.482	4314.915
383.989	4250.58467
384.495	4722.18839
385.002	4950.32022
385.509	5364.64049
386.015	5499.89008
386.521	5796.21715
387.028	5919.50573
387.534	6094.22643
388.04	6396.50696
388.546	6591.93426
389.051	7114.9559
389.557	7675.33722
390.063	8029.97962
390.568	7893.23945
391.073	8231.67943
391.578	8785.06109
392.084	8939.60261
392.589	9762.89632
393.093	10574.68104
393.598	11275.8397
394.103	12100.96094
394.607	13310.84326
395.112	13944.88183
395.616	14635.56735
396.12	15844.78575
396.624	17348.64676
397.128	18792.73751
397.632	20737.53546
398.136	22477.18292
398.639	24909.19241
399.143	28752.03749
399.646	27982.19662
400.15	24760.05017
400.653	20124.16724
401.156	13866.23708
401.659	5169.95759
402.162	1054.15589
402.664	0
403.167	0
403.67	0
404.172	0
404.674	0
405.176	0
405.678	0
406.18	0
406.682	0
407.184	0
407.686	0
408.187	0
408.688	0
409.19	0
409.691	0
410.192	0
410.693	0
411.194	435.30976
411.694	4082.94878
412.195	8864.71461
412.696	12089.80453
413.196	12760.96929
413.696	12863.67595
414.196	13703.56671
414.696	17261.84252
415.196	21764.24417
415.696	29583.19008
416.196	28522.50291
416.695	24830.23931
417.195	23635.92104
417.694	22417.64729
418.194	20787.19249
418.693	19923.5699
419.192	19687.12253
419.691	19135.03595
420.19	18610.1756
420.688	18333.13345
421.187	16754.07825
421.685	15303.3768
422.184	13273.65252
422.682	11763.56804
423.18	10305.87519
423.678	9275.11495
424.176	8660.99842
424.674	8391.55689
425.172	7701.15308
425.669	6937.64592
426.167	6525.28944
426.664	5857.9696
427.161	5416.81057
427.659	5163.74459
428.156	4837.05688
428.652	4715.80033
429.149	4443.19116
429.646	4088.65707
430.143	3836.91393
430.639	3686.73739
431.135	3461.57268
431.632	3235.5872
432.128	3156.61702
432.624	3044.72112
433.12	2903.69119
433.616	2853.72339
434.111	2634.89585
434.607	2658.97774
435.103	2676.9317
435.598	2448.08492
436.093	2245.48308
436.588	2272.50217
437.083	2087.70134
437.578	1991.86141
438.073	1728.12162
438.568	1848.21722
439.062	1737.99953
439.557	1716.29663
440.051	1580.25944
440.546	1592.28448
441.04	1511.44927
441.534	1474.63009
442.028	1508.55719
442.522	1493.56076
443.015	1473.40739
443.509	1454.67842
444.002	1407.68362
444.496	1355.48471
444.989	1402.72925
445.482	1344.76758
445.975	1298.56034
446.468	1290.49894
446.961	1234.51014
447.454	1212.62811
447.947	1223.69862
448.439	1204.79799
448.931	1101.61823
449.424	1134.88404
449.916	1213.83172
450.408	1132.66289
450.9	1010.76624
451.392	960.83174
451.884	1003.72252
452.375	954.80941
452.867	1056.75287
453.358	972.69405
453.849	962.61679
454.341	947.70526
454.832	932.63954
455.323	874.80145
455.814	868.73554
456.304	858.74161
456.795	845.73129
457.285	905.75666
457.776	939.82747
458.266	799.77615
458.756	815.8301
459.247	692.71431
459.737	730.74944
460.226	750.70043
460.716	730.77792
461.206	663.74562
461.695	729.87637
462.185	692.7656
462.674	738.78398
463.163	683.70064
463.653	663.63107
464.142	634.76259
464.63	665.82996
465.119	600.69654
465.608	608.70744
466.096	567.63243
466.585	635.76629
467.073	625.80575
467.561	638.82847
468.05	568.72482
468.538	583.80949
469.026	512.70321
469.513	512.58571
470.001	502.64399
470.489	499.68332
470.976	483.65406
471.463	537.80445
471.951	436.68568
472.438	407.5886
472.925	399.57522
473.412	509.78368
473.899	406.58989
474.385	485.75684
474.872	330.5009
475.359	362.58312
475.845	347.45646
476.331	399.56231
476.817	311.52131
477.303	320.50376
477.789	262.44169
478.275	285.49502
478.761	277.47144
479.247	325.50319
479.732	288.50754
480.218	245.46676
480.703	266.47883
481.188	237.36088
481.673	249.41074
482.158	197.29764
482.643	218.41906
483.128	178.29957
483.612	184.32221
484.097	249.45847
484.581	218.38175
485.066	185.34199
485.55	143.23719
486.034	161.26291
486.518	163.29198
487.002	166.31248
487.486	141.26849
487.969	105.20208
488.453	177.35214
488.936	134.23601
489.42	193.33059
489.903	162.32613
490.386	191.234
490.869	150.25866
491.352	163.32187
491.835	130.21365
492.318	104.18845
492.8	73.12195
493.283	102.21168
493.765	74.14959
494.247	120.23023
494.73	53.09655
495.212	104.20869
495.694	41.07933
496.175	1.00197
496.657	114.22326
497.139	126.17768
497.62	25.04939
498.102	44.0916
498.583	27.05752
499.064	17.03176
499.545	2.00388
500.026	33.06216
500.507	26.05118
500.988	62.13051
501.469	-7.015
501.949	9.01916
502.43	-26.05287
502.91	-5.00878
503.39	24.05183
503.87	-1.00201
504.35	39.07907
504.83	-10.01879
505.31	-33.06936
505.79	-44.0914
506.269	-19.03865
506.749	-62.12344
507.228	-36.07334
507.707	-56.10837
508.187	2.00417
508.666	-51.1095
509.145	-63.12896
509.623	-51.10501
510.102	29.06082
510.581	-17.03611
511.059	-7.01526
511.538	-13.02962
512.016	-1.00209
512.494	-20.04275
512.972	-28.05876
513.45	-93.18994
513.928	-22.04676
514.406	-122.26088
514.884	-10.02259
515.361	-19.03999
515.839	-16.03193
516.316	-62.13246
516.793	-25.05617
517.27	-29.06251
517.747	-81.18581
518.224	-32.0657
518.701	-112.22496
519.178	-80.17669
519.654	-39.08291
520.131	-56.12363
520.607	-32.07088
521.083	-59.12028
521.56	-111.2371
522.036	-63.12405
522.512	-80.17854
522.987	-39.08204
523.463	-36.07625
523.939	-25.05479
524.414	-44.09123
524.89	-59.12581
525.365	-60.1219
525.84	-146.3149
526.315	-95.20688
526.79	-77.15676
527.265	-83.17114
527.74	-72.15823
528.215	-75.15972
528.689	-115.23178
529.164	-71.13961
529.638	-42.09737
530.112	-126.27071
530.587	-109.21089
531.061	-104.22759
531.534	-51.11182
532.008	-95.20732
532.482	-44.09119
532.956	-121.28113
533.429	-82.18073
533.903	-85.17163
534.376	-72.14441
534.849	-98.20765
535.322	-26.05521
535.795	-85.1895
536.268	-110.24194
536.741	-90.1977
537.213	-87.18382
537.686	-130.29049
538.158	-52.10483
538.631	-50.11057
539.103	-125.25681
539.575	-92.17599
540.047	-58.1158
540.519	-70.15279
540.991	-35.07774
541.463	-45.09883
541.934	-38.07862
542.406	-77.16697
542.877	-104.21535
543.348	-30.06562
543.82	-60.13424
544.291	-47.09987
544.762	-45.09633
545.233	-40.09049
545.703	-47.09373
546.174	-28.05865
546.645	-77.1659
547.115	-14.03018
547.585	12.02458
548.056	-15.03208
548.526	12.02488
548.996	5.01069
549.466	58.12494
549.935	-11.02298
550.405	54.10275
550.875	0
551.344	17.03593
551.814	45.09036
552.283	86.16205
552.752	65.1304
553.221	81.15034
553.69	88.16761
554.159	71.14988
554.628	47.09037
555.096	105.22798
555.565	111.21126
556.033	93.19012
556.502	63.1337
556.97	42.0821
557.438	48.10073
557.906	61.1286
558.374	33.06771
558.842	8.0172
559.31	107.21149
559.777	56.12047
560.245	109.22757
560.712	98.20211
561.18	113.22031
561.647	98.19465
562.114	120.24147
562.581	190.41033
563.048	191.38584
563.514	176.37814
563.981	220.43841
564.448	189.37111
564.914	212.43171
565.381	275.53972
565.847	278.56172
566.313	263.52983
566.779	328.629
567.245	328.65393
567.711	376.75939
568.176	370.69618
568.642	402.84579
569.108	396.8174
569.573	448.87782
570.038	512.86946
570.504	427.78942
570.969	577.16757
571.434	513.90443
571.899	603.14117
572.363	609.09583
572.828	692.2312
573.293	629.13537
573.757	662.18624
574.222	678.1639
574.686	667.15262
575.15	699.28518
575.614	725.2724
576.078	745.33428
576.542	740.28622
577.006	728.25196
577.469	820.54778
577.933	761.28133
578.396	764.38982
578.86	764.37506
579.323	716.31551
579.786	698.15361
580.249	702.22904
580.712	674.29602
581.175	689.33032
581.637	732.30253
582.1	700.18893
582.563	651.09448
583.025	552.07991
583.487	587.93008
583.95	461.80762
584.412	617.01855
584.874	559.09595
585.336	542.03927
585.797	478.84468
586.259	569.08511
586.721	547.0365
587.182	464.90401
587.643	454.8551
588.105	436.86117
588.566	421.7383
589.027	362.73715
589.488	366.7073
589.949	391.8011
590.41	357.5811
590.87	382.73929
591.331	365.66871
591.791	327.6439
592.252	313.61082
592.712	322.66466
593.172	294.56979
593.632	318.59922
594.092	332.63236
594.552	239.44891
595.011	215.43153
595.471	281.54368
595.931	269.51947
596.39	295.60824
596.849	291.58462
597.308	228.43426
597.768	241.53505
598.227	223.47199
598.685	283.56513
599.144	248.50571
599.603	252.52087
600.062	201.37009
600.52	221.43066
600.978	203.42439
601.437	246.49227
601.895	226.41873
602.353	285.54719
602.811	258.49739
603.269	240.50185
603.727	215.45187
604.184	196.38767
604.642	230.49288
605.099	255.51442
605.557	264.55962
606.014	254.47273
606.471	275.59121
606.928	336.6061
607.385	378.76973
607.842	382.73398
608.299	381.74953
608.755	370.75344
609.212	371.69206
609.668	303.56969
610.125	418.84731
610.581	445.88988
611.037	353.69281
611.493	360.73008
611.949	344.70847
612.405	307.52787
612.861	401.8056
613.316	333.68443
613.772	372.72993
614.227	323.65819
614.683	415.75381
615.138	359.72023
615.593	321.64608
616.048	383.7524
616.503	433.9072
616.958	372.8023
617.412	377.76682
617.867	359.68097
618.321	403.71266
618.776	409.77469
619.23	341.69708
619.684	370.72601
620.138	371.75118
620.592	356.75495
621.046	366.75107
621.5	360.76477
621.954	338.67167
622.407	330.64935
622.861	303.6542
623.314	332.6696
623.768	351.72045
624.221	281.49559
624.674	294.60605
625.127	307.64209
625.58	300.61619
626.033	297.59199
626.485	260.56293
626.938	280.60312
627.39	231.49192
627.843	261.55024
628.295	208.44381
628.747	276.59706
629.199	254.52877
629.651	177.37463
630.103	247.51981
630.555	203.40029
631.006	230.49947
631.458	243.52939
631.909	250.53319
632.361	188.41157
632.812	193.41761
633.263	177.36052
633.714	193.39006
634.165	153.35224
634.616	124.28188
635.067	139.29588
635.518	207.46568
635.968	193.36858
636.419	161.3348
636.869	155.35242
637.319	111.24747
637.769	119.25661
638.219	189.43024
638.669	115.26454
639.119	176.41011
639.569	81.19005
640.019	101.22732
640.468	90.19637
640.918	134.31213
641.367	77.16939
641.816	111.24193
642.265	131.29375
642.714	120.26991
643.163	91.20481
643.612	111.2584
644.061	29.061
644.51	39.08792
644.958	77.16654
645.406	69.16209
645.855	95.22777
646.303	144.32721
646.751	80.17891
647.199	104.23181
647.647	73.16551
648.095	74.1672
648.543	128.2578
648.99	75.17632
649.438	137.31439
649.885	106.25689
650.333	78.15073
650.78	99.23455
651.227	110.26197
651.674	61.13791
652.121	57.13734
652.568	42.10125
653.015	134.33096
653.461	52.12275
653.908	87.20037
654.354	83.19604
654.801	41.09579
655.247	54.11862
655.693	99.25359
656.139	69.16411
656.585	81.19242
657.031	30.06988
657.477	47.1017
657.922	58.13308
658.368	91.22216
658.813	84.19451
659.259	98.23241
659.704	33.0771
660.149	88.20353
660.594	53.12571
661.039	66.15022
661.484	64.15283
661.929	69.1612
662.373	45.11324
662.818	55.13617
663.262	48.11563
663.707	32.08124
664.151	46.11266
664.595	17.04132
665.039	74.18365
665.483	68.1725
665.927	66.15585
666.371	-6.01408
666.814	26.06273
667.258	12.02868
667.701	86.18684
668.145	96.23798
668.588	47.11594
669.031	50.11812
669.474	42.1019
669.917	79.1762
670.36	64.15906
670.803	88.21255
671.245	22.04741
671.688	74.18109
672.13	24.05467
672.573	67.17066
673.015	42.10187
673.457	33.07318
673.899	68.16567
674.341	9.02208
674.783	12.02921
675.225	39.0968
675.666	21.05111
676.108	13.02893
676.549	26.06261
676.991	4.00905
677.432	33.0674
677.873	34.07998
678.314	79.1897
678.755	49.12038
679.196	11.02573
679.637	92.22556
680.078	56.1328
680.518	35.08308
680.959	-17.04172
681.399	57.14246
681.839	13.03221
682.28	31.07745
682.72	38.08845
683.16	17.04296
683.6	68.15721
684.039	37.07903
684.479	31.07712
684.919	-24.05683
685.358	55.14078
685.798	33.0873
686.237	57.13952
686.676	69.16228
687.115	9.02163
687.554	25.06046
687.993	7.01592
688.432	32.0746
688.871	15.03482
689.309	13.03168
689.748	-7.01517
690.186	55.13322
690.625	26.06211
691.063	24.0586
691.501	17.04278
691.939	48.12099
692.377	41.1014
692.815	25.06085
693.253	56.13648
693.69	15.03386
694.128	21.05176
694.565	35.08494
695.003	14.03612
695.44	5.01203
695.877	24.05716
696.314	36.07941
696.751	50.11624
697.188	60.13982
697.625	94.21809
698.061	-28.06908
698.498	54.13249
698.934	45.11002
699.371	23.05521
699.807	40.09625
700.243	16.03927
700.679	46.10622
701.115	65.15525
701.551	12.02893
701.987	46.10559
702.422	-1.00243
702.858	46.11127
703.294	35.08103
703.729	27.06724
704.164	48.1172
704.599	22.05023
705.035	10.02296
705.47	5.01242
705.904	21.04997
706.339	79.18608
706.774	5.012
707.209	3.00709
707.643	69.16751
708.078	50.12336
708.512	4.01019
708.946	49.11927
709.38	31.07486
709.814	-7.01648
710.248	22.05464
710.682	15.03643
711.116	-47.1156
711.549	32.08367
711.983	23.0543
712.416	21.05073
712.85	63.1586
713.283	27.06515
713.716	65.16492
714.149	69.1665
714.582	56.12792
715.015	80.20179
715.448	41.10473
715.881	30.06734
716.313	47.11191
716.746	40.09574
717.178	19.04658
717.61	43.11042
718.043	53.13366
718.475	5.01239
718.907	59.15097
719.339	0
719.77	17.0411
720.202	37.09481
720.634	1.00248
721.065	20.04838
721.497	27.06731
721.928	-18.04527
722.359	16.03929
722.79	32.07787
723.221	43.10964
723.652	79.20505
724.083	63.14411
724.514	52.12141
724.945	-14.0338
725.375	-26.06209
725.806	49.12388
726.236	58.15
726.666	61.14625
727.096	40.09959
727.526	8.02068
727.956	-22.05153
728.386	67.16655
728.816	5.01288
729.246	41.10099
729.675	-13.03273
730.105	58.14436
730.534	68.16095
730.964	71.18091
731.393	84.21013
731.822	45.11624
732.251	46.11806
732.68	50.11967
733.109	24.06013
733.537	57.13921
733.966	69.1727
734.395	27.0636
734.823	42.0966
735.251	33.08077
735.68	94.23642
736.108	3.00774
736.536	43.10306
736.964	42.09907
737.392	61.15406
737.82	47.1144
738.247	57.13822
738.675	85.20472
739.102	61.15367
739.53	6.01554
739.957	24.06258
740.384	72.1792
740.811	102.25893
741.238	28.06944
741.665	29.06847
742.092	62.14981
742.519	6.01512
742.945	43.1047
743.372	42.1053
743.798	67.17336
744.225	-14.03413
744.651	26.06621
745.077	26.06582
745.503	49.12105
745.929	11.02692
746.355	95.23726
746.781	71.17726
747.207	-20.04814
747.632	61.14997
748.058	43.1086
748.483	49.11452
748.908	20.0505
749.334	52.12914
749.759	31.07432
750.184	12.02914
750.609	54.13416
751.033	92.21885
751.458	82.1858
751.883	66.16493
752.307	2.00481
752.732	10.02539
753.156	53.13223
753.58	75.17968
754.005	51.13073
754.429	33.07882
754.853	36.09032
755.277	41.09845
755.7	73.18225
756.124	27.06795
756.548	35.0842
756.971	45.11125
757.394	63.16335
757.818	44.1143
758.241	67.17102
758.664	50.12742
759.087	-5.01144
759.51	52.13069
759.933	19.04649
760.356	71.18295
760.778	67.16594
761.201	61.14981
761.623	78.19053
762.046	68.16294
762.468	90.2173
762.89	62.15437
763.312	81.19885
763.734	58.14099
764.156	56.13953
764.578	112.25811
765	48.11843
765.421	-8.02068
765.843	102.26706
766.264	62.15122
766.686	54.13684
767.107	35.08595
767.528	-10.02571
767.949	51.13077
768.37	31.07712
768.791	53.12958
769.212	4.01021
769.632	-30.07178
770.053	45.1194
770.473	49.12043
770.894	92.23081
771.314	67.16143
771.734	6.01427
772.154	53.13709
772.575	84.19582
772.994	20.04626
773.414	59.14302
773.834	0
774.254	36.08918
774.673	46.11324
775.093	31.07762
775.512	3.00752
775.931	28.07181
776.351	30.07537
776.77	16.03969
777.189	51.12251
777.607	20.05171
778.026	38.09561
778.445	-16.04079
778.864	51.13173
779.282	74.17887
779.701	49.12446
780.119	3.0077
780.537	15.03794
780.955	65.16615
781.373	21.05262
781.791	-18.04143
782.209	63.14637
782.627	42.11139
783.045	16.03742
783.462	44.11324
783.88	15.03925
784.297	35.08887
784.715	15.03896
785.132	23.0564
785.549	13.03295
785.966	30.07621
786.383	21.0523
786.8	23.0542
787.217	-2.00483
787.633	-10.02538
788.05	80.19067
788.466	32.07642
788.883	12.03097
789.299	11.02688
789.715	14.0345
790.131	61.15235
790.547	18.0455
790.963	0
791.379	-2.00513
791.795	0
792.21	-7.01668
792.626	-8.01934
793.041	19.04745
793.457	26.06495
793.872	2.00478
794.287	-14.03403
794.702	20.04987
795.117	-9.02272
795.532	-13.03311
795.947	45.1092
796.362	12.02908
796.776	36.08528
797.191	2.00497
797.605	-26.06232
798.02	5.01234
798.434	74.16542
798.848	-14.03507
799.262	8.0201
799.676	23.05676
800.09	25.06214
800.504	-5.01233
800.918	-10.02361
801.331	38.10027
801.745	27.06276
802.158	14.0354
802.572	42.10267
802.985	31.07568
803.398	2.00484
803.811	53.13685
804.224	67.16715
804.637	-12.02909
805.05	19.04462
805.462	58.1431
805.875	-19.05001
806.288	-16.03927
806.7	5.01273
807.112	10.02352
807.525	29.07222
807.937	0
808.349	32.0808
808.761	-9.02249
809.173	33.08065
809.584	68.16839
809.996	30.07407
810.408	85.21879
810.819	127.29588
811.231	114.29226
811.642	37.08885
812.053	47.11238
812.464	13.03129
812.875	36.09259
813.286	22.05711
813.697	92.21472
814.108	32.07883
814.519	12.02714
814.929	87.22136
815.34	34.08311
815.75	23.05894
816.16	57.14251
816.571	36.09407
816.981	33.07861
817.391	22.05366
817.801	-1.00252
818.211	13.03137
818.62	2.00488
819.03	-8.0199
819.44	52.13624
819.849	6.0153
820.259	29.07478
820.668	13.03232
821.077	6.01507
821.486	-11.02692
821.895	19.04742
822.304	35.09324
822.713	-57.13817
823.122	7.01767
823.531	31.0741
823.939	7.01726
824.348	23.05644
824.756	33.08322
825.164	23.05838
825.573	-4.01017
825.981	15.03759
826.389	42.10605
826.797	25.06312
827.205	13.03019
827.612	39.0968
828.02	-1.00238
828.428	17.04368
828.835	2.00532
829.243	42.10068
829.65	-11.02774
830.057	12.02944
830.464	-2.00494
830.871	14.03389
831.278	10.02445
831.685	18.04064
832.092	-6.0149
832.499	15.03322
832.905	20.05106
833.312	0
833.718	50.12499
834.124	23.05308
834.531	3.00765
834.937	42.10824
835.343	39.09464
835.749	17.04014
836.155	10.02642
836.561	-1.00249
836.966	21.0518
837.372	63.16041
837.777	19.04773
838.183	27.06059
838.588	19.04757
838.993	18.04423
839.399	4.00989
839.804	-47.11692
840.209	5.01286
840.613	-4.00903
841.018	11.02812
841.423	8.02072
841.828	9.02298
842.232	29.07232
842.637	10.02385
843.041	5.01294
843.445	38.09575
843.849	13.03248
844.253	36.08607
844.657	-62.15956
845.061	-2.0046
845.465	-21.05153
845.869	-4.00942
846.272	13.03195
846.676	21.05121
847.079	-17.04382
847.483	50.12504
847.886	29.07104
848.289	-5.01348
848.692	8.02045
849.095	22.05326
849.498	59.14964
849.901	29.06701
850.304	19.0458
850.707	22.05648
851.109	39.09909
851.512	14.03471
851.914	16.04063
852.316	-5.01279
852.718	-24.06284
853.121	-19.04725
853.523	-25.05944
853.925	-4.01054
854.326	-4.01011
854.728	-28.07309
855.13	-6.01565
855.531	-13.0315
855.933	33.07966
856.334	1.00252
856.736	13.02941
857.137	-36.08531
857.538	-28.07148
857.939	4.00998
858.34	8.01969
858.741	-13.03439
859.142	14.03393
859.542	14.0372
859.943	28.06997
860.343	-8.02005
860.744	37.09066
861.144	30.07358
861.544	-29.07085
861.945	20.05131
862.345	33.0811
862.745	-15.03777
863.145	95.2256
863.544	-4.01022
863.944	39.09251
864.344	41.10218
864.743	70.17334
865.143	0
865.542	-34.08032
865.941	7.01749
866.34	33.07945
866.74	22.05937
867.139	-39.0951
867.537	49.12503
867.936	-22.05376
868.335	13.03333
868.734	6.01547
869.132	-2.0047
869.531	42.1019
869.929	5.01152
870.327	-4.0097
870.726	52.1298
871.124	-4.00946
871.522	4.01028
871.92	64.15767
872.318	31.07616
872.715	30.07464
873.113	14.03439
873.511	43.10739
873.908	-28.07174
874.306	-5.01257
874.703	7.01767
875.1	-1.00258
875.497	17.04107
875.894	-23.05717
876.291	44.10824
876.688	-3.00782
877.085	26.06275
877.482	12.03028
877.878	-5.01217
878.275	38.09684
878.671	25.05606
879.068	32.07761
879.464	3.00732
879.86	-30.07213
880.256	2.00499
880.652	-12.03088
881.048	32.07965
881.444	35.08366
881.84	17.0435
882.236	9.02282
882.631	1.00248
883.027	6.01467
883.422	-5.01292
883.817	9.0228
884.213	-24.06243
884.608	5.01237
885.003	-12.0293
885.398	-19.04819
885.793	13.03288
886.188	-1.00251
886.582	25.06446
886.977	7.01677
887.371	14.03567
887.766	-21.05294
888.16	6.01511
888.554	21.05226
888.949	18.0455
889.343	69.16814
889.737	-15.04042
890.131	22.05551
890.525	48.12289
890.918	13.03296
891.312	20.04818
891.706	-28.07448
892.099	43.10964
892.492	41.08875
892.886	-7.01732
893.279	0
893.672	0
894.065	-14.03549
894.458	14.03546
894.851	17.04195
895.244	-13.03359
895.637	-9.02194
896.029	13.03203
896.422	27.06631
896.814	6.01505
897.206	-51.1239
897.599	23.05721
897.991	20.04867
898.383	44.10419
898.775	-8.01829
899.167	-69.1648
899.559	18.04586
899.951	-4.00954
900.342	18.04607
900.734	-28.0705
901.125	29.07641
901.517	12.02968
901.908	14.03383
902.299	-20.04956
902.69	0
903.082	30.07298
903.473	-28.06809
903.863	17.04365
904.254	12.02808
904.645	20.05005
905.036	-22.05402
905.426	4.00925
905.817	-20.04974
906.207	-18.04348
906.597	-38.09047
906.987	26.0677
907.378	-7.01789
907.768	11.02928
908.158	10.02458
908.547	-21.05494
908.937	-8.02075
909.327	19.04644
909.717	42.10685
910.106	5.01212
910.495	5.01259
910.885	27.0687
911.274	-18.04557
911.663	52.13201
912.052	24.05954
912.441	-4.01027
912.83	-18.04191
913.219	16.04213
913.608	11.02715
913.997	-33.084
914.385	47.11243
914.774	-24.05928
915.162	0
915.55	35.08497
915.939	-26.06654
916.327	40.10006
916.715	-2.00515
917.103	48.11825
917.491	42.10412
917.878	-15.03734
918.266	-18.04724
918.654	7.01802
919.041	-6.01582
919.429	-34.08159
919.816	7.01789
920.203	1.00245
920.591	16.03994
920.978	29.07133
921.365	20.05276
921.752	29.06945
922.139	2.00439
922.525	-16.03892
922.912	-27.06682
923.299	-10.02513
923.685	-6.01581
924.072	30.06949
924.458	-3.00751
924.844	-30.07535
925.231	-35.08286
925.617	-27.06962
926.003	2.00516
926.389	-15.03829
926.774	31.07885
927.16	32.07976
927.546	-9.02322
927.931	-4.01008
928.317	1.00233
928.702	23.05472
929.088	0
929.473	6.01539
929.858	-54.13313
930.243	-11.02671
930.628	14.0343
931.013	30.07464
931.398	32.07389
931.783	43.11337
932.167	-31.07695
932.552	3.00758
932.937	19.04744
933.321	-15.03809
933.705	-17.04338
934.09	41.10381
934.474	20.0478
934.858	-7.01834
935.242	-53.12537
935.626	-7.0181
936.009	5.0134
936.393	4.01026
936.777	0
937.16	18.0471
937.544	12.02849
937.927	-12.03079
938.311	23.05644
938.694	40.10598
939.077	-13.0315
939.46	24.05923
939.843	30.0629
940.226	-25.06498
940.609	3.00695
940.991	12.03075
941.374	-13.03215
941.757	-5.01247
942.139	-18.041
942.522	10.02382
942.904	-19.04628
943.286	14.0358
943.668	15.03909
944.05	-34.08506
944.432	-8.01996
944.814	26.06434
945.196	-8.01971
945.578	-40.09672
945.959	-4.00948
946.341	48.1179
946.722	-20.04759
947.104	-14.03388
947.485	-13.03063
947.866	-20.05102
948.247	-14.03573
948.628	4.00984
949.009	14.03608
949.39	28.06999
949.771	1.00235
950.152	13.03213
950.532	-64.16074
950.913	20.04853
951.293	-7.01909
951.674	15.03652
952.054	0
952.434	21.05241
952.814	34.08116
953.194	11.02898
953.574	28.06926
953.954	-17.0409
954.334	19.04763
954.714	-30.07421
955.093	28.06913
955.473	-4.0101
955.853	-10.02616
956.232	16.04409
956.611	-4.00969
956.99	51.12816
957.37	16.04102
957.749	26.06232
958.128	-23.05871
958.506	-3.00785
958.885	19.04822
959.264	-22.05464
959.643	-24.05544
960.021	-5.01251
960.4	-17.03906
960.778	53.1305
961.156	-28.07118
961.535	6.01411
961.913	13.03065
962.291	-10.02592
962.669	-27.06933
963.047	17.04364
963.424	23.05898
963.802	-10.02486
964.18	33.08376
964.557	44.10148
964.935	13.03103
965.312	19.04974
965.69	37.09288
966.067	24.05873
966.444	8.01987
966.821	35.09047
967.198	40.09723
967.575	36.08875
967.952	54.12717
968.329	6.01472
968.705	-5.01085
969.082	15.03871
969.458	-58.14199
969.835	31.07574
970.211	-13.03373
970.587	7.01757
970.963	29.07467
971.339	24.06295
971.715	22.05521
972.091	-13.03239
972.467	-3.00755
972.843	-13.03263
973.219	63.15093
973.594	5.01318
973.97	48.11432
974.345	0
974.721	15.03657
975.096	-37.091
975.471	43.10215
975.846	7.01696
976.221	-24.06175
976.596	-16.03884
976.971	-10.02496
977.346	28.06548
977.72	2.00514
978.095	-17.04444
978.469	15.03605
978.844	38.09575
979.218	-57.13941
979.593	14.03378
979.967	-18.04441
980.341	-16.03733
980.715	38.09595
981.089	12.03025
981.463	-48.11238
981.837	-20.04951
982.21	21.04916
982.584	2.00487
982.957	8.02013
983.331	30.0712
983.704	11.02722
984.078	11.0273
984.451	52.12985
984.824	-18.04439
985.197	-50.12372
985.57	11.02778
985.943	27.06697
986.316	47.11555
986.688	-9.02195
987.061	34.07995
987.434	27.07063
987.806	38.09237
988.179	-54.12999
988.551	36.09155
988.923	27.06677
989.295	35.0877
989.667	-23.05571
990.039	-21.05256
990.411	-7.0163
990.783	38.08771
991.155	-23.05602
991.527	73.17901
991.898	-2.00503
992.27	-15.03754
992.641	-10.02536
993.012	27.06382
993.384	10.02404
993.755	1.00257
994.126	4.00971
994.497	-59.14773
994.868	38.0875
995.239	-12.02942
995.61	-41.10484
995.98	-24.0591
996.351	-28.07032
996.722	-29.06831
997.092	-23.05523
997.462	-63.15041
997.833	-2.00479
998.203	35.0851
998.573	-39.09867
998.943	-13.03086
999.313	-7.01696
999.683	-4.0097
1000.053	19.04399
1000.423	11.02692
1000.792	15.03911
1001.162	1.00248
1001.531	12.02979
1001.901	0
1002.27	48.10735
1002.639	20.05137
1003.009	33.07873
1003.378	-19.04916
1003.747	20.04752
1004.116	-23.05579
1004.485	18.04328
1004.853	17.04332
1005.222	-2.00509
1005.591	9.02154
1005.959	-27.06179
1006.328	-33.07552
1006.696	-24.05869
1007.064	-12.03052
1007.433	4.01008
1007.801	44.10812
1008.169	-11.02808
1008.537	10.02233
1008.905	-34.08051
1009.273	34.08422
1009.64	-29.07022
1010.008	5.01202
1010.375	42.10213
1010.743	92.21066
1011.11	-14.03353
1011.478	2.00499
1011.845	20.0473
1012.212	-34.07826
1012.579	-28.06972
1012.946	19.04548
1013.313	19.04548
1013.68	-5.01136
1014.047	-37.08962
1014.414	-10.02389
1014.78	-10.02512
1015.147	34.08246
1015.513	-29.0709
1015.88	55.14049
1016.246	52.12829
1016.612	27.06209
1016.978	31.07622
1017.344	44.10884
1017.71	28.06855
1018.076	20.04743
1018.442	6.01555
1018.808	-10.02526
1019.174	-20.05079
1019.539	53.12192
1019.905	-36.0863
1020.27	-24.06002
1020.636	3.00726
1021.001	27.06491
1021.366	-16.03889
1021.731	25.06455
1022.096	-23.05875
1022.461	8.01908
1022.826	1.0024
1023.191	-8.02119
1023.556	14.03303
1023.92	23.05682
1024.285	10.02458
1024.649	-36.0896
1025.014	39.09677
1025.378	-7.01777
1025.742	28.06979
1026.107	0
1026.471	13.03056
1026.835	15.03741
1027.199	-13.03165
1027.562	-4.00939
1027.926	22.05406
1028.29	-1.00255
1028.654	-25.05836
1029.017	18.04449
1029.381	-30.07273
1029.744	-12.03093
1030.107	-2.00478
1030.471	14.03374
1030.834	-2.0046
1031.197	31.07492
1031.56	-4.00953
1031.923	-7.01827
1032.286	37.08709
1032.648	19.04569
1033.011	28.06453
1033.374	15.03548
1033.736	-25.06653
1034.099	30.07336
1034.461	-17.04344
1034.823	-7.0176
1035.185	40.10082
1035.548	21.05136
1035.91	-17.04122
1036.272	0
1036.634	36.08826
1036.995	-1.00237
1037.357	16.03916
1037.719	25.06106
1038.08	42.09983
1038.442	-43.10384
1038.803	30.07227
1039.165	-24.06134
1039.526	8.01948
1039.887	24.05768
1040.248	-41.10266
1040.609	20.04967
1040.97	29.07111
1041.331	48.12151
1041.692	-14.03307
1042.053	47.10704
1042.413	-2.00471
1042.774	28.06834
1043.134	20.04787
1043.495	9.02278
1043.855	-14.03435
1044.215	24.05982
1044.576	-23.05573
1044.936	32.0736
1045.296	16.04016
1045.656	38.09341
1046.016	18.04369
1046.375	35.0851
1046.735	32.07277
1047.095	7.01651
1047.454	13.02776
1047.814	7.01696
1048.173	66.15712
1048.533	-21.04877
1048.892	-8.0194
1049.251	29.07303
1049.61	-6.01492
1049.969	13.03085
1050.328	-8.01755
1050.687	-3.00737
1051.046	-12.02954
1051.405	33.0823
1051.763	6.01391
1052.122	-35.08858
1052.48	24.0591
1052.839	-29.06924
1053.197	-32.07647
1053.555	24.05498
1053.914	21.05161
1054.272	44.10644
1054.63	-3.0074
1054.988	-12.02883
1055.345	-27.05907
1055.703	6.01455
1056.061	51.13109
1056.419	-17.04449
1056.776	-16.03926
1057.134	-23.05399
1057.491	-14.03544
1057.848	17.04255
1058.206	-19.04526
1058.563	-15.0335
1058.92	13.03017
1059.277	11.02731
1059.634	3.00712
1059.991	-26.06315
1060.348	-36.08273
1060.704	-11.0265
1061.061	47.1092
1061.418	11.02685
1061.774	3.00747
1062.131	3.00799
1062.487	-33.07837
1062.843	43.10728
1063.199	12.03003
1063.555	-16.03753
1063.911	-5.01274
1064.267	-17.03597
1064.623	-1.00245
1064.979	54.12776
1065.335	35.08385
1065.691	8.01932
1066.046	10.02216
1066.402	-62.14396
1066.757	29.07342
1067.112	22.05424
1067.468	-4.00954
1067.823	1.00242
1068.178	8.01949
1068.533	53.12833
1068.888	-4.00965
1069.243	1.00249
1069.598	2.0049
1069.952	-68.15671
1070.307	-21.05262
1070.662	-21.0505
1071.016	-36.08204
1071.371	-2.00459
1071.725	35.08391
1072.079	-19.04626
1072.434	-22.05414
1072.788	3.0072
1073.142	31.07647
1073.496	-25.06012
1073.85	-20.04699
1074.203	22.05362
1074.557	3.00803
1074.911	48.11453
1075.265	-14.03293
1075.618	14.03439
1075.971	11.02634
1076.325	-30.07726
1076.678	-37.08603
1077.031	8.01825
1077.385	-7.01559
1077.738	-6.01369
1078.091	-27.06231
1078.444	-4.00938
1078.796	-32.07965
1079.149	1.00251
1079.502	-52.12517
1079.855	3.00706
1080.207	44.10844
1080.56	20.05192
1080.912	-9.02214
1081.264	-9.0219
1081.617	19.04654
1081.969	-28.07156
1082.321	6.01476
1082.673	-46.10694
1083.025	-35.08433
1083.377	12.02595
1083.728	24.05623
1084.08	-7.01764
1084.432	32.07738
1084.783	28.06584
1085.135	11.02774
1085.486	-40.0931
1085.838	7.01736
1086.189	-10.02453
1086.54	17.04082
1086.891	-22.0563
1087.242	4.00981
1087.593	39.09507
1087.944	-44.1014
1088.295	0
1088.646	2.00489
1088.996	-1.00243
1089.347	-14.03473
1089.698	-7.01671
1090.048	10.02613
1090.398	10.02336
1090.749	26.06244
1091.099	-14.03558
1091.449	-43.10883
1091.799	5.01261
1092.149	-60.14917
1092.499	-37.09164
1092.849	-8.02052
1093.199	7.01767
1093.548	-33.08047
1093.898	-26.06589
1094.248	-14.03634
1094.597	-16.04128
1094.947	10.02683
1095.296	-6.01496
1095.645	1.00262
1095.994	-9.02184
1096.343	-16.0407
1096.692	-27.07178
1097.041	-14.03826
1097.39	27.06795
1097.739	-16.04202
1098.088	42.11257
1098.437	-11.02917
1098.785	-5.01359
1099.134	24.06395
1099.482	13.03593
1099.83	7.01851
1100.179	2.00525
1100.527	3.00803
1100.875	-38.10185
1101.223	12.03204
1101.571	-11.03066
1101.919	-52.13809
1102.267	-14.03976
1102.615	-1.00322
1102.962	9.02898
1103.31	-3.00965
1103.658	1.00322
