Data from N2 R5 sample 11_Subt2__0__11-59-11-369.txt Node

Date: Fri Aug 29 11:59:11 PDT 2025
User: uwsun
Spectrometer: HDX01956
Trigger mode: 0
Integration Time (sec): 5.000000E-1
Scans to average: 1
Nonlinearity correction enabled: true
Boxcar width: 0
Storing dark spectrum: false
XAxis mode: Wavelengths
Number of Pixels in Spectrum: 2068
>>>>>Begin Spectral Data<<<<<
194.03	305.81534
194.578	292.88945
195.127	316.94423
195.676	330.98739
196.225	333.83365
196.773	380.97774
197.321	516.2629
197.87	796.67641
198.418	697.47705
198.966	711.51264
199.513	652.32832
200.061	678.40014
200.609	728.58739
201.156	714.22651
201.704	668.3733
202.251	662.44824
202.798	724.52865
203.345	773.53201
203.892	732.48747
204.438	768.46079
204.985	720.35208
205.532	755.60495
206.078	774.51221
206.624	765.49142
207.17	750.38156
207.716	750.44726
208.262	760.15212
208.808	739.44407
209.354	771.48393
209.899	824.66021
210.445	744.47412
210.99	707.36382
211.535	761.42045
212.08	713.32872
212.625	720.4604
213.17	722.48579
213.715	652.15448
214.259	706.32183
214.804	748.48896
215.348	691.27172
215.892	715.38126
216.436	712.32849
216.98	700.24161
217.524	692.31919
218.068	723.47951
218.612	697.43653
219.155	681.29787
219.698	682.32024
220.242	646.33636
220.785	665.26732
221.328	625.29488
221.871	610.29895
222.414	692.41631
222.956	614.21902
223.499	642.17811
224.041	661.26457
224.583	656.15495
225.126	626.12735
225.668	599.2105
226.21	624.30346
226.751	590.05532
227.293	661.23285
227.835	572.16774
228.376	717.33817
228.918	733.51014
229.459	598.23803
230	634.24122
230.541	675.26462
231.082	648.29023
231.622	619.1755
232.163	630.25608
232.704	644.31378
233.244	626.28452
233.784	688.3827
234.324	568.01954
234.864	579.08444
235.404	662.28941
235.944	678.30998
236.484	695.41957
237.023	671.28559
237.563	644.2091
238.102	661.27189
238.641	674.39872
239.18	656.23955
239.719	671.38102
240.258	648.18198
240.797	682.31835
241.335	693.37965
241.874	607.93091
242.412	678.31875
242.95	672.29403
243.488	698.2753
244.026	670.24133
244.564	688.11632
245.102	677.21473
245.64	692.35305
246.177	663.19505
246.715	697.35287
247.252	725.32641
247.789	711.04137
248.326	663.28187
248.863	676.17659
249.4	686.24765
249.936	738.17418
250.473	693.28946
251.009	665.21826
251.546	718.24328
252.082	720.23949
252.618	697.2257
253.154	677.30586
253.69	681.22067
254.226	683.30736
254.761	671.20085
255.297	665.15404
255.832	711.33613
256.367	727.35553
256.903	697.20331
257.438	738.37097
257.972	704.23513
258.507	724.29625
259.042	705.19906
259.576	666.1219
260.111	725.32374
260.645	743.24823
261.179	703.29514
261.713	717.24516
262.247	731.32462
262.781	734.17915
263.315	675.32256
263.849	753.48606
264.382	802.42223
264.915	757.37601
265.449	709.35526
265.982	728.29741
266.515	720.38795
267.048	681.12077
267.58	795.33002
268.113	733.21597
268.646	717.39903
269.178	720.24411
269.71	777.29627
270.243	777.36816
270.775	741.4904
271.307	772.45276
271.838	781.44705
272.37	792.51163
272.902	798.38802
273.433	708.19802
273.965	721.38089
274.496	756.47909
275.027	799.53349
275.558	792.48024
276.089	731.39536
276.62	825.63064
277.15	769.48292
277.681	788.29705
278.211	791.50425
278.741	722.21516
279.272	731.28295
279.802	749.46433
280.332	830.47505
280.861	761.41554
281.391	753.30093
281.921	856.56148
282.45	840.60727
282.98	865.72815
283.509	836.3992
284.038	803.3765
284.567	864.51184
285.096	793.46422
285.625	836.40913
286.153	788.39517
286.682	823.40108
287.21	814.47723
287.739	812.44224
288.267	769.41699
288.795	837.69222
289.323	850.46235
289.851	866.49868
290.378	916.48011
290.906	788.43284
291.433	891.64964
291.961	818.36226
292.488	872.6164
293.015	798.39607
293.542	822.56217
294.069	851.54882
294.596	884.62161
295.122	902.56363
295.649	869.38139
296.175	905.60493
296.702	962.68027
297.228	943.66039
297.754	968.51879
298.28	943.50462
298.806	888.54499
299.332	866.35814
299.857	913.45326
300.383	983.79323
300.908	872.52187
301.433	924.60018
301.958	977.58305
302.483	897.61294
303.008	939.6671
303.533	960.81253
304.058	939.56916
304.582	906.50763
305.107	942.76202
305.631	1038.61129
306.155	965.546
306.679	1000.58915
307.203	993.56943
307.727	947.56357
308.251	982.69283
308.775	978.57713
309.298	1013.6361
309.822	1062.83216
310.345	1033.64604
310.868	999.61884
311.391	1088.7988
311.914	1064.79289
312.437	1115.64967
312.96	1083.66538
313.482	1083.67613
314.005	1066.79044
314.527	1041.85919
315.049	1125.88327
315.571	1133.5492
316.093	1183.86812
316.615	1135.74068
317.137	1179.54606
317.659	1154.79236
318.18	1227.84188
318.702	1196.69824
319.223	1223.43511
319.744	1251.64038
320.265	1153.72489
320.786	1209.81901
321.307	1277.90834
321.828	1316.68915
322.348	1271.74084
322.869	1274.72641
323.389	1296.99237
323.909	1301.68844
324.43	1326.85629
324.95	1345.68287
325.47	1370.87612
325.989	1444.80175
326.509	1376.55565
327.029	1423.63471
327.548	1402.60475
328.067	1449.8125
328.587	1541.99391
329.106	1476.66093
329.625	1607.24494
330.144	1520.6986
330.662	1552.70495
331.181	1562.74266
331.7	1625.76186
332.218	1580.50464
332.736	1661.75178
333.255	1608.68957
333.773	1665.75473
334.291	1617.92205
334.808	1690.54559
335.326	1727.58855
335.844	1630.58876
336.361	1758.89495
336.879	1715.59941
337.396	1841.72811
337.913	1842.55918
338.43	1878.48003
338.947	1870.64699
339.464	1847.28738
339.981	1866.58061
340.497	1947.75219
341.014	1996.67054
341.53	1984.37776
342.046	1998.65021
342.562	2069.7366
343.078	1985.48439
343.594	2104.52655
344.11	2147.49112
344.626	2064.67276
345.141	2142.29445
345.657	2191.29638
346.172	2102.46565
346.687	2192.25946
347.202	2192.15983
347.717	2252.35626
348.232	2294.51391
348.747	2228.18498
349.261	2153.95331
349.776	2300.20973
350.29	2339.30652
350.805	2405.37717
351.319	2356.12153
351.833	2279.97927
352.347	2387.08881
352.861	2432.01497
353.374	2573.96643
353.888	2407.15326
354.401	2523.90205
354.915	2593.70956
355.428	2597.09995
355.941	2621.81514
356.454	2691.72092
356.967	2658.87308
357.48	2690.74814
357.993	2680.98043
358.505	2735.87636
359.018	2789.8518
359.53	2810.72934
360.042	2843.45178
360.554	2813.75912
361.066	2857.70773
361.578	2725.3888
362.09	2807.63687
362.602	2845.30659
363.113	2986.3853
363.625	2999.24452
364.136	3018.16429
364.647	2978.21755
365.158	3094.23516
365.669	3143.29964
366.18	3096.24882
366.691	3152.98047
367.201	3026.27853
367.712	3153.99374
368.222	3220.94823
368.733	3264.69999
369.243	3339.67598
369.753	3386.79003
370.263	3376.86432
370.773	3339.96043
371.282	3438.70261
371.792	3631.34002
372.301	3628.50162
372.811	3750.6705
373.32	3682.03305
373.829	4030.0486
374.338	4055.87851
374.847	4114.85468
375.356	4249.81395
375.865	4424.59622
376.373	4671.62648
376.882	4806.72642
377.39	4778.6545
377.898	5017.70244
378.407	5225.91902
378.915	5324.10924
379.423	5568.31742
379.93	5816.88948
380.438	6046.42499
380.946	6225.23259
381.453	6582.51549
381.96	7209.51688
382.468	7443.13024
382.975	7966.77129
383.482	8100.29093
383.989	8279.40704
384.495	8526.96562
385.002	9069.44976
385.509	9500.23547
386.015	10084.24058
386.521	10606.79955
387.028	10981.66296
387.534	11130.99312
388.04	11691.81818
388.546	11975.15557
389.051	13115.41135
389.557	13961.50937
390.063	14713.95492
390.568	14782.1423
391.073	15372.12727
391.578	16097.49056
392.084	16535.77969
392.589	17619.62741
393.093	19151.58061
393.598	20572.19905
394.103	22232.16991
394.607	24203.06321
395.112	25564.63225
395.616	26869.44411
396.12	29231.98144
396.624	32433.05089
397.128	34907.68641
397.632	38459.18125
398.136	38223.68763
398.639	35917.44077
399.143	32503.66402
399.646	28888.45294
400.15	25083.82847
400.653	20124.16724
401.156	13866.23708
401.659	5169.95759
402.162	1054.15589
402.664	0
403.167	0
403.67	0
404.172	0
404.674	0
405.176	0
405.678	0
406.18	0
406.682	0
407.184	0
407.686	0
408.187	0
408.688	0
409.19	0
409.691	0
410.192	0
410.693	0
411.194	435.30976
411.694	4082.94878
412.195	8864.71461
412.696	12089.80453
413.196	12760.96929
413.696	12863.67595
414.196	13703.56671
414.696	17261.84252
415.196	21764.24417
415.696	29583.19008
416.196	36460.31858
416.695	40057.39798
417.195	41392.74103
417.694	41668.247
418.194	39088.40676
418.693	37147.56207
419.192	36688.74617
419.691	35428.18269
420.19	34838.78074
420.688	33791.38956
421.187	31553.06421
421.685	29003.34735
422.184	25371.67584
422.682	22114.21827
423.18	19470.92154
423.678	17757.04387
424.176	16422.23774
424.674	15499.63021
425.172	14754.86781
425.669	13379.56348
426.167	12560.99275
426.664	11370.85435
427.161	10434.23883
427.659	9777.14207
428.156	9290.50001
428.652	8916.58
429.149	8446.80587
429.646	7860.95499
430.143	7466.57113
430.639	7107.40089
431.135	6625.66278
431.632	6169.4269
432.128	5970.39596
432.624	5737.66007
433.12	5519.72336
433.616	5429.52969
434.111	5218.08244
434.607	5072.83774
435.103	4947.79106
435.598	4677.63396
436.093	4528.6032
436.588	4271.62808
437.083	4053.73342
437.578	3820.90469
438.073	3574.16875
438.568	3643.29228
439.062	3428.1093
439.557	3334.50218
440.051	3273.43996
440.546	3124.56059
441.04	3084.78383
441.534	2904.13939
442.028	3017.97468
442.522	2910.03731
443.015	2908.81539
443.509	2902.21113
444.002	2677.33394
444.496	2656.0452
444.989	2775.3547
445.482	2692.46102
445.975	2559.20611
446.468	2600.09078
446.961	2527.1441
447.454	2496.35022
447.947	2405.5017
448.439	2418.66389
448.931	2428.38931
449.424	2256.89441
449.916	2338.74441
450.408	2218.53945
450.9	2236.7712
451.392	2238.93586
451.884	2127.72799
452.375	2077.93557
452.867	2120.75247
453.358	2033.7211
453.849	1900.62385
454.341	1967.77271
454.832	1925.6741
455.323	1910.0241
455.814	1871.90886
456.304	1836.93382
456.795	1814.92924
457.285	1898.9108
457.776	1819.01461
458.266	1868.06724
458.756	1654.14767
459.247	1622.08942
459.737	1593.10114
460.226	1612.98004
460.716	1555.15173
461.206	1544.1934
461.695	1531.33985
462.185	1510.17791
462.674	1531.14748
463.163	1513.06166
463.653	1536.95056
464.142	1404.24513
464.63	1464.34411
465.119	1420.17617
465.608	1342.15925
466.096	1364.08371
466.585	1314.21684
467.073	1341.32609
467.561	1294.32236
468.05	1338.27705
468.538	1252.37907
469.026	1221.30657
469.513	1164.0199
470.001	1199.18598
470.489	1177.26973
470.976	1116.20822
471.463	1017.30776
471.951	1022.34076
472.438	1068.23692
472.925	1024.19691
473.412	966.29065
473.899	961.16214
474.385	974.30744
474.872	977.20377
475.359	924.25546
475.845	860.94163
476.331	900.071
476.817	867.23514
477.303	849.13531
477.789	767.11683
478.275	765.16077
478.761	791.16116
479.247	791.05945
479.732	753.16634
480.218	722.21582
480.703	778.21754
481.188	684.90533
481.673	680.98931
482.158	614.81353
482.643	712.20546
483.128	560.84529
483.612	631.97636
484.097	606.01503
484.581	625.97842
485.066	546.91872
485.55	535.79227
486.034	578.83494
486.518	523.85053
487.002	469.81732
487.486	472.82668
487.969	511.88773
488.453	526.96157
488.936	497.79279
489.42	503.79045
489.903	488.90877
490.386	450.50106
490.869	441.70179
491.352	502.91258
491.835	401.60964
492.318	456.75256
492.8	408.61936
493.283	358.70047
493.765	353.66795
494.247	426.75708
494.73	352.59281
495.212	391.73263
495.694	334.60095
496.175	293.53895
496.657	381.69908
497.139	346.45407
497.62	244.45728
498.102	251.49844
498.583	304.60862
499.064	282.49228
499.545	284.51333
500.026	247.44086
500.507	278.51483
500.988	283.56671
501.469	282.56667
501.949	316.62766
502.43	212.40772
502.91	244.40037
503.39	269.5504
503.87	194.37256
504.35	215.41837
504.83	206.36644
505.31	214.42526
505.79	209.4096
506.269	260.49522
506.749	163.30751
507.228	172.33382
507.707	190.34605
508.187	235.46405
508.666	137.28222
509.145	137.26773
509.623	208.4033
510.102	168.34149
510.581	198.40081
511.059	164.34461
511.538	221.47962
512.016	157.31629
512.494	185.37784
512.972	156.31405
513.45	106.20671
513.928	178.36181
514.406	114.2313
514.884	153.33403
515.361	169.34093
515.839	156.29886
516.316	211.42409
516.793	165.35626
517.27	158.32687
517.747	120.26415
518.224	156.30667
518.701	148.27942
519.178	100.21254
519.654	161.32733
520.131	111.23648
520.607	161.34226
521.083	104.20416
521.56	82.16782
522.036	112.21145
522.512	118.25254
522.987	108.21983
523.463	123.25144
523.939	105.2238
524.414	162.32042
524.89	91.18772
525.365	99.19384
525.84	79.16216
526.315	93.19443
526.79	104.203
527.265	112.2208
527.74	120.25304
528.215	101.20684
528.689	84.16155
529.164	103.19422
529.638	102.22971
530.112	41.08492
530.587	56.10407
531.061	46.09747
531.534	74.15796
532.008	89.18664
532.482	78.15724
532.956	73.16309
533.429	100.21198
533.903	75.14587
534.376	56.109
534.849	65.13282
535.322	65.13529
535.795	80.17225
536.268	70.14813
536.741	77.16319
537.213	114.23024
537.686	79.16889
538.158	47.09259
538.631	63.13603
539.103	51.10061
539.575	74.13587
540.047	109.20917
540.519	103.21658
540.991	121.26003
541.463	82.17527
541.934	72.14528
542.406	75.15735
542.877	90.17826
543.348	165.34602
543.82	198.41935
544.291	154.31289
544.762	127.26174
545.233	157.34088
545.703	125.2393
546.174	171.34243
546.645	137.28159
547.115	169.35002
547.585	237.46074
548.056	184.37657
548.526	238.46854
548.996	298.59688
549.466	314.63912
549.935	230.45471
550.405	278.50018
550.875	260.51137
551.344	251.50333
551.814	274.52112
552.283	395.68795
552.752	354.6628
553.221	333.57933
553.69	425.74335
554.159	374.73697
554.628	356.63364
555.096	379.77476
555.565	370.65992
556.033	396.75391
556.502	366.72528
556.97	281.51817
557.438	323.63663
557.906	357.70364
558.374	306.58908
558.842	317.63626
559.31	361.67106
559.777	275.56369
560.245	351.69344
560.712	430.82064
561.18	327.60513
561.647	405.74687
562.114	437.81519
562.581	444.90659
563.048	556.02768
563.514	537.06217
563.981	583.06237
564.448	556.99745
564.914	662.20879
565.381	651.16319
565.847	740.33585
566.313	672.22523
566.779	722.25221
567.245	788.40241
567.711	830.50098
568.176	818.36973
568.642	884.66148
569.108	935.69603
569.573	968.6642
570.038	1006.48343
570.504	1007.59439
570.969	1024.86303
571.434	1075.62105
571.899	1097.83022
572.363	1154.79341
572.828	1271.93124
573.293	1257.91433
573.757	1287.94533
574.222	1274.84856
574.686	1320.89708
575.15	1350.08582
575.614	1405.03901
576.078	1391.088
576.542	1366.99304
577.006	1362.95802
577.469	1484.35608
577.933	1380.94493
578.396	1409.15438
578.86	1457.16984
579.323	1369.11235
579.786	1322.82019
580.249	1259.89027
580.712	1338.16965
581.175	1221.06132
581.637	1281.96381
582.1	1224.79293
582.563	1261.77844
583.025	1162.95129
583.487	1170.55114
583.95	1116.62467
584.412	1170.64436
584.874	1113.90165
585.336	982.68655
585.797	1015.54564
586.259	957.65618
586.721	971.65295
587.182	1054.76733
587.643	947.56875
588.105	908.59486
588.566	873.35058
589.027	864.55784
589.488	809.39719
589.949	875.59581
590.41	732.06665
590.87	784.3708
591.331	811.31913
591.791	711.2726
592.252	710.25416
592.712	741.38441
593.172	673.18526
593.632	703.19887
594.092	660.15595
594.552	651.09805
595.011	611.11294
595.471	676.18341
595.931	544.98143
596.39	604.15728
596.849	591.10369
597.308	620.06751
597.768	538.1186
598.227	549.07733
598.685	544.019
599.144	529.00819
599.603	589.12387
600.062	495.84444
600.52	573.02195
600.978	559.07478
601.437	542.00875
601.895	536.91664
602.353	566.01178
602.811	585.03802
603.269	554.07615
603.727	564.09248
604.184	595.06565
604.642	563.11786
605.099	616.13825
605.557	639.24188
606.014	635.06925
606.471	686.34257
606.928	713.16187
607.385	732.36925
607.842	836.43054
608.299	758.35796
608.755	732.36655
609.212	828.36989
609.668	743.24551
610.125	810.4938
610.581	819.49498
611.037	776.37032
611.493	751.38583
611.949	711.34203
612.405	658.02501
612.861	752.38733
613.316	733.36944
613.772	747.33512
614.227	729.34717
614.683	783.28915
615.138	681.26332
615.593	666.23268
616.048	775.38101
616.503	782.51055
616.958	783.53813
617.412	770.42486
617.867	714.23633
618.321	761.22023
618.776	716.25361
619.23	731.36098
619.684	702.26841
620.138	749.3842
620.592	706.38112
621.046	661.26457
621.5	711.39321
621.954	725.30972
622.407	705.26378
622.861	658.31078
623.314	644.20435
623.768	604.16733
624.221	616.99209
624.674	613.17145
625.127	611.19019
625.58	679.274
626.033	620.14166
626.485	544.10445
626.938	607.21379
627.39	527.0482
627.843	590.15221
628.295	506.00799
628.747	493.01508
629.199	494.97345
629.651	476.9415
630.103	423.85568
630.555	479.88337
631.006	444.92017
631.458	449.93531
631.909	435.89044
632.361	384.80579
632.812	382.7931
633.263	354.69198
633.714	401.77179
634.165	347.76779
634.616	323.70455
635.067	349.7089
635.518	326.71546
635.968	340.6262
636.419	331.66221
636.869	336.73585
637.319	289.6205
637.769	267.55744
638.219	329.72766
638.669	239.53612
639.119	292.66482
639.569	256.58004
640.019	274.59476
640.468	225.47685
640.918	283.63977
641.367	248.52593
641.816	251.53079
642.265	259.56544
642.714	257.56179
643.163	260.56486
643.612	171.39336
644.061	178.36214
644.51	170.37295
644.958	161.34196
645.406	210.47969
645.855	210.49242
646.303	218.48792
646.751	177.3879
647.199	243.52602
647.647	187.41414
648.095	182.40214
648.543	212.41873
648.99	182.41891
649.438	216.48782
649.885	196.46695
650.333	191.3591
650.78	188.43773
651.227	206.48153
651.674	181.39918
652.121	144.34123
652.568	154.36337
653.015	192.46915
653.461	148.34283
653.908	171.38722
654.354	192.44387
654.801	118.2715
655.247	174.37255
655.693	149.37831
656.139	144.33753
656.585	122.28753
657.031	104.23871
657.477	125.26596
657.922	119.26969
658.368	184.44139
658.813	153.34942
659.259	114.26951
659.704	85.19655
660.149	167.38016
660.594	103.24195
661.039	94.21273
661.484	149.35
661.929	136.31354
662.373	100.24916
662.818	111.27199
663.262	65.15608
663.707	101.25325
664.151	95.23054
664.595	104.24863
665.039	147.35993
665.483	115.28929
665.927	130.30317
666.371	58.13441
666.814	111.26349
667.258	75.17707
667.701	146.31314
668.145	157.38484
668.588	98.23947
669.031	65.15311
669.474	81.19509
669.917	103.22859
670.36	111.2735
670.803	146.34877
671.245	93.19736
671.688	118.28641
672.13	71.16019
672.573	124.31266
673.015	78.1879
673.457	77.16918
673.899	97.23504
674.341	96.2317
674.783	79.18991
675.225	80.19708
675.666	78.18783
676.108	85.18636
676.549	93.2211
676.991	58.12971
677.432	66.13379
677.873	74.17271
678.314	64.15412
678.755	69.16889
679.196	80.18458
679.637	107.26161
680.078	107.25125
680.518	123.28701
680.959	95.22829
681.399	77.19175
681.839	103.25098
682.28	82.20298
682.72	69.15962
683.16	38.09568
683.6	109.24994
684.039	64.13591
684.479	35.087
684.919	38.0889
685.358	121.30613
685.798	66.17363
686.237	123.29736
686.676	123.28622
687.115	94.22223
687.554	86.2056
687.993	99.22099
688.432	63.14597
688.871	76.17431
689.309	58.14014
689.748	69.14713
690.186	119.28476
690.625	16.0383
691.063	88.21231
691.501	94.23328
691.939	52.13098
692.377	78.19159
692.815	69.16656
693.253	102.24646
693.69	39.0876
694.128	38.09337
694.565	30.07287
695.003	47.12056
695.44	35.08372
695.877	55.13021
696.314	69.15115
696.751	93.21436
697.188	108.24929
697.625	130.29947
698.061	25.06108
698.498	91.22174
698.934	47.11487
699.371	44.10519
699.807	107.25419
700.243	38.09289
700.679	83.19025
701.115	79.18818
701.551	34.08163
701.987	88.20029
702.422	80.19162
702.858	79.18991
703.294	138.31294
703.729	104.25536
704.164	18.0442
704.599	69.15606
705.035	13.02983
705.47	50.12313
705.904	66.15567
706.339	59.13951
706.774	93.2194
707.209	53.12411
707.643	82.19858
708.078	112.27317
708.512	41.10377
708.946	75.18166
709.38	58.13935
709.814	87.20101
710.248	76.18689
710.682	65.15638
711.116	37.08959
711.549	92.23809
711.983	72.16837
712.416	73.17462
712.85	85.21313
713.283	48.11537
713.716	74.18746
714.149	116.27742
714.582	85.19303
715.015	101.2538
715.448	99.25029
715.881	108.23853
716.313	78.18462
716.746	63.15013
717.178	80.19388
717.61	111.28163
718.043	61.15362
718.475	93.2267
718.907	115.29136
719.339	21.04866
719.77	89.21224
720.202	77.19592
720.634	51.12557
721.065	94.22421
721.497	74.18291
721.928	35.08719
722.359	-27.06682
722.79	45.10924
723.221	88.2226
723.652	115.29663
724.083	80.18238
724.514	93.21539
724.945	62.14754
725.375	77.18024
725.806	117.29221
726.236	117.29948
726.666	106.25196
727.096	62.15375
727.526	103.2618
727.956	45.10401
728.386	79.19595
728.816	49.12525
729.246	58.14241
729.675	82.2029
730.105	104.25668
730.534	88.20748
730.964	124.31299
731.393	123.30552
731.822	89.22813
732.251	89.22669
732.68	109.25794
733.109	90.22278
733.537	106.25651
733.966	101.25134
734.395	60.14042
734.823	79.18035
735.251	99.23934
735.68	132.32973
736.108	82.20853
736.536	75.17865
736.964	81.18961
737.392	87.2187
737.82	100.24099
738.247	97.23345
738.675	124.29644
739.102	72.18103
739.53	95.24223
739.957	128.32781
740.384	138.33934
740.811	83.21141
741.238	74.18197
741.665	63.14776
742.092	60.14503
742.519	68.16949
742.945	98.23617
743.372	77.19182
743.798	88.22687
744.225	89.21281
744.651	60.15188
745.077	110.27428
745.503	74.18197
745.929	61.14792
746.355	124.30806
746.781	100.24835
747.207	69.16329
747.632	39.09627
748.058	99.24752
748.483	65.15144
748.908	62.15538
749.334	90.22196
749.759	88.20869
750.184	50.12054
750.609	123.30173
751.033	106.25147
751.458	129.2895
751.883	140.34515
752.307	85.2013
752.732	42.10602
753.156	90.22303
753.58	129.30586
754.005	107.27158
754.429	95.2242
754.853	89.22115
755.277	117.27687
755.7	107.26549
756.124	60.1501
756.548	49.11757
756.971	94.23029
757.394	69.17872
757.818	75.19379
758.241	99.25127
758.664	95.24018
759.087	56.12658
759.51	93.23202
759.933	63.15288
760.356	111.28402
760.778	95.23408
761.201	129.31281
761.623	129.3121
762.046	143.33774
762.468	135.32317
762.89	82.20342
763.312	133.32336
763.734	62.1506
764.156	92.22773
764.578	93.21513
765	87.2131
765.421	55.14064
765.843	100.26191
766.264	101.24455
766.686	130.32497
767.107	92.22355
767.528	91.22982
767.949	111.28163
768.37	77.18994
768.791	117.28265
769.212	85.21383
769.632	56.13178
770.053	97.25514
770.473	90.21951
770.894	91.22834
771.314	92.22062
771.734	73.17135
772.154	85.21864
772.575	71.16594
772.994	82.18731
773.414	88.21215
773.834	78.19569
774.254	69.16989
774.673	67.1643
775.093	48.11982
775.512	68.16839
775.931	71.18072
776.351	60.14993
776.77	75.18405
777.189	78.1864
777.607	71.18193
778.026	60.15037
778.445	30.07586
778.864	107.27369
779.282	23.05613
779.701	74.18712
780.119	40.10194
780.537	63.15797
780.955	111.28143
781.373	56.13943
781.791	36.08197
782.209	93.21479
782.627	35.09293
783.045	57.13222
783.462	49.126
783.88	39.10164
784.297	-8.02047
784.715	2.00521
785.132	54.13166
785.549	18.04558
785.966	36.09136
786.383	29.07211
786.8	47.11023
787.217	56.13368
787.633	-14.03555
788.05	82.19536
788.466	98.23106
788.883	42.10783
789.299	49.11891
789.715	21.05169
790.131	42.10526
790.547	51.12816
790.963	7.01762
791.379	48.12207
791.795	37.08542
792.21	46.1085
792.626	49.11717
793.041	17.04247
793.457	47.11696
793.872	19.04528
794.287	-14.03403
794.702	62.15342
795.117	9.02265
795.532	27.06829
795.947	71.17146
796.362	69.16543
796.776	81.1902
797.191	55.13532
797.605	-39.09372
798.02	27.06638
798.434	29.06543
798.848	41.10169
799.262	-2.00503
799.676	103.25042
800.09	-26.06523
800.504	69.16788
800.918	16.03758
801.331	60.15774
801.745	-22.05163
802.158	51.12811
802.572	51.12446
802.985	76.18398
803.398	45.1081
803.811	86.22079
804.224	26.06535
804.637	-11.02666
805.05	25.05864
805.462	53.13088
805.875	-1.00262
806.288	-23.05653
806.7	34.0861
807.112	48.11207
807.525	33.08212
807.937	6.01502
808.349	10.02535
808.761	35.08678
809.173	16.03923
809.584	79.19523
809.996	59.1449
810.408	134.34197
810.819	169.39047
811.231	111.28472
811.642	153.35926
812.053	135.31737
812.464	75.17838
812.875	70.17896
813.286	67.17258
813.697	116.26946
814.108	22.0543
814.519	45.10107
814.929	45.11535
815.34	6.01474
815.75	-11.02835
816.16	54.13509
816.571	74.1921
816.981	62.14686
817.391	47.1141
817.801	1.00252
818.211	-1.00242
818.62	13.03165
819.03	39.0962
819.44	72.188
819.849	38.09633
820.259	42.10805
820.668	42.10385
821.077	-17.04289
821.486	12.02925
821.895	75.18528
822.304	55.14603
822.713	38.09047
823.122	53.13271
823.531	-3.00722
823.939	32.07854
824.348	63.15346
824.756	17.043
825.164	36.09116
825.573	57.14334
825.981	35.08738
826.389	53.13357
826.797	30.07567
827.205	-4.00932
827.612	78.19223
828.02	-15.03581
828.428	13.03343
828.835	25.06625
829.243	52.12441
829.65	39.09747
830.057	41.10006
830.464	59.14404
830.871	18.04354
831.278	36.08758
831.685	50.11214
832.092	38.09358
832.499	-2.00445
832.905	26.06631
833.312	16.03692
833.718	37.09271
834.124	-6.01393
834.531	27.06855
834.937	38.098
835.343	58.14025
835.749	36.08468
836.155	1.00265
836.561	39.09642
836.966	51.12511
837.372	7.018
837.777	-6.01514
838.183	18.04047
838.588	6.01506
838.993	9.02215
839.399	-2.00495
839.804	-43.10689
840.209	-1.00257
840.613	-11.02488
841.018	36.09162
841.423	15.0388
841.828	18.04589
842.232	39.09709
842.637	2.00478
843.041	31.07988
843.445	37.09324
843.849	-7.01755
844.253	-3.00723
844.657	1.00255
845.061	36.0822
845.465	-6.01468
845.869	43.10038
846.272	-14.03458
846.676	32.07787
847.079	20.05122
847.483	53.13247
847.886	76.18454
848.289	15.04032
848.692	17.04339
849.095	11.02668
849.498	77.19467
849.901	33.07619
850.304	6.0145
850.707	20.05137
851.109	26.06621
851.512	10.02481
851.914	-20.05111
852.316	11.02807
852.718	-27.07073
853.121	16.03953
853.523	-25.05944
853.925	-15.03961
854.326	15.0378
854.728	27.06981
855.13	13.03379
855.531	-32.07782
855.933	2.00486
856.334	-19.04804
856.736	-35.07997
857.137	-4.00942
857.538	24.06071
857.939	-2.005
858.34	56.13659
858.741	50.13087
859.142	-8.01947
859.542	19.05045
859.943	2.00502
860.343	-2.00501
860.744	0
861.144	47.11491
861.544	-37.09053
861.945	20.05131
862.345	15.03699
862.745	7.01756
863.145	42.10076
863.544	42.10643
863.944	31.07364
864.344	38.09475
864.743	25.06242
865.143	29.07486
865.542	1.00235
865.941	16.03991
866.34	52.12474
866.74	36.09694
867.139	16.03862
867.537	28.07171
867.936	28.06778
868.335	-16.04124
868.734	-38.09872
869.132	11.0258
869.531	23.056
869.929	-14.03238
870.327	47.1129
870.726	50.12485
871.124	20.0471
871.522	22.05638
871.92	56.13816
872.318	-26.06455
872.715	55.13622
873.113	-25.06185
873.511	26.06514
873.908	0
874.306	18.04508
874.703	79.19688
875.1	72.18368
875.497	28.0675
875.894	-54.13499
876.291	26.06417
876.688	7.01821
877.085	-5.01214
877.482	-7.01772
877.878	-8.01949
878.275	3.00769
878.671	51.11375
879.068	17.04135
879.464	13.03168
879.86	3.00717
880.256	37.09164
880.652	-14.03604
881.048	35.08707
881.444	-6.01445
881.84	36.09181
882.236	25.06321
882.631	22.05434
883.027	76.18336
883.422	24.0617
883.817	-46.11769
884.213	31.07988
884.608	-29.07222
885.003	-3.00731
885.398	-3.00759
885.793	7.01772
886.188	-8.02011
886.582	28.07216
886.977	59.13995
887.371	26.0661
887.766	7.01756
888.16	57.14221
888.554	21.05226
888.949	32.08069
889.343	48.11742
889.737	-16.04313
890.131	16.04042
890.525	3.00774
890.918	-11.02801
891.312	34.08169
891.706	21.0554
892.099	60.15253
892.492	11.02396
892.886	24.05906
893.279	4.01028
893.672	-4.01029
894.065	37.09294
894.458	16.04052
894.851	40.09829
895.244	-7.01807
895.637	9.02187
896.029	26.06391
896.422	22.05408
896.814	2.00502
897.206	-30.0726
897.599	93.22839
897.991	0
898.383	12.02859
898.775	9.0205
899.167	16.03759
899.559	52.13168
899.951	10.02378
900.342	49.12472
900.734	-11.02761
901.125	51.13387
901.517	39.09599
901.908	23.05548
902.299	20.0492
902.69	5.01191
903.082	19.04632
903.473	29.06977
903.863	0
904.254	11.02575
904.645	23.05753
905.036	-6.01469
905.426	50.11458
905.817	-2.00496
906.207	-44.1068
906.597	-17.04031
906.987	57.14764
907.378	10.02549
907.768	-3.00801
908.158	-3.00739
908.547	14.03641
908.937	26.06703
909.327	32.07802
909.717	73.18469
910.106	4.0097
910.495	69.17177
910.885	13.03316
911.274	50.12504
911.663	35.08912
912.052	35.08665
912.441	34.08674
912.83	40.09207
913.219	44.11532
913.608	22.0542
913.997	-16.0406
914.385	28.06722
914.774	10.02454
915.162	-25.06046
915.55	4.00977
915.939	-15.03832
916.327	46.11495
916.715	-13.03351
917.103	44.10848
917.491	39.09673
917.878	28.06916
918.266	34.08845
918.654	8.0206
919.041	22.05772
919.429	3.00715
919.816	35.08899
920.203	-3.00735
920.591	-1.0025
920.978	17.0419
921.365	34.08948
921.752	5.01203
922.139	15.03283
922.525	-14.03404
922.912	19.04663
923.299	16.04003
923.685	36.09416
924.072	21.04873
924.458	-6.01502
924.844	30.07453
925.231	-11.02592
925.617	0
926.003	13.03345
926.389	12.03048
926.774	13.03317
927.16	44.10943
927.546	-17.04391
927.931	5.01258
928.317	9.02091
928.702	34.08072
929.088	21.04997
929.473	7.01795
929.858	-30.07363
930.243	21.05069
930.628	32.07814
931.013	-15.03763
931.398	35.08077
931.783	18.04766
932.167	46.11257
932.552	-3.00759
932.937	31.07723
933.321	11.0278
933.705	28.07088
934.09	46.11636
934.474	4.00959
934.858	36.09362
935.242	-19.04465
935.626	-8.02069
936.009	5.0134
936.393	32.0817
936.777	7.01806
937.16	22.05752
937.544	22.05213
937.927	-15.0385
938.311	54.13176
938.694	27.07169
939.077	25.06014
939.46	31.07641
939.843	59.12291
940.226	6.01551
940.609	-23.05359
940.991	15.03842
941.374	-5.01235
941.757	10.02486
942.139	-38.08691
942.522	-5.01195
942.904	12.02906
943.286	41.10436
943.668	4.01044
944.05	37.09137
944.432	43.10627
944.814	9.02234
945.196	-28.06923
945.578	-49.11869
945.959	16.03775
946.341	71.17366
946.722	36.08475
947.104	15.0361
947.485	-9.02119
947.866	-3.00763
948.247	-36.09223
948.628	39.09535
949.009	-21.05445
949.39	45.11215
949.771	21.04914
950.152	-9.02233
950.532	-37.09248
950.913	-5.01219
951.293	5.01361
951.674	11.0268
952.054	-12.03007
952.434	0
952.814	34.08116
953.194	15.03949
953.574	31.07664
953.954	13.0311
954.334	12.03012
954.714	-10.02464
955.093	57.13998
955.473	-5.01263
955.853	10.02607
956.232	31.08522
956.611	68.16257
956.99	-10.0254
957.37	0
957.749	-5.01206
958.128	-12.03057
958.506	-5.01309
958.885	-3.00764
959.264	-21.05214
959.643	-22.0508
960.021	-2.005
960.4	19.04334
960.778	56.13781
961.156	-15.03805
961.535	18.04223
961.913	63.14707
962.291	3.00776
962.669	-21.05387
963.047	14.03596
963.424	9.02313
963.802	-16.03982
964.18	55.13905
964.557	6.01394
964.935	10.02388
965.312	28.07319
965.69	58.14504
966.067	26.0636
966.444	43.10611
966.821	43.11099
967.198	69.16682
967.575	36.08875
967.952	23.05449
968.329	-1.00246
968.705	17.03672
969.082	39.10021
969.458	2.00484
969.835	1.00246
970.211	16.04131
970.587	27.06751
970.963	53.1359
971.339	22.05772
971.715	30.07518
972.091	9.02233
972.467	27.06763
972.843	-22.05531
973.219	54.12959
973.594	-8.02113
973.97	44.10487
974.345	-1.00242
974.721	9.02196
975.096	9.02195
975.471	27.06434
975.846	17.0411
976.221	11.02813
976.596	11.02656
976.971	57.14055
977.346	42.09795
977.72	20.05122
978.095	26.06747
978.469	26.06235
978.844	26.06565
979.218	-40.09753
979.593	7.01691
979.967	-6.01477
980.341	-1.00233
980.715	38.09595
981.089	2.00505
981.463	-7.01626
981.837	12.02953
982.21	75.1737
982.584	7.01704
982.957	21.05271
983.331	21.04993
983.704	-1.00248
984.078	4.00994
984.451	43.10755
984.824	-22.0543
985.197	15.03667
985.57	44.11047
985.943	94.23029
986.316	80.19549
986.688	30.07262
987.061	50.1172
987.434	6.01575
987.806	20.04878
988.179	-7.0167
988.551	49.12433
988.923	-15.03738
989.295	45.11255
989.667	-28.06789
990.039	26.06452
990.411	17.03939
990.783	11.02553
991.155	-13.03161
991.527	80.19592
991.898	11.0276
992.27	7.01745
992.641	-10.02536
993.012	14.03318
993.384	7.01683
993.755	-10.02576
994.126	-22.05364
994.497	-16.03975
994.868	-17.03958
995.239	8.01954
995.61	-9.02288
995.98	-28.06901
996.351	-12.03005
996.722	-39.09204
997.092	-20.048
997.462	-17.04023
997.833	49.11618
998.203	29.07059
998.573	0
998.943	4.00946
999.313	-34.08277
999.683	20.04827
1000.053	48.11049
1000.423	45.10945
1000.792	35.09094
1001.162	7.01736
1001.531	53.13059
1001.901	-2.00503
1002.27	6.01353
1002.639	7.01802
1003.009	-10.02405
1003.378	62.15817
1003.747	-8.01911
1004.116	-5.01209
1004.485	39.0934
1004.853	3.00766
1005.222	1.00254
1005.591	9.02154
1005.959	-7.01595
1006.328	31.07003
1006.696	1.00243
1007.064	10.02533
1007.433	-16.04046
1007.801	48.11786
1008.169	50.12625
1008.537	32.07112
1008.905	-6.01413
1009.273	34.08422
1009.64	-21.05077
1010.008	5.01202
1010.375	27.06584
1010.743	31.07185
1011.11	19.04522
1011.478	28.06956
1011.845	21.04966
1012.212	-23.05282
1012.579	7.01732
1012.946	38.09064
1013.313	54.12841
1013.68	31.06994
1014.047	-20.04829
1014.414	-13.03107
1014.78	33.08224
1015.147	62.14958
1015.513	24.0581
1015.88	52.1329
1016.246	16.03974
1016.612	-22.05108
1016.978	12.02961
1017.344	8.01992
1017.71	70.17003
1018.076	15.03561
1018.442	33.08512
1018.808	-27.06841
1019.174	29.07301
1019.539	80.18304
1019.905	-28.06702
1020.27	-24.06002
1020.636	12.02897
1021.001	21.05054
1021.366	-27.06577
1021.731	4.01037
1022.096	14.03553
1022.461	13.03098
1022.826	19.04541
1023.191	23.0606
1023.556	0
1023.92	42.10339
1024.285	31.07591
1024.649	11.02714
1025.014	-5.01251
1025.378	-8.02032
1025.742	24.05987
1026.107	28.0636
1026.471	28.06563
1026.835	1.0025
1027.199	-19.04632
1027.562	8.01874
1027.926	36.08823
1028.29	25.06352
1028.654	-18.04196
1029.017	36.08869
1029.381	-7.0169
1029.744	-3.00772
1030.107	7.01669
1030.471	36.08639
1030.834	4.00918
1031.197	37.08932
1031.56	-21.05021
1031.923	10.02602
1032.286	44.10342
1032.648	58.13845
1033.011	-17.03953
1033.374	15.03548
1033.736	-34.09062
1034.099	16.03923
1034.461	-32.08198
1034.823	-22.05547
1035.185	20.05059
1035.548	-22.05424
1035.91	14.03375
1036.272	-18.04151
1036.634	57.13921
1036.995	-13.03092
1037.357	-4.00983
1037.719	17.04158
1038.08	48.11396
1038.442	-7.01679
1038.803	2.00484
1039.165	13.03301
1039.526	5.01218
1039.887	-6.0145
1040.248	-15.03738
1040.609	24.05956
1040.97	-4.00987
1041.331	10.02549
1041.692	2.00471
1042.053	10.02294
1042.413	64.14867
1042.774	23.05619
1043.134	0
1043.495	-12.03048
1043.855	17.04147
1044.215	19.0474
1044.576	-41.09968
1044.936	28.06445
1045.296	21.05266
1045.656	20.04933
1046.016	39.09429
1046.375	-11.02697
1046.735	-6.01375
1047.095	12.02828
1047.454	5.01069
1047.814	16.03869
1048.173	58.13829
1048.533	-11.0255
1048.892	-7.01697
1049.251	20.05045
1049.61	-23.05736
1049.969	23.05447
1050.328	-18.03957
1050.687	0
1051.046	34.08299
1051.405	12.03004
1051.763	-42.0983
1052.122	7.01758
1052.48	-12.02975
1052.839	-36.08607
1053.197	-33.07888
1053.555	38.0868
1053.914	23.05651
1054.272	-12.02933
1054.63	9.02216
1054.988	37.08807
1055.345	-12.02617
1055.703	8.0194
1056.061	41.10557
1056.419	5.01304
1056.776	2.00489
1057.134	-54.12752
1057.491	-2.00505
1057.848	30.07491
1058.206	-17.04048
1058.563	0
1058.92	28.06478
1059.277	44.1086
1059.634	25.05907
1059.991	51.12209
1060.348	0
1060.704	-26.06282
1061.061	27.06298
1061.418	8.01954
1061.774	31.07675
1062.131	4.01065
1062.487	3.00707
1062.843	19.04761
1063.199	-25.06298
1063.555	-6.01405
1063.911	2.00509
1064.267	5.01053
1064.623	-9.02209
1064.979	27.06422
1065.335	47.11234
1065.691	8.01932
1066.046	10.02216
1066.402	-24.05531
1066.757	-7.01784
1067.112	39.09585
1067.468	-38.09119
1067.823	8.01937
1068.178	7.01706
1068.533	30.07295
1068.888	20.04803
1069.243	31.07672
1069.598	37.09006
1069.952	-46.10554
1070.307	-20.0501
1070.662	-18.04326
1071.016	-3.00679
1071.371	-27.06233
1071.725	67.15966
1072.079	14.03388
1072.434	-36.08882
1072.788	-1.0024
1073.142	40.09851
1073.496	-47.1135
1073.85	2.00468
1074.203	2.00489
1074.557	36.09589
1074.911	64.15224
1075.265	7.0164
1075.618	13.03194
1075.971	47.11178
1076.325	-23.05916
1076.678	-14.03241
1077.031	-19.04357
1077.385	22.04871
1077.738	8.0182
1078.091	-25.05767
1078.444	14.03271
1078.796	-17.0422
1079.149	64.15865
1079.502	-15.03585
1079.855	17.03987
1080.207	9.02232
1080.56	9.02341
1080.912	24.05867
1081.264	22.05322
1081.617	23.0563
1081.969	-16.0408
1082.321	20.04907
1082.673	-40.09288
1083.025	-5.01198
1083.377	-266.6093
1083.728	16.03755
1084.08	25.06264
1084.432	1.00243
1084.783	24.05648
1085.135	22.05537
1085.486	-53.12367
1085.838	7.01736
1086.189	-16.03929
1086.54	19.04561
1086.891	14.0356
1087.242	0
1087.593	42.10232
1087.944	-39.08979
1088.295	45.10232
1088.646	21.05113
1088.996	-13.03167
1089.347	-4.00991
1089.698	27.06404
1090.048	28.07294
1090.398	4.00935
1090.749	-12.02903
1091.099	-11.02794
1091.449	17.04257
1091.799	-4.0101
1092.149	-35.08662
1092.499	20.04902
1092.849	7.01791
1093.199	59.14752
1093.548	22.0531
1093.898	9.02266
1094.248	8.02069
1094.597	-32.08279
1094.947	20.05357
1095.296	-5.01246
1095.645	33.08601
1095.994	23.05548
1096.343	28.07068
1096.692	-1.00265
1097.041	-2.00546
1097.39	34.08545
1097.739	32.08336
1098.088	47.12587
1098.437	-44.11731
1098.785	27.073
1099.134	35.09309
1099.482	13.03593
1099.83	69.18057
1100.179	14.03671
1100.527	12.03206
1100.875	23.06103
1101.223	30.07985
1101.571	31.08584
1101.919	-26.06875
1102.267	34.09587
1102.615	11.03534
1102.962	18.0579
1103.31	8.0257
1103.658	18.05793
