Data from N2 R5 sample 1_Subt2__3__12-33-37-821.txt Node

Date: Fri Aug 29 12:33:37 PDT 2025
User: uwsun
Spectrometer: HDX01956
Trigger mode: 0
Integration Time (sec): 5.000000E-1
Scans to average: 1
Nonlinearity correction enabled: true
Boxcar width: 0
Storing dark spectrum: false
XAxis mode: Wavelengths
Number of Pixels in Spectrum: 2068
>>>>>Begin Spectral Data<<<<<
194.03	268.72083
194.578	253.77467
195.127	285.85527
195.676	302.90713
196.225	350.87351
196.773	303.79011
197.321	457.13049
197.87	673.45529
198.418	620.3357
198.966	584.27634
199.513	578.1971
200.061	577.2182
200.609	680.49766
201.156	594.05266
201.704	597.24671
202.251	638.40273
202.798	587.27615
203.345	693.39885
203.892	601.25729
204.438	661.28959
204.985	613.18107
205.532	657.4261
206.078	676.35106
206.624	621.25159
207.17	743.37104
207.716	665.30908
208.262	570.91377
208.808	583.18081
209.354	659.30212
209.899	709.46588
210.445	695.39262
210.99	620.22064
211.535	717.35271
212.08	637.20916
212.625	659.35507
213.17	693.43532
213.715	592.06436
214.259	707.32338
214.804	661.3421
215.348	677.25027
215.892	673.31304
216.436	697.30527
216.98	788.36625
217.524	654.2581
218.068	650.35185
218.612	671.39093
219.155	666.27384
219.698	590.16693
220.242	681.39786
220.785	546.07017
221.328	622.28952
221.871	573.22983
222.414	642.32867
222.956	586.17092
223.499	587.09187
224.041	639.2289
224.583	587.05184
225.126	557.02054
225.668	540.1058
226.21	514.09946
226.751	521.94978
227.293	623.17276
227.835	576.17486
228.376	599.15018
228.918	583.24111
229.459	557.16357
230	600.18397
230.541	568.09185
231.082	558.13396
231.622	613.16579
232.163	572.15559
232.704	571.1839
233.244	560.16597
233.784	594.21931
234.324	506.92406
234.864	518.98621
235.404	579.14968
235.944	629.22938
236.484	619.28586
237.023	572.12175
237.563	643.20752
238.102	634.22775
238.641	643.3435
239.18	551.06751
239.719	594.24345
240.258	628.15121
240.797	644.25607
241.335	594.20944
241.874	615.94097
242.412	594.17815
242.95	588.15482
243.488	595.11501
244.026	585.1065
244.564	673.09651
245.102	626.13773
245.64	639.2649
246.177	594.0893
246.715	675.31695
247.252	635.18778
247.789	627.94289
248.326	651.26224
248.863	582.03777
249.4	648.18974
249.936	592.98208
250.473	595.13369
251.009	632.1673
251.546	587.0513
252.082	639.12348
252.618	626.12101
253.154	634.23537
253.69	605.10534
254.226	653.25888
254.761	627.13464
255.297	636.11206
255.832	611.17608
256.367	664.25714
256.903	621.09348
257.438	665.2575
257.972	667.18141
258.507	579.07482
259.042	623.0827
259.576	616.05157
260.111	669.23855
260.645	635.09777
261.179	606.14322
261.713	605.08138
262.247	633.17528
262.781	633.04561
263.315	662.30102
263.849	687.37657
264.382	705.2813
264.915	636.19112
265.449	635.23527
265.982	755.33627
266.515	705.36386
267.048	558.95071
267.58	645.1228
268.113	681.14567
268.646	630.25433
269.178	636.12317
269.71	711.20734
270.243	702.26001
270.775	698.41765
271.307	677.30336
271.838	737.38032
272.37	703.37037
272.902	687.22955
273.433	709.19939
273.965	668.29556
274.496	669.3355
275.027	681.34377
275.558	692.32494
276.089	646.25819
276.62	722.46113
277.15	737.43199
277.681	693.17035
278.211	719.39099
278.741	590.0282
279.272	650.16469
279.802	743.45464
280.332	724.32157
280.861	757.40948
281.391	660.16808
281.921	705.33459
282.45	716.41063
282.98	771.57358
283.509	689.19895
284.038	689.21667
284.567	784.40032
285.096	673.27949
285.625	687.20429
286.153	720.29703
286.682	705.23786
287.21	724.34358
287.739	719.30746
288.267	751.38998
288.795	739.52729
289.323	740.31
289.851	774.37175
290.378	775.30143
290.906	767.40199
291.433	733.41
291.961	773.30301
292.488	768.46009
293.015	697.25134
293.542	765.47378
294.069	746.39343
294.596	845.56509
295.122	752.3548
295.649	830.33389
296.175	803.46128
296.702	786.43571
297.228	859.54525
297.754	796.31026
298.28	822.35619
298.806	810.43794
299.332	810.2906
299.857	855.38315
300.383	827.5675
300.908	796.41668
301.433	806.43896
301.958	852.42839
302.483	821.50469
303.008	836.52339
303.533	846.64139
304.058	937.56666
304.582	796.36411
305.107	789.53101
305.631	871.41705
306.155	819.3658
306.679	824.37454
307.203	858.40795
307.727	878.47693
308.251	862.53285
308.775	835.40019
309.298	836.41677
309.822	911.63399
310.345	972.57536
310.868	869.45896
311.391	934.609
311.914	900.58325
312.437	934.45676
312.96	889.44401
313.482	934.5076
314.005	1021.73556
314.527	1007.81401
315.049	1039.77954
315.571	909.33194
316.093	948.59679
316.615	985.57638
317.137	1027.41415
317.659	1103.73815
318.18	1098.71087
318.702	1020.52711
319.223	1074.32768
319.744	1135.54492
320.265	1017.58268
320.786	1100.70804
321.307	1155.7882
321.828	1137.54666
322.348	1137.62345
322.869	1152.62194
323.389	865.80776
323.909	1251.65028
324.43	1302.83623
324.95	1214.58656
325.47	1156.69055
325.989	1210.6303
326.509	1192.43894
327.029	1263.53508
327.548	1230.49605
328.067	1345.74156
328.587	1302.81774
329.106	1270.53765
329.625	1378.06152
330.144	1279.557
330.662	1305.56652
331.181	1344.62042
331.7	1410.65273
332.218	1327.39745
332.736	1471.66458
333.255	1444.61313
333.773	1452.65564
334.291	1498.85469
334.808	1510.48702
335.326	1500.51302
335.844	1510.54351
336.361	1517.78386
336.879	1498.52468
337.396	1555.63434
337.913	1678.52464
338.43	1687.44943
338.947	1658.59515
339.464	1673.27118
339.981	1606.51969
340.497	1639.67044
341.014	1669.60406
341.53	1663.34831
342.046	1737.6052
342.562	1763.68347
343.078	1719.45341
343.594	1787.50238
344.11	1852.48156
344.626	1790.63378
345.141	1910.30626
345.657	1895.31324
346.172	1837.45513
346.687	1845.27883
347.202	1864.19064
347.717	1940.37583
348.232	2014.52568
348.747	1992.21469
349.261	1916.99303
349.776	1991.25027
350.29	2001.34428
350.805	2143.41375
351.319	2128.16704
351.833	1985.03688
352.347	2076.15137
352.861	2099.09246
353.374	2209.07074
353.888	2206.19682
354.401	2166.00474
354.915	2164.85459
355.428	2305.18089
355.941	2321.91921
356.454	2348.85017
356.967	2335.98304
357.48	2291.8922
357.993	2336.09066
358.505	2356.00944
359.018	2481.96943
359.53	2462.86947
360.042	2514.60269
360.554	2414.9145
361.066	2438.87767
361.578	2413.52927
362.09	2472.77771
362.602	2426.50329
363.113	2529.60266
363.625	2562.46235
364.136	2614.37185
364.647	2525.44282
365.158	2683.44647
365.669	2691.52968
366.18	2674.4648
366.691	2672.23934
367.201	2728.43121
367.712	2752.21199
368.222	2779.19053
368.733	2771.97638
369.243	2901.92331
369.753	2920.05256
370.263	2971.09237
370.773	3027.13582
371.282	3058.91778
371.792	2964.71009
372.301	3186.74853
372.811	3296.92524
373.32	3080.34449
373.829	3373.36744
374.338	3393.17065
374.847	3435.14364
375.356	3572.07345
375.865	3804.69888
376.373	3955.69608
376.882	4106.82888
377.39	4036.71274
377.898	4093.61608
378.407	4397.55063
378.915	4525.60169
379.423	4732.66518
379.93	4877.84387
380.438	5032.03247
380.946	5264.52131
381.453	5504.08843
381.96	5557.67288
382.468	6026.75805
382.975	6644.77195
383.482	6701.2274
383.989	6710.59903
384.495	7075.30105
385.002	7330.8724
385.509	7751.56381
386.015	8352.96399
386.521	8741.225
387.028	9010.59272
387.534	9276.14607
388.04	9830.99906
388.546	9632.32543
389.051	10078.07557
389.557	11175.45268
390.063	12366.19181
390.568	12677.6671
391.073	12919.59224
391.578	13431.1543
392.084	13468.40107
392.589	13701.62954
393.093	14807.18949
393.598	16361.04195
394.103	17886.14537
394.607	19462.29371
395.112	20784.45494
395.616	22013.72788
396.12	24022.72263
396.624	26298.19977
397.128	28686.78907
397.632	32486.36987
398.136	34951.04923
398.639	34937.54081
399.143	31847.54785
399.646	28888.45294
400.15	25083.82847
400.653	20124.16724
401.156	13866.23708
401.659	5169.95759
402.162	1054.15589
402.664	0
403.167	0
403.67	0
404.172	0
404.674	0
405.176	0
405.678	0
406.18	0
406.682	0
407.184	0
407.686	0
408.187	0
408.688	0
409.19	0
409.691	0
410.192	0
410.693	0
411.194	435.30976
411.694	4082.94878
412.195	8864.71461
412.696	12089.80453
413.196	12760.96929
413.696	12863.67595
414.196	13703.56671
414.696	17261.84252
415.196	21764.24417
415.696	29583.19008
416.196	36460.31858
416.695	40057.39798
417.195	40542.61148
417.694	38647.61596
418.194	36422.61919
418.693	33672.56126
419.192	33097.77529
419.691	32303.58495
420.19	31800.65565
420.688	31244.66363
421.187	30077.63174
421.685	28152.89752
422.184	25716.4997
422.682	22438.02401
423.18	18902.46793
423.678	16635.17348
424.176	15561.08623
424.674	14617.86145
425.172	14088.18912
425.669	13330.87868
426.167	12550.85716
426.664	11176.51834
427.161	10200.7728
427.659	9435.04946
428.156	8825.58457
428.652	8262.09924
429.149	7919.54271
429.646	7750.33409
430.143	7237.55821
430.639	6838.39443
431.135	6452.17162
431.632	6147.37457
432.128	5646.8469
432.624	5293.1291
433.12	5070.1725
433.616	4901.96966
434.111	4561.64269
434.607	4461.56628
435.103	4510.59023
435.598	4442.56346
436.093	4258.6123
436.588	3943.69305
437.083	3803.81321
437.578	3680.96339
438.073	3285.32065
438.568	3314.46916
439.062	3177.24145
439.557	3058.65808
440.051	2805.70441
440.546	2842.72043
441.04	2777.9551
441.534	2735.22818
442.028	2720.13598
442.522	2594.20299
443.015	2636.96452
443.509	2531.39555
444.002	2496.4187
444.496	2398.17433
444.989	2400.52571
445.482	2383.59446
445.975	2331.31202
446.468	2333.22032
446.961	2202.29286
447.454	2196.47479
447.947	2103.61061
448.439	2096.76726
448.931	2081.52269
449.424	2025.9467
449.916	2018.83292
450.408	1970.61664
450.9	2003.83049
451.392	1943.99266
451.884	1929.77505
452.375	1787.97286
452.867	1910.7997
453.358	1805.7665
453.849	1775.64979
454.341	1783.80329
454.832	1747.70729
455.323	1658.03104
455.814	1743.92009
456.304	1677.94217
456.795	1646.93612
457.285	1692.9271
457.776	1629.01485
458.266	1514.05247
458.756	1581.13875
459.247	1441.06257
459.737	1420.07148
460.226	1471.96773
460.716	1411.12067
461.206	1384.15315
461.695	1385.29055
462.185	1347.13382
462.674	1384.11334
463.163	1328.02263
463.653	1332.92198
464.142	1233.17625
464.63	1290.27297
465.119	1168.08175
465.608	1167.08801
466.096	1195.02681
466.585	1250.18919
467.073	1187.24755
467.561	1161.24926
468.05	1145.18152
468.538	1124.2977
469.026	1096.22927
469.513	1101.9924
470.001	1051.10269
470.489	1055.19133
470.976	986.12066
471.463	1016.30691
471.951	954.27958
472.438	895.10199
472.925	832.04027
473.412	899.22728
473.899	916.12524
474.385	749.07908
474.872	829.074
475.359	813.14405
475.845	845.93051
476.331	798.98514
476.817	762.12082
477.303	778.0644
477.789	639.9679
478.275	715.10081
478.761	753.11804
479.247	656.91841
479.732	607.98118
480.218	673.1482
480.703	633.03174
481.188	626.84448
481.673	639.94135
482.158	564.75967
482.643	686.16949
483.128	514.78649
483.612	534.84967
484.097	601.00801
484.581	573.91048
485.066	520.88115
485.55	467.70583
486.034	471.70292
486.518	460.76127
487.002	495.85673
487.486	468.82053
487.969	445.78655
488.453	419.78665
488.936	435.70614
489.42	400.64728
489.903	430.81228
490.386	421.47397
490.869	417.66814
491.352	413.76774
491.835	401.60964
492.318	367.6206
492.8	396.60329
493.283	368.71833
493.765	313.59806
494.247	353.63921
494.73	350.58976
495.212	360.6797
495.694	296.53776
496.175	214.40145
496.657	315.58758
497.139	327.43188
497.62	230.43253
498.102	273.53934
498.583	235.478
499.064	223.39534
499.545	276.49989
500.026	230.41232
500.507	214.40264
500.988	242.48921
501.469	208.42511
501.949	209.4255
502.43	200.38575
502.91	193.32119
503.39	238.49039
503.87	171.33021
504.35	211.41098
504.83	206.36644
505.31	189.37777
505.79	168.33245
506.269	222.42675
506.749	144.27293
507.228	112.22049
507.707	161.29539
508.187	195.38868
508.666	115.23808
509.145	118.23164
509.623	114.22601
510.102	114.23458
510.581	189.38338
511.059	119.25253
511.538	164.36025
512.016	133.26942
512.494	152.31277
512.972	144.2907
513.45	45.08903
513.928	99.20486
514.406	78.15956
514.884	105.23157
515.361	169.34093
515.839	162.30991
516.316	98.20211
516.793	110.24031
517.27	127.26457
517.747	104.2297
518.224	127.25137
518.701	108.2059
519.178	53.1138
519.654	98.20211
520.131	123.26136
520.607	133.28446
521.083	70.13852
521.56	94.19185
522.036	112.21145
522.512	113.2421
522.987	74.15179
523.463	82.16919
523.939	78.16722
524.414	111.22217
524.89	85.17557
525.365	32.06365
525.84	38.07872
526.315	71.14916
526.79	111.2163
527.265	44.08813
527.74	37.07944
528.215	99.20284
528.689	32.06231
529.164	78.14798
529.638	93.20983
530.112	-12.02515
530.587	105.19274
531.061	20.04262
531.534	25.05393
532.008	55.11621
532.482	69.13939
532.956	35.07881
533.429	85.18078
533.903	80.15541
534.376	64.12433
534.849	65.13282
535.322	100.20651
535.795	65.14041
536.268	23.04917
536.741	15.03222
537.213	67.13678
537.686	65.13938
538.158	22.0436
538.631	45.09754
539.103	32.06341
539.575	82.15026
540.047	8.01573
540.519	90.18978
540.991	78.16917
541.463	75.16055
541.934	81.1631
542.406	82.17177
542.877	67.13342
543.348	158.33186
543.82	110.23746
544.291	140.28535
544.762	129.26574
545.233	135.29449
545.703	108.2076
546.174	125.25298
546.645	146.29948
547.115	183.37783
547.585	152.30149
548.056	146.30137
548.526	169.33811
548.996	175.3605
549.466	265.54541
549.935	204.40577
550.405	259.46826
550.875	230.45556
551.344	237.47679
551.814	251.48005
552.283	275.49414
552.752	279.53205
553.221	274.48412
553.69	296.5353
554.159	354.70084
554.628	296.53503
555.096	305.63395
555.565	332.59796
556.033	402.76422
556.502	325.65021
556.97	294.54038
557.438	341.66926
557.906	291.58246
558.374	246.48041
558.842	293.59135
559.31	316.59398
559.777	276.56562
560.245	314.62573
560.712	293.57777
561.18	285.53294
561.647	350.65434
562.114	309.59471
562.581	359.74718
563.048	384.74138
563.514	382.78425
563.981	456.85887
564.448	372.69891
564.914	455.87531
565.381	463.86841
565.847	531.00906
566.313	558.04631
566.779	555.00459
567.245	528.00213
567.711	592.1348
568.176	537.96904
568.642	604.21253
569.108	603.18517
569.573	674.24876
570.038	683.10538
570.504	653.13796
570.969	717.40499
571.434	684.15104
571.899	765.39129
572.363	771.33069
572.828	893.50754
573.293	815.40235
573.757	855.45728
574.222	878.42808
574.686	840.38598
575.15	843.49472
575.614	822.40652
576.078	890.53543
576.542	895.49295
577.006	899.47668
577.469	949.73544
577.933	854.40214
578.396	860.52691
578.86	936.6116
579.323	840.49595
579.786	838.33232
580.249	788.34892
580.712	860.58066
581.175	834.55505
581.637	821.42775
582.1	780.29666
582.563	799.29009
583.025	763.41926
583.487	673.03899
583.95	649.07983
584.412	766.2133
584.874	658.26034
585.336	677.25651
585.797	674.12924
586.259	631.18552
586.721	596.11607
587.182	659.22304
587.643	573.04622
588.105	559.07065
588.566	579.97349
589.027	542.0568
589.488	529.98245
589.949	542.07083
590.41	545.84066
590.87	479.90552
591.331	560.97574
591.791	531.9955
592.252	453.85468
592.712	474.94501
593.172	418.78612
593.632	497.89546
594.092	462.85222
594.552	418.75057
595.011	428.81682
595.471	449.83384
595.931	424.78839
596.39	424.84886
596.849	395.77451
597.308	496.88336
597.768	391.84092
598.227	487.97116
598.685	465.88938
599.144	416.81588
599.603	412.82102
600.062	438.75864
600.52	365.68694
600.978	435.86262
601.437	481.91019
601.895	428.75314
602.353	530.95763
602.811	447.82269
603.269	505.99396
603.727	484.95688
604.184	472.87329
604.642	534.06733
605.099	524.99182
605.557	536.06688
606.014	478.84028
606.471	497.01552
606.928	567.96267
607.385	616.18487
607.842	680.21168
608.299	694.26351
608.755	699.31547
609.212	617.07961
609.668	614.06505
610.125	648.24294
610.581	856.5481
611.037	692.24839
611.493	627.19246
611.949	603.1679
612.405	633.99442
612.861	636.20697
613.316	609.17222
613.772	633.16419
614.227	607.15548
614.683	662.12605
615.138	589.11734
615.593	604.13498
616.048	622.15166
616.503	621.24528
616.958	627.27644
617.412	661.25603
617.867	586.04869
618.321	623.03759
618.776	599.08056
619.23	560.08627
619.684	604.11826
620.138	677.27337
620.592	590.18547
621.046	583.13609
621.5	556.12886
621.954	609.13231
622.407	573.06154
622.861	526.07951
623.314	543.04044
623.768	479.95476
624.221	443.74836
624.674	464.91992
625.127	516.02747
625.58	520.01334
626.033	481.91776
626.485	494.01417
626.938	455.94317
627.39	450.91259
627.843	457.92192
628.295	439.88967
628.747	391.825
629.199	414.83115
629.651	346.70522
630.103	420.8502
630.555	373.70615
631.006	416.86754
631.458	352.74908
631.909	375.77805
632.361	332.70468
632.812	348.728
633.263	368.71696
633.714	382.73858
634.165	348.76984
634.616	291.63906
635.067	289.59507
635.518	313.68881
635.968	314.58208
636.419	288.58193
636.869	270.59955
637.319	255.55152
637.769	230.48414
638.219	306.68005
638.669	232.52117
639.119	236.54341
639.569	236.5369
640.019	273.59272
640.468	202.43026
640.918	271.61414
641.367	229.48766
641.816	224.47649
642.265	220.48427
642.714	223.49097
643.163	222.48621
643.612	175.40224
644.061	133.27337
644.51	171.37507
644.958	179.3787
645.406	214.48843
645.855	205.48116
646.303	208.46649
646.751	163.35828
647.199	211.45987
647.647	167.37139
648.095	199.43814
648.543	160.31988
648.99	180.41448
649.438	162.3699
649.885	208.49439
650.333	134.25547
650.78	157.36779
651.227	91.21751
651.674	192.42246
652.121	126.29961
652.568	121.28734
653.015	167.40996
653.461	135.31353
653.908	189.42641
654.354	187.43274
654.801	112.258
655.247	169.36224
655.693	145.36841
656.139	144.33753
656.585	152.35614
657.031	100.22972
657.477	97.20764
657.922	140.31593
658.368	111.26997
658.813	148.33834
659.259	106.25099
659.704	67.15548
660.149	120.27577
660.594	158.36716
661.039	127.28548
661.484	149.35
661.929	138.31802
662.373	87.21728
662.818	99.24313
663.262	87.20803
663.707	137.34129
664.151	102.2472
664.595	78.1874
665.039	135.33129
665.483	141.35304
665.927	139.32358
666.371	69.15955
666.814	109.25884
667.258	111.26024
667.701	131.28188
668.145	154.3777
668.588	126.30628
669.031	55.1298
669.474	112.26817
669.917	90.20028
670.36	110.27109
670.803	163.38811
671.245	112.23669
671.688	153.36891
672.13	83.18681
672.573	146.36668
673.015	103.24695
673.457	107.23361
673.899	137.32946
674.341	110.26478
674.783	54.13043
675.225	119.29105
675.666	82.19731
676.108	110.2399
676.549	167.39137
676.991	109.2412
677.432	82.16561
677.873	129.29782
678.314	110.26257
678.755	122.29567
679.196	84.19366
679.637	157.38027
680.078	166.38529
680.518	159.36839
680.959	113.27061
681.399	113.27956
681.839	156.37636
682.28	121.29737
682.72	155.35242
683.16	114.28312
683.6	147.3345
684.039	143.29843
684.479	119.29127
684.919	105.24241
685.358	155.38977
685.798	142.36875
686.237	192.45812
686.676	189.43407
687.115	178.41396
687.554	150.35421
687.993	145.32059
688.432	181.40953
688.871	110.25056
689.309	117.27955
689.748	153.32029
690.186	198.46664
690.625	131.30664
691.063	154.36689
691.501	146.35888
691.939	136.33738
692.377	149.36117
692.815	106.25409
693.253	146.34984
693.69	149.32709
694.128	139.33516
694.565	129.30751
695.003	155.39005
695.44	149.34864
695.877	73.17222
696.314	130.28111
696.751	163.37046
697.188	137.31439
697.625	167.38185
698.061	186.44074
698.498	213.50715
698.934	177.42209
699.371	108.25503
699.807	186.43512
700.243	135.32403
700.679	172.38719
701.115	197.45859
701.551	176.41108
701.987	170.38049
702.422	156.36823
702.858	171.40387
703.294	201.44996
703.729	209.50316
704.164	123.29613
704.599	150.33365
705.035	199.43961
705.47	153.36961
705.904	165.38168
706.339	216.49518
706.774	177.41074
707.209	118.2728
707.643	152.36324
708.078	167.40312
708.512	141.35049
708.946	226.53179
709.38	132.31267
709.814	160.3643
710.248	181.43642
710.682	171.40309
711.116	145.34393
711.549	174.44389
711.983	157.36101
712.416	173.4059
712.85	195.47922
713.283	187.43755
713.716	208.51428
714.149	215.50443
714.582	189.42013
715.015	212.52205
715.448	182.4533
715.881	187.40618
716.313	153.35687
716.746	120.28282
717.178	154.36802
717.61	163.40974
718.043	182.44835
718.475	179.42931
718.907	215.53499
719.339	141.3189
719.77	116.2752
720.202	173.43268
720.634	173.41634
721.065	146.34476
721.497	183.44324
721.928	118.28952
722.359	92.22271
722.79	130.31055
723.221	158.39467
723.652	210.53269
724.083	148.33275
724.514	183.41625
724.945	158.36904
725.375	111.2581
725.806	188.46347
726.236	198.49958
726.666	181.42401
727.096	134.32792
727.526	144.36334
727.956	133.30203
728.386	182.44289
728.816	123.3103
729.246	98.23884
729.675	143.34988
730.105	174.4239
730.534	144.33582
730.964	198.49314
731.393	183.44957
731.822	175.44179
732.251	135.34106
732.68	181.42235
733.109	129.31703
733.537	165.39483
733.966	170.41771
734.395	167.38262
734.823	149.33535
735.251	130.31245
735.68	165.40969
736.108	134.33763
736.536	108.25563
736.964	139.32167
737.392	112.28028
737.82	121.29043
738.247	182.43093
738.675	187.44166
739.102	129.32101
739.53	108.27475
739.957	112.28764
740.384	147.36087
740.811	130.32837
741.238	118.2878
741.665	106.24652
742.092	149.3541
742.519	104.25753
742.945	127.30437
743.372	118.29177
743.798	165.41967
744.225	157.37052
744.651	116.29071
745.077	111.27672
745.503	124.3021
745.929	130.31114
746.355	209.51116
746.781	176.43101
747.207	73.17262
747.632	76.18633
748.058	154.38119
748.483	115.26528
748.908	117.2903
749.334	124.3039
749.759	142.33324
750.184	82.19649
750.609	110.27049
751.033	127.30007
751.458	100.22576
751.883	116.28724
752.307	118.27767
752.732	70.17581
753.156	119.29332
753.58	165.38849
754.005	136.3434
754.429	104.24502
754.853	134.33023
755.277	95.22577
755.7	163.40029
756.124	120.29693
756.548	76.18142
756.971	121.29495
757.394	104.26775
757.818	97.24968
758.241	133.33553
758.664	111.27983
759.087	101.2262
759.51	164.40386
759.933	74.17921
760.356	102.26141
760.778	140.34209
761.201	150.36229
761.623	133.32154
762.046	139.32855
762.468	165.39272
762.89	131.32207
763.312	138.3352
763.734	99.2388
764.156	130.31955
764.578	132.30298
765	111.27068
765.421	85.2162
765.843	137.35656
766.264	143.3435
766.686	105.26366
767.107	110.26639
767.528	77.19495
767.949	115.29157
768.37	71.17533
768.791	133.32033
769.212	98.24595
769.632	89.20809
770.053	95.24996
770.473	105.25538
770.894	149.36997
771.314	119.28389
771.734	77.1806
772.154	120.30678
772.575	104.24149
772.994	87.19853
773.414	85.20503
773.834	129.32066
774.254	80.19658
774.673	113.27473
775.093	58.14452
775.512	77.19036
775.931	118.29785
776.351	89.22123
776.77	70.17194
777.189	73.17462
777.607	76.19457
778.026	107.26588
778.445	22.05571
778.864	126.32122
779.282	91.21926
779.701	122.30585
780.119	58.14734
780.537	38.09571
780.955	137.34574
781.373	72.17875
781.791	80.18053
782.209	78.18069
782.627	73.1926
783.045	73.1688
783.462	71.18187
783.88	46.11974
784.297	70.17663
784.715	53.13676
785.132	82.19888
785.549	33.08334
785.966	88.22125
786.383	45.11157
786.8	52.12184
787.217	82.19476
787.633	37.09311
788.05	104.24673
788.466	110.25875
788.883	82.20905
789.299	61.1477
789.715	57.13936
790.131	79.19666
790.547	70.1753
790.963	99.2451
791.379	74.18732
791.795	87.19885
792.21	30.07098
792.626	64.1526
793.041	73.18054
793.457	69.17102
793.872	57.13484
794.287	-8.01942
794.702	60.14852
795.117	26.06523
795.532	19.04812
795.947	67.16192
796.362	70.1678
796.776	105.2454
797.191	73.17901
797.605	-2.00477
798.02	15.03696
798.434	63.14115
798.848	39.09677
799.262	66.16409
799.676	94.22893
800.09	79.19444
800.504	96.2324
800.918	52.12127
801.331	78.20443
801.745	81.18626
802.158	50.12562
802.572	56.13653
802.985	88.21255
803.398	75.17913
803.811	70.18022
804.224	69.17208
804.637	42.10079
805.05	50.1167
805.462	42.10393
805.875	51.13265
806.288	30.07301
806.7	44.11122
807.112	65.15126
807.525	58.14368
807.937	35.08716
808.349	8.02029
808.761	54.13342
809.173	71.1723
809.584	85.20983
809.996	12.02973
810.408	30.07796
810.819	76.17884
811.231	75.19359
811.642	143.33643
812.053	192.44634
812.464	242.557
812.875	208.5188
813.286	160.40544
813.697	117.27172
814.108	72.17607
814.519	65.14539
814.929	82.20883
815.34	59.14355
815.75	18.04616
816.16	57.14251
816.571	59.15356
816.981	80.18884
817.391	89.21436
817.801	33.08254
818.211	30.07216
818.62	40.09691
819.03	34.08395
819.44	67.1751
819.849	64.16149
820.259	62.15895
820.668	38.09403
821.077	27.06758
821.486	88.21143
821.895	106.26037
822.304	25.06671
822.713	45.10699
823.122	38.0954
823.531	46.10964
823.939	52.12716
824.348	33.08083
824.756	3.00761
825.164	82.20595
825.573	28.07078
825.981	42.10473
826.389	60.15102
826.797	36.09071
827.205	46.10614
827.612	61.1508
828.02	21.04979
828.428	50.12774
828.835	38.10047
829.243	32.07685
829.65	26.06514
830.057	26.06363
830.464	29.07119
830.871	69.16531
831.278	61.1477
831.685	95.2111
832.092	17.04203
832.499	22.04865
832.905	40.10176
833.312	52.11912
833.718	47.11755
834.124	60.13744
834.531	66.16642
834.937	76.19471
835.343	35.085
835.749	65.15203
836.155	39.10255
836.561	43.10623
836.966	27.06653
837.372	74.18806
837.777	43.10755
838.183	55.12272
838.588	44.10967
838.993	42.10275
839.399	-17.0422
839.804	-1.00247
840.209	16.04106
840.613	26.05836
841.018	49.12441
841.423	43.11069
841.828	27.06872
842.232	45.1119
842.637	39.09251
843.041	0
843.445	29.07319
843.849	39.09698
844.253	83.19664
844.657	31.07849
845.061	35.07993
845.465	-2.00489
845.869	17.03989
846.272	-8.01974
846.676	68.16437
847.079	55.13999
847.483	42.10518
847.886	40.09778
848.289	52.13892
848.692	17.04339
849.095	23.05567
849.498	114.28631
849.901	18.04168
850.304	36.08649
850.707	38.09729
851.109	101.2538
851.512	52.12801
851.914	-1.00255
852.316	15.03825
852.718	-15.03921
853.121	17.042
853.523	19.04479
853.925	-18.04756
854.326	9.02271
854.728	24.06209
855.13	7.01821
855.531	20.04816
855.933	40.09643
856.334	18.04521
856.736	-16.03642
857.137	31.07251
857.538	27.06826
857.939	40.09916
858.34	68.16548
858.741	64.16711
859.142	15.03635
859.542	21.05574
859.943	7.01756
860.343	-23.0578
860.744	33.08092
861.144	33.08089
861.544	-11.02678
861.945	11.02827
862.345	29.07133
862.745	28.06997
863.145	76.18114
863.544	75.18894
863.944	5.01194
864.344	32.07988
864.743	61.1513
865.143	52.13369
865.542	21.04908
865.941	49.12149
866.34	56.13424
866.74	30.08086
867.139	31.07461
867.537	46.11744
867.936	17.04124
868.335	47.1198
868.734	37.09488
869.132	3.00705
869.531	34.08262
869.929	-17.03934
870.327	30.0723
870.726	45.11247
871.124	48.11243
871.522	60.15275
871.92	38.09406
872.318	70.17073
872.715	52.12886
873.113	16.03929
873.511	18.04516
873.908	-16.04091
874.306	17.04258
874.703	71.1772
875.1	67.17108
875.497	39.09383
875.894	-7.01735
876.291	51.12529
876.688	43.11115
877.085	26.06275
877.482	59.14762
877.878	4.00972
878.275	46.11707
878.671	32.07165
879.068	79.18991
879.464	46.1114
879.86	18.04288
880.256	24.05958
880.652	19.04863
881.048	61.15102
881.444	47.11208
881.84	75.18995
882.236	34.08582
882.631	33.08134
883.027	47.11401
883.422	-26.06743
883.817	14.03544
884.213	20.05163
884.608	16.03952
885.003	14.03402
885.398	-6.01518
885.793	30.07564
886.188	0
886.582	79.20179
886.977	25.05969
887.371	34.08631
887.766	-5.01257
888.16	49.12242
888.554	37.09181
888.949	54.13562
889.343	57.13921
889.737	-17.04583
890.131	35.08811
890.525	54.1381
890.918	13.03296
891.312	68.16232
891.706	48.12606
892.099	56.14246
892.492	55.1187
892.886	-13.03221
893.279	35.08946
893.672	25.06397
894.065	76.18957
894.458	51.12834
894.851	47.11534
895.244	32.08204
895.637	41.09901
896.029	23.05657
896.422	54.13195
896.814	15.03756
897.206	-3.00722
897.599	71.17507
897.991	27.06562
898.383	-34.08172
898.775	28.06355
899.167	-17.0402
899.559	80.20157
899.951	17.04037
900.342	70.17751
900.734	-25.06291
901.125	31.08165
901.517	25.06169
901.908	57.13661
902.299	28.06878
902.69	40.09464
903.082	37.08989
903.473	9.02173
903.863	6.01544
904.254	28.06532
904.645	45.1121
905.036	14.03415
905.426	47.10777
905.817	30.07393
906.207	14.03361
906.597	0
906.987	49.12709
907.378	34.08628
907.768	25.0664
908.158	13.03194
908.547	18.04678
908.937	33.08497
909.327	31.0756
909.717	83.20962
910.106	40.09632
910.495	69.17177
910.885	73.18423
911.274	-3.00757
911.663	86.217
912.052	71.17462
912.441	71.17995
912.83	47.10803
913.219	55.14388
913.608	42.10309
913.997	29.07301
914.385	22.05288
914.774	37.09036
915.162	18.04318
915.55	42.10183
915.939	-16.04088
916.327	26.06521
916.715	14.03592
917.103	82.20075
917.491	73.17994
917.878	9.02231
918.266	28.07291
918.654	34.08714
919.041	-7.01846
919.429	-20.04787
919.816	16.04082
920.203	48.11651
920.591	22.05486
920.978	50.1225
921.365	36.09471
921.752	23.05514
922.139	23.05026
922.525	24.05795
922.912	11.02703
923.299	47.11692
923.685	14.03676
924.072	34.0787
924.458	1.0025
924.844	7.01746
925.231	45.10488
925.617	-12.03086
926.003	71.18085
926.389	22.05579
926.774	30.07632
927.16	29.07232
927.546	2.00515
927.931	63.15689
928.317	25.0579
928.702	20.04761
929.088	14.03335
929.473	-13.03345
929.858	-14.03426
930.243	20.04829
930.628	9.02207
931.013	25.06226
931.398	79.18071
931.783	37.09765
932.167	5.01233
932.552	30.07546
932.937	58.14378
933.321	29.07306
933.705	0
934.09	43.10883
934.474	24.05731
934.858	8.0209
935.242	-4.00937
935.626	25.06428
936.009	28.07475
936.393	26.06645
936.777	21.05406
937.16	-3.00788
937.544	50.11784
937.927	18.04594
938.311	46.1124
938.694	44.1165
939.077	17.04096
939.46	46.11307
939.843	14.02946
940.226	44.113
940.609	0
940.991	54.13738
941.374	10.02463
941.757	50.12341
942.139	-11.02502
942.522	41.0971
942.904	32.0772
943.286	44.11194
943.668	78.20109
944.05	57.14024
944.432	15.03726
944.814	72.17666
945.196	13.0319
945.578	-12.02886
945.959	24.05654
946.341	96.23371
946.722	50.11738
947.104	14.0337
947.485	20.04683
947.866	-5.01272
948.247	-5.01274
948.628	33.08077
949.009	36.09242
949.39	37.09234
949.771	42.09787
950.152	21.05182
950.532	-42.10507
950.913	33.07987
951.293	9.02448
951.674	63.15202
952.054	7.01748
952.434	13.03249
952.814	18.0431
953.194	39.10227
953.574	68.16697
953.954	-3.0072
954.334	26.06509
954.714	-27.06675
955.093	55.13512
955.473	8.02016
955.853	52.13457
956.232	36.09889
956.611	78.18612
956.99	35.0882
957.37	27.06909
957.749	47.11221
958.128	8.02031
958.506	19.04955
958.885	31.07852
959.264	-20.04965
959.643	27.06174
960.021	0
960.4	12.02741
960.778	69.16939
961.156	-14.0355
961.535	1.00235
961.913	32.07516
962.291	-7.01814
962.669	5.01277
963.047	37.09464
963.424	26.06663
963.802	24.0593
964.18	40.1014
964.557	16.03711
964.935	43.10203
965.312	32.08359
965.69	47.11777
966.067	15.03677
966.444	34.08404
966.821	33.08533
967.198	57.13812
967.575	46.1132
967.952	34.08038
968.329	17.04163
968.705	31.06676
969.082	7.01809
969.458	9.02176
969.835	52.12655
970.211	2.00518
970.587	40.09978
970.963	25.06442
971.339	43.11241
971.715	9.02264
972.091	29.07169
972.467	57.142
972.843	28.06977
973.219	45.10818
973.594	30.07874
973.97	55.13081
974.345	-1.00242
974.721	47.11389
975.096	23.05594
975.471	38.09036
975.846	43.10345
976.221	-16.04111
976.596	-31.07546
976.971	17.04223
977.346	31.07245
977.72	28.07161
978.095	26.06747
978.469	38.09092
978.844	45.11324
979.218	-15.0364
979.593	78.1859
979.967	57.13869
980.341	3.00697
980.715	19.04814
981.089	31.07787
981.463	-12.0279
981.837	0
982.21	46.10715
982.584	14.03404
982.957	-20.05057
983.331	28.06648
983.704	-15.0373
984.078	27.06682
984.451	52.12985
984.824	33.08062
985.197	13.0318
985.57	34.08552
985.943	33.08176
986.316	95.23149
986.688	56.1349
987.061	40.09394
987.434	20.05238
987.806	25.06092
988.179	4.00952
988.551	78.19689
988.923	41.10114
989.295	29.07274
989.667	-25.06058
990.039	27.06699
990.411	37.08539
990.783	32.07395
991.155	12.02904
991.527	71.17417
991.898	5.01256
992.27	4.00998
992.641	60.15026
993.012	40.09431
993.384	28.06707
993.755	20.05126
994.126	43.10357
994.497	13.03213
994.868	64.14661
995.239	41.09953
995.61	-23.05863
995.98	0
996.351	-26.06528
996.722	-36.08491
997.092	-12.02875
997.462	-5.0118
997.833	6.01434
998.203	14.03417
998.573	26.06502
998.943	10.02363
999.313	-27.06565
999.683	2.00484
1000.053	28.06471
1000.423	-19.04676
1000.792	41.10642
1001.162	-12.02987
1001.531	47.11594
1001.901	39.0974
1002.27	45.1007
1002.639	41.10491
1003.009	-17.04094
1003.378	22.05652
1003.747	44.10406
1004.116	-4.00967
1004.485	49.11712
1004.853	17.04332
1005.222	46.11607
1005.591	22.05252
1005.959	-30.06869
1006.328	15.034
1006.696	12.02915
1007.064	20.05057
1007.433	40.10014
1007.801	61.14942
1008.169	35.08861
1008.537	-3.00672
1008.905	1.00235
1009.273	39.09652
1009.64	14.03362
1010.008	2.00481
1010.375	89.21452
1010.743	44.10172
1011.11	12.0286
1011.478	33.08191
1011.845	24.05672
1012.212	7.01598
1012.579	24.05919
1012.946	27.06454
1013.313	41.09774
1013.68	28.06321
1014.047	12.0288
1014.414	-8.0191
1014.78	-8.02009
1015.147	6.01463
1015.513	17.04121
1015.88	67.17078
1016.246	94.23012
1016.612	53.12124
1016.978	-2.00495
1017.344	28.06946
1017.71	35.08557
1018.076	32.07571
1018.442	73.18699
1018.808	18.04524
1019.174	24.06047
1019.539	54.1242
1019.905	-14.03342
1020.27	13.03229
1020.636	49.11748
1021.001	29.06969
1021.366	-20.04865
1021.731	65.16667
1022.096	-5.01273
1022.461	59.13935
1022.826	35.0834
1023.191	1.00264
1023.556	40.09391
1023.92	0
1024.285	4.00984
1024.649	40.09818
1025.014	65.16052
1025.378	27.06814
1025.742	14.03498
1026.107	34.07713
1026.471	16.03759
1026.835	-6.01502
1027.199	-11.02677
1027.562	40.09314
1027.926	44.10768
1028.29	40.10136
1028.654	16.03705
1029.017	67.16412
1029.381	-2.00482
1029.744	39.09962
1030.107	76.17884
1030.471	25.06012
1030.834	76.17193
1031.197	69.16556
1031.56	26.06161
1031.923	18.04678
1032.286	55.129
1032.648	74.1761
1033.011	4.00926
1033.374	42.09883
1033.736	25.06598
1034.099	37.09036
1034.461	20.05077
1034.823	18.04506
1035.185	35.0883
1035.548	37.09023
1035.91	51.12209
1036.272	59.13399
1036.634	67.16332
1036.995	41.0965
1037.357	23.05621
1037.719	45.10949
1038.08	55.13041
1038.442	1.00239
1038.803	54.12949
1039.165	9.02287
1039.526	38.09199
1039.887	57.13614
1040.248	25.06185
1040.609	30.07437
1040.97	16.03933
1041.331	3.00765
1041.692	39.09118
1042.053	15.03438
1042.413	38.08872
1042.774	16.03914
1043.134	45.10719
1043.495	13.03288
1043.855	48.11642
1044.215	25.0623
1044.576	-1.00241
1044.936	38.08729
1045.296	34.08506
1045.656	34.08364
1046.016	55.13257
1046.375	3.00734
1046.735	-9.02064
1047.095	40.09376
1047.454	39.0828
1047.814	32.07715
1048.173	16.03846
1048.533	35.08039
1048.892	-16.03886
1049.251	38.09554
1049.61	8.01984
1049.969	-6.01429
1050.328	22.04796
1050.687	30.07323
1051.046	43.10478
1051.405	14.03504
1051.763	-12.02792
1052.122	17.04263
1052.48	23.05665
1052.839	32.07551
1053.197	37.08725
1053.555	91.20565
1053.914	36.08823
1054.272	30.07276
1054.63	9.02216
1054.988	7.01676
1055.345	-20.04369
1055.703	23.05561
1056.061	31.07996
1056.419	34.0882
1056.776	79.19042
1057.134	22.05119
1057.491	63.15729
1057.848	34.08484
1058.206	-4.0095
1058.563	37.08174
1058.92	38.08775
1059.277	32.07915
1059.634	60.14081
1059.991	89.21151
1060.348	24.05449
1060.704	9.0216
1061.061	97.22314
1061.418	12.02929
1061.774	8.01989
1062.131	8.02129
1062.487	22.05169
1062.843	36.08993
1063.199	19.04749
1063.555	7.01635
1063.911	28.07095
1064.267	52.10835
1064.623	1.00245
1064.979	102.23909
1065.335	53.12654
1065.691	54.12925
1066.046	30.0662
1066.402	-32.07386
1066.757	62.15605
1067.112	53.12992
1067.468	-41.09845
1067.823	54.12964
1068.178	17.04135
1068.533	36.08744
1068.888	35.08382
1069.243	47.11598
1069.598	16.0391
1069.952	-22.05023
1070.307	-38.09551
1070.662	0
1071.016	-7.01586
1071.371	68.15402
1071.725	49.11717
1072.079	32.07717
1072.434	30.07312
1072.788	19.04548
1073.142	35.08627
1073.496	22.05243
1073.85	20.04662
1074.203	31.07543
1074.557	55.14603
1074.911	43.1027
1075.265	47.10924
1075.618	61.14853
1075.971	36.0858
1076.325	-3.00769
1076.678	14.03223
1077.031	4.00913
1077.385	24.05312
1077.738	-14.03199
1078.091	-73.17001
1078.444	44.10221
1078.796	17.04193
1079.149	31.07731
1079.502	40.0946
1079.855	-2.00471
1080.207	61.14986
1080.56	-14.03656
1080.912	56.13608
1081.264	5.01213
1081.617	32.07819
1081.969	19.04816
1082.321	-9.0222
1082.673	0
1083.025	29.06903
1083.377	15.03242
1083.728	24.05623
1084.08	-2.00504
1084.432	-19.04639
1084.783	3.00709
1085.135	26.06539
1085.486	6.01384
1085.838	-3.00745
1086.189	43.10443
1086.54	31.07424
1086.891	2.0051
1087.242	-16.0394
1087.593	47.1144
1087.944	48.10859
1088.295	59.13377
1088.646	34.08259
1088.996	-30.07331
1089.347	8.01977
1089.698	-35.08401
1090.048	28.07294
1090.398	58.1342
1090.749	40.09581
1091.099	-6.01523
1091.449	24.06002
1091.799	37.09278
1092.149	-34.08413
1092.499	-9.02218
1092.849	39.09923
1093.199	59.14752
1093.548	-17.04133
1093.898	22.05527
1094.248	31.07985
1094.597	19.04872
1094.947	18.04823
1095.296	17.0422
1095.645	24.06265
1095.994	58.13898
1096.343	32.08072
1096.692	-10.02651
1097.041	-25.06845
1097.39	52.13027
1097.739	23.06001
1098.088	84.22359
1098.437	5.01322
1098.785	60.16135
1099.134	54.14316
1099.482	60.16461
1099.83	48.12606
1100.179	-11.02896
1100.527	33.08785
1100.875	10.02659
1101.223	61.16153
1101.571	53.14626
1101.919	0
1102.267	39.10989
1102.615	-9.02898
1102.962	20.06432
1103.31	14.04494
1103.658	18.05793
