Data from N2 R5 sample 8_Subt2__5__12-01-55-365.txt Node

Date: Fri Aug 29 12:01:55 PDT 2025
User: uwsun
Spectrometer: HDX01956
Trigger mode: 0
Integration Time (sec): 5.000000E-1
Scans to average: 1
Nonlinearity correction enabled: true
Boxcar width: 0
Storing dark spectrum: false
XAxis mode: Wavelengths
Number of Pixels in Spectrum: 2068
>>>>>Begin Spectral Data<<<<<
194.03	165.45129
194.578	186.57456
195.127	165.50328
195.676	174.53178
196.225	227.57918
196.773	245.64523
197.321	291.74321
197.87	374.86144
198.418	376.8536
198.966	348.79965
199.513	327.7163
200.061	313.70008
200.609	350.82511
201.156	323.61357
201.704	337.74536
202.251	378.87759
202.798	347.79401
203.345	401.86465
203.892	372.8188
204.438	355.74379
204.985	382.77788
205.532	376.86605
206.078	439.92668
206.624	382.81326
207.17	433.86187
207.716	326.69375
208.262	373.63144
208.808	348.74379
209.354	380.80092
209.899	445.97554
210.445	336.72995
210.99	382.79522
211.535	442.89104
212.08	386.77851
212.625	377.82545
213.17	373.82875
213.715	332.63759
214.259	364.73988
214.804	431.92215
215.348	365.72753
215.892	353.74189
216.436	425.85027
216.98	374.72034
217.524	321.6678
218.068	376.83073
218.612	374.82769
219.155	404.82268
219.698	353.73797
220.242	337.74629
220.785	309.64055
221.328	332.73384
221.871	318.72108
222.414	340.75215
222.956	294.62811
223.499	308.61349
224.041	388.79225
224.583	404.75904
225.126	337.65266
225.668	308.66486
226.21	327.72897
226.751	302.5811
227.293	334.67425
227.835	293.63695
228.376	357.72648
228.918	356.7964
229.459	314.69232
230	319.67191
230.541	367.7407
231.082	350.74612
231.622	376.7573
232.163	364.77158
232.704	322.70579
233.244	338.73961
233.784	372.80299
234.324	258.50073
234.864	331.65884
235.404	341.71572
235.944	350.73023
236.484	369.81033
237.023	329.68322
237.563	322.65331
238.102	341.70751
238.641	346.77148
239.18	306.62851
239.719	402.87851
240.258	325.64207
240.797	307.64749
241.335	379.81056
241.874	337.5581
242.412	357.74831
242.95	332.69237
243.488	373.73829
244.026	354.70839
244.564	388.68345
245.102	330.64568
245.64	338.7171
246.177	344.67148
246.715	345.72667
247.252	357.71456
247.789	410.65673
248.326	274.5798
248.863	339.64334
249.4	394.77054
249.936	337.59841
250.473	374.75188
251.009	328.65271
251.546	329.62924
252.082	379.71259
252.618	378.72104
253.154	345.71932
253.69	385.74349
254.226	330.68637
254.761	374.72138
255.297	342.64508
255.832	329.67712
256.367	373.75731
256.903	359.67631
257.438	391.78986
257.972	363.69461
258.507	356.69853
259.042	350.65304
259.576	319.58885
260.111	365.72787
260.645	342.63811
261.179	347.69712
261.713	374.70925
262.247	352.70015
262.781	333.59653
263.315	419.87166
263.849	383.8223
264.382	432.84046
264.915	427.84201
265.449	341.71067
265.982	435.83481
266.515	400.83121
267.048	432.76098
267.58	407.75395
268.113	378.68921
268.646	380.80162
269.178	336.64061
269.71	436.79619
270.243	435.83522
270.775	344.75591
271.307	388.79981
271.838	420.84903
272.37	408.85199
272.902	390.75224
273.433	408.74731
273.965	411.84702
274.496	434.91472
275.027	367.77845
275.558	400.82083
276.089	380.78789
276.62	454.97618
277.15	401.84239
277.681	418.75945
278.211	455.93685
278.741	406.7429
279.272	382.73256
279.802	424.89364
280.332	428.84061
280.861	412.83362
281.391	441.82592
281.921	451.90772
282.45	447.93735
282.98	418.92235
283.509	451.83506
284.038	423.79964
284.567	467.90315
285.096	445.894
285.625	423.79377
286.153	438.84686
286.682	414.7832
287.21	384.77377
287.739	456.88547
288.267	454.90346
288.795	495.07814
289.323	425.81483
289.851	505.95842
290.378	419.77269
290.906	411.8196
291.433	483.986
291.961	395.735
292.488	473.96471
293.015	420.80855
293.542	463.95761
294.069	444.8922
294.596	474.95994
295.122	471.91045
295.649	457.81283
296.175	502.9841
296.702	506.99053
297.228	493.97079
297.754	497.88675
298.28	467.847
298.806	490.94287
299.332	483.84217
299.857	407.74228
300.383	486.99865
300.908	394.77493
301.433	492.95037
301.958	487.89858
302.483	489.97197
303.008	498.98594
303.533	576.18869
304.058	542.00325
304.582	430.80989
305.107	476.99353
305.631	523.9346
306.155	434.80096
306.679	496.90259
307.203	463.84401
307.727	538.98948
308.251	505.9818
308.775	496.90946
309.298	477.88762
309.822	567.1059
310.345	570.02734
310.868	529.97121
311.391	544.03357
311.914	620.16968
312.437	640.08268
312.96	543.96836
313.482	548.98157
314.005	555.06092
314.527	597.18714
315.049	620.17998
315.571	559.9076
316.093	627.14735
316.615	615.08685
317.137	623.97019
317.659	672.18936
318.18	686.19592
318.702	635.05996
319.223	633.90458
319.744	637.00695
320.265	579.0151
320.786	675.17701
321.307	687.20808
321.828	762.16205
322.348	692.12472
322.869	661.07449
323.389	690.6936
323.909	676.06234
324.43	719.19991
324.95	614.96537
325.47	726.20068
325.989	745.15593
326.509	657.94603
327.029	767.09619
327.548	778.0977
328.067	819.2482
328.587	765.24966
329.106	724.04715
329.625	800.40398
330.144	731.06289
330.662	809.14345
331.181	766.11433
331.7	824.17249
332.218	827.04377
332.736	834.16965
333.255	777.0883
333.773	817.15262
334.291	908.35537
334.808	873.0892
335.326	868.10308
335.844	908.15506
336.361	889.28415
336.879	879.12062
337.396	966.2523
337.913	968.15765
338.43	1043.16335
338.947	961.199
339.464	974.00493
339.981	969.16853
340.497	1026.30547
341.014	1004.23776
341.53	979.05781
342.046	1066.27416
342.562	1078.32985
343.078	1040.15952
343.594	1148.25409
344.11	1079.19015
344.626	1046.26908
345.141	1069.07238
345.657	1209.1499
346.172	1120.20026
346.687	1155.10141
347.202	1095.0134
347.717	1162.16766
348.232	1213.29274
348.747	1143.05487
349.261	1166.91515
349.776	1226.11546
350.29	1248.1893
350.805	1313.27055
351.319	1249.07839
351.833	1221.96866
352.347	1280.07433
352.861	1245.02469
353.374	1382.06458
353.888	1362.14628
354.401	1298.99087
354.915	1330.89493
355.428	1399.15989
355.941	1343.97107
356.454	1381.93758
356.967	1390.02729
357.48	1385.95534
357.993	1432.11132
358.505	1439.05991
359.018	1520.07327
359.53	1477.9922
360.042	1510.82023
360.554	1460.0098
361.066	1448.9879
361.578	1436.73659
362.09	1524.93468
362.602	1518.72156
363.113	1513.82474
363.625	1519.73458
364.136	1654.67593
364.647	1506.70894
365.158	1675.75517
365.669	1640.82249
366.18	1599.77089
366.691	1663.59518
367.201	1607.76477
367.712	1565.61776
368.222	1712.59158
368.733	1741.41479
369.243	1721.43416
369.753	1785.52802
370.263	1808.57605
370.773	1755.64374
371.282	1796.48003
371.792	1849.25293
372.301	1926.36378
372.811	1941.55555
373.32	1910.96987
373.829	1992.10077
374.338	2114.87012
374.847	2136.85393
375.356	2199.82
375.865	2268.4552
376.373	2454.40891
376.882	2495.62786
377.39	2552.40929
377.898	2504.29972
378.407	2730.97054
378.915	2711.89926
379.423	2912.82885
379.93	3028.69817
380.438	3122.64038
380.946	3296.57198
381.453	3345.57603
381.96	3680.69318
382.468	3817.03389
382.975	4184.31601
383.482	4061.61142
383.989	4187.51602
384.495	4364.53331
385.002	4647.49904
385.509	4877.12517
386.015	5185.57669
386.521	5476.75996
387.028	5521.48252
387.534	5851.81493
388.04	6181.18577
388.546	6036.05758
389.051	6597.63037
389.557	7162.43901
390.063	7701.62004
390.568	7601.16262
391.073	7886.7133
391.578	8226.29857
392.084	8001.77413
392.589	8703.39491
393.093	9361.29899
393.598	10317.91293
394.103	11280.27024
394.607	12251.84356
395.112	13072.18161
395.616	13530.24844
396.12	14260.0627
396.624	15695.37248
397.128	17283.25452
397.632	19099.2371
398.136	19939.4472
398.639	21219.54347
399.143	24456.23792
399.646	26829.83609
400.15	24382.7657
400.653	20033.93244
401.156	13866.23708
401.659	5169.95759
402.162	1054.15589
402.664	0
403.167	0
403.67	0
404.172	0
404.674	0
405.176	0
405.678	0
406.18	0
406.682	0
407.184	0
407.686	0
408.187	0
408.688	0
409.19	0
409.691	0
410.192	0
410.693	0
411.194	435.30976
411.694	4082.94878
412.195	8864.71461
412.696	12089.80453
413.196	12760.96929
413.696	12863.67595
414.196	13703.56671
414.696	17261.84252
415.196	21764.24417
415.696	29583.19008
416.196	32226.41651
416.695	25766.22821
417.195	23619.69588
417.694	22841.79797
418.194	20619.63329
418.693	19595.81953
419.192	19474.39586
419.691	18856.81815
420.19	18597.0712
420.688	18301.87826
421.187	17521.86077
421.685	16012.00619
422.184	14070.21166
422.682	12072.03756
423.18	10530.06246
423.678	9606.50279
424.176	8536.49731
424.674	8345.03025
425.172	7759.72409
425.669	7495.22764
426.167	6748.81171
426.664	6206.87426
427.161	5426.85154
427.659	5130.64328
428.156	4799.95467
428.652	4685.74513
429.149	4420.15697
429.646	4252.85264
430.143	4071.06178
430.639	3801.77939
431.135	3533.57374
431.632	3347.57573
432.128	3044.65176
432.624	2910.77798
433.12	2848.71192
433.616	2882.71193
434.111	2721.85295
434.607	2586.01665
435.103	2675.93222
435.598	2396.11379
436.093	2305.44944
436.588	2254.5122
437.083	2080.70499
437.578	2009.85272
438.073	1838.07979
438.568	1777.24166
439.062	1695.01667
439.557	1667.31059
440.051	1584.25835
440.546	1494.30819
441.04	1577.43772
441.534	1478.62988
442.028	1536.55404
442.522	1460.56366
443.015	1397.4185
443.509	1430.67864
444.002	1258.67527
444.496	1291.48821
444.989	1358.72686
445.482	1265.75774
445.975	1258.55977
446.468	1284.49911
446.961	1182.509
447.454	1260.6322
447.947	1151.68695
448.439	1171.79029
448.931	1143.62488
449.424	1206.90725
449.916	1088.79668
450.408	1011.63622
450.9	968.74994
451.392	982.84229
451.884	959.70679
452.375	909.78735
452.867	1018.74034
453.358	898.66641
453.849	895.59603
454.341	874.67535
454.832	852.61033
455.323	814.76611
455.814	886.74451
456.304	872.74889
456.795	834.72541
457.285	898.75327
457.776	884.79835
458.266	802.77808
458.756	860.86004
459.247	642.67606
459.737	697.7251
460.226	729.68703
460.716	651.7153
461.206	723.7948
461.695	673.82524
462.185	686.76069
462.674	671.73163
463.163	662.68487
463.653	671.63649
464.142	620.74948
464.63	609.77486
465.119	575.67367
465.608	583.68458
466.096	545.61298
466.585	576.70975
467.073	564.74214
467.561	588.7764
468.05	556.71242
468.538	589.81626
469.026	522.71463
469.513	462.5384
470.001	501.64292
470.489	530.71852
470.976	447.61243
471.463	444.68373
471.951	488.75598
472.438	448.63969
472.925	434.6189
473.412	395.62855
473.899	426.61514
474.385	427.67755
474.872	401.59584
475.359	395.63035
475.845	313.41644
476.331	372.52874
476.817	319.53355
477.303	313.49373
477.789	339.55955
478.275	308.53172
478.761	308.51982
479.247	341.5255
479.732	247.43995
480.218	268.50772
480.703	279.50056
481.188	222.33955
481.673	203.33914
482.158	147.22542
482.643	296.55831
483.128	205.34248
483.612	213.37015
484.097	271.49622
484.581	211.37017
485.066	178.32963
485.55	132.21961
486.034	221.35483
486.518	147.2644
487.002	157.29619
487.486	166.31417
487.969	132.25239
488.453	164.32727
488.936	135.23771
489.42	162.2798
489.903	172.34547
490.386	138.17227
490.869	99.17304
491.352	146.28945
491.835	152.24828
492.318	88.16011
492.8	90.14965
493.283	100.20763
493.765	62.12568
494.247	116.22277
494.73	55.10015
495.212	105.21065
495.694	57.10986
496.175	-4.00791
496.657	152.295
497.139	106.15042
497.62	-48.09645
498.102	49.1019
498.583	26.0554
499.064	-10.01881
499.545	38.07301
500.026	-32.06125
500.507	8.01582
500.988	48.10135
501.469	-2.00428
501.949	6.01278
502.43	-10.02026
502.91	-11.01934
503.39	6.01301
503.87	-16.03228
504.35	47.09512
504.83	0
505.31	-62.13114
505.79	-56.11663
506.269	4.00809
506.749	-101.20291
507.228	-41.08362
507.707	-2.00382
508.187	51.10506
508.666	-34.07274
509.145	-86.17696
509.623	-58.11962
510.102	-9.01903
510.581	-14.02972
511.059	-27.05912
511.538	-34.07779
512.016	-17.03562
512.494	-17.03631
512.972	-53.11184
513.45	-108.22133
513.928	-41.0875
514.406	-121.25868
514.884	-40.09089
515.361	-55.11667
515.839	-97.19721
516.316	-53.11301
516.793	-48.10836
517.27	-59.12799
517.747	-37.08413
518.224	-49.10099
518.701	-26.05118
519.178	-124.27639
519.654	-37.07862
520.131	-97.21599
520.607	-63.14046
521.083	-79.16179
521.56	-91.19354
522.036	-91.18037
522.512	-34.07516
522.987	-84.17845
523.463	-59.12559
523.939	-48.10571
524.414	-48.09962
524.89	-70.14962
525.365	-85.17368
525.84	-109.23323
526.315	-87.18914
526.79	-41.08279
527.265	-49.10026
527.74	-52.11379
528.215	-62.13166
528.689	-47.09325
529.164	-51.09981
529.638	-49.11376
530.112	-142.30614
530.587	-74.14197
531.061	-115.25224
531.534	-46.10075
532.008	-82.17846
532.482	-57.11848
532.956	-121.28113
533.429	-88.1942
533.903	-42.08397
534.376	-87.17511
534.849	-49.10271
535.322	-74.15879
535.795	-91.20313
536.268	-62.13499
536.741	-41.08913
537.213	-71.14949
537.686	-80.17691
538.158	-70.1417
538.631	-42.09273
539.103	-93.18968
539.575	-43.08128
540.047	-40.07952
540.519	-38.08238
540.991	-40.08894
541.463	-45.09883
541.934	-36.07444
542.406	-95.20679
542.877	-26.0529
543.348	37.07979
543.82	17.03743
544.291	10.02099
544.762	-5.01061
545.233	3.00673
545.703	-19.03764
546.174	49.1009
546.645	10.02114
547.115	17.03641
547.585	56.11357
548.056	-3.0064
548.526	83.16936
548.996	129.26849
549.466	139.2942
549.935	114.23151
550.405	132.2464
550.875	111.22599
551.344	155.31772
551.814	134.26355
552.283	192.35236
552.752	176.34403
553.221	171.31026
553.69	271.49322
554.159	219.44728
554.628	248.45376
555.096	240.50608
555.565	268.49061
556.033	303.5899
556.502	259.52609
556.97	313.57256
557.438	304.60185
557.906	330.65455
558.374	300.57836
558.842	307.61761
559.31	378.69969
559.777	336.67923
560.245	462.88899
560.712	392.75501
561.18	460.82304
561.647	489.88285
562.114	500.91818
562.581	562.11509
563.048	592.08454
563.514	624.20951
563.981	667.19
564.448	695.20112
564.914	708.27797
565.381	831.41702
565.847	846.48647
566.313	836.46195
566.779	886.47101
567.245	947.61717
567.711	965.68597
568.176	989.58012
568.642	1027.86332
569.108	1033.82782
569.573	1162.89636
570.038	1183.65279
570.504	1213.80984
570.969	1244.13827
571.434	1259.79687
571.899	1312.06207
572.363	1406.0286
572.828	1422.06585
573.293	1465.09714
573.757	1465.09974
574.222	1439.9851
574.686	1458.00766
575.15	1542.25325
575.614	1475.09593
576.078	1574.2378
576.542	1553.13968
577.006	1579.12194
577.469	1624.47872
577.933	1479.02068
578.396	1461.20066
578.86	1501.20666
579.323	1433.17089
579.786	1438.90838
580.249	1383.00059
580.712	1437.26727
581.175	1338.18901
581.637	1358.03497
582.1	1317.87573
582.563	1294.80646
583.025	1246.04437
583.487	1157.54037
583.95	1174.67931
584.412	1238.70342
584.874	1115.90407
585.336	1094.8237
585.797	1064.59719
586.259	1094.82569
586.721	966.64662
587.182	1035.74432
587.643	960.58467
588.105	919.6096
588.566	893.37357
589.027	869.56488
589.488	860.46543
589.949	812.50423
590.41	716.0484
590.87	829.43258
591.331	758.25099
591.791	758.34055
592.252	661.18231
592.712	684.29571
593.172	691.21132
593.632	685.17375
594.092	600.06718
594.552	658.10778
595.011	576.05835
595.471	637.1264
595.931	545.98298
596.39	589.13257
596.849	618.14651
597.308	615.0603
597.768	559.15691
598.227	631.21465
598.685	629.15392
599.144	626.16543
599.603	666.24742
600.062	565.94579
600.52	565.00973
600.978	566.08643
601.437	610.11646
601.895	603.01137
602.353	636.11674
602.811	624.09619
603.269	644.22456
603.727	621.18676
604.184	607.08384
604.642	694.33646
605.099	660.20634
605.557	649.25835
606.014	669.11625
606.471	673.32112
606.928	712.16057
607.385	771.42849
607.842	793.37239
608.299	855.49409
608.755	790.45394
609.212	792.32318
609.668	805.32695
610.125	852.55496
610.581	888.59305
611.037	839.4576
611.493	804.46422
611.949	811.49379
612.405	770.16108
612.861	835.50889
613.316	814.49071
613.772	798.40779
614.227	808.46408
614.683	871.39962
615.138	819.46787
615.593	789.41616
616.048	829.45691
616.503	902.69288
616.958	881.69113
617.412	826.50741
617.867	789.33944
618.321	813.28468
618.776	805.37699
619.23	794.45547
619.684	774.37317
620.138	851.53318
620.592	747.44732
621.046	771.4363
621.5	728.42086
621.954	726.3112
622.407	759.34197
622.861	672.33436
623.314	709.30491
623.768	676.28427
624.221	662.0511
624.674	684.28498
625.127	639.23657
625.58	673.26459
626.033	598.10713
626.485	641.27301
626.938	609.21724
627.39	610.19021
627.843	535.05821
628.295	596.16285
628.747	566.14658
629.199	506.99428
629.651	459.91149
630.103	482.96186
630.555	475.87687
631.006	500.02143
631.458	476.9856
631.909	451.91984
632.361	422.8781
632.812	450.9201
633.263	460.87662
633.714	394.75959
634.165	436.94676
634.616	368.79504
635.067	429.85549
635.518	332.72771
635.968	358.65638
636.419	378.74801
636.869	368.80048
637.319	353.74745
637.769	324.66789
638.219	385.84154
638.669	265.59126
639.119	274.62611
639.569	316.70723
640.019	283.61312
640.468	297.61952
640.918	277.62697
641.367	254.53795
641.816	264.55669
642.265	279.60652
642.714	241.5286
643.163	264.57306
643.612	182.41774
644.061	210.42413
644.51	242.52284
644.958	230.48116
645.406	218.49716
645.855	201.47214
646.303	246.5474
646.751	230.49841
647.199	245.53012
647.647	187.41414
648.095	173.38297
648.543	233.45794
648.99	165.38107
649.438	247.5543
649.885	192.45777
650.333	187.35193
650.78	155.36324
651.227	215.50167
651.674	164.36297
652.121	187.43943
652.568	169.3976
653.015	210.5114
653.461	166.38316
653.908	203.45669
654.354	168.39024
654.801	157.35841
655.247	202.42988
655.693	182.45938
656.139	147.34436
656.585	171.39917
657.031	92.21168
657.477	123.26182
657.922	117.26527
658.368	136.32923
658.813	181.41103
659.259	93.22076
659.704	170.38644
660.149	120.27577
660.594	123.2878
661.039	157.35074
661.484	148.34772
661.929	96.22309
662.373	86.21483
662.818	102.25036
663.262	91.21743
663.707	106.26555
664.151	135.32514
664.595	80.19213
665.039	133.3265
665.483	127.31879
665.927	133.30998
666.371	83.19139
666.814	132.31207
667.258	81.19102
667.701	145.31107
668.145	109.26956
668.588	90.22025
669.031	67.15776
669.474	132.31484
669.917	66.1476
670.36	88.21775
670.803	123.29512
671.245	96.20359
671.688	110.26739
672.13	49.11105
672.573	106.26813
673.015	123.29377
673.457	93.20364
673.899	121.29187
674.341	87.21033
674.783	99.23709
675.225	111.27189
675.666	68.16406
676.108	121.26328
676.549	127.29996
676.991	64.14295
677.432	65.13179
677.873	101.23447
678.314	118.28124
678.755	100.24336
679.196	47.10916
679.637	120.29268
680.078	101.23744
680.518	90.21137
680.959	111.26592
681.399	104.25772
681.839	99.24142
682.28	72.17855
682.72	95.21862
683.16	116.28798
683.6	102.23422
684.039	99.20862
684.479	76.18751
684.919	50.1167
685.358	126.31849
685.798	67.17623
686.237	89.21655
686.676	132.30662
687.115	71.1686
687.554	70.16786
687.993	110.24498
688.432	116.26594
688.871	63.14487
689.309	88.21143
689.748	50.10706
690.186	99.23781
690.625	68.16114
691.063	75.18139
691.501	119.29397
691.939	83.2079
692.377	122.29722
692.815	107.25644
693.253	131.31479
693.69	67.14962
694.128	104.25243
694.565	92.22087
695.003	124.31377
695.44	68.16164
695.877	97.22777
696.314	85.18558
696.751	106.24369
697.188	84.19482
697.625	143.32856
698.061	104.25034
698.498	132.31918
698.934	87.21105
699.371	80.18994
699.807	121.28667
700.243	53.1292
700.679	104.23737
701.115	101.23957
701.551	105.24867
701.987	121.27356
702.422	70.16799
702.858	81.19465
703.294	89.20383
703.729	131.32004
704.164	95.22993
704.599	131.29254
705.035	70.15881
705.47	66.16206
705.904	103.2412
706.339	145.33715
706.774	80.18921
707.209	68.15877
707.643	128.30729
708.078	90.22041
708.512	64.16132
708.946	105.25289
709.38	116.27562
709.814	116.26647
710.248	109.2664
710.682	72.17299
711.116	95.22751
711.549	95.24572
711.983	91.21201
712.416	108.25661
712.85	116.28924
713.283	89.21224
713.716	123.30886
714.149	111.26572
714.582	62.14146
715.015	161.4002
715.448	77.19544
715.881	123.27081
716.313	70.16594
716.746	76.18065
717.178	42.10252
717.61	101.25671
718.043	97.2427
718.475	118.2863
718.907	145.36541
719.339	96.21912
719.77	73.17462
720.202	73.18587
720.634	45.11092
721.065	109.25924
721.497	97.23874
721.928	88.21711
722.359	32.07834
722.79	59.14286
723.221	116.29196
723.652	133.34199
724.083	86.19582
724.514	128.29439
724.945	69.16398
725.375	41.09665
725.806	89.22341
726.236	143.36436
726.666	97.23097
727.096	76.18799
727.526	66.16885
727.956	54.12459
728.386	120.29541
728.816	56.14297
729.246	55.13512
729.675	64.15889
730.105	118.29048
730.534	79.18659
730.964	80.20352
731.393	179.44007
731.822	75.19272
732.251	54.13839
732.68	120.28337
733.109	107.26404
733.537	98.23751
733.966	119.29516
734.395	68.15889
734.823	101.22955
735.251	90.21795
735.68	130.32485
736.108	108.27339
736.536	90.21376
736.964	109.25375
737.392	76.19143
737.82	106.25515
738.247	107.25702
738.675	83.19998
739.102	62.15616
739.53	49.12595
739.957	124.31779
740.384	117.28882
740.811	92.23396
741.238	85.20859
741.665	31.07316
742.092	68.16412
742.519	41.1027
742.945	41.09987
743.372	91.22612
743.798	74.19124
744.225	33.07975
744.651	101.2538
745.077	42.10602
745.503	109.2663
745.929	66.15989
746.355	139.34438
746.781	84.20922
747.207	17.04063
747.632	39.09627
748.058	74.18585
748.483	114.26303
748.908	66.16529
749.334	70.17327
749.759	71.16893
750.184	33.07981
750.609	59.14645
751.033	87.20716
751.458	77.17465
751.883	115.28482
752.307	51.12158
752.732	39.0985
753.156	54.1347
753.58	119.2827
754.005	69.17631
754.429	79.18702
754.853	41.10277
755.277	105.24905
755.7	92.2289
756.124	63.15752
756.548	44.10567
756.971	106.25911
757.394	90.23227
757.818	109.27998
758.241	88.22379
758.664	87.22027
759.087	5.01142
759.51	95.23692
759.933	87.21017
760.356	92.23619
760.778	104.25583
761.201	143.34584
761.623	128.30974
762.046	99.23582
762.468	110.26458
762.89	87.21563
763.312	107.26141
763.734	69.16738
764.156	83.20579
764.578	89.20604
765	79.1938
765.421	59.15076
765.843	72.18948
766.264	104.25167
766.686	82.20676
767.107	59.14425
767.528	11.02818
767.949	55.14093
768.37	61.15091
768.791	74.18022
769.212	74.18652
769.632	33.078
770.053	68.17974
770.473	67.16412
770.894	87.21846
771.314	74.17806
771.734	36.08511
772.154	82.21104
772.575	96.22326
772.994	49.11267
773.414	92.22162
773.834	40.10104
774.254	65.16016
774.673	70.17156
775.093	45.11239
775.512	37.09214
775.931	61.15554
776.351	54.13509
776.77	52.12815
777.189	41.09867
777.607	49.12604
778.026	54.13548
778.445	28.07083
778.864	97.24855
779.282	49.119
779.701	69.17463
780.119	31.07913
780.537	54.13562
780.955	72.18381
781.373	38.09492
781.791	29.06612
782.209	91.21026
782.627	63.16649
783.045	45.10463
783.462	32.08253
783.88	18.04708
784.297	28.07118
784.715	35.09059
785.132	-1.00246
785.549	16.04053
785.966	57.14411
786.383	23.05726
786.8	44.10326
787.217	39.0934
787.633	-1.00253
788.05	72.17187
788.466	85.20092
788.883	34.08741
789.299	35.08516
789.715	18.04433
790.131	39.09779
790.547	34.0857
790.963	88.21831
791.379	32.08161
791.795	45.10373
792.21	41.0968
792.626	16.0385
793.041	23.0574
793.457	21.05251
793.872	27.06424
794.287	10.0242
794.702	34.08456
795.117	22.05523
795.532	-2.00508
795.947	80.19286
796.362	46.11077
796.776	54.12747
797.191	47.11581
797.605	-20.04789
798.02	34.08348
798.434	0
798.848	35.08691
799.262	18.04514
799.676	27.06658
800.09	27.06709
800.504	45.10998
800.918	4.00942
801.331	40.10551
801.745	-28.06579
802.158	28.07063
802.572	28.06862
802.985	90.2173
803.398	4.00968
803.811	48.12405
804.224	43.10774
804.637	20.0482
805.05	38.0889
805.462	57.14066
805.875	-5.01313
806.288	-12.02943
806.7	11.02797
807.112	30.07029
807.525	37.09201
807.937	-11.02762
808.349	-1.00254
808.761	53.13098
809.173	19.04656
809.584	48.1193
809.996	7.01736
810.408	32.08313
810.819	76.17884
811.231	92.23677
811.642	30.07213
812.053	87.20644
812.464	8.01927
812.875	54.13844
813.286	37.0958
813.697	99.23074
814.108	46.11303
814.519	77.17181
814.929	50.12805
815.34	6.01474
815.75	-14.03611
816.16	60.14993
816.571	31.08107
816.981	3.00719
817.391	44.10688
817.801	-14.03531
818.211	16.03859
818.62	7.01706
819.03	25.06183
819.44	55.14403
819.849	-15.03838
820.259	45.11571
820.668	22.0546
821.077	-15.03783
821.486	15.03654
821.895	23.05736
822.304	58.15392
822.713	-6.0144
823.122	8.02019
823.531	20.04791
823.939	39.0956
824.348	47.11483
824.756	50.12571
825.164	51.1288
825.573	11.02789
825.981	50.12449
826.389	13.033
826.797	29.07316
827.205	28.06484
827.612	33.082
828.02	-21.0502
828.428	35.08965
828.835	-8.02132
829.243	-4.00967
829.65	-22.05559
830.057	22.05388
830.464	35.08583
830.871	16.03872
831.278	11.02688
831.685	-7.01588
832.092	-4.00993
832.499	13.0288
832.905	-3.00769
833.312	59.13496
833.718	44.11011
834.124	-8.01858
834.531	42.10636
834.937	54.13888
835.343	23.05598
835.749	53.12426
836.155	28.07376
836.561	2.00498
836.966	11.02718
837.372	28.07174
837.777	29.07272
838.183	55.12272
838.588	9.02258
838.993	14.03443
839.399	-23.05715
839.804	5.01232
840.209	-7.01804
840.613	-8.01808
841.018	-12.0308
841.423	31.07996
841.828	54.13679
842.232	33.08224
842.637	51.12069
843.041	-7.01816
843.445	59.1481
843.849	19.04742
844.253	36.08607
844.657	-14.03573
845.061	-44.10209
845.465	0
845.869	0
846.272	-10.02468
846.676	3.00734
847.079	21.05377
847.483	28.0703
847.886	59.14371
848.289	17.04568
848.692	15.0383
849.095	28.06771
849.498	49.1245
849.901	32.07389
850.304	5.01208
850.707	43.10999
851.109	97.24392
851.512	-10.0249
851.914	-47.12069
852.316	21.05349
852.718	-58.15274
853.121	-7.01737
853.523	-5.01184
853.925	4.01053
854.326	-12.03039
854.728	32.08267
855.13	-7.01826
855.531	0
855.933	19.04599
856.334	-3.00756
856.736	-18.04098
857.137	-50.1188
857.538	13.03295
857.939	-5.0125
858.34	18.04421
858.741	6.01582
859.142	-7.01703
859.542	-10.02668
859.943	23.05753
860.343	5.0125
860.744	29.07117
861.144	4.00986
861.544	-44.1078
861.945	24.06153
862.345	3.00741
862.745	17.04257
863.145	48.11502
863.544	20.05088
863.944	-5.01196
864.344	37.09228
864.743	25.06242
865.143	-21.05468
865.542	-46.10892
865.941	7.01749
866.34	31.07466
866.74	-4.01084
867.139	-55.13452
867.537	11.02826
867.936	-13.03171
868.335	40.10208
868.734	6.01547
869.132	22.05149
869.531	56.13552
869.929	-57.13296
870.327	33.07948
870.726	40.10006
871.124	16.03771
871.522	-6.01545
871.92	5.01245
872.318	12.02958
872.715	42.10427
873.113	1.00246
873.511	30.0751
873.908	-34.0872
874.306	2.00502
874.703	45.11284
875.1	18.04636
875.497	12.02902
875.894	1.00247
876.291	27.06663
876.688	20.0519
877.085	-2.00485
877.482	12.03028
877.878	-14.03415
878.275	-47.12157
878.671	10.02249
879.068	33.08002
879.464	-15.03674
879.86	8.0191
880.256	1.00249
880.652	-9.02315
881.048	9.02249
881.444	31.07415
881.84	29.07405
882.236	52.13084
882.631	46.11312
883.027	-4.0098
883.422	9.0232
883.817	-33.08423
884.213	3.00777
884.608	-21.05222
885.003	-2.00487
885.398	10.02523
885.793	43.10817
886.188	7.01755
886.582	60.15377
886.977	6.01438
887.371	59.14911
887.766	-28.07068
888.16	27.06773
888.554	17.04234
888.949	62.15549
889.343	4.00987
889.737	-9.02423
890.131	26.06556
890.525	-14.03623
890.918	9.02284
891.312	16.03857
891.706	30.07903
892.099	35.08937
892.492	7.01526
892.886	20.04925
893.279	-4.01029
893.672	19.04867
894.065	-1.00253
894.458	-7.0178
894.851	18.04441
895.244	-4.01032
895.637	-2.00487
896.029	16.0394
896.422	16.03937
896.814	34.08484
897.206	-13.03136
897.599	38.09427
897.991	7.01708
898.383	19.04521
898.775	10.02278
899.167	-23.05445
899.559	67.16921
899.951	23.05456
900.342	11.02819
900.734	-19.04776
901.125	37.09735
901.517	31.07641
901.908	38.0914
902.299	-11.02721
902.69	26.06168
903.082	8.01954
903.473	-12.02909
903.863	-11.02838
904.254	-32.07554
904.645	44.10963
905.036	-15.03678
905.426	61.13948
905.817	2.00495
906.207	-27.06533
906.597	-41.09766
906.987	43.11165
907.378	11.02803
907.768	8.02131
908.158	-9.0222
908.547	-12.03134
908.937	-4.01037
909.327	26.06346
909.717	68.1722
910.106	8.01938
910.495	46.11499
910.885	28.07123
911.274	30.07529
911.663	26.06631
912.052	35.08665
912.441	13.03329
912.83	25.05772
913.219	21.05526
913.608	-2.00495
913.997	-16.0406
914.385	45.10768
914.774	-8.0197
915.162	-10.02412
915.55	26.06323
915.939	-52.13369
916.327	15.03769
916.715	-22.0568
917.103	34.08398
917.491	0
917.878	2.00496
918.266	18.04695
918.654	15.03857
919.041	7.01841
919.429	16.03803
919.816	29.07382
920.203	22.05366
920.591	23.05734
920.978	12.02961
921.365	8.02115
921.752	30.07183
922.139	-17.03746
922.525	-33.08053
922.912	21.05152
923.299	-26.06554
923.685	-17.04487
924.072	-4.00933
924.458	-5.01251
924.844	-4.01
925.231	-5.01177
925.617	-6.01541
926.003	26.06675
926.389	-1.00255
926.774	7.01788
927.16	1.00251
927.546	-10.0258
927.931	30.07516
928.317	-16.03736
928.702	16.03812
929.088	-22.05278
929.473	7.01795
929.858	4.00976
930.243	-28.06822
930.628	16.03918
931.013	16.03991
931.398	-13.03029
931.783	20.05293
932.167	5.01233
932.552	54.13523
932.937	35.08713
933.321	11.0278
933.705	-22.05619
934.09	67.16885
934.474	-1.0024
934.858	14.03654
935.242	-27.06355
935.626	-9.02328
936.009	32.08538
936.393	-2.00514
936.777	-14.03626
937.16	-33.08709
937.544	33.07803
937.927	28.07133
938.311	19.04666
938.694	12.03194
939.077	18.04336
939.46	33.08131
939.843	-22.04666
940.226	-26.06759
940.609	23.0531
940.991	-11.02831
941.374	29.07117
941.757	8.0199
942.139	-37.0846
942.522	1.00239
942.904	22.05318
943.286	49.12455
943.668	40.1038
944.05	14.03472
944.432	-41.10288
944.814	5.01242
945.196	-42.10412
945.578	-29.06998
945.959	2.00473
946.341	36.08862
946.722	35.08241
947.104	0
947.485	-6.01412
947.866	-3.00763
948.247	14.03555
948.628	25.06128
949.009	7.01806
949.39	34.0849
949.771	36.08399
950.152	7.01732
950.532	-36.08996
950.913	16.03885
951.293	-17.04642
951.674	11.0268
952.054	-19.04768
952.434	-6.01505
952.814	33.07879
953.194	11.02898
953.574	60.14754
953.954	-2.0048
954.334	-11.02772
954.714	-13.03206
955.093	49.12051
955.473	-62.15817
955.853	12.03127
956.232	22.06057
956.611	38.09137
956.99	9.02279
957.37	-9.02317
957.749	11.02644
958.128	18.04561
958.506	-13.03409
958.885	8.02034
959.264	1.00247
959.643	24.05491
960.021	-15.03761
960.4	-25.05753
960.778	33.08155
961.156	-7.01773
961.535	19.04456
961.913	17.04004
962.291	19.04901
962.669	-6.01535
963.047	28.07174
963.424	13.03339
963.802	-11.02735
964.18	43.10895
964.557	31.07168
964.935	15.03579
965.312	9.0236
965.69	19.04785
966.067	22.05386
966.444	44.10856
966.821	36.09304
967.198	37.08999
967.575	45.11076
967.952	13.03086
968.329	12.02941
968.705	3.0065
969.082	-17.04411
969.458	-28.06817
969.835	-7.01722
970.211	-4.01036
970.587	56.13928
970.963	37.09514
971.339	-11.02902
971.715	23.05771
972.091	5.01242
972.467	37.09251
972.843	-2.00501
973.219	40.09625
973.594	23.06044
973.97	55.13081
974.345	-12.02906
974.721	16.039
975.096	-7.01712
975.471	46.10922
975.846	17.0411
976.221	-2.00513
976.596	16.0386
976.971	37.09157
977.346	26.06083
977.72	10.02566
978.095	24.0623
978.469	19.04562
978.844	45.11324
979.218	-34.0828
979.593	-25.06076
979.967	19.04656
980.341	13.03016
980.715	19.04814
981.089	40.10032
981.463	5.01158
981.837	-12.02966
982.21	59.13708
982.584	21.051
982.957	-7.01766
983.331	46.10884
983.704	0
984.078	-25.06246
984.451	44.11003
984.824	-26.06422
985.197	1.00245
985.57	27.06799
985.943	16.03977
986.316	78.19067
986.688	23.05575
987.061	23.0542
987.434	16.04194
987.806	-7.01716
988.179	-23.05504
988.551	49.12433
988.923	-6.01493
989.295	42.10511
989.667	-35.08497
990.039	6.01494
990.411	-2.00465
990.783	21.04864
991.155	34.08194
991.527	42.10358
991.898	-25.06314
992.27	-20.0501
992.641	14.03535
993.012	2.00475
993.384	0
993.755	4.01028
994.126	4.00971
994.497	16.03952
994.868	10.02316
995.239	6.01466
995.61	-19.0484
995.98	5.01225
996.351	-36.09055
996.722	-4.00938
997.092	-30.07213
997.462	-29.06879
997.833	17.04056
998.203	45.1092
998.573	24.06004
998.943	7.01655
999.313	25.06019
999.683	35.08423
1000.053	14.03244
1000.423	-8.01965
1000.792	-6.0157
1001.162	-17.04235
1001.531	33.08161
1001.901	-6.01511
1002.27	16.03602
1002.639	22.05648
1003.009	24.05736
1003.378	40.10244
1003.747	28.06643
1004.116	-22.05336
1004.485	1.00241
1004.853	40.10151
1005.222	9.02286
1005.591	20.04776
1005.959	-51.11727
1006.328	-4.0091
1006.696	5.01216
1007.064	45.11328
1007.433	0
1007.801	44.10812
1008.169	0
1008.537	-2.00448
1008.905	6.0141
1009.273	43.10634
1009.64	-16.03865
1010.008	39.09315
1010.375	73.17649
1010.743	29.06724
1011.11	-36.08659
1011.478	15.03735
1011.845	21.04966
1012.212	-26.05975
1012.579	-60.15026
1012.946	27.06454
1013.313	63.14955
1013.68	10.02266
1014.047	-21.05071
1014.414	0
1014.78	-4.01004
1015.147	-13.03181
1015.513	9.02185
1015.88	31.07952
1016.246	46.11362
1016.612	18.04147
1016.978	12.02961
1017.344	18.04474
1017.71	36.088
1018.076	-1.00238
1018.442	38.09793
1018.808	7.01763
1019.174	-5.01266
1019.539	66.15143
1019.905	-51.1226
1020.27	19.04714
1020.636	47.11273
1021.001	32.07685
1021.366	-28.06822
1021.731	33.08509
1022.096	-19.0485
1022.461	21.04997
1022.826	8.01916
1023.191	11.02904
1023.556	-23.05466
1023.92	18.04451
1024.285	43.10505
1024.649	-4.0099
1025.014	18.04483
1025.378	-5.01269
1025.742	32.0797
1026.107	34.07713
1026.471	50.1167
1026.835	12.02994
1027.199	-13.03165
1027.562	6.01406
1027.926	55.13432
1028.29	18.04579
1028.654	4.00928
1029.017	60.14716
1029.381	-3.00724
1029.744	36.092
1030.107	51.1206
1030.471	15.03614
1030.834	40.09115
1031.197	26.06289
1031.56	5.0119
1031.923	21.05454
1032.286	43.10109
1032.648	21.05048
1033.011	-8.01857
1033.374	63.14764
1033.736	-9.02389
1034.099	-3.00738
1034.461	-41.10521
1034.823	-6.01509
1035.185	-18.04584
1035.548	35.08538
1035.91	50.11972
1036.272	-25.05774
1036.634	36.08826
1036.995	-11.02615
1037.357	-34.08398
1037.719	9.02205
1038.08	18.04298
1038.442	-2.00479
1038.803	24.05788
1039.165	14.03554
1039.526	-2.00488
1039.887	23.05529
1040.248	-16.03988
1040.609	50.1235
1040.97	32.07843
1041.331	-5.01278
1041.692	-22.05205
1042.053	-11.02534
1042.413	53.12338
1042.774	35.08532
1043.134	26.06216
1043.495	56.14055
1043.855	5.01222
1044.215	32.07965
1044.576	-20.04843
1044.936	2.00463
1045.296	51.12719
1045.656	26.06405
1046.016	31.07506
1046.375	12.0293
1046.735	-20.04596
1047.095	-12.02841
1047.454	19.04051
1047.814	13.03145
1048.173	25.05998
1048.533	10.02308
1048.892	-31.07551
1049.251	41.10303
1049.61	-11.02737
1049.969	5.01188
1050.328	17.0371
1050.687	22.05378
1051.046	31.07571
1051.405	-15.03773
1051.763	-33.0771
1052.122	25.0626
1052.48	-28.06961
1052.839	-34.08125
1053.197	17.04025
1053.555	25.05726
1053.914	19.04671
1054.272	17.04133
1054.63	0
1054.988	-40.09661
1055.345	-13.02836
1055.703	4.00971
1056.061	3.00778
1056.419	-16.04186
1056.776	42.10194
1057.134	20.04655
1057.491	-9.02276
1057.848	13.03256
1058.206	16.03786
1058.563	37.08174
1058.92	7.01626
1059.277	9.02236
1059.634	5.01186
1059.991	33.07927
1060.348	-31.07117
1060.704	-35.08471
1061.061	36.08382
1061.418	4.00978
1061.774	16.03972
1062.131	-24.0642
1062.487	-21.04975
1062.843	21.0526
1063.199	-7.01758
1063.555	-27.06347
1063.911	-1.00255
1064.267	4.00842
1064.623	-37.09127
1064.979	22.05237
1065.335	25.06001
1065.691	-18.04367
1066.046	-16.03565
1066.402	2.00459
1066.757	43.1086
1067.112	-7.01735
1067.468	-16.03824
1067.823	5.01212
1068.178	-8.01955
1068.533	27.06569
1068.888	64.15242
1069.243	-14.03493
1069.598	34.0828
1069.952	-35.08013
1070.307	-41.1031
1070.662	5.01197
1071.016	5.0113
1071.371	-54.12534
1071.725	28.06722
1072.079	3.00727
1072.434	-11.02701
1072.788	11.02637
1073.142	13.03217
1073.496	-40.09647
1073.85	23.05359
1074.203	-9.02206
1074.557	6.01606
1074.911	61.14519
1075.265	2.00469
1075.618	3.00738
1075.971	3.0072
1076.325	2.00512
1076.678	-27.06266
1077.031	-5.01143
1077.385	3.00667
1077.738	-20.04576
1078.091	-20.04609
1078.444	16.03737
1078.796	24.05913
1079.149	-7.01758
1079.502	-46.1106
1079.855	3.00706
1080.207	25.06183
1080.56	6.01561
1080.912	21.05136
1081.264	15.03633
1081.617	1.00246
1081.969	-7.01782
1082.321	5.0123
1082.673	-40.09288
1083.025	-22.05288
1083.377	16.03457
1083.728	20.0469
1084.08	-19.04799
1084.432	-19.04639
1084.783	59.13789
1085.135	-24.0609
1085.486	-32.07436
1085.838	10.02479
1086.189	-26.06396
1086.54	13.03124
1086.891	-17.04347
1087.242	-18.04434
1087.593	24.05867
1087.944	-37.08515
1088.295	71.16058
1088.646	-10.02449
1088.996	1.00243
1089.347	0
1089.698	-38.09126
1090.048	19.04957
1090.398	15.035
1090.749	21.05048
1091.099	-25.06366
1091.449	21.05254
1091.799	29.07282
1092.149	-50.12409
1092.499	29.07096
1092.849	-2.00513
1093.199	9.02271
1093.548	-26.06332
1093.898	29.07277
1094.248	43.11053
1094.597	-42.10884
1094.947	15.04021
1095.296	4.00995
1095.645	43.11188
1095.994	0
1096.343	4.01014
1096.692	2.00529
1097.041	4.0109
1097.39	1.00253
1097.739	36.09371
1098.088	25.0672
1098.437	-32.08515
1098.785	30.08107
1099.134	35.09309
1099.482	21.05797
1099.83	2.00529
1100.179	-27.07128
1100.527	7.01872
1100.875	11.02925
1101.223	2.00535
1101.571	3.00834
1101.919	-22.05813
1102.267	43.12108
1102.615	-11.03543
1102.962	12.03863
1103.31	0
1103.658	-2.00645
