Data from N2 R5 sample 7_Subt2__1__12-01-03-367.txt Node

Date: Fri Aug 29 12:01:03 PDT 2025
User: uwsun
Spectrometer: HDX01956
Trigger mode: 0
Integration Time (sec): 5.000000E-1
Scans to average: 1
Nonlinearity correction enabled: true
Boxcar width: 0
Storing dark spectrum: false
XAxis mode: Wavelengths
Number of Pixels in Spectrum: 2068
>>>>>Begin Spectral Data<<<<<
194.03	140.38444
194.578	161.49894
195.127	144.44046
195.676	167.51086
196.225	191.49042
196.773	203.53842
197.321	265.67991
197.87	394.90388
198.418	375.85151
198.966	352.80819
199.513	251.55864
200.061	344.76449
200.609	409.9531
201.156	330.6258
201.704	314.69783
202.251	371.86254
202.798	364.83005
203.345	420.90192
203.892	349.77189
204.438	377.78604
204.985	343.70466
205.532	424.96722
206.078	384.82036
206.624	382.81326
207.17	437.86902
207.716	338.71741
208.262	375.63448
208.808	340.72795
209.354	370.78155
209.899	400.88522
210.445	378.81384
210.99	353.7396
211.535	445.89647
212.08	405.81326
212.625	365.80121
213.17	426.93606
213.715	272.52992
214.259	352.71744
214.804	383.82797
215.348	344.68902
215.892	385.80343
216.436	354.71988
216.98	341.66199
217.524	290.60748
218.068	375.82869
218.612	404.88848
219.155	345.71197
219.698	338.70896
220.242	383.84
220.785	318.65788
221.328	360.79106
221.871	343.77381
222.414	353.77878
222.956	274.58792
223.499	295.58937
224.041	352.72462
224.583	325.62249
225.126	335.6491
225.668	282.61213
226.21	318.71023
226.751	318.60953
227.293	347.69841
227.835	307.6654
228.376	366.74326
228.918	352.78811
229.459	315.69438
230	336.70507
230.541	328.66792
231.082	349.74415
231.622	324.66038
232.163	323.69081
232.704	298.65649
233.244	307.67618
233.784	349.75706
234.324	285.54957
234.864	339.6735
235.404	351.73509
235.944	393.81211
236.484	361.7941
237.023	326.67745
237.563	300.61174
238.102	366.75514
238.641	369.81884
239.18	311.63806
239.719	343.75894
240.258	344.67658
240.797	352.73506
241.335	332.71727
241.874	324.5385
242.412	321.67821
242.95	299.62813
243.488	360.71473
244.026	334.67147
244.564	388.68345
245.102	315.61852
245.64	324.6895
246.177	294.58069
246.715	400.83232
247.252	354.70905
247.789	412.65956
248.326	285.60162
248.863	318.60658
249.4	383.75098
249.936	347.61457
250.473	334.67766
251.009	298.59716
251.546	336.64154
252.082	366.69035
252.618	334.64391
253.154	358.74427
253.69	323.63303
254.226	376.77403
254.761	337.65578
255.297	320.60684
255.832	343.70371
256.367	359.73121
256.903	371.69686
257.438	394.79538
257.972	333.64183
258.507	329.64967
259.042	354.65985
259.576	358.65439
260.111	370.73698
260.645	372.68893
261.179	370.73938
261.713	373.70753
262.247	420.82217
262.781	345.61612
263.315	364.76652
263.849	353.7628
264.382	443.85961
264.915	349.70081
265.449	347.72221
265.982	373.72653
266.515	347.7296
267.048	330.5968
267.58	429.79035
268.113	350.64268
268.646	374.79
269.178	383.72189
269.71	405.74537
270.243	399.77274
270.775	358.78436
271.307	393.8092
271.838	435.87633
272.37	386.80999
272.902	411.78875
273.433	376.69425
273.965	368.76574
274.496	452.94888
275.027	385.81341
275.558	397.81523
276.089	350.73056
276.62	424.91757
277.15	452.93884
277.681	438.79175
278.211	388.81095
278.741	361.66805
279.272	391.74819
279.802	408.86295
280.332	365.72753
280.861	428.86282
281.391	384.72928
281.921	434.87693
282.45	397.8417
282.98	447.98034
283.509	426.79368
284.038	427.80641
284.567	401.78776
285.096	412.834
285.625	381.72235
286.153	429.83125
286.682	378.72139
287.21	410.82122
287.739	437.85242
288.267	437.87307
288.795	471.03098
289.323	415.79758
289.851	422.8171
290.378	406.75116
290.906	332.67422
291.433	456.93659
291.961	467.85347
292.488	432.8893
293.015	422.81201
293.542	431.89782
294.069	444.8922
294.596	450.91634
295.122	466.90187
295.649	479.84711
296.175	467.92305
296.702	491.96458
297.228	497.97775
297.754	453.81741
298.28	420.77085
298.806	445.86555
299.332	460.80693
299.857	396.72423
300.383	525.06751
300.908	362.71735
301.433	483.93499
301.958	493.90828
302.483	483.96139
303.008	467.93127
303.533	543.12876
304.058	520.96934
304.582	490.90932
305.107	434.91431
305.631	540.96076
306.155	458.84019
306.679	479.8754
307.203	509.91709
307.727	509.94295
308.251	486.94913
308.775	418.78148
309.298	446.83632
309.822	499.99046
310.345	543.98689
310.868	523.96164
311.391	536.02032
311.914	581.10643
312.437	522.91237
312.96	605.06024
313.482	526.94749
314.005	582.10538
314.527	536.08075
315.049	601.14903
315.571	533.87168
316.093	530.99485
316.615	543.97887
317.137	569.89997
317.659	661.17319
318.18	646.1379
318.702	597.00675
319.223	612.88029
319.744	616.98086
320.265	613.06528
320.786	579.0348
321.307	646.148
321.828	640.01084
322.348	612.01671
322.869	646.05446
323.389	698.69934
323.909	718.11488
324.43	767.26343
324.95	701.07347
325.47	669.12359
325.989	733.14124
326.509	701.9957
327.029	741.06751
327.548	693.0037
328.067	695.09766
328.587	732.20662
329.106	754.08057
329.625	853.47651
330.144	756.0909
330.662	732.05942
331.181	794.14526
331.7	818.16611
332.218	799.01804
332.736	822.15714
333.255	818.13105
333.773	864.20115
334.291	929.37809
334.808	822.04355
335.326	927.15464
335.844	882.13184
336.361	872.26612
336.879	797.04426
337.396	939.22822
337.913	943.13774
338.43	964.10702
338.947	935.17695
339.464	930.97699
339.981	949.15246
340.497	1031.30963
341.014	1011.24338
341.53	959.04414
342.046	977.20462
342.562	1047.30541
343.078	1058.17168
343.594	1031.17632
344.11	1134.22509
344.626	1133.3331
345.141	1081.07916
345.657	1182.13694
346.172	1071.16936
346.687	1132.08988
347.202	1133.03152
347.717	1163.1682
348.232	1094.21951
348.747	1107.03747
349.261	1072.8801
349.776	1188.09869
350.29	1166.14936
350.805	1250.24104
351.319	1193.05606
351.833	1113.92923
352.347	1204.04595
352.861	1189.00424
353.374	1244.02335
353.888	1201.08584
354.401	1297.9906
354.915	1188.86163
355.428	1253.10939
355.941	1276.95447
356.454	1350.9318
356.967	1263.99386
357.48	1320.94202
357.993	1355.09087
358.505	1418.05546
359.018	1362.04112
359.53	1444.98727
360.042	1384.81225
360.554	1401.99937
361.066	1322.96308
361.578	1390.7348
362.09	1362.9142
362.602	1520.7215
363.113	1453.82207
363.625	1428.73429
364.136	1528.68652
364.647	1501.70907
365.158	1560.76221
365.669	1565.82425
366.18	1551.77251
366.691	1532.6113
367.201	1558.76675
367.712	1535.6206
368.222	1563.61258
368.733	1627.44133
369.243	1703.43847
369.753	1778.52962
370.263	1635.60714
370.773	1714.65044
371.282	1705.50108
371.792	1688.30369
372.301	1872.38103
372.811	1832.58274
373.32	1820.00898
373.829	1954.11655
374.338	2080.88675
374.847	2042.89985
375.356	2072.88332
375.865	2158.5165
376.373	2304.49346
376.882	2396.68237
377.39	2478.45123
377.898	2417.34914
378.407	2561.06168
378.915	2699.90531
379.423	2754.90586
379.93	2945.73126
380.438	3025.67356
380.946	3143.60261
381.453	3304.57949
381.96	3456.64861
382.468	3721.97789
382.975	3974.13886
383.482	3939.48636
383.989	4001.33439
384.495	4165.22626
385.002	4273.63277
385.509	4665.55744
386.015	5020.94042
386.521	5242.77887
387.028	5534.5455
387.534	5556.20304
388.04	5803.02019
388.546	5817.65108
389.051	6191.48678
389.557	6794.12866
390.063	7249.20645
390.568	7212.22244
391.073	7535.80934
391.578	8000.65384
392.084	8007.84826
392.589	8278.78238
393.093	8907.93691
393.598	9901.87337
394.103	10905.87674
394.607	11801.70596
395.112	12555.60769
395.616	13220.64077
396.12	13825.75973
396.624	15101.45676
397.128	16625.99263
397.632	18552.93352
398.136	19609.35318
398.639	20948.2601
399.143	23883.67982
399.646	25901.13064
400.15	24189.81669
400.653	19886.39116
401.156	13866.23708
401.659	5169.95759
402.162	1054.15589
402.664	0
403.167	0
403.67	0
404.172	0
404.674	0
405.176	0
405.678	0
406.18	0
406.682	0
407.184	0
407.686	0
408.187	0
408.688	0
409.19	0
409.691	0
410.192	0
410.693	0
411.194	435.30976
411.694	4082.94878
412.195	8864.71461
412.696	12089.80453
413.196	12760.96929
413.696	12863.67595
414.196	13703.56671
414.696	17261.84252
415.196	21764.24417
415.696	29583.19008
416.196	30469.62598
416.695	24635.17464
417.195	22882.7139
417.694	21904.63588
418.194	20387.50239
418.693	19052.3408
419.192	18929.0114
419.691	18468.73327
420.19	18309.77813
420.688	17844.10863
421.187	16933.69135
421.685	15427.74163
422.184	13530.09153
422.682	11772.70055
423.18	9934.64002
423.678	8895.18423
424.176	8346.23228
424.674	7949.64995
425.172	7419.46686
425.669	6874.15071
426.167	6342.09325
426.664	5966.54442
427.161	5358.5756
427.659	5100.55235
428.156	4625.49597
428.652	4396.26209
429.149	4313.00486
429.646	4079.64707
430.143	3695.84555
430.639	3492.68742
431.135	3348.57691
431.632	3109.60763
432.128	2902.70248
432.624	2796.83023
433.12	2664.78821
433.616	2746.76789
434.111	2571.92787
434.607	2527.04862
435.103	2424.06675
435.598	2347.14119
436.093	2229.492
436.588	2114.58911
437.083	2090.69978
437.578	1917.89633
438.073	1711.12772
438.568	1653.27979
439.062	1713.00957
439.557	1659.31278
440.051	1512.27682
440.546	1482.3108
441.04	1358.46787
441.534	1455.63098
442.028	1463.56141
442.522	1396.56767
443.015	1323.42656
443.509	1330.67608
444.002	1298.67879
444.496	1336.48598
444.989	1191.70723
445.482	1227.75162
445.975	1238.55915
446.468	1138.4971
446.961	1195.50943
447.454	1150.62078
447.947	1051.66526
448.439	1061.75942
448.931	1008.59953
449.424	1060.85645
449.916	1078.79342
450.408	997.63251
450.9	935.73626
451.392	965.83417
451.884	1033.73248
452.375	914.78987
452.867	975.72495
453.358	849.64599
453.849	876.58959
454.341	838.6592
454.832	874.61881
455.323	818.76855
455.814	867.73503
456.304	824.72335
456.795	791.70155
457.285	809.70708
457.776	841.77401
458.266	787.76834
458.756	760.79136
459.247	691.71356
459.737	667.70223
460.226	724.68379
460.716	660.72269
461.206	613.7024
461.695	658.8111
462.185	658.73743
462.674	605.67651
463.163	629.65937
463.653	610.59386
464.142	608.73812
464.63	592.75761
465.119	500.60192
465.608	554.65742
466.096	503.57473
466.585	603.73598
467.073	553.73034
467.561	507.68751
468.05	508.66158
468.538	537.75658
469.026	451.63163
469.513	426.50304
470.001	475.61496
470.489	526.71402
470.976	527.70342
471.463	417.64724
471.951	384.61296
472.438	392.56954
472.925	312.46198
473.412	344.55537
473.899	368.54095
474.385	381.61252
474.872	321.48854
475.359	347.56133
475.845	298.39846
476.331	367.52246
476.817	368.60727
477.303	321.50518
477.789	299.499
478.275	286.49663
478.761	244.41897
479.247	263.4146
479.732	251.44661
480.218	260.49353
480.703	213.38863
481.188	245.37217
481.673	217.36113
482.158	198.29906
482.643	262.4983
483.128	175.29477
483.612	201.3504
484.097	189.35324
484.581	205.36021
485.066	111.209
485.55	163.26887
486.034	150.2457
486.518	126.22785
487.002	116.22105
487.486	130.24821
487.969	95.18328
488.453	140.28093
488.936	94.16729
489.42	152.26323
489.903	134.27151
490.386	141.17582
490.869	93.16281
491.352	137.27218
491.835	129.21207
492.318	129.23226
492.8	79.13176
493.283	69.14425
493.765	97.19505
494.247	122.23395
494.73	53.09655
495.212	82.16538
495.694	-1.00195
496.175	29.05689
496.657	78.15406
497.139	80.11446
497.62	-26.05198
498.102	26.05434
498.583	8.01711
499.064	44.08164
499.545	5.00968
500.026	67.12516
500.507	-3.00595
500.988	79.16567
501.469	-41.08853
501.949	26.05514
502.43	-39.07955
502.91	-33.05835
503.39	-12.02612
503.87	-14.02824
504.35	24.04883
504.83	-24.04524
505.31	-38.07995
505.79	-43.0893
506.269	14.02826
506.749	-44.08723
507.228	-34.06924
507.707	-32.06157
508.187	41.08465
508.666	-73.15749
509.145	-75.15395
509.623	-18.03679
510.102	-66.14131
510.581	5.01057
511.059	-54.11892
511.538	-16.03648
512.016	4.00834
512.494	-11.02347
512.972	-15.03139
513.45	-100.20456
513.928	-48.1026
514.406	-94.19979
514.884	-54.12305
515.361	-79.16845
515.839	-33.06611
516.316	-10.02112
516.793	-46.10381
517.27	-88.19208
517.747	-40.091
518.224	-61.12606
518.701	-54.10701
519.178	-83.18343
519.654	-28.05938
520.131	-39.0858
520.607	-31.06866
521.083	-79.16179
521.56	-103.21963
522.036	-58.11407
522.512	-32.07071
522.987	-64.13537
523.463	-89.19068
523.939	-59.13023
524.414	-51.10591
524.89	-82.17572
525.365	-75.1529
525.84	-104.22229
526.315	-53.11439
526.79	-34.06854
527.265	-42.0858
527.74	-90.19853
528.215	-87.18575
528.689	-79.1579
529.164	-89.17575
529.638	-40.0927
530.112	-71.15074
530.587	-83.15959
531.061	-111.24326
531.534	-80.17647
532.008	-90.1962
532.482	-60.1248
532.956	-110.25501
533.429	-101.22349
533.903	-78.15724
534.376	-111.22465
534.849	-44.09213
535.322	-52.11105
535.795	-101.22592
536.268	-63.13719
536.741	-47.10231
537.213	-93.19676
537.686	-68.15
538.158	-69.13965
538.631	-68.15094
539.103	-126.25892
539.575	-51.09659
540.047	-5.00986
540.519	-42.09113
540.991	-21.04651
541.463	-77.17025
541.934	-66.1374
542.406	-41.08822
542.877	-67.13759
543.348	-37.08105
543.82	6.01324
544.291	-10.02108
544.762	-58.12451
545.233	-34.07682
545.703	-73.14645
546.174	-18.03762
546.645	-40.0855
547.115	11.02359
547.585	39.0794
548.056	-52.11211
548.526	-12.02502
548.996	65.13722
549.466	84.17993
549.935	49.10099
550.405	62.11774
550.875	115.23392
551.344	40.08413
551.814	103.20406
552.283	92.1731
552.752	109.21645
553.221	93.17209
553.69	142.26691
554.159	173.35702
554.628	131.24678
555.096	175.37429
555.565	141.2664
556.033	180.3607
556.502	106.22283
556.97	92.1777
557.438	189.38426
557.906	203.4146
558.374	144.28803
558.842	135.28236
559.31	137.26888
559.777	153.32228
560.245	246.49798
560.712	267.52972
561.18	263.49447
561.647	259.49511
562.114	262.50996
562.581	358.74527
563.048	350.68125
563.514	300.62731
563.981	375.72035
564.448	405.75474
564.914	419.81303
565.381	500.92927
565.847	544.03055
566.313	512.97242
566.779	518.9479
567.245	548.03511
567.711	569.09667
568.176	605.07136
568.642	639.27257
569.108	624.22046
569.573	744.35473
570.038	777.22479
570.504	747.27
570.969	793.52634
571.434	792.29426
571.899	887.56398
572.363	891.48951
572.828	1045.69275
573.293	972.60367
573.757	973.60665
574.222	1006.57868
574.686	947.51705
575.15	988.68695
575.614	1070.71158
576.078	1083.77425
576.542	1042.66942
577.006	1063.66807
577.469	1143.98962
577.933	1049.63082
578.396	1033.75319
578.86	1047.7503
579.323	1062.78467
579.786	1035.55481
580.249	917.51638
580.712	993.76505
581.175	925.68635
581.637	991.64732
582.1	949.50562
582.563	943.4619
583.025	882.5928
583.487	851.24657
583.95	807.28543
584.412	859.32495
584.874	777.44607
585.336	810.45431
585.797	737.21387
586.259	781.41398
586.721	683.25193
587.182	788.41617
587.643	714.25797
588.105	670.24936
588.566	668.09474
589.027	642.22253
589.488	610.10859
589.949	641.23749
590.41	563.86385
590.87	610.11477
591.331	565.98315
591.791	507.95612
592.252	537.99235
592.712	517.01871
593.172	530.96937
593.632	590.03633
594.092	571.0231
594.552	558.96609
595.011	514.96053
595.471	551.99737
595.931	572.02305
596.39	574.10765
596.849	604.12439
597.308	605.04579
597.768	572.18043
598.227	615.18834
598.685	595.10074
599.144	593.1129
599.603	684.27552
600.062	670.08825
600.52	626.10144
600.978	700.3009
601.437	733.30061
601.895	718.1671
602.353	805.35195
602.811	810.35482
603.269	787.44515
603.727	887.58759
604.184	831.39954
604.642	882.6228
605.099	928.58335
605.557	968.73604
606.014	924.43608
606.471	1013.83135
606.928	1099.60221
607.385	1172.95855
607.842	1221.87891
608.299	1244.95659
608.755	1188.97244
609.212	1235.81967
609.668	1281.8411
610.125	1393.20231
610.581	1364.15426
611.037	1322.01016
611.493	1322.09817
611.949	1268.07264
612.405	1338.68739
612.861	1407.18034
613.316	1329.12435
613.772	1375.06991
614.227	1399.16281
614.683	1370.90034
615.138	1369.11481
615.593	1405.1331
616.048	1489.17821
616.503	1380.29066
616.958	1409.36655
617.412	1394.18696
617.867	1321.92974
618.321	1387.84287
618.776	1430.04836
619.23	1370.15518
619.684	1271.97125
620.138	1398.17443
620.592	1307.199
621.046	1313.1235
621.5	1241.13139
621.954	1307.01827
622.407	1210.89406
622.861	1185.07475
623.314	1180.92052
623.768	1127.91025
624.221	1107.53989
624.674	1117.87898
625.127	1126.9296
625.58	1140.9007
626.033	1133.82363
626.485	1010.83565
626.938	1032.86342
627.39	1041.82677
627.843	984.74495
628.295	919.65766
628.747	975.79294
629.199	949.67011
629.651	821.49184
630.103	887.60307
630.555	834.40118
631.006	804.53087
631.458	830.58122
631.909	828.54308
632.361	777.48762
632.812	756.43723
633.263	781.37164
633.714	740.30728
634.165	740.50102
634.616	672.35547
635.067	714.32828
635.518	705.4218
635.968	654.10882
636.419	611.14168
636.869	581.20466
637.319	584.17231
637.769	539.05567
638.219	571.19708
638.669	505.06875
639.119	534.15413
639.569	564.19566
640.019	508.04579
640.468	546.0742
640.918	580.22963
641.367	486.97704
641.816	529.04876
642.265	475.98946
642.714	493.02191
643.163	469.97349
643.612	440.95747
644.061	448.85541
644.51	436.90278
644.958	470.93094
645.406	450.97798
645.855	465.03366
646.303	515.07997
646.751	424.88069
647.199	454.93837
647.647	435.9134
648.095	435.91018
648.543	455.84751
648.99	440.96032
649.438	468.00046
649.885	418.95315
650.333	465.81549
650.78	428.94915
651.227	428.95664
651.674	388.81849
652.121	445.99278
652.568	400.8985
653.015	445.03362
653.461	372.82327
653.908	388.83967
654.354	396.8782
654.801	300.66506
655.247	368.75483
655.693	325.79922
656.139	331.74735
656.585	320.72502
657.031	295.65111
657.477	356.71933
657.922	320.69549
658.368	320.74766
658.813	353.77357
659.259	274.62762
659.704	243.5442
660.149	303.67073
660.594	290.65626
661.039	272.59319
661.484	320.72649
661.929	287.64167
662.373	248.60122
662.818	301.71141
663.262	242.56145
663.707	251.61226
664.151	302.70423
664.595	265.61395
665.039	269.64366
665.483	255.62526
665.927	291.65705
666.371	239.53392
666.814	272.62554
667.258	189.43633
667.701	300.62203
668.145	325.77169
668.588	278.65642
669.031	222.50689
669.474	257.59825
669.917	256.55001
670.36	279.66606
670.803	273.63624
671.245	238.48907
671.688	276.64993
672.13	202.44353
672.573	228.56414
673.015	219.51342
673.457	265.55916
673.899	237.55908
674.341	185.43897
674.783	206.48323
675.225	214.51413
675.666	171.4045
676.108	221.47062
676.549	222.51464
676.991	228.49197
677.432	191.3761
677.873	212.48133
678.314	198.46464
678.755	161.38732
679.196	208.46765
679.637	235.56082
680.078	202.4655
680.518	270.61175
680.959	184.43466
681.399	201.48922
681.839	184.44155
682.28	144.35239
682.72	131.2993
683.16	178.43688
683.6	220.4932
684.039	130.27208
684.479	145.35319
684.919	128.29415
685.358	193.482
685.798	167.43179
686.237	164.39341
686.676	186.42743
687.115	219.50518
687.554	201.46993
687.993	152.33557
688.432	140.31941
688.871	144.32575
689.309	166.3929
689.748	173.36055
690.186	151.35913
690.625	133.3112
691.063	161.38305
691.501	156.38275
691.939	134.33254
692.377	109.2662
692.815	132.31484
693.253	142.34051
693.69	174.37996
694.128	141.33985
694.565	187.4408
695.003	167.41934
695.44	124.29156
695.877	100.23468
696.314	173.37065
696.751	186.42076
697.188	138.31663
697.625	179.4083
698.061	130.31138
698.498	168.40347
698.934	114.27514
699.371	117.2758
699.807	156.36709
700.243	123.29591
700.679	125.2841
701.115	187.43617
701.551	183.42684
701.987	159.35668
702.422	136.32227
702.858	141.33496
703.294	151.34152
703.729	116.28419
704.164	162.38714
704.599	133.29688
705.035	103.2321
705.47	129.31304
705.904	126.29373
706.339	160.37092
706.774	120.28161
707.209	119.27506
707.643	115.27677
708.078	116.28271
708.512	84.21097
708.946	138.33029
709.38	112.26632
709.814	170.38629
710.248	131.31885
710.682	161.38026
711.116	139.33008
711.549	124.31912
711.983	116.26892
712.416	160.37635
712.85	171.42211
713.283	138.326
713.716	178.44253
714.149	157.37253
714.582	106.23969
715.015	195.4817
715.448	161.40253
715.881	146.3199
716.313	119.27943
716.746	139.32639
717.178	101.24381
717.61	153.38529
718.043	135.33545
718.475	150.36175
718.907	217.53977
719.339	106.24145
719.77	85.20286
720.202	157.3938
720.634	127.30831
721.065	134.31716
721.497	142.34659
721.928	112.2751
722.359	73.17735
722.79	163.38692
723.221	145.36305
723.652	179.45656
724.083	127.28677
724.514	177.40309
724.945	78.18505
725.375	113.26264
725.806	159.39407
726.236	176.44582
726.666	148.34894
727.096	154.37546
727.526	128.3239
727.956	110.25097
728.386	165.4028
728.816	118.29795
729.246	117.28414
729.675	80.19803
730.105	163.39792
730.534	156.36294
730.964	169.42314
731.393	152.37555
731.822	164.41484
732.251	125.31636
732.68	172.40206
733.109	109.26887
733.537	135.3249
733.966	135.33386
734.395	131.30231
734.823	139.31348
735.251	134.32182
735.68	146.36377
736.108	166.41585
736.536	166.38849
736.964	123.28555
737.392	116.29008
737.82	107.25751
738.247	183.43322
738.675	163.38677
739.102	118.29423
739.53	130.32942
739.957	137.3503
740.384	210.50949
740.811	119.30118
741.238	100.24472
741.665	166.38148
742.092	170.40237
742.519	95.23563
742.945	110.26448
743.372	138.33996
743.798	157.39989
744.225	155.36594
744.651	132.32985
745.077	167.41208
745.503	124.3021
745.929	104.25015
746.355	162.39967
746.781	175.42864
747.207	87.20517
747.632	117.28467
748.058	184.45294
748.483	176.40106
748.908	135.33386
749.334	108.26547
749.759	145.34008
750.184	137.32483
750.609	156.38034
751.033	186.43444
751.458	154.34383
751.883	185.4523
752.307	103.24308
752.732	104.2596
753.156	159.38902
753.58	151.3565
754.005	161.40471
754.429	132.30929
754.853	127.31339
755.277	129.30456
755.7	142.35008
756.124	143.35235
756.548	104.24692
756.971	162.39187
757.394	176.44741
757.818	134.34269
758.241	176.44058
758.664	107.26994
759.087	61.13774
759.51	163.40147
759.933	118.28339
760.356	139.35392
760.778	166.40366
761.201	131.31754
761.623	140.33801
762.046	157.3698
762.468	150.35805
762.89	159.38888
763.312	125.30436
763.734	111.26714
764.156	157.38399
764.578	136.31191
765	147.35605
765.421	121.3058
765.843	149.38699
766.264	185.44083
766.686	127.31764
767.107	123.29714
767.528	105.26451
767.949	104.2642
768.37	160.38863
768.791	132.31798
769.212	81.20391
769.632	80.18737
770.053	128.33491
770.473	96.23388
770.894	126.31417
771.314	147.34881
771.734	108.25177
772.154	123.31429
772.575	123.28453
772.994	70.16029
773.414	146.3481
773.834	82.20558
774.254	132.32123
774.673	134.32451
775.093	75.1863
775.512	51.12668
775.931	134.33727
776.351	101.25051
776.77	60.14765
777.189	71.1699
777.607	109.27744
778.026	111.27562
778.445	85.21283
778.864	86.22079
779.282	86.20741
779.701	91.22941
780.119	78.19745
780.537	71.17777
780.955	110.27894
781.373	61.15174
781.791	51.11577
782.209	84.19435
782.627	66.17433
783.045	62.14368
783.462	73.18692
783.88	84.21724
784.297	34.08634
784.715	27.06998
785.132	70.17016
785.549	87.2176
785.966	60.15161
786.383	116.28387
786.8	102.23666
787.217	79.18775
787.633	24.06054
788.05	93.2211
788.466	85.20092
788.883	30.07718
789.299	85.20488
789.715	62.15145
790.131	34.08533
790.547	79.19752
790.963	79.1963
791.379	22.05621
791.795	65.14923
792.21	39.09211
792.626	73.17375
793.041	81.20003
793.457	67.16612
793.872	28.06661
794.287	20.04831
794.702	60.14852
795.117	28.07022
795.532	6.01523
795.947	96.23073
796.362	74.17725
796.776	110.25683
797.191	38.09379
797.605	12.02856
798.02	3.00741
798.434	59.1323
798.848	62.15319
799.262	23.05763
799.676	79.19293
800.09	18.0448
800.504	47.11483
800.918	-3.00707
801.331	58.15253
801.745	14.03262
802.158	28.07063
802.572	75.18221
802.985	51.12404
803.398	61.14608
803.811	26.06745
804.224	47.11768
804.637	-13.03152
805.05	44.10281
805.462	52.12844
805.875	-27.07116
806.288	-25.06146
806.7	37.09365
807.112	7.01648
807.525	32.07965
807.937	9.02252
808.349	39.09836
808.761	47.11628
809.173	46.11215
809.584	88.21711
809.996	19.04701
810.408	71.1832
810.819	66.15561
811.231	94.24183
811.642	37.08885
812.053	55.13131
812.464	58.1384
812.875	50.12828
813.286	-11.02872
813.697	52.12232
814.108	75.1833
814.519	0
814.929	37.09498
815.34	29.07096
815.75	16.04105
816.16	52.13013
816.571	29.07587
816.981	22.05252
817.391	40.09723
817.801	28.0701
818.211	59.14113
818.62	-12.02936
819.03	8.01985
819.44	76.19831
819.849	50.12648
820.259	38.09783
820.668	-15.03748
821.077	-10.0252
821.486	36.08735
821.895	59.14618
822.304	65.1723
822.713	28.06679
823.122	12.03027
823.531	16.03835
823.939	16.03939
824.348	36.08813
824.756	29.07319
825.164	15.03813
825.573	-19.04843
825.981	44.10967
826.389	35.08849
826.797	6.0152
827.205	27.06253
827.612	7.01748
828.02	-15.03581
828.428	13.03343
828.835	27.07152
829.243	20.04814
829.65	-44.11162
830.057	-4.00984
830.464	18.04428
830.871	43.10353
831.278	3.00734
831.685	10.02261
832.092	26.06417
832.499	13.0288
832.905	17.04342
833.312	36.08273
833.718	76.18909
834.124	24.05538
834.531	67.16891
834.937	11.0285
835.343	18.04385
835.749	39.09169
836.155	3.00794
836.561	24.0595
836.966	0
837.372	35.08956
837.777	39.09762
838.183	5.01127
838.588	-1.00251
838.993	41.10032
839.399	7.0173
839.804	-17.04206
840.209	3.00772
840.613	-33.07497
841.018	44.11182
841.423	12.03106
841.828	14.03572
842.232	54.13406
842.637	27.06419
843.041	-18.04678
843.445	23.05811
843.849	-35.0882
844.253	39.09318
844.657	-13.03317
845.061	23.05266
845.465	-44.10844
845.869	0
846.272	-6.0148
846.676	24.05849
847.079	-14.03607
847.483	51.12751
847.886	44.10748
848.289	2.00539
848.692	17.04339
849.095	1.00243
849.498	83.20962
849.901	51.11732
850.304	5.01208
850.707	19.04881
851.109	55.13935
851.512	44.10848
851.914	-17.04342
852.316	7.01787
852.718	-37.09709
853.121	2.00495
853.523	6.01418
853.925	-22.05817
854.326	-17.04309
854.728	6.01557
855.13	-14.03656
855.531	-51.12446
855.933	12.02908
856.334	-15.0379
856.736	-95.21967
857.137	-12.0283
857.538	15.038
857.939	27.06709
858.34	40.09785
858.741	-10.02644
859.142	22.05324
859.542	10.02659
859.943	3.00753
860.343	7.0175
860.744	48.11738
861.144	22.05404
861.544	-29.07085
861.945	19.04875
862.345	47.11521
862.745	11.02757
863.145	34.08169
863.544	-10.02557
863.944	7.01671
864.344	-2.00502
864.743	60.14885
865.143	32.08256
865.542	-5.01175
865.941	14.03493
866.34	19.04587
866.74	18.04861
867.139	-24.05836
867.537	3.00772
867.936	8.01944
868.335	40.10208
868.734	36.09233
869.132	7.01643
869.531	31.07537
869.929	-65.15185
870.327	26.0627
870.726	46.11495
871.124	9.02124
871.522	20.05128
871.92	13.03233
872.318	49.11998
872.715	31.07712
873.113	-6.01479
873.511	16.04016
873.908	-22.0563
874.306	22.05506
874.703	16.04033
875.1	43.11026
875.497	8.01936
875.894	6.01484
876.291	26.06417
876.688	12.03118
877.085	56.13439
877.482	28.07045
877.878	-27.06601
878.275	2.00513
878.671	38.08498
879.068	33.08002
879.464	10.02438
879.86	-8.01915
880.256	49.12109
880.652	3.0077
881.048	44.10927
881.444	13.0312
881.84	20.05115
882.236	-5.01271
882.631	-12.02982
883.027	49.11882
883.422	31.0796
883.817	-22.05605
884.213	14.03618
884.608	-41.10233
885.003	-3.00731
885.398	-37.09414
885.793	1.00253
886.188	8.02006
886.582	79.20179
886.977	63.14932
887.371	31.07874
887.766	-26.06561
888.16	24.06023
888.554	46.11395
888.949	6.0152
889.343	46.11257
889.737	-48.13005
890.131	54.13548
890.525	3.00774
890.918	25.06325
891.312	22.05298
891.706	23.06066
892.099	18.0461
892.492	-15.03286
892.886	12.0296
893.279	-1.00257
893.672	18.04612
894.065	46.11537
894.458	7.01775
894.851	53.12992
895.244	-25.06473
895.637	-15.03661
896.029	12.02957
896.422	9.02218
896.814	-18.04534
897.206	-16.03862
897.599	29.07206
897.991	-29.07122
898.383	-19.04554
898.775	9.0205
899.167	-72.17206
899.559	9.02296
899.951	48.11331
900.342	73.18502
900.734	-16.0402
901.125	54.14168
901.517	6.01486
901.908	26.06268
902.299	29.07122
902.69	17.0404
903.082	16.03902
903.473	-24.05832
903.863	-20.05169
904.254	8.01874
904.645	44.10963
905.036	-25.06142
905.426	21.04841
905.817	39.09596
906.207	-46.11169
906.597	4.00945
906.987	49.12709
907.378	27.0686
907.768	-15.04011
908.158	34.08321
908.547	-38.0997
908.937	16.04132
909.327	1.00245
909.717	8.02047
910.106	-37.0904
910.495	44.11003
910.885	41.10406
911.274	24.0603
911.663	39.09923
912.052	19.04718
912.441	8.0205
912.83	4.00927
913.219	33.08665
913.608	22.0542
913.997	-27.06865
914.385	44.10531
914.774	-8.0197
915.162	-29.07019
915.55	50.12104
915.939	-12.03064
916.327	30.07518
916.715	-26.06717
917.103	33.08152
917.491	18.04482
917.878	37.09124
918.266	22.05735
918.654	20.05138
919.041	-21.0555
919.429	-2.00477
919.816	14.03573
920.203	-4.0098
920.591	12.02998
920.978	52.12735
921.365	-12.03182
921.752	-4.00964
922.139	26.05678
922.525	-4.00971
922.912	8.01967
923.299	-8.0201
923.685	-41.10864
924.072	20.04642
924.458	3.0075
924.844	-42.10571
925.231	-3.00706
925.617	-13.03344
926.003	28.07186
926.389	1.00255
926.774	3.00767
927.16	33.08224
927.546	-16.04132
927.931	36.09009
928.317	-3.00699
928.702	34.08072
929.088	-26.06242
929.473	-18.04636
929.858	-76.18813
930.243	-53.12973
930.628	16.03918
931.013	-21.05273
931.398	13.03013
931.783	31.0819
932.167	16.03937
932.552	4.01011
932.937	-17.04272
933.321	-9.02283
933.705	14.03553
934.09	46.11636
934.474	34.08104
934.858	9.02351
935.242	-9.02111
935.626	10.02578
936.009	7.01875
936.393	52.13229
936.777	-20.05185
937.16	-5.01313
937.544	23.05449
937.927	14.03575
938.311	63.15346
938.694	43.11387
939.077	-23.05584
939.46	8.0198
939.843	36.07538
940.226	19.04901
940.609	-2.00464
940.991	4.01027
941.374	11.02708
941.757	16.03974
942.139	-14.03186
942.522	38.09005
942.904	10.02423
943.286	15.03836
943.668	13.03389
944.05	14.03472
944.432	2.00498
944.814	27.0668
945.196	-20.04938
945.578	-66.16038
945.959	-5.01185
946.341	61.14947
946.722	23.05428
947.104	45.10768
947.485	1.00235
947.866	32.08089
948.247	-7.01784
948.628	-1.00246
949.009	-12.03107
949.39	22.05506
949.771	-1.00235
950.152	22.05428
950.532	-79.19895
950.913	23.05577
951.293	-7.01909
951.674	27.0656
952.054	6.01499
952.434	0
952.814	24.0574
953.194	62.16195
953.574	28.06926
953.954	9.02155
954.334	15.03763
954.714	-4.00985
955.093	38.09365
955.473	12.03021
955.853	19.04945
956.232	13.03584
956.611	18.04344
956.99	4.01014
957.37	46.11731
957.749	33.079
958.128	8.02031
958.506	-18.04724
958.885	25.06339
959.264	-20.04965
959.643	33.07537
960.021	-2.005
960.4	14.03197
960.778	76.18633
961.156	-4.01013
961.535	8.0188
961.913	5.0118
962.291	-42.10948
962.669	12.0306
963.047	15.03852
963.424	-13.03354
963.802	-31.07737
964.18	41.10392
964.557	46.10605
964.935	45.10674
965.312	-20.0527
965.69	42.10533
966.067	17.04166
966.444	26.06436
966.821	25.06473
967.198	8.01956
967.575	58.14241
967.952	56.13183
968.329	15.03674
968.705	-8.01737
969.082	11.0284
969.458	-13.03156
969.835	28.06845
970.211	-4.01036
970.587	25.06253
970.963	24.06185
971.339	7.01841
971.715	27.0677
972.091	-2.00497
972.467	18.04516
972.843	-38.09582
973.219	36.08669
973.594	8.02107
973.97	53.1261
974.345	-23.05582
974.721	11.02683
975.096	0
975.471	44.10451
975.846	-19.04625
976.221	1.00256
976.596	-43.1049
976.971	67.16491
977.346	20.04684
977.72	9.02309
978.095	-5.01304
978.469	23.05519
978.844	32.08072
979.218	-23.0559
979.593	7.01691
979.967	6.01474
980.341	-19.04435
980.715	35.08843
981.089	37.09284
981.463	-42.09822
981.837	4.00986
982.21	32.07474
982.584	2.00487
982.957	-11.02777
983.331	17.04045
983.704	8.01981
984.078	1.00249
984.451	36.09016
984.824	-15.03697
985.197	10.02447
985.57	25.06298
985.943	42.10389
986.316	57.13988
986.688	29.07022
987.061	17.04011
987.434	36.09403
987.806	58.14046
988.179	-31.0743
988.551	73.18443
988.923	13.03223
989.295	26.06525
989.667	-6.01449
990.039	-8.01998
990.411	10.0232
990.783	8.01858
991.155	-8.01943
991.527	56.13776
991.898	-4.01006
992.27	24.05965
992.641	27.06802
993.012	-5.01189
993.384	-1.00241
993.755	9.02311
994.126	40.0964
994.497	19.0469
994.868	-17.03958
995.239	23.05602
995.61	44.11083
995.98	-51.12622
996.351	-16.0401
996.722	-55.13021
997.092	-18.04318
997.462	-63.15041
997.833	26.06192
998.203	15.03661
998.573	-19.0479
998.943	8.01891
999.313	2.00484
999.683	-21.05108
1000.053	-7.01629
1000.423	6.0147
1000.792	-2.00523
1001.162	5.01241
1001.531	7.01739
1001.901	9.0226
1002.27	10.02254
1002.639	24.0616
1003.009	21.05021
1003.378	3.00773
1003.747	7.01667
1004.116	-17.04119
1004.485	0
1004.853	27.06868
1005.222	2.00509
1005.591	7.01676
1005.959	-26.05949
1006.328	0
1006.696	-40.09811
1007.064	41.10329
1007.433	16.04023
1007.801	33.08125
1008.169	29.0735
1008.537	28.06228
1008.905	-6.01413
1009.273	46.1137
1009.64	-38.09216
1010.008	-3.00722
1010.375	46.11178
1010.743	55.12688
1011.11	25.05944
1011.478	32.07944
1011.845	-5.01188
1012.212	-11.0252
1012.579	34.0837
1012.946	46.10955
1013.313	26.06216
1013.68	0
1014.047	-16.0386
1014.414	-8.0191
1014.78	-5.01255
1015.147	18.04379
1015.513	2.00486
1015.88	45.11515
1016.246	27.06692
1016.612	-4.00925
1016.978	26.06398
1017.344	15.0373
1017.71	59.14361
1018.076	22.05215
1018.442	16.04139
1018.808	26.06525
1019.174	-3.0076
1019.539	69.15822
1019.905	41.09684
1020.27	-24.06002
1020.636	24.05782
1021.001	-9.02178
1021.366	-24.05843
1021.731	-2.00519
1022.096	-22.05619
1022.461	12.0286
1022.826	29.06918
1023.191	7.01849
1023.556	21.04948
1023.92	50.12291
1024.285	32.07834
1024.649	15.03699
1025.014	23.05724
1025.378	19.04802
1025.742	11.0275
1026.107	18.04097
1026.471	8.01883
1026.835	12.02994
1027.199	-1.00243
1027.562	-45.10653
1027.926	8.01971
1028.29	14.03564
1028.654	-3.00697
1029.017	-26.06478
1029.381	16.03846
1029.744	15.03848
1030.107	54.12762
1030.471	5.01207
1030.834	18.0412
1031.197	26.06289
1031.56	3.00714
1031.923	8.02083
1032.286	44.10342
1032.648	12.0289
1033.011	-20.04653
1033.374	20.04727
1033.736	-13.03453
1034.099	6.01474
1034.461	1.00255
1034.823	-21.05294
1035.185	15.03798
1035.548	2.00491
1035.91	-10.02422
1036.272	25.05717
1036.634	34.08339
1036.995	20.04727
1037.357	-4.00983
1037.719	29.07077
1038.08	0
1038.442	-14.03362
1038.803	17.04105
1039.165	3.00763
1039.526	-26.0637
1039.887	-25.06065
1040.248	-24.05991
1040.609	64.15767
1040.97	-10.0247
1041.331	24.06101
1041.692	-30.07109
1042.053	3.00689
1042.413	21.0492
1042.774	-13.03197
1043.134	34.08116
1043.495	-22.05599
1043.855	5.01222
1044.215	21.05237
1044.576	-26.06304
1044.936	9.02079
1045.296	6.01509
1045.656	28.06895
1046.016	2.00487
1046.375	19.04633
1046.735	-14.03213
1047.095	19.04472
1047.454	3.00642
1047.814	9.02179
1048.173	59.14065
1048.533	-23.05344
1048.892	-86.21163
1049.251	24.06049
1049.61	2.00497
1049.969	6.01426
1050.328	-38.08389
1050.687	20.04891
1051.046	-7.01722
1051.405	39.09716
1051.763	-28.06535
1052.122	-34.08604
1052.48	44.10796
1052.839	-3.00713
1053.197	-14.03334
1053.555	29.06637
1053.914	41.10039
1054.272	57.13755
1054.63	-15.0371
1054.988	2.00479
1055.345	-15.03273
1055.703	3.00728
1056.061	-9.02338
1056.419	27.07013
1056.776	26.0633
1057.134	4.00934
1057.491	20.05032
1057.848	24.06
1058.206	26.0614
1058.563	-33.07397
1058.92	24.05557
1059.277	70.17194
1059.634	13.03079
1059.991	20.04816
1060.348	-29.06655
1060.704	-25.0604
1061.061	6.01405
1061.418	-16.03926
1061.774	2.00498
1062.131	-16.04274
1062.487	1.00236
1062.843	31.07751
1063.199	-8.02009
1063.555	18.04194
1063.911	38.09612
1064.267	70.14527
1064.623	-11.027
1064.979	67.15812
1065.335	21.05044
1065.691	18.04338
1066.046	-23.05132
1066.402	-14.0322
1066.757	34.08601
1067.112	14.03457
1067.468	-20.04783
1067.823	54.12964
1068.178	49.11846
1068.533	26.06327
1068.888	20.04803
1069.243	-17.04244
1069.598	26.06342
1069.952	-56.12875
1070.307	-8.02
1070.662	-8.01919
1071.016	-57.13044
1071.371	-38.08792
1071.725	-3.00724
1072.079	-25.06094
1072.434	-4.00981
1072.788	-1.0024
1073.142	35.08627
1073.496	0
1073.85	30.0698
1074.203	16.03904
1074.557	23.06139
1074.911	54.1287
1075.265	21.04906
1075.618	4.00984
1075.971	16.03828
1076.325	3.00768
1076.678	-32.07433
1077.031	-34.0782
1077.385	-5.01113
1077.738	2.00456
1078.091	-44.10189
1078.444	-1.00234
1078.796	12.02963
1079.149	24.05993
1079.502	-18.04305
1079.855	-30.07101
1080.207	6.01489
1080.56	16.04156
1080.912	31.07568
1081.264	5.01213
1081.617	15.03677
1081.969	-14.03569
1082.321	-33.08176
1082.673	6.01381
1083.025	8.01912
1083.377	-196.44265
1083.728	26.0609
1084.08	40.09996
1084.432	23.05571
1084.783	33.07752
1085.135	-25.06345
1085.486	-24.05568
1085.838	-2.00497
1086.189	-1.00245
1086.54	36.08613
1086.891	0
1087.242	-39.09645
1087.593	67.16247
1087.944	-8.0183
1088.295	21.04798
1088.646	1.00244
1088.996	-74.1823
1089.347	9.02223
1089.698	4.00953
1090.048	52.1349
1090.398	23.05359
1090.749	46.11006
1091.099	-31.07902
1091.449	-16.0403
1091.799	62.15476
1092.149	-28.06921
1092.499	-10.02464
1092.849	-3.00769
1093.199	30.0754
1093.548	3.00727
1093.898	-3.00757
1094.248	29.07473
1094.597	-22.05682
1094.947	17.04556
1095.296	-8.01995
1095.645	4.01048
1095.994	38.0914
1096.343	-18.04581
1096.692	14.03697
1097.041	-23.06295
1097.39	1.00253
1097.739	16.04179
1098.088	79.21045
1098.437	-23.06111
1098.785	34.09182
1099.134	16.04269
1099.482	22.06072
1099.83	11.02907
1100.179	6.01575
1100.527	26.0693
1100.875	-1.00266
1101.223	34.09044
1101.571	0
1101.919	-20.05283
1102.267	11.03113
1102.615	-4.01287
1102.962	11.03541
1103.31	-4.01287
1103.658	25.08039
