Data from N2 R5 sample 6_Subt2__0__12-00-11-368.txt Node

Date: Fri Aug 29 12:00:11 PDT 2025
User: uwsun
Spectrometer: HDX01956
Trigger mode: 0
Integration Time (sec): 5.000000E-1
Scans to average: 1
Nonlinearity correction enabled: true
Boxcar width: 0
Storing dark spectrum: false
XAxis mode: Wavelengths
Number of Pixels in Spectrum: 2068
>>>>>Begin Spectral Data<<<<<
194.03	67.18612
194.578	66.20702
195.127	72.22231
195.676	78.2414
196.225	110.28644
196.773	121.32533
197.321	118.31053
197.87	198.47207
198.418	144.34228
198.966	138.33042
199.513	96.22053
200.061	89.20825
200.609	169.41241
201.156	113.22565
201.704	98.22755
202.251	165.3992
202.798	130.31043
203.345	180.40652
203.892	134.30967
204.438	166.36234
204.985	129.27782
205.532	213.50657
206.078	198.44005
206.624	114.25684
207.17	204.42771
207.716	115.25596
208.262	144.25894
208.808	132.29532
209.354	152.33642
209.899	214.49197
210.445	106.24155
210.99	122.26867
211.535	181.38679
212.08	152.32306
212.625	135.31067
213.17	199.45813
213.715	90.18294
214.259	145.30945
214.804	177.3995
215.348	142.29772
215.892	134.29522
216.436	140.29859
216.98	103.21132
217.524	113.24597
218.068	133.30876
218.612	163.37661
219.155	89.19423
219.698	126.27666
220.242	163.37406
220.785	130.28027
221.328	163.37301
221.871	163.38124
222.414	134.30917
222.956	92.20515
223.499	181.37118
224.041	133.28729
224.583	145.28982
225.126	123.25042
225.668	116.2607
226.21	116.26988
226.751	81.16416
227.293	166.34804
227.835	89.20187
228.376	161.34226
228.918	178.41281
229.459	106.24389
230	133.2916
230.541	106.22676
231.082	63.14266
231.622	158.3342
232.163	104.23297
232.704	126.28759
233.244	89.20498
233.784	160.36106
234.324	107.21516
234.864	60.12697
235.404	141.30901
235.944	161.35001
236.484	194.44171
237.023	155.33438
237.563	116.24644
238.102	120.26127
238.641	158.366
239.18	88.18964
239.719	154.35418
240.258	147.30255
240.797	109.23989
241.335	211.46767
241.874	130.22764
242.412	121.26686
242.95	82.1805
243.488	147.30637
244.026	155.32448
244.564	150.28069
245.102	124.25446
245.64	145.32059
246.177	192.38831
246.715	139.30604
247.252	134.28207
247.789	159.27293
248.326	77.16996
248.863	130.2593
249.4	170.35012
249.936	145.27033
250.473	125.26573
251.009	120.25037
251.546	114.2294
252.082	104.20879
252.618	119.24128
253.154	97.21339
253.69	154.31389
254.226	114.24852
254.761	92.18948
255.297	120.23869
255.832	125.26909
256.367	162.34476
256.903	160.31617
257.438	183.38733
257.972	122.24708
258.507	97.20198
259.042	118.23285
259.576	80.15653
260.111	132.27749
260.645	135.26483
261.179	102.21651
261.713	122.24561
262.247	165.3425
262.781	114.21576
263.315	129.28569
263.849	170.38174
264.382	186.38308
264.915	152.31911
265.449	114.24957
265.982	138.28383
266.515	141.30992
267.048	125.23791
267.58	143.28238
268.113	144.27814
268.646	148.32811
269.178	175.3467
269.71	150.29377
270.243	141.28994
270.775	117.26936
271.307	176.38009
271.838	196.41657
272.37	160.35249
272.902	185.37441
273.433	114.22432
273.965	157.34204
274.496	212.46862
275.027	143.31815
275.558	120.26182
276.089	105.23108
276.62	159.36356
277.15	158.34969
277.681	173.33392
278.211	176.38514
278.741	89.17591
279.272	166.33496
279.802	135.30259
280.332	139.29163
280.861	201.42636
281.391	144.2895
281.921	150.32283
282.45	158.35247
282.98	181.41919
283.509	130.26002
284.038	185.37012
284.567	180.37205
285.096	154.33016
285.625	129.25964
286.153	139.28802
286.682	174.34852
287.21	200.42007
287.739	151.31456
288.267	125.26781
288.795	180.41894
289.323	122.25104
289.851	140.28938
290.378	154.30288
290.906	131.27824
291.433	175.38222
291.961	92.1841
292.488	170.3706
293.015	191.38797
293.542	103.2302
294.069	162.34671
294.596	228.48775
295.122	202.41565
295.649	195.37041
296.175	189.39793
296.702	182.38361
297.228	196.41294
297.754	128.2502
298.28	160.3129
298.806	137.28603
299.332	196.36768
299.857	142.27639
300.383	219.47711
300.908	92.19383
301.433	173.35975
301.958	241.4721
302.483	149.31965
303.008	214.45185
303.533	285.62746
304.058	226.45204
304.582	141.28445
305.107	169.37677
305.631	211.40746
306.155	190.3721
306.679	158.31222
307.203	176.3442
307.727	156.31449
308.251	172.36094
308.775	105.21153
309.298	127.25691
309.822	235.49521
310.345	227.44572
310.868	151.30364
311.391	194.40063
311.914	152.3201
312.437	222.41872
312.96	227.43794
313.482	195.38108
314.005	189.3939
314.527	197.42882
315.049	264.54665
315.571	186.33378
316.093	246.4941
316.615	207.4053
317.137	241.41726
317.659	289.56318
318.18	264.51213
318.702	260.47933
319.223	212.34319
319.744	238.42007
320.265	250.47686
320.786	211.41352
321.307	259.50712
321.828	271.4742
322.348	309.55696
322.869	260.47091
323.389	263.3119
323.909	219.39027
324.43	310.5761
324.95	286.49241
325.47	229.4314
325.989	265.46957
326.509	273.44034
327.029	269.44522
327.548	231.38316
328.067	287.50723
328.587	301.55617
329.106	332.53933
329.625	333.65664
330.144	259.43223
330.662	234.39168
331.181	308.51218
331.7	322.53134
332.218	310.46238
332.736	352.57022
333.255	255.41737
333.773	300.49338
334.291	358.62399
334.808	368.54129
335.326	387.57432
335.844	291.45001
336.361	281.48342
336.879	333.5053
337.396	334.52702
337.913	354.51876
338.43	331.47147
338.947	357.54077
339.464	382.49054
339.981	326.48537
340.497	350.55036
341.014	318.48845
341.53	355.47899
342.046	339.51349
342.562	375.57894
343.078	358.50497
343.594	380.54115
344.11	424.58751
344.626	393.58963
345.141	388.50134
345.657	418.53645
346.172	444.60455
346.687	396.50399
347.202	438.52524
347.717	432.56783
348.232	427.59913
348.747	466.56132
349.261	378.41719
349.776	413.51566
350.29	431.55868
350.805	490.64374
351.319	471.55729
351.833	417.46658
352.347	444.52471
352.861	440.50661
353.374	489.55237
353.888	460.55729
354.401	457.50317
354.915	386.40328
355.428	460.5581
355.941	472.50458
356.454	491.5047
356.967	493.54079
357.48	474.49703
357.993	520.59443
358.505	501.55647
359.018	571.61683
359.53	546.56534
360.042	525.47957
360.554	620.63231
361.066	492.52056
361.578	540.45636
362.09	523.52224
362.602	515.43451
363.113	582.52012
363.625	530.44916
364.136	615.4787
364.647	503.42189
365.158	589.49775
365.669	613.53967
366.18	563.48576
366.691	614.44406
367.201	537.46673
367.712	578.43017
368.222	576.42685
368.733	636.38242
369.243	629.38605
369.753	604.42114
370.263	658.4684
370.773	684.50593
371.282	539.37278
371.792	652.33131
372.301	642.38606
372.811	609.44979
373.32	547.2021
373.829	622.28286
374.338	691.22036
374.847	721.22047
375.356	715.21906
375.865	771.05945
376.373	854.07889
376.882	919.20395
377.39	843.11046
377.898	851.03461
378.407	954.87852
378.915	947.82019
379.423	922.85127
379.93	1065.71475
380.438	1125.65251
380.946	1163.55566
381.453	1081.55583
381.96	1141.45729
382.468	1368.26864
382.975	1546.17478
383.482	1373.25202
383.989	1349.26786
384.495	1443.24047
385.002	1501.36188
385.509	1591.35
386.015	1776.76184
386.521	1935.82307
387.028	1868.09097
387.534	1905.45109
388.04	2167.59772
388.546	1919.13912
389.051	2181.43993
389.557	2416.81767
390.063	2626.74321
390.568	2446.14487
391.073	2536.08933
391.578	2627.00685
392.084	2693.36465
392.589	2712.13074
393.093	2805.67061
393.598	3227.62052
394.103	3573.9415
394.607	3760.32888
395.112	3922.71211
395.616	4447.86868
396.12	4295.36255
396.624	4799.65117
397.128	5115.26854
397.632	5959.12554
398.136	6095.33674
398.639	5963.58948
399.143	7019.52455
399.646	7738.71188
400.15	8098.98022
400.653	9439.56627
401.156	9515.83197
401.659	4165.7703
402.162	1054.15589
402.664	0
403.167	0
403.67	0
404.172	0
404.674	0
405.176	0
405.678	0
406.18	0
406.682	0
407.184	0
407.686	0
408.187	0
408.688	0
409.19	0
409.691	0
410.192	0
410.693	0
411.194	435.30976
411.694	4082.94878
412.195	8864.71461
412.696	12089.80453
413.196	12760.96929
413.696	12863.67595
414.196	13703.56671
414.696	17261.84252
415.196	18449.43252
415.696	16377.8465
416.196	11864.60683
416.695	9188.09998
417.195	8550.68719
417.694	8533.24518
418.194	7589.30887
418.693	7037.80207
419.192	7176.52643
419.691	6827.45755
420.19	6757.34467
420.688	6820.12828
421.187	6259.07761
421.685	5754.45631
422.184	5033.17378
422.682	4443.40895
423.18	3675.91724
423.678	3441.20083
424.176	3044.55908
424.674	3088.96351
425.172	2826.66085
425.669	2601.36614
426.167	2403.11779
426.664	2158.26927
427.161	1871.66455
427.659	1862.29865
428.156	1545.36181
428.652	1657.13485
429.149	1515.1869
429.646	1366.25556
430.143	1435.2494
430.639	1309.34639
431.135	1235.46914
431.632	1134.52741
432.128	995.69206
432.624	863.83033
433.12	895.72406
433.616	935.72224
434.111	713.87368
434.607	821.90083
435.103	730.90508
435.598	708.92935
436.093	747.07017
436.588	672.09312
437.083	681.13775
437.578	628.18476
438.073	443.20409
438.568	547.28524
439.062	495.17613
439.557	490.27809
440.051	402.21857
440.546	362.21003
441.04	393.26834
441.534	397.32533
442.028	409.31089
442.522	329.261
443.015	347.22983
443.509	373.32322
444.002	342.30205
444.496	363.25717
444.989	323.29979
445.482	365.34521
445.975	275.22186
446.468	305.22586
446.961	274.20886
447.454	262.22981
447.947	176.17186
448.439	218.22967
448.931	205.1856
449.424	213.2461
449.916	229.24684
450.408	186.17712
450.9	164.18076
451.392	116.14134
451.884	156.16553
452.375	122.14566
452.867	222.23238
453.358	122.12882
453.849	161.15391
454.341	146.15604
454.832	106.10769
455.323	115.14219
455.814	209.23389
456.304	144.16717
456.795	92.10848
457.285	183.20747
457.776	165.19867
458.266	83.10591
458.756	145.18927
459.247	8.01062
459.737	10.01337
460.226	83.10087
460.716	64.08664
461.206	46.06412
461.695	89.13212
462.185	29.04046
462.674	152.19982
463.163	36.04694
463.653	76.0912
464.142	6.00888
464.63	120.17874
465.119	44.06181
465.608	-8.01147
466.096	50.06702
466.585	38.05588
467.073	8.01252
467.561	63.09798
468.05	76.11361
468.538	74.11972
469.026	15.02396
469.513	-9.01235
470.001	24.0359
470.489	-1.00159
470.976	-21.0332
471.463	25.04328
471.951	-22.03921
472.438	-36.0593
472.925	-48.07893
473.412	54.09436
473.899	-21.03458
474.385	-3.00535
474.872	-42.07088
475.359	-24.04291
475.845	-93.14067
476.331	-8.01274
476.817	-29.05315
477.303	-84.14779
477.789	-65.11938
478.275	-26.04889
478.761	-19.03493
479.247	-60.10346
479.732	-22.04192
480.218	-54.11036
480.703	-85.16682
481.188	-140.23729
481.673	-134.24467
482.158	-128.21236
482.643	-27.05497
483.128	-127.2316
483.612	-106.19983
484.097	-53.105
484.581	-84.15882
485.066	-49.09589
485.55	-93.16435
486.034	-172.30723
486.518	-101.19326
487.002	-122.24595
487.486	-129.26179
487.969	-192.39597
488.453	-109.23131
488.936	-102.19078
489.42	-91.1678
489.903	-111.23751
490.386	-61.08151
490.869	-106.19531
491.352	-55.11417
491.835	-108.18932
492.318	-181.35188
492.8	-86.14996
493.283	-126.2748
493.765	-104.21882
494.247	-54.10796
494.73	-107.20285
495.212	-95.1994
495.694	-137.27638
496.175	-186.38342
496.657	-117.24167
497.139	-134.2047
497.62	-225.47059
498.102	-139.30115
498.583	-135.29773
499.064	-167.32621
499.545	-156.31377
500.026	-174.34448
500.507	-156.32028
500.988	-162.3578
501.469	-169.3749
501.949	-175.3874
502.43	-231.4917
502.91	-190.34974
503.39	-150.336
503.87	-186.38997
504.35	-155.32821
504.83	-183.35848
505.31	-195.42446
505.79	-207.4456
506.269	-182.38395
506.749	-211.43466
507.228	-196.41385
507.707	-146.28864
508.187	-151.3252
508.666	-248.55505
509.145	-207.43755
509.623	-200.42563
510.102	-175.38352
510.581	-145.31657
511.059	-205.46572
511.538	-149.34877
512.016	-132.28361
512.494	-155.34098
512.972	-131.28115
513.45	-235.49543
513.928	-168.36841
514.406	-259.57023
514.884	-188.43997
515.361	-204.44679
515.839	-199.414
516.316	-202.44465
516.793	-208.48487
517.27	-126.27724
517.747	-205.48191
518.224	-173.36649
518.701	-129.26012
519.178	-237.54059
519.654	-211.46533
520.131	-222.50709
520.607	-190.4347
521.083	-197.41422
521.56	-196.42637
522.036	-189.38321
522.512	-145.32795
522.987	-201.43789
523.463	-216.47546
523.939	-192.43557
524.414	-159.33815
524.89	-196.43035
525.365	-191.39966
525.84	-262.57913
526.315	-229.51285
526.79	-142.29338
527.265	-159.33344
527.74	-215.48665
528.215	-196.42836
528.689	-233.48236
529.164	-191.3862
529.638	-157.37225
530.112	-235.51674
530.587	-208.41199
531.061	-234.5261
531.534	-208.4711
532.008	-219.49046
532.482	-164.34902
532.956	-230.54584
533.429	-193.43526
533.903	-197.40801
534.376	-214.44332
534.849	-191.41293
535.322	-200.4408
535.795	-158.35757
536.268	-201.45052
536.741	-189.4238
537.213	-176.37912
537.686	-247.56522
538.158	-219.45845
538.631	-180.40884
539.103	-218.45727
539.575	-183.3578
540.047	-203.41893
540.519	-148.32838
540.991	-179.40946
541.463	-145.32514
541.934	-153.32469
542.406	-190.42192
542.877	-148.30948
543.348	-138.30874
543.82	-125.28341
544.291	-118.25462
544.762	-157.34422
545.233	-141.32552
545.703	-168.34445
546.174	-139.29832
546.645	-191.42158
547.115	-161.35804
547.585	-90.18862
548.056	-125.27371
548.526	-161.34673
548.996	-100.21874
549.466	-8.01748
549.935	-132.28312
550.405	-80.15719
550.875	-54.11407
551.344	-63.1355
551.814	-77.15898
552.283	-50.09736
552.752	41.08271
553.221	-46.08808
553.69	0
554.159	17.03631
554.628	-15.02927
555.096	15.03319
555.565	-38.07495
556.033	58.11951
556.502	47.10009
556.97	31.06075
557.438	60.12558
557.906	109.22737
558.374	71.14442
558.842	99.20872
559.31	125.24602
559.777	117.2484
560.245	195.39935
560.712	245.48857
561.18	163.31401
561.647	227.4373
562.114	252.49166
562.581	290.61285
563.048	325.63635
563.514	354.73136
563.981	372.71511
564.448	433.80132
564.914	497.94645
565.381	525.96968
565.847	594.11177
566.313	605.12151
566.779	683.19664
567.245	706.2828
567.711	738.36553
568.176	784.32483
568.642	824.57129
569.108	890.63264
569.573	938.62535
570.038	954.42866
570.504	966.54717
570.969	1122.99142
571.434	1051.59601
571.899	1169.91261
572.363	1178.81817
572.828	1264.9245
573.293	1242.89971
573.757	1284.94249
574.222	1309.87938
574.686	1341.91502
575.15	1340.07627
575.614	1429.05897
576.078	1439.12992
576.542	1428.0442
577.006	1443.02308
577.469	1506.37642
577.933	1428.98299
578.396	1457.19718
578.86	1425.14208
579.323	1356.10004
579.786	1391.87394
580.249	1360.98178
580.712	1342.17376
581.175	1301.1499
581.637	1336.01486
582.1	1301.86199
582.563	1283.79722
583.025	1197.99126
583.487	1146.53115
583.95	1165.67101
584.412	1212.68129
584.874	1096.88101
585.336	1121.85512
585.797	1058.59098
586.259	1040.76084
586.721	963.64281
587.182	1002.70361
587.643	939.55888
588.105	898.58137
588.566	868.34477
589.027	842.5266
589.488	796.37942
589.949	852.56279
590.41	745.08132
590.87	786.37359
591.331	791.29371
591.791	744.32052
592.252	676.20454
592.712	705.32873
593.172	657.16185
593.632	707.20442
594.092	656.15013
594.552	637.07846
595.011	615.11911
595.471	635.12344
595.931	576.02916
596.39	572.10431
596.849	612.13705
597.308	624.07327
597.768	512.07059
598.227	643.23423
598.685	614.13059
599.144	606.13371
599.603	656.23168
600.062	544.91585
600.52	568.01432
600.978	664.24489
601.437	633.15194
601.895	654.08189
602.353	716.23127
602.811	656.1429
603.269	729.35792
603.727	726.35265
604.184	677.18734
604.642	732.39693
605.099	804.41693
605.557	836.54955
606.014	838.3346
606.471	861.61619
606.928	895.38556
607.385	915.63531
607.842	923.54317
608.299	941.60775
608.755	947.67526
609.212	1003.58076
609.668	1034.59851
610.125	1066.84201
610.581	1102.87023
611.037	1046.71957
611.493	1061.80863
611.949	965.70984
612.405	1026.43147
612.861	1160.92575
613.316	1083.85121
613.772	1126.81997
614.227	1117.86779
614.683	1166.72094
615.138	1069.79501
615.593	1090.80807
616.048	1205.91395
616.503	1140.01491
616.958	1103.00428
617.412	1112.88523
617.867	1041.64941
618.321	1062.56078
618.776	1065.69727
619.23	1047.79903
619.684	1092.78062
620.138	1120.8815
620.592	1035.86932
621.046	1087.86898
621.5	1029.86695
621.954	976.65213
622.407	1002.66156
622.861	988.81917
623.314	949.64316
623.768	845.54021
624.221	814.23725
624.674	841.51976
625.127	835.54115
625.58	880.57059
626.033	821.43679
626.485	766.47747
626.938	770.48236
627.39	755.42314
627.843	705.33979
628.295	677.29586
628.747	704.38175
629.199	670.2642
629.651	618.18016
630.103	625.20423
630.555	583.04573
631.006	577.1585
631.458	602.20962
631.909	558.10869
632.361	558.12416
632.812	512.03038
633.263	550.02367
633.714	494.92954
634.165	509.08616
634.616	461.97609
635.067	501.98237
635.518	463.98675
635.968	446.79963
636.419	464.89971
636.869	467.99441
637.319	460.95119
637.769	402.81413
638.219	462.99338
638.669	322.70995
639.119	419.92938
639.569	351.77988
640.019	405.85454
640.468	313.65058
640.918	369.81952
641.367	363.75046
641.816	317.66065
642.265	347.74342
642.714	339.72816
643.163	398.83922
643.612	304.68065
644.061	259.51721
644.51	301.64209
644.958	305.62745
645.406	260.5879
645.855	341.77902
646.303	331.72353
646.751	261.56184
647.199	317.67533
647.647	274.59578
648.095	293.63234
648.543	302.58389
648.99	258.5848
649.438	293.6513
649.885	273.64075
650.333	276.50806
650.78	298.67875
651.227	265.61225
651.674	259.56185
652.121	245.5692
652.568	258.59643
653.015	310.74075
653.461	233.53061
653.908	255.56754
654.354	241.55171
654.801	176.40024
655.247	266.55819
655.693	241.60186
656.139	224.51681
656.585	220.50859
657.031	186.4199
657.477	168.3541
657.922	192.42866
658.368	245.58087
658.813	259.57883
659.259	174.40657
659.704	189.42798
660.149	165.37576
660.594	170.39411
661.039	202.44707
661.484	211.48963
661.929	180.41133
662.373	146.36073
662.818	165.40025
663.262	157.37038
663.707	146.36311
664.151	218.51676
664.595	149.35314
665.039	182.44273
665.483	188.46671
665.927	210.482
666.371	109.25004
666.814	163.38304
667.258	113.26482
667.701	185.39345
668.145	216.52366
668.588	139.33706
669.031	82.19251
669.474	164.38877
669.917	179.39096
670.36	157.38356
670.803	188.44548
671.245	183.38072
671.688	171.41091
672.13	156.34584
672.573	174.43479
673.015	161.38173
673.457	106.23147
673.899	169.40394
674.341	112.26949
674.783	151.35802
675.225	138.33633
675.666	89.21387
676.108	146.31598
676.549	151.35498
676.991	142.31205
677.432	104.20898
677.873	108.25038
678.314	148.3507
678.755	134.32402
679.196	121.2769
679.637	185.44573
680.078	154.35829
680.518	173.39971
680.959	121.28933
681.399	157.38527
681.839	117.28435
682.28	135.33092
682.72	97.22314
683.16	106.26363
683.6	191.43075
684.039	92.19417
684.479	130.31754
684.919	86.1993
685.358	152.38243
685.798	124.323
686.237	171.40966
686.676	123.28622
687.115	135.31662
687.554	138.32663
687.993	105.23409
688.432	131.29942
688.871	118.26835
689.309	116.27721
689.748	142.29799
690.186	156.37066
690.625	82.19379
691.063	124.29712
691.501	167.4089
691.939	122.30343
692.377	90.22058
692.815	99.23763
693.253	162.38699
693.69	117.25857
694.128	77.18784
694.565	85.20433
695.003	124.31377
695.44	127.29844
695.877	65.15358
696.314	160.34376
696.751	123.28182
697.188	104.24024
697.625	152.34861
698.061	106.25506
698.498	150.36147
698.934	131.31515
699.371	87.20628
699.807	129.30515
700.243	122.29356
700.679	139.31502
701.115	128.30203
701.551	148.34759
701.987	150.33711
702.422	96.22924
702.858	156.36952
703.294	102.233
703.729	151.36753
704.164	140.33597
704.599	139.30989
705.035	96.21664
705.47	120.2917
705.904	87.20437
706.339	188.43341
706.774	90.21245
707.209	145.33342
707.643	101.24372
708.078	131.31837
708.512	86.21591
708.946	147.35123
709.38	146.3449
709.814	144.32893
710.248	94.23038
710.682	147.34813
711.116	69.16606
711.549	114.2939
711.983	84.19597
712.416	140.3306
712.85	133.3306
713.283	145.34207
713.716	194.4809
714.149	154.36563
714.582	91.2064
715.015	152.37845
715.448	133.33421
715.881	163.35586
716.313	123.28859
716.746	116.2736
717.178	107.258
717.61	128.32378
718.043	130.32332
718.475	116.28155
718.907	192.47976
719.339	79.18093
719.77	82.19581
720.202	142.35714
720.634	120.2917
721.065	107.25458
721.497	115.28211
721.928	132.32303
722.359	90.21795
722.79	63.15243
723.221	151.37766
723.652	199.50578
724.083	94.21368
724.514	131.30111
724.945	105.2478
725.375	99.23074
725.806	114.28487
726.236	178.45073
726.666	102.24264
727.096	138.33746
727.526	110.27924
727.956	90.20617
728.386	154.37672
728.816	109.27567
729.246	115.27939
729.675	111.2732
730.105	114.28084
730.534	139.32448
730.964	167.41828
731.393	157.38755
731.822	162.40992
732.251	122.30893
732.68	132.31098
733.109	118.29059
733.537	118.2849
733.966	143.35312
734.395	114.26397
734.823	127.28712
735.251	136.3265
735.68	171.42412
736.108	160.40126
736.536	142.33389
736.964	122.28328
737.392	173.42814
737.82	126.30215
738.247	155.36892
738.675	157.37296
739.102	109.27223
739.53	142.35906
739.957	125.32029
740.384	178.43446
740.811	187.46753
741.238	132.32111
741.665	115.26697
742.092	179.42293
742.519	136.33479
742.945	121.29032
743.372	128.31591
743.798	170.432
744.225	131.31072
744.651	128.32008
745.077	147.36407
745.503	181.43625
745.929	149.35532
746.355	211.51585
746.781	184.44993
747.207	113.26513
747.632	133.32263
748.058	144.3571
748.483	135.31018
748.908	130.32179
749.334	161.39187
749.759	164.38321
750.184	115.27382
750.609	139.33997
751.033	183.42768
751.458	206.45497
751.883	182.44521
752.307	123.28916
752.732	138.34234
753.156	177.43161
753.58	165.38849
754.005	185.46303
754.429	164.38185
754.853	133.32783
755.277	191.4455
755.7	205.49951
756.124	164.40252
756.548	177.41431
756.971	165.3989
757.394	186.47199
757.818	194.49089
758.241	189.47201
758.664	218.539
759.087	181.39867
759.51	172.42294
759.933	175.41572
760.356	181.45743
760.778	180.43655
761.201	160.38572
761.623	185.44286
762.046	180.42208
762.468	217.51131
762.89	204.49475
763.312	217.51925
763.734	172.40915
764.156	187.4548
764.578	191.43321
765	191.45879
765.421	206.51269
765.843	199.51239
766.264	193.45918
766.686	191.47217
767.107	173.41397
767.528	138.34559
767.949	210.52341
768.37	167.4051
768.791	208.49382
769.212	146.36324
769.632	94.21956
770.053	203.52432
770.473	193.46165
770.894	212.52032
771.314	238.55479
771.734	152.35126
772.154	151.38393
772.575	191.43585
772.994	112.25429
773.414	164.38967
773.834	151.37384
774.254	169.40841
774.673	197.4714
775.093	152.37224
775.512	111.2727
775.931	166.4154
776.351	141.34716
776.77	139.33706
777.189	144.33978
777.607	119.30236
778.026	120.29747
778.445	86.21529
778.864	165.41774
779.282	106.25467
779.701	131.32788
780.119	116.29165
780.537	124.3075
780.955	151.38012
781.373	87.21539
781.791	102.22914
782.209	119.27342
782.627	129.33712
783.045	86.19835
783.462	110.27984
783.88	90.23251
784.297	91.22875
784.715	71.18263
785.132	50.122
785.549	85.21267
785.966	134.33412
786.383	80.19708
786.8	113.26161
787.217	71.16899
787.633	53.13299
788.05	151.35498
788.466	111.26105
788.883	49.12565
789.299	75.18112
789.715	92.22347
790.131	76.1893
790.547	72.18025
790.963	74.18405
791.379	67.16981
791.795	90.20559
792.21	86.20127
792.626	67.15966
793.041	103.25332
793.457	34.08481
793.872	67.15819
794.287	64.1533
794.702	97.23848
795.117	44.11003
795.532	46.11595
795.947	55.13322
796.362	97.23132
796.776	124.28872
797.191	46.11337
797.605	-2.00477
798.02	58.14178
798.434	52.11677
798.848	52.12872
799.262	51.12714
799.676	102.24804
800.09	56.13842
800.504	35.0857
800.918	32.07492
801.331	87.22767
801.745	61.14083
802.158	13.03288
802.572	78.18939
802.985	82.19828
803.398	35.08423
803.811	94.24099
804.224	53.13256
804.637	37.08888
805.05	25.05864
805.462	68.16746
805.875	14.03664
806.288	1.00245
806.7	27.06846
807.112	-8.01888
807.525	59.14613
807.937	6.01502
808.349	11.02788
808.761	45.11137
809.173	13.03189
809.584	49.12176
809.996	25.06178
810.408	6.01566
810.819	67.15794
811.231	20.05212
811.642	35.08407
812.053	29.06958
812.464	8.01927
812.875	37.09514
813.286	27.07003
813.697	98.22845
814.108	33.08128
814.519	26.05863
814.929	38.09753
815.34	-10.02464
815.75	-9.02319
816.16	20.05034
816.571	45.1174
816.981	24.05727
817.391	8.01956
817.801	-3.00755
818.211	40.09603
818.62	14.03408
819.03	40.09865
819.44	74.19316
819.849	-1.00255
820.259	16.04135
820.668	-13.03247
821.077	10.02511
821.486	32.0777
821.895	68.1682
822.304	31.08264
822.713	38.09047
823.122	-8.02025
823.531	7.01681
823.939	60.14651
824.348	28.06865
824.756	23.05811
825.164	30.07605
825.573	7.01776
825.981	28.06999
826.389	16.04059
826.797	27.06814
827.205	-12.02801
827.612	51.12631
828.02	-53.12746
828.428	9.02316
828.835	26.06888
829.243	2.00483
829.65	-10.02521
830.057	19.04656
830.464	-7.0173
830.871	33.0796
831.278	-15.03684
831.685	-43.09828
832.092	27.06663
832.499	19.04204
832.905	17.04342
833.312	27.06216
833.718	47.11755
834.124	-8.01858
834.531	31.07865
834.937	14.03626
835.343	39.09464
835.749	37.08702
836.155	7.01851
836.561	43.10623
836.966	20.04934
837.372	43.10988
837.777	4.01008
838.183	17.03823
838.588	16.04008
838.993	20.04913
839.399	-6.01486
839.804	-32.07939
840.209	-32.08281
840.613	-39.08871
841.018	22.05613
841.423	9.0233
841.828	9.02298
842.232	50.12422
842.637	2.00478
843.041	-13.03375
843.445	46.11574
843.849	-21.05279
844.253	-20.04833
844.657	-25.06393
845.061	-12.02767
845.465	2.00489
845.869	-6.01414
846.272	-5.01233
846.676	38.09237
847.079	6.0154
847.483	67.16703
847.886	39.09535
848.289	-1.00269
848.692	-3.00768
849.095	55.13232
849.498	105.26414
849.901	28.06471
850.304	1.00242
850.707	20.05137
851.109	59.14938
851.512	6.0149
851.914	-13.03318
852.316	45.11414
852.718	-42.1103
853.121	-14.03478
853.523	-24.05705
853.925	-31.08209
854.326	-4.01011
854.728	-8.02081
855.13	2.00521
855.531	10.02413
855.933	20.0484
856.334	8.02013
856.736	6.0136
857.137	10.02349
857.538	-8.02035
857.939	-20.05012
858.34	37.09056
858.741	-20.05297
859.142	-9.02191
859.542	-7.01867
859.943	31.07742
860.343	-21.05275
860.744	-32.07941
861.144	10.02462
861.544	-29.07085
861.945	35.08956
862.345	37.09087
862.745	-45.11393
863.145	41.09838
863.544	-5.01278
863.944	25.05946
864.344	4.01004
864.743	30.07483
865.143	12.03107
865.542	-28.06607
865.941	9.02248
866.34	-8.01941
866.74	51.13699
867.139	-49.11971
867.537	43.10984
867.936	-9.02194
868.335	-5.01286
868.734	-13.03363
869.132	38.08865
869.531	29.07053
869.929	-24.05562
870.327	13.03143
870.726	21.05271
871.124	19.04475
871.522	32.08187
871.92	45.11125
872.318	19.04678
872.715	14.03493
873.113	4.00984
873.511	31.07759
873.908	-31.07946
874.306	11.02758
874.703	10.02523
875.1	13.03351
875.497	54.12954
875.894	-35.08719
876.291	41.10091
876.688	14.03637
877.085	9.02179
877.482	20.05039
877.878	-3.0073
878.275	16.04093
878.671	23.0516
879.068	24.0583
879.464	24.05836
879.86	-12.02875
880.256	15.0373
880.652	16.04098
881.048	29.07222
881.444	15.03599
881.84	44.11205
882.236	12.03041
882.631	24.05926
883.027	-6.0147
883.422	0
883.817	-42.10738
884.213	48.12332
884.608	-20.04972
885.003	16.03886
885.398	-6.01518
885.793	-3.00761
886.188	-16.04029
886.582	49.12582
886.977	31.07393
887.371	24.06103
887.766	-29.07321
888.16	23.05773
888.554	-12.03004
888.949	0
889.343	9.02218
889.737	-51.13825
890.131	12.03033
890.525	50.12796
890.918	10.02537
891.312	45.10789
891.706	38.09997
892.099	33.08429
892.492	19.04132
892.886	-9.02228
893.279	-21.05421
893.672	16.04101
894.065	63.15752
894.458	34.08582
894.851	34.08364
895.244	-7.01807
895.637	10.02429
896.029	-11.02722
896.422	14.03446
896.814	13.03256
897.206	-22.05316
897.599	39.09673
897.991	-1.00244
898.383	-14.03352
898.775	9.0205
899.167	-33.07828
899.559	4.01022
899.951	38.08987
900.342	26.06645
900.734	-34.0857
901.125	18.04751
901.517	14.03462
901.908	46.11048
902.299	-34.08447
902.69	0
903.082	51.12358
903.473	-22.05344
903.863	-19.04909
904.254	21.04906
904.645	31.07742
905.036	-15.03678
905.426	47.10777
905.817	-32.07976
906.207	-33.07993
906.597	-1.00236
906.987	45.1168
907.378	-16.04096
907.768	17.04521
908.158	31.07591
908.547	1.00261
908.937	2.00518
909.327	13.03181
909.717	33.08409
910.106	-9.02187
910.495	28.07022
910.885	27.0687
911.274	-2.00505
911.663	36.09165
912.052	48.11856
912.441	-2.00513
912.83	-5.01161
913.219	45.11792
913.608	17.04192
913.997	-31.07888
914.385	39.09343
914.774	11.02699
915.162	-41.09946
915.55	15.03655
915.939	-26.06654
916.327	33.08266
916.715	7.01798
917.103	35.08643
917.491	21.05226
917.878	12.02973
918.266	-2.00523
918.654	17.0437
919.041	-9.02374
919.429	10.0238
919.816	14.03573
920.203	-19.0467
920.591	21.05237
920.978	14.03453
921.365	13.03433
921.752	-23.05563
922.139	-21.04631
922.525	-12.02917
922.912	14.03439
923.299	14.03504
923.685	1.00263
924.072	11.02558
924.458	-8.02003
924.844	3.00749
925.231	38.08869
925.617	1.00257
926.003	44.11261
926.389	12.03048
926.774	-27.06938
927.16	41.10203
927.546	-28.07246
927.931	25.06269
928.317	5.01163
928.702	-22.0528
929.088	-10.02393
929.473	14.03586
929.858	-32.07857
930.243	8.01936
930.628	5.01227
931.013	22.05482
931.398	-42.09841
931.783	23.06084
932.167	33.08095
932.552	28.07045
932.937	49.12167
933.321	-17.04318
933.705	-10.02549
934.09	35.08871
934.474	36.08577
934.858	-30.0789
935.242	-9.02111
935.626	-39.1014
936.009	17.04547
936.393	49.12472
936.777	1.00258
937.16	25.06534
937.544	0
937.927	-8.02051
938.311	10.0246
938.694	2.00533
939.077	2.00483
939.46	10.02474
939.843	9.01896
940.226	-49.12788
940.609	30.06916
940.991	21.05374
941.374	3.0074
941.757	-12.02995
942.139	-20.04558
942.522	38.09005
942.904	3.00728
943.286	33.08412
943.668	-3.00784
944.05	11.02729
944.432	9.02238
944.814	5.01242
945.196	-25.06178
945.578	-61.14809
945.959	30.0706
946.341	15.03707
946.722	-10.02375
947.104	4.00965
947.485	-8.01883
947.866	12.03044
948.247	-25.06393
948.628	4.00984
949.009	-1.00258
949.39	27.06751
949.771	22.05147
950.152	22.05428
950.532	-35.08745
950.913	38.09189
951.293	-19.0519
951.674	4.00976
952.054	-6.01502
952.434	14.03498
952.814	-7.01684
953.194	23.06048
953.574	31.07664
953.954	-16.03849
954.334	-11.02772
954.714	-12.02958
955.093	20.04945
955.473	-13.03288
955.853	15.03907
956.232	48.1316
956.611	-6.01455
956.99	-21.05345
957.37	16.04102
957.749	-6.01447
958.128	13.03297
958.506	16.04175
958.885	9.02288
959.264	-37.09214
959.643	-11.02534
960.021	-28.07037
960.4	-21.04829
960.778	17.04214
961.156	-31.07885
961.535	15.03521
961.913	48.11238
962.291	-56.14632
962.669	0
963.047	20.05131
963.424	7.018
963.802	10.02477
964.18	29.07366
964.557	3.00698
964.935	7.01673
965.312	18.04713
965.69	49.12273
966.067	-3.00738
966.444	42.10366
966.821	3.0078
967.198	-6.01471
967.575	35.0863
967.952	33.07803
968.329	8.01962
968.705	21.04532
969.082	-26.06757
969.458	-55.13457
969.835	13.03187
970.211	7.0181
970.587	6.01506
970.963	20.05158
971.339	-3.0079
971.715	-20.05057
972.091	-21.05239
972.467	36.09003
972.843	-30.07554
973.219	41.09864
973.594	9.0237
973.97	56.13316
974.345	-23.05582
974.721	5.01221
975.096	-1.00244
975.471	34.08091
975.846	17.0411
976.221	-4.01026
976.596	-37.09016
976.971	36.08911
977.346	12.02815
977.72	6.0154
978.095	4.01042
978.469	11.02645
978.844	38.09575
979.218	-18.04371
979.593	1.00242
979.967	18.04412
980.341	9.02089
980.715	-2.00509
981.089	-5.01264
981.463	-10.02324
981.837	-17.04206
982.21	36.08402
982.584	1.00244
982.957	25.06271
983.331	16.03808
983.704	-4.00993
984.078	-33.08257
984.451	59.14714
984.824	-34.0841
985.197	-10.02456
985.57	31.07801
985.943	50.1235
986.316	25.06171
986.688	5.01216
987.061	48.11256
987.434	20.05238
987.806	-1.00245
988.179	-23.05504
988.551	9.023
988.923	6.0149
989.295	10.02517
989.667	7.01686
990.039	-21.05256
990.411	-11.02563
990.783	39.09
991.155	-37.09036
991.527	71.17417
991.898	17.04261
992.27	-14.03504
992.641	26.06551
993.012	26.06147
993.384	-55.13382
993.755	-24.06198
994.126	-17.04141
994.497	10.02473
994.868	22.05082
995.239	-25.06144
995.61	49.12331
995.98	6.01469
996.351	9.02245
996.722	-9.02112
997.092	-32.07697
997.462	-22.05211
997.833	-17.04082
998.203	20.04876
998.573	19.04757
998.943	-2.00474
999.313	-36.08767
999.683	8.01935
1000.053	-11.02562
1000.423	41.0998
1000.792	-14.03668
1001.162	-28.06989
1001.531	24.05945
1001.901	22.05512
1002.27	3.00677
1002.639	31.07946
1003.009	-1.0024
1003.378	-6.01549
1003.747	38.08998
1004.116	-25.06067
1004.485	-3.00724
1004.853	34.08637
1005.222	20.0507
1005.591	4.00958
1005.959	-12.02738
1006.328	7.01589
1006.696	-8.01951
1007.064	-2.00508
1007.433	-16.04046
1007.801	13.03213
1008.169	51.12876
1008.537	24.05343
1008.905	6.0141
1009.273	-3.00748
1009.64	-32.07752
1010.008	9.02162
1010.375	85.20503
1010.743	92.21066
1011.11	-27.06483
1011.478	18.0448
1011.845	2.00475
1012.212	-31.07131
1012.579	5.01237
1012.946	29.06929
1013.313	-18.04339
1013.68	33.07442
1014.047	-2.00481
1014.414	-11.02628
1014.78	-9.0226
1015.147	27.06557
1015.513	3.00729
1015.88	39.0999
1016.246	27.06692
1016.612	11.02538
1016.978	6.01482
1017.344	3.00748
1017.71	14.03436
1018.076	14.03324
1018.442	25.06458
1018.808	2.00504
1019.174	-46.11735
1019.539	80.18304
1019.905	-1.00238
1020.27	5.01244
1020.636	27.06501
1021.001	-2.00483
1021.366	-35.08538
1021.731	16.04138
1022.096	-22.05619
1022.461	22.05233
1022.826	9.02155
1023.191	16.04221
1023.556	20.04714
1023.92	36.08872
1024.285	63.15334
1024.649	14.03453
1025.014	49.12136
1025.378	-22.05601
1025.742	15.03748
1026.107	-4.00914
1026.471	43.1005
1026.835	-14.0351
1027.199	10.02424
1027.562	64.14831
1027.926	6.01479
1028.29	-1.00255
1028.654	-6.01395
1029.017	45.11068
1029.381	-16.03869
1029.744	3.00771
1030.107	53.12528
1030.471	28.0673
1030.834	8.01835
1031.197	8.01942
1031.56	0
1031.923	3.00782
1032.286	-23.05477
1032.648	10.02409
1033.011	-16.0372
1033.374	27.06372
1033.736	-7.01857
1034.099	9.02209
1034.461	-11.02808
1034.823	30.07494
1035.185	15.03798
1035.548	-26.06415
1035.91	-10.02422
1036.272	1.0023
1036.634	27.06631
1036.995	-6.01425
1037.357	34.08293
1037.719	-10.02458
1038.08	-8.0192
1038.442	-19.04568
1038.803	1.00242
1039.165	0
1039.526	-33.08095
1039.887	12.02891
1040.248	-11.02739
1040.609	8.01991
1040.97	19.04668
1041.331	29.07366
1041.692	-27.06394
1042.053	22.05036
1042.413	21.0492
1042.774	16.03914
1043.134	53.12605
1043.495	7.01772
1043.855	4.00978
1044.215	15.03745
1044.576	-25.0606
1044.936	8.01849
1045.296	62.15431
1045.656	37.09097
1046.016	33.07987
1046.375	2.00489
1046.735	-26.05982
1047.095	3.00708
1047.454	10.02137
1047.814	10.02421
1048.173	68.16182
1048.533	-26.06044
1048.892	-28.06817
1049.251	8.02022
1049.61	16.03962
1049.969	22.05211
1050.328	1.00219
1050.687	10.0245
1051.046	38.09268
1051.405	30.07486
1051.763	-24.05597
1052.122	-22.05555
1052.48	-23.05713
1052.839	-27.06444
1053.197	14.03316
1053.555	56.12746
1053.914	-8.01977
1054.272	15.03648
1054.63	-5.01234
1054.988	-29.0699
1055.345	-6.01307
1055.703	69.16537
1056.061	31.07996
1056.419	-26.06815
1056.776	47.11397
1057.134	0
1057.491	-27.06851
1057.848	-3.00754
1058.206	-27.06441
1058.563	-33.07397
1058.92	0
1059.277	34.08407
1059.634	43.10125
1059.991	38.09119
1060.348	-15.03433
1060.704	-34.08228
1061.061	17.03973
1061.418	-19.04664
1061.774	-37.09274
1062.131	-36.09649
1062.487	-31.07359
1062.843	19.04761
1063.199	-3.00753
1063.555	-8.01874
1063.911	50.12621
1064.267	47.09804
1064.623	-42.1037
1064.979	28.06658
1065.335	49.11708
1065.691	10.02414
1066.046	1.00222
1066.402	10.02289
1066.757	35.08852
1067.112	26.06405
1067.468	-43.10329
1067.823	33.07954
1068.178	3.00732
1068.533	13.03171
1068.888	33.07906
1069.243	-1.00249
1069.598	-16.03933
1069.952	-47.10786
1070.307	-6.01499
1070.662	-13.03122
1071.016	-11.02494
1071.371	3.00688
1071.725	50.11954
1072.079	8.01938
1072.434	-29.07146
1072.788	-9.02166
1073.142	46.11316
1073.496	-4.00958
1073.85	38.08827
1074.203	27.06574
1074.557	0
1074.911	34.08135
1075.265	12.02808
1075.618	33.08077
1075.971	14.03351
1076.325	19.04852
1076.678	-47.1095
1077.031	4.00913
1077.385	23.05092
1077.738	-11.02512
1078.091	-2.00459
1078.444	15.03504
1078.796	1.00247
1079.149	18.045
1079.502	-57.13734
1079.855	2.0047
1080.207	21.05197
1080.56	7.01821
1080.912	11.02695
1081.264	-1.00243
1081.617	10.02454
1081.969	12.03045
1082.321	28.0686
1082.673	-93.21821
1083.025	-15.036
1083.377	-234.53256
1083.728	-8.01886
1084.08	31.07759
1084.432	11.0267
1084.783	48.11243
1085.135	-49.1249
1085.486	-45.10484
1085.838	-18.04485
1086.189	-40.09865
1086.54	8.01924
1086.891	-17.04347
1087.242	-1.00246
1087.593	-2.00491
1087.944	-15.03437
1088.295	6.01375
1088.646	-16.03923
1088.996	-3.00729
1089.347	4.00989
1089.698	11.02617
1090.048	25.06516
1090.398	24.0559
1090.749	3.00724
1091.099	-43.10984
1091.449	7.01756
1091.799	19.0478
1092.149	-46.11408
1092.499	-3.00738
1092.849	-13.03338
1093.199	24.06039
1093.548	-2.00485
1093.898	1.00252
1094.248	34.08753
1094.597	-41.10623
1094.947	14.03754
1095.296	7.01741
1095.645	16.04182
1095.994	9.02177
1096.343	25.06314
1096.692	0
1097.041	-27.07395
1097.39	32.08046
1097.739	19.0496
1098.088	46.12321
1098.437	-49.13075
1098.785	28.07569
1099.134	29.07721
1099.482	40.11009
1099.83	27.07116
1100.179	0
1100.527	43.11429
1100.875	12.0319
1101.223	-10.02679
1101.571	-4.01114
1101.919	-23.06078
1102.267	11.03113
1102.615	1.00322
1102.962	12.03863
1103.31	-5.01609
1103.658	6.01934
