Data from N2 R5 sample 9_Subt2__0__11-54-47-882.txt Node

Date: Fri Aug 29 11:54:47 PDT 2025
User: uwsun
Spectrometer: HDX01956
Trigger mode: 0
Integration Time (sec): 5.000000E-1
Scans to average: 1
Nonlinearity correction enabled: true
Boxcar width: 0
Storing dark spectrum: false
XAxis mode: Wavelengths
Number of Pixels in Spectrum: 2068
>>>>>Begin Spectral Data<<<<<
194.03	198.53867
194.578	191.58962
195.127	192.58353
195.676	178.54372
196.225	208.53248
196.773	159.42482
197.321	308.78426
197.87	426.971
198.418	409.92229
198.966	394.89699
199.513	393.84886
200.061	354.78507
200.609	430.99788
201.156	352.66394
201.704	340.75152
202.251	377.87544
202.798	399.90342
203.345	438.93693
203.892	430.93492
204.438	449.92117
204.985	401.81304
205.532	383.88094
206.078	432.9133
206.624	418.88293
207.17	397.79683
207.716	414.86413
208.262	425.70936
208.808	364.77528
209.354	391.82211
209.899	492.06593
210.445	417.89028
210.99	380.79141
211.535	455.91451
212.08	454.90135
212.625	415.90136
213.17	447.97786
213.715	320.61632
214.259	414.83191
214.804	402.86551
215.348	394.78004
215.892	366.767
216.436	407.81766
216.98	441.83571
217.524	360.74242
218.068	417.9134
218.612	398.87639
219.155	379.77616
219.698	333.69924
220.242	365.80357
220.785	360.73775
221.328	386.84355
221.871	403.89799
222.414	372.81743
222.956	294.62811
223.499	349.68852
224.041	426.86234
224.583	416.77928
225.126	352.67927
225.668	302.65274
226.21	348.77241
226.751	316.60598
227.293	374.74807
227.835	385.82054
228.376	366.74326
228.918	407.9009
229.459	316.69644
230	409.84442
230.541	370.74624
231.082	345.73626
231.622	402.80482
232.163	347.73828
232.704	282.62333
233.244	350.76392
233.784	411.87975
234.324	309.59242
234.864	337.66984
235.404	391.8116
235.944	418.85893
236.484	396.86467
237.023	382.7839
237.563	333.67393
238.102	363.74945
238.641	405.89198
239.18	320.65519
239.719	414.90244
240.258	383.74637
240.797	344.71963
241.335	419.88834
241.874	356.58648
242.412	335.70561
242.95	352.73082
243.488	359.71291
244.026	402.7955
244.564	393.69135
245.102	359.6976
245.64	383.80458
246.177	391.75471
246.715	400.83232
247.252	372.742
247.789	463.73049
248.326	362.75125
248.863	373.702
249.4	429.83204
249.936	411.71583
250.473	364.73347
251.009	387.75954
251.546	351.66774
252.082	403.75325
252.618	370.70715
253.154	380.78613
253.69	369.71532
254.226	350.72472
254.761	341.66294
255.297	361.67774
255.832	366.747
256.367	365.74242
256.903	355.66944
257.438	452.90031
257.972	385.73279
258.507	375.73251
259.042	429.78479
259.576	312.57693
260.111	457.89185
260.645	410.75211
261.179	387.7703
261.713	414.77745
262.247	373.73829
262.781	358.6372
263.315	430.89235
263.849	399.8537
264.382	447.86654
264.915	376.75033
265.449	394.81144
265.982	432.82966
266.515	417.86325
267.048	338.61002
267.58	400.74227
268.113	461.82292
268.646	378.79775
269.178	354.67198
269.71	420.77007
270.243	397.76924
270.775	432.93168
271.307	413.84655
271.838	487.96935
272.37	447.92535
272.902	420.80427
273.433	385.70927
273.965	411.84702
274.496	432.9109
275.027	409.85957
275.558	387.79649
276.089	387.80115
276.62	454.97618
277.15	440.91636
277.681	398.72679
278.211	456.9387
278.741	385.7082
279.272	411.78266
279.802	442.92789
280.332	395.78183
280.861	480.95609
281.391	398.7533
281.921	506.00378
282.45	458.95808
282.98	493.06878
283.509	460.84981
284.038	428.8081
284.567	437.8512
285.096	421.85047
285.625	421.7904
286.153	432.83646
286.682	413.7815
287.21	473.9336
287.739	482.93016
288.267	440.87845
288.795	490.06836
289.323	395.7628
289.851	494.94005
290.378	483.87647
290.906	466.91741
291.433	439.90513
291.961	494.89667
292.488	507.02428
293.015	505.95235
293.542	444.92222
294.069	514.01445
294.596	491.9905
295.122	489.94118
295.649	464.82378
296.175	469.92657
296.702	523.01799
297.228	588.13037
297.754	502.89451
298.28	463.84059
298.806	533.01337
299.332	525.9053
299.857	503.89514
300.383	543.09966
300.908	433.84381
301.433	513.98595
301.958	527.96267
302.483	510.00701
303.008	525.03111
303.533	624.27407
304.058	594.08547
304.582	520.9578
305.107	476.99353
305.631	551.97755
306.155	491.89326
306.679	514.93108
307.203	577.02007
307.727	550.00693
308.251	539.03774
308.775	501.91747
309.298	524.96372
309.822	603.16622
310.345	580.04274
310.868	614.10174
311.391	601.12628
311.914	582.10807
312.437	606.03446
312.96	603.05728
313.482	594.04992
314.005	614.15721
314.527	570.14048
315.049	631.19775
315.571	622.99212
316.093	681.22944
316.615	583.03875
317.137	686.04763
317.659	669.18496
318.18	698.21305
318.702	645.07374
319.223	655.92962
319.744	674.05429
320.265	659.13151
320.786	691.1999
321.307	716.24966
321.828	751.14895
322.348	745.19314
322.869	671.08774
323.389	604.6287
323.909	743.14541
324.43	815.32491
324.95	749.13099
325.47	816.31651
325.989	817.24145
326.509	776.07548
327.029	787.11785
327.548	766.08481
328.067	816.24472
328.587	880.39215
329.106	840.17211
329.625	893.52959
330.144	793.13138
330.662	802.13602
331.181	910.26627
331.7	827.17567
332.218	892.10099
332.736	870.20643
333.255	906.21801
333.773	902.23902
334.291	959.40989
334.808	925.13356
335.326	989.20576
335.844	886.13545
336.361	886.28099
336.879	891.13133
337.396	1035.31113
337.913	969.15844
338.43	1019.14675
338.947	981.21558
339.464	945.9869
339.981	1013.20275
340.497	1028.30714
341.014	1024.25371
341.53	1048.1026
342.046	1110.30621
342.562	1124.36471
343.078	1021.1464
343.594	1188.27825
344.11	1147.23301
344.626	1183.36721
345.141	1129.10524
345.657	1153.12242
346.172	1191.24178
346.687	1190.11821
347.202	1214.06667
347.717	1244.20911
348.232	1233.30399
348.747	1208.08392
349.261	1152.91032
349.776	1300.14518
350.29	1278.2027
350.805	1370.2948
351.319	1264.08399
351.833	1276.98567
352.347	1269.07047
352.861	1299.04236
353.374	1353.05698
353.888	1383.15285
354.401	1463.02721
354.915	1354.89927
355.428	1418.16539
355.941	1442.99028
356.454	1573.9601
356.967	1453.04012
357.48	1452.96627
357.993	1552.1355
358.505	1506.07223
359.018	1608.08438
359.53	1472.99149
360.042	1523.82052
360.554	1566.02344
361.066	1448.9879
361.578	1557.73556
362.09	1562.93719
362.602	1565.71963
363.113	1616.82456
363.625	1691.72285
364.136	1706.66919
364.647	1546.70738
365.158	1683.75442
365.669	1679.82037
366.18	1585.77149
366.691	1678.59279
367.201	1674.75999
367.712	1702.59907
368.222	1809.57224
368.733	1760.40983
369.243	1763.42356
369.753	1855.51091
370.263	1815.5745
370.773	1768.64145
371.282	1916.44692
371.792	1916.22899
372.301	1945.35744
372.811	1985.54317
373.32	2072.89481
373.829	2124.04274
374.338	2212.82085
374.847	2227.80777
375.356	2361.735
375.865	2481.33468
376.373	2480.39416
376.882	2591.57418
377.39	2642.35817
377.898	2689.19527
378.407	2856.90595
378.915	2957.78232
379.423	3080.75364
379.93	3135.65888
380.438	3186.62042
380.946	3507.54853
381.453	3584.57428
381.96	3952.79378
382.468	4059.20976
382.975	4387.52443
383.482	4345.95643
383.989	4411.77704
384.495	4757.26007
385.002	4963.35805
385.509	5246.24539
386.015	5496.87687
386.521	5756.02629
387.028	6181.95836
387.534	6277.34648
388.04	6482.04963
388.546	6618.1274
389.051	7138.15822
389.557	7689.4769
390.063	8111.83704
390.568	7993.31632
391.073	8551.46419
391.578	8903.532
392.084	8960.87934
392.589	9631.05844
393.093	10614.25391
393.598	11294.10478
394.103	12181.09034
394.607	13194.33571
395.112	14112.88096
395.616	14722.49917
396.12	15903.30297
396.624	17374.85494
397.128	18953.11337
397.632	20706.18324
398.136	22136.195
398.639	24823.78009
399.143	28211.00348
399.646	27843.47411
400.15	24777.45171
400.653	20124.16724
401.156	13866.23708
401.659	5169.95759
402.162	1054.15589
402.664	0
403.167	0
403.67	0
404.172	0
404.674	0
405.176	0
405.678	0
406.18	0
406.682	0
407.184	0
407.686	0
408.187	0
408.688	0
409.19	0
409.691	0
410.192	0
410.693	0
411.194	435.30976
411.694	4082.94878
412.195	8864.71461
412.696	12089.80453
413.196	12760.96929
413.696	12863.67595
414.196	13703.56671
414.696	17261.84252
415.196	21764.24417
415.696	29583.19008
416.196	28342.85877
416.695	24860.72022
417.195	23294.22805
417.694	22616.03596
418.194	20649.91373
418.693	19733.97386
419.192	19666.95838
419.691	18931.41207
420.19	18699.8899
420.688	18147.61484
421.187	16640.0452
421.685	15134.50581
422.184	13318.25324
422.682	11608.3141
423.18	10290.65953
423.678	9210.26554
424.176	8727.81003
424.674	8371.32763
425.172	7725.38884
425.669	7078.76609
426.167	6411.54126
426.664	5779.56453
427.161	5546.34925
427.659	5192.83474
428.156	4703.69713
428.652	4548.50526
429.149	4374.09018
429.646	4135.71052
430.143	3853.9232
430.639	3687.73771
431.135	3436.57301
431.632	3337.57649
432.128	3094.63565
432.624	2968.75273
433.12	2865.70541
433.616	2810.74086
434.111	2666.87989
434.607	2621.99737
435.103	2549.99836
435.598	2366.13054
436.093	2321.44043
436.588	2107.59289
437.083	1971.76072
437.578	1991.86141
438.073	1825.08494
438.568	1746.25175
439.062	1767.98723
439.557	1662.31196
440.051	1599.25423
440.546	1625.27558
441.04	1513.44895
441.534	1519.62721
442.028	1534.55428
442.522	1419.56648
443.015	1487.40504
443.509	1369.67776
444.002	1375.68291
444.496	1374.48325
444.989	1354.72658
445.482	1371.77008
445.975	1266.55996
446.468	1245.49975
446.961	1241.51018
447.454	1293.63421
447.947	1138.6845
448.439	1055.7575
448.931	1085.6154
449.424	1183.90022
449.916	1194.82706
450.408	1076.65173
450.9	1016.76847
451.392	978.8404
451.884	992.71872
452.375	977.82012
452.867	1046.74967
453.358	982.69749
453.849	916.60286
454.341	964.71169
454.832	943.64321
455.323	968.85139
455.814	925.76315
456.304	839.73151
456.795	916.76709
457.285	932.76939
457.776	905.80973
458.266	830.79579
458.756	808.8253
459.247	651.68309
459.737	734.75233
460.226	708.67328
460.716	699.75394
461.206	733.80271
461.695	689.84011
462.185	694.76723
462.674	732.77944
463.163	650.6757
463.653	679.64187
464.142	586.71697
464.63	642.80765
465.119	576.67459
465.608	576.67809
466.096	624.68097
466.585	638.76909
467.073	570.74854
467.561	633.82336
468.05	583.74016
468.538	599.82747
469.026	576.77484
469.513	503.57734
470.001	534.67758
470.489	488.67064
470.976	505.67895
471.463	493.74829
471.951	509.78368
472.438	424.60996
472.925	376.54594
473.412	443.69528
473.899	426.61514
474.385	416.66217
474.872	339.51318
475.359	339.54962
475.845	352.46227
476.331	362.51615
476.817	323.53965
477.303	267.42676
477.789	321.53248
478.275	325.55853
478.761	368.61098
479.247	367.56125
479.732	266.47146
480.218	248.47213
480.703	261.47043
481.188	303.45235
481.673	271.44431
482.158	193.29194
482.643	297.56005
483.128	230.38161
483.612	195.34048
484.097	218.40452
484.581	218.38175
485.066	227.41523
485.55	155.25624
486.034	169.27536
486.518	144.25921
487.002	133.25239
487.486	155.29414
487.969	87.16816
488.453	194.38444
488.936	108.19151
489.42	164.2831
489.903	141.28523
490.386	124.15555
490.869	126.21866
491.352	181.3559
491.835	112.185
492.318	117.21131
492.8	90.14965
493.283	96.1995
493.765	83.16744
494.247	147.28019
494.73	93.1677
495.212	119.23797
495.694	66.12693
496.175	16.03148
496.657	48.09547
497.139	103.1463
497.62	10.01983
498.102	48.09984
498.583	52.11018
499.064	7.01311
499.545	50.09579
500.026	65.12148
500.507	5.00989
500.988	63.13259
501.469	16.03412
501.949	38.08038
502.43	-20.04062
502.91	3.00525
503.39	-15.03267
503.87	20.04002
504.35	11.02245
504.83	-57.10833
505.31	-3.00626
505.79	1.00206
506.269	10.02021
506.749	-50.09927
507.228	-86.1772
507.707	6.01144
508.187	-10.02088
508.666	-43.09217
509.145	-50.10205
509.623	-79.16369
510.102	-18.03814
510.581	-5.01059
511.059	-50.11002
511.538	-6.01365
512.016	-1.00209
512.494	-5.01065
512.972	3.00625
513.45	-121.2487
513.928	-32.06816
514.406	-99.21064
514.884	-18.04072
515.361	-35.07392
515.839	-33.06611
516.316	-43.09149
516.793	-34.07654
517.27	-60.13019
517.747	-33.07497
518.224	-54.11142
518.701	-37.07303
519.178	-93.20596
519.654	-37.07862
520.131	-60.13258
520.607	-24.05307
521.083	-69.14099
521.56	-55.11606
522.036	-87.17228
522.512	-22.04851
522.987	-105.22409
523.463	-92.19724
523.939	-29.06361
524.414	-14.02883
524.89	-47.09996
525.365	-61.12396
525.84	-102.21792
526.315	-58.12531
526.79	-78.15884
527.265	-53.10854
527.74	-43.09392
528.215	-13.02731
528.689	-104.20908
529.164	-62.12165
529.638	-55.12784
530.112	-145.31281
530.587	-99.19108
531.061	-90.19637
531.534	-65.14293
532.008	-71.15416
532.482	-74.1544
532.956	-120.27875
533.429	-98.21672
533.903	-45.09003
534.376	-61.12204
534.849	-84.17744
535.322	-60.12836
535.795	-83.18497
536.268	-125.27579
536.741	-82.17982
537.213	-39.08153
537.686	-89.19719
538.158	-107.21844
538.631	-71.1577
539.103	-105.21474
539.575	-93.17795
540.047	-76.15237
540.519	-56.12187
540.991	-19.04206
541.463	-49.1077
541.934	-94.19691
542.406	-99.21568
542.877	-26.0529
543.348	-55.12094
543.82	-44.09812
544.291	-33.06991
544.762	-54.11582
545.233	-44.09962
545.703	-93.18744
546.174	-31.06498
546.645	-47.10061
547.115	-5.01076
547.585	-61.12702
548.056	-85.18455
548.526	36.07424
548.996	28.05959
549.466	9.01959
549.935	-52.1096
550.405	44.08393
550.875	-11.02302
551.344	49.10285
551.814	56.11217
552.283	93.17493
552.752	27.05464
553.221	2.00379
553.69	92.17506
554.159	13.02779
554.628	22.04255
555.096	94.20457
555.565	97.18524
556.033	59.12154
556.502	49.1043
556.97	37.07241
557.438	64.13383
557.906	35.07421
558.374	86.17433
558.842	49.10444
559.31	61.12187
559.777	31.06705
560.245	120.24993
560.712	104.21419
561.18	125.24301
561.647	107.21208
562.114	110.22186
562.581	187.40411
563.048	175.35482
563.514	135.29261
563.981	196.39276
564.448	228.44357
564.914	233.4722
565.381	300.58531
565.847	298.59937
566.313	315.62699
566.779	339.64837
567.245	335.6668
567.711	348.70736
568.176	332.63052
568.642	393.82849
569.108	391.80798
569.573	501.96938
570.038	584.97254
570.504	465.85153
570.969	533.08922
571.434	552.96331
571.899	599.13469
572.363	636.13662
572.828	696.23705
573.293	688.22344
573.757	697.23788
574.222	658.13552
574.686	702.20199
575.15	725.3244
575.614	774.3412
576.078	727.30799
576.542	732.27497
577.006	706.22115
577.469	840.57786
577.933	700.19791
578.396	727.33476
578.86	722.31326
579.323	772.39872
579.786	660.1021
580.249	682.20021
580.712	672.29278
581.175	683.3206
581.637	679.22458
582.1	708.19996
582.563	670.12068
583.025	597.1557
583.487	551.88202
583.95	513.88648
584.412	644.0553
584.874	561.09936
585.336	466.91136
585.797	548.95078
586.259	537.0319
586.721	428.83585
587.182	530.01475
587.643	396.75648
588.105	402.80035
588.566	459.79693
589.027	362.73715
589.488	415.79258
589.949	432.87689
590.41	332.54419
590.87	360.70038
591.331	350.64365
591.791	336.66022
592.252	286.56171
592.712	314.64931
593.172	293.56799
593.632	391.72358
594.092	318.60776
594.552	310.57209
595.011	291.57382
595.471	257.5001
595.931	293.56255
596.39	218.45727
596.849	268.54127
597.308	321.59759
597.768	198.44352
598.227	228.48204
598.685	258.5182
599.144	240.49028
599.603	271.55776
600.062	221.40487
600.52	216.42142
600.978	214.4463
601.437	227.45625
601.895	253.4656
602.353	278.53466
602.811	246.47562
603.269	259.5393
603.727	230.4818
604.184	195.38578
604.642	265.56358
605.099	293.58592
605.557	297.62503
606.014	280.51776
606.471	288.61742
606.928	324.58624
607.385	299.61982
607.842	337.65453
608.299	385.75669
608.755	366.74598
609.212	399.73913
609.668	361.66906
610.125	398.81046
610.581	414.83383
611.037	444.85271
611.493	398.80013
611.949	288.60062
612.405	352.59798
612.861	412.8256
613.316	373.75973
613.772	321.63745
614.227	393.78808
614.683	423.76678
615.138	358.71839
615.593	348.69606
616.048	426.82839
616.503	362.77035
616.958	327.71206
617.412	357.72945
617.867	311.59683
618.321	417.73474
618.776	364.69703
619.23	315.64773
619.684	323.64082
620.138	392.78989
620.592	361.76472
621.046	322.66734
621.5	360.76477
621.954	416.81164
622.407	381.7407
622.861	327.70239
623.314	338.68076
623.768	292.60734
624.221	314.54902
624.674	314.64436
625.127	304.63624
625.58	315.64481
626.033	299.5957
626.485	230.50118
626.938	235.51109
627.39	293.61553
627.843	244.51632
628.295	249.52656
628.747	265.57462
629.199	225.47143
629.651	163.34606
630.103	215.45566
630.555	206.40592
631.006	161.35477
631.458	172.38036
631.909	164.3563
632.361	225.48872
632.812	132.28935
633.263	160.32715
633.714	149.30418
634.165	178.40774
634.616	185.41534
635.067	155.32879
635.518	195.43977
635.968	148.28573
636.419	155.32275
636.869	159.36122
637.319	94.2103
637.769	134.28803
638.219	184.41928
638.669	117.26904
639.119	132.31025
639.569	99.23147
640.019	143.31907
640.468	76.16631
640.918	105.24598
641.367	81.17804
641.816	110.2398
642.265	67.15222
642.714	138.30925
643.163	115.25755
643.612	32.07565
644.061	43.09018
644.51	84.18762
644.958	86.18565
645.406	126.29268
645.855	65.15673
646.303	79.18188
646.751	53.11919
647.199	106.23617
647.647	70.15881
648.095	66.14937
648.543	79.16091
648.99	96.22476
649.438	79.1834
649.885	78.19003
650.333	103.19785
650.78	85.20193
651.227	98.23393
651.674	82.18459
652.121	65.15638
652.568	21.05083
653.015	148.3646
653.461	77.18088
653.908	138.31459
654.354	100.23541
654.801	24.05626
655.247	96.20901
655.693	98.25107
656.139	56.13352
656.585	92.21809
657.031	14.03271
657.477	34.07377
657.922	29.06693
658.368	56.1376
658.813	108.24889
659.259	31.07447
659.704	13.03049
660.149	11.02583
660.594	47.11161
661.039	50.11417
661.484	102.2418
661.929	73.17041
662.373	14.03543
662.818	66.16307
663.262	47.11324
663.707	32.08124
664.151	61.14898
664.595	21.051
665.039	52.12957
665.483	45.11462
665.927	55.13016
666.371	2.00469
666.814	33.07951
667.258	15.03583
667.701	68.1483
668.145	74.18418
668.588	66.16224
669.031	-2.00477
669.474	60.14509
669.917	69.15421
670.36	63.1566
670.803	73.17682
671.245	23.04955
671.688	51.12534
672.13	10.02284
672.573	76.19327
673.015	59.14264
673.457	29.06436
673.899	61.14881
674.341	56.13618
674.783	41.09927
675.225	53.13122
675.666	-17.04167
676.108	-14.03134
676.549	104.24673
676.991	33.07418
677.432	11.02258
677.873	22.05187
678.314	31.07512
678.755	46.11307
679.196	3.00703
679.637	60.14798
680.078	38.09043
680.518	86.20214
680.959	53.12838
681.399	38.0953
681.839	72.17646
682.28	15.03759
682.72	33.07688
683.16	52.1306
683.6	49.11371
684.039	2.0043
684.479	33.08206
684.919	-3.00707
685.358	76.19382
685.798	48.12666
686.237	94.2285
686.676	78.18312
687.115	25.05989
687.554	-2.00486
687.993	37.08365
688.432	41.09541
688.871	40.0924
689.309	51.12339
689.748	55.11764
690.186	27.06574
690.625	29.06924
691.063	18.044
691.501	27.06782
691.939	74.18565
692.377	24.05954
692.815	55.13312
693.253	30.07347
693.69	30.06751
694.128	23.05667
694.565	32.0777
695.003	49.12565
695.44	38.09085
695.877	10.02388
696.314	30.06626
696.751	28.06538
697.188	17.03995
697.625	10.02359
698.061	-10.02459
698.498	56.13735
698.934	15.03688
699.371	35.08382
699.807	47.11294
700.243	14.03438
700.679	39.09018
701.115	48.11502
701.551	-17.04121
701.987	72.1644
702.422	18.04362
702.858	29.07038
703.294	0
703.729	58.14362
704.164	36.0881
704.599	25.05705
705.035	4.0092
705.47	50.12313
705.904	5.01193
706.339	27.06424
706.774	49.11658
707.209	-22.05227
707.643	24.05876
708.078	49.12092
708.512	16.04068
708.946	25.06112
709.38	32.07726
709.814	45.10484
710.248	41.10147
710.682	38.09189
711.116	-10.02443
711.549	39.10185
711.983	46.10812
712.416	41.09867
712.85	34.08604
713.283	37.08912
713.716	61.15488
714.149	66.15935
714.582	2.00462
715.015	66.16689
715.448	53.13509
715.881	81.17991
716.313	-12.0289
716.746	21.05044
717.178	14.03435
717.61	42.10787
718.043	53.13366
718.475	33.08134
718.907	99.25154
719.339	5.01162
719.77	2.00485
720.202	36.09226
720.634	25.06185
721.065	58.1393
721.497	42.10442
721.928	-4.01004
722.359	5.0123
722.79	18.04392
723.221	45.1147
723.652	90.23315
724.083	1.00232
724.514	48.11216
724.945	28.06707
725.375	20.04734
725.806	38.09626
726.236	79.20356
726.666	48.11537
727.096	43.10701
727.526	5.01293
727.956	-29.06802
728.386	40.09992
728.816	20.05138
729.246	9.0223
729.675	-6.01509
730.105	31.07754
730.534	14.03348
730.964	51.13041
731.393	103.25678
731.822	69.17749
732.251	40.10277
732.68	80.19038
733.109	38.09496
733.537	22.05408
733.966	46.11561
734.395	7.01655
734.823	36.0829
735.251	14.03439
735.68	75.18928
736.108	73.18594
736.536	42.10068
736.964	5.01188
737.392	20.05088
737.82	43.10474
738.247	55.13342
738.675	71.17146
739.102	13.03303
739.53	34.08763
739.957	22.05739
740.384	63.15706
740.811	51.13064
741.238	48.1186
741.665	-4.0095
742.092	77.18553
742.519	32.08028
742.945	46.11194
743.372	34.08536
743.798	65.16825
744.225	15.03637
744.651	74.18686
745.077	31.0784
745.503	49.12105
745.929	56.13592
746.355	104.25932
746.781	41.10292
747.207	6.01437
747.632	26.06434
748.058	52.13112
748.483	31.07271
748.908	77.19245
749.334	39.09709
749.759	30.07194
750.184	2.00487
750.609	33.0823
751.033	73.17429
751.458	63.1433
751.883	65.16246
752.307	5.01202
752.732	26.06582
753.156	75.18636
753.58	50.12036
754.005	41.10528
754.429	26.06218
754.853	49.12265
755.277	36.08653
755.7	53.1328
756.124	43.1079
756.548	27.06505
756.971	73.17954
757.394	59.15308
757.818	48.12461
758.241	44.11277
758.664	28.07163
759.087	-2.00457
759.51	71.17784
759.933	35.08538
760.356	36.09333
760.778	77.19036
761.201	44.1084
761.623	106.25757
762.046	91.2171
762.468	75.1816
762.89	69.17158
763.312	92.22539
763.734	38.09272
764.156	73.18133
764.578	56.13049
765	43.10619
765.421	30.07705
765.843	65.17126
766.264	81.19686
766.686	66.16689
767.107	30.07374
767.528	-17.04376
767.949	58.14854
768.37	39.09687
768.791	42.1029
769.212	44.1115
769.632	36.08504
770.053	39.10359
770.473	8.01981
770.894	81.20362
771.314	61.14714
771.734	7.01664
772.154	62.16012
772.575	59.13822
772.994	6.01392
773.414	66.15977
773.834	45.11357
774.254	41.10147
774.673	61.14975
775.093	42.10495
775.512	5.01252
775.931	94.23829
776.351	55.13756
776.77	44.1086
777.189	13.03145
777.607	24.062
778.026	55.13796
778.445	0
778.864	13.0338
779.282	14.03422
779.701	34.08659
780.119	16.04095
780.537	17.04298
780.955	18.04639
781.373	18.04513
781.791	6.01374
782.209	37.08641
782.627	34.09029
783.045	-1.00235
783.462	43.11069
783.88	14.03664
784.297	26.06612
784.715	-7.01825
785.132	9.02213
785.549	8.02029
785.966	16.04075
786.383	32.07953
786.8	40.09394
787.217	20.04807
787.633	-16.04065
788.05	69.1648
788.466	53.12605
788.883	55.14088
789.299	37.08999
789.715	1.00247
790.131	54.13504
790.547	39.09821
790.963	40.1001
791.379	12.03071
791.795	-17.03967
792.21	24.05685
792.626	26.06244
793.041	26.06485
793.457	-21.0529
793.872	-16.03838
794.287	-24.05845
794.702	0
795.117	23.05773
795.532	8.0203
795.947	28.06817
796.362	47.11316
796.776	47.1111
797.191	31.07661
797.605	-41.09856
798.02	-19.04711
798.434	16.0362
798.848	0
799.262	6.01508
799.676	13.03214
800.09	5.01247
800.504	44.10756
800.918	5.01177
801.331	54.14211
801.745	11.02565
802.158	17.04296
802.572	18.0442
802.985	36.08781
803.398	49.11761
803.811	43.11122
804.224	33.08284
804.637	17.04099
805.05	6.01412
805.462	27.06699
805.875	-26.06852
806.288	-12.02943
806.7	32.08106
807.112	43.1005
807.525	48.11912
807.937	1.00251
808.349	18.04557
808.761	-14.03502
809.173	10.02454
809.584	50.12422
809.996	27.0667
810.408	45.11664
810.819	112.26171
811.231	82.2114
811.642	61.14581
812.053	20.04807
812.464	9.02168
812.875	44.113
813.286	23.0597
813.697	71.16639
814.108	11.0272
814.519	9.02036
814.929	36.09242
815.34	20.04902
815.75	0
816.16	20.05034
816.571	8.021
816.981	27.06439
817.391	63.15248
817.801	3.00754
818.211	19.0458
818.62	-5.01222
819.03	16.03963
819.44	64.16734
819.849	44.11142
820.259	53.13609
820.668	-36.09029
821.077	6.01507
821.486	43.10419
821.895	29.07225
822.304	-24.06456
822.713	21.05016
823.122	6.01515
823.531	2.00481
823.939	31.0761
824.348	24.05889
824.756	32.08072
825.164	66.16624
825.573	-3.00763
825.981	46.11462
826.389	40.10104
826.797	-10.0254
827.205	-24.05615
827.612	-14.03509
828.02	-34.08147
828.428	39.09983
828.835	15.03981
829.243	30.07208
829.65	-5.0126
830.057	33.08065
830.464	11.02709
830.871	21.05077
831.278	10.02445
831.685	5.01132
832.092	13.03216
832.499	11.02438
832.905	23.05869
833.312	46.1055
833.718	42.10514
834.124	-12.02789
834.531	51.12894
834.937	90.23001
835.343	18.04385
835.749	41.09635
836.155	21.05539
836.561	28.06936
836.966	13.03211
837.372	1.00257
837.777	29.07272
838.183	14.0315
838.588	29.07248
838.993	22.05402
839.399	2.00495
839.804	-41.10188
840.209	-12.03095
840.613	-9.02035
841.018	-2.00512
841.423	17.04396
841.828	6.01533
842.232	72.17816
842.637	34.08072
843.041	-11.02855
843.445	-6.01524
843.849	-12.03012
844.253	-13.03137
844.657	-24.06136
845.061	0
845.465	26.06325
845.869	12.02818
846.272	-7.01727
846.676	32.07787
847.079	19.04867
847.483	26.0653
847.886	57.1389
848.289	21.05639
848.692	37.09411
849.095	45.10847
849.498	37.09421
849.901	-2.00465
850.304	39.09365
850.707	-9.02323
851.109	38.09657
851.512	14.03471
851.914	-9.02296
852.316	38.0965
852.718	-25.06547
853.121	1.00248
853.523	-2.00473
853.925	9.02367
854.326	4.0101
854.728	-14.03646
855.13	-33.08645
855.531	12.02894
855.933	-8.01946
856.334	-7.01766
856.736	-18.04098
857.137	3.00706
857.538	-26.06635
857.939	-3.0075
858.34	25.06133
858.741	14.03687
859.142	-19.04633
859.542	4.01065
859.943	-3.00754
860.343	-19.04771
860.744	8.01971
861.144	-15.0371
861.544	-11.02678
861.945	2.00515
862.345	43.10548
862.745	-3.00754
863.145	11.02654
863.544	-1.00255
863.944	-19.04557
864.344	12.03006
864.743	41.10207
865.143	15.03881
865.542	-7.01645
865.941	17.0424
866.34	57.13661
866.74	34.09158
867.139	-29.07059
867.537	30.07681
867.936	3.0073
868.335	31.07924
868.734	-7.01809
869.132	23.05382
869.531	70.16895
869.929	-4.00923
870.327	11.0266
870.726	44.10999
871.124	41.09616
871.522	-4.0103
871.92	8.01991
872.318	-11.02723
872.715	75.18507
873.113	11.02703
873.511	-1.00252
873.908	-35.08978
874.306	-13.03274
874.703	7.01767
875.1	-20.05185
875.497	-1.00242
875.894	-33.08218
876.291	-3.00744
876.688	27.06998
877.085	22.05314
877.482	6.01516
877.878	-41.1005
878.275	1.00257
878.671	23.0516
879.068	21.05104
879.464	-12.02938
879.86	-1.00239
880.256	-3.00748
880.652	3.0077
881.048	40.09941
881.444	-2.00481
881.84	31.07913
882.236	5.01269
882.631	-3.00744
883.027	6.01467
883.422	13.03349
883.817	-23.05861
884.213	15.03876
884.608	-5.0124
885.003	9.02189
885.398	-3.00759
885.793	-15.03813
886.188	-21.05292
886.582	36.09265
886.977	-8.01922
887.371	0
887.766	-16.0403
888.16	10.02516
888.554	21.05226
888.949	47.11819
889.343	-13.03216
889.737	-37.10007
890.131	7.01771
890.525	11.02834
890.918	9.02284
891.312	32.07691
891.706	18.04751
892.099	-2.00514
892.492	7.01526
892.886	18.04434
893.279	-6.01545
893.672	-10.02575
894.065	35.08795
894.458	11.02788
894.851	59.14447
895.244	-2.00516
895.637	1.00243
896.029	-16.03963
896.422	-15.03712
896.814	18.04505
897.206	-45.1092
897.599	48.11886
897.991	1.00244
898.383	-49.11811
898.775	35.07932
899.167	-18.04257
899.559	24.06108
899.951	57.13431
900.342	37.09438
900.734	-9.02258
901.125	31.08165
901.517	-12.02981
901.908	1.00242
902.299	-14.03466
902.69	10.0238
903.082	4.00978
903.473	-30.07298
903.863	-5.01289
904.254	4.00938
904.645	19.04756
905.036	-31.07624
905.426	-10.02319
905.817	41.10084
906.207	-29.07019
906.597	-7.01657
906.987	20.05213
907.378	5.01275
907.768	9.02397
908.158	29.07104
908.547	-19.04969
908.937	25.06446
909.327	20.04887
909.717	40.1018
910.106	-2.00485
910.495	26.06523
910.885	50.1267
911.274	18.04527
911.663	7.01791
912.052	0
912.441	-8.02056
912.83	9.02084
913.219	12.03162
913.608	21.05174
913.997	-23.05844
914.385	6.01446
914.774	42.10248
915.162	-27.06533
915.55	45.10904
915.939	1.00255
916.327	3.00755
916.715	14.03592
917.103	60.14749
917.491	30.07453
917.878	40.09858
918.266	32.08327
918.654	19.04882
919.041	-27.07143
919.429	-16.03827
919.816	44.1117
920.203	34.08274
920.591	-15.03765
920.978	8.01975
921.365	33.08686
921.752	-5.01205
922.139	-20.0441
922.525	-53.12982
922.912	-19.04695
923.299	2.00502
923.685	-2.00527
924.072	8.01861
924.458	3.0075
924.844	-31.07787
925.231	8.01878
925.617	-16.04118
926.003	20.0514
926.389	-20.0511
926.774	1.00256
927.16	55.13652
927.546	-36.0933
927.931	26.06518
928.317	-8.01865
928.702	-28.06727
929.088	-10.02393
929.473	-8.02057
929.858	-38.09341
930.243	-15.03646
930.628	-9.02214
931.013	14.03493
931.398	2.00465
931.783	37.09765
932.167	-14.03464
932.552	17.04286
932.937	31.07723
933.321	6.01518
933.705	7.01779
934.09	55.1389
934.474	31.07393
934.858	-18.04724
935.242	9.02103
935.626	30.07707
936.009	-25.06733
936.393	8.02051
936.777	8.02064
937.16	12.03143
937.544	13.03086
937.927	3.00768
938.311	25.06133
938.694	34.09017
939.077	-17.04122
939.46	21.05186
939.843	-3.00634
940.226	12.03099
940.609	-39.09115
940.991	-4.01028
941.374	-23.05699
941.757	20.04963
942.139	-46.10537
942.522	14.03333
942.904	7.01697
943.286	0
943.668	18.04689
944.05	2.00497
944.432	-5.01247
944.814	-4.00995
945.196	-24.0593
945.578	-43.10404
945.959	0
946.341	43.10572
946.722	4.00948
947.104	29.06961
947.485	16.03749
947.866	-10.02547
948.247	-15.03829
948.628	35.08564
949.009	24.06175
949.39	13.03259
949.771	42.09787
950.152	-7.01736
950.532	-69.17345
950.913	25.0606
951.293	-16.04369
951.674	43.10415
952.054	-24.06028
952.434	-35.08824
952.814	-3.00721
953.194	17.04475
953.574	13.03224
953.954	13.0311
954.334	-9.02267
954.714	-1.00246
955.093	-3.00745
955.473	-28.07101
955.853	3.00783
956.232	11.03034
956.611	26.06266
956.99	-22.05601
957.37	-19.04901
957.749	17.04082
958.128	12.03044
958.506	-9.02358
958.885	-5.01274
959.264	-67.16776
959.643	-26.06009
960.021	-49.12362
960.4	1.00229
960.778	55.13537
961.156	3.00758
961.535	11.02584
961.913	8.01888
962.291	-29.07543
962.669	-17.04358
963.047	36.0921
963.424	1.00257
963.802	-9.02237
964.18	62.15655
964.557	-13.03032
964.935	2.00478
965.312	-2.00525
965.69	42.10533
966.067	11.02698
966.444	-2.00498
966.821	20.05183
967.198	30.07306
967.575	34.08385
967.952	22.05213
968.329	-18.04436
968.705	1.00217
969.082	20.05156
969.458	16.03863
969.835	-23.05676
970.211	2.00518
970.587	20.05007
970.963	29.07467
971.339	39.10203
971.715	-27.06836
972.091	47.11581
972.467	20.05016
972.843	-29.07301
973.219	9.02178
973.594	-19.05028
973.97	74.17536
974.345	-29.07046
974.721	-11.02694
975.096	0
975.471	13.03106
975.846	5.01212
976.221	-21.054
976.596	-23.0559
976.971	14.03479
977.346	57.13254
977.72	-6.01544
978.095	15.039
978.469	46.10989
978.844	27.06817
979.218	-3.00726
979.593	27.06498
979.967	6.01474
980.341	18.04171
980.715	-7.01782
981.089	-26.06598
981.463	-22.05125
981.837	-3.0074
982.21	51.11868
982.584	-28.06862
982.957	-23.05819
983.331	-21.05033
983.704	-26.06478
984.078	-3.00747
984.451	24.06023
984.824	-43.10654
985.197	19.04642
985.57	51.12788
985.943	49.12105
986.316	29.07154
986.688	65.15632
987.061	16.03775
987.434	23.06021
987.806	37.08996
988.179	-9.02148
988.551	5.01279
988.923	-5.01244
989.295	25.06276
989.667	-11.02658
990.039	20.04969
990.411	34.07851
990.783	-13.03031
991.155	-46.11253
991.527	71.17417
991.898	-8.02014
992.27	-15.03754
992.641	28.07053
993.012	21.0497
993.384	-31.07509
993.755	2.00514
994.126	15.03632
994.497	-73.18324
994.868	-3.00696
995.239	23.05602
995.61	3.00761
995.98	-1.00245
996.351	-5.01251
996.722	-35.08254
997.092	-28.0673
997.462	-53.1263
997.833	21.05006
998.203	-2.0049
998.573	-19.0479
998.943	4.00946
999.313	-44.10732
999.683	-7.01698
1000.053	-11.02562
1000.423	29.07075
1000.792	26.06766
1001.162	-4.00994
1001.531	7.01739
1001.901	-18.04542
1002.27	10.02254
1002.639	1.00258
1003.009	13.03113
1003.378	12.03088
1003.747	-2.00477
1004.116	-10.0242
1004.485	-19.046
1004.853	-10.0256
1005.222	14.03553
1005.591	-6.0144
1005.959	-20.0457
1006.328	-49.11249
1006.696	11.02672
1007.064	37.09328
1007.433	31.07773
1007.801	28.06901
1008.169	7.01781
1008.537	-3.00672
1008.905	2.0047
1009.273	19.0472
1009.64	-29.07022
1010.008	7.01682
1010.375	61.14781
1010.743	44.10172
1011.11	-33.07933
1011.478	15.03735
1011.845	19.04495
1012.212	27.06139
1012.579	-6.01488
1012.946	37.08827
1013.313	47.11191
1013.68	-17.03873
1014.047	-5.01204
1014.414	-21.05027
1014.78	-33.08322
1015.147	37.08969
1015.513	-6.01461
1015.88	21.05396
1016.246	70.17213
1016.612	20.04605
1016.978	28.06888
1017.344	13.03234
1017.71	41.10013
1018.076	39.09215
1018.442	17.04397
1018.808	37.09268
1019.174	-33.084
1019.539	74.16951
1019.905	-15.03581
1020.27	-15.03745
1020.636	31.07458
1021.001	-2.00483
1021.366	-22.05354
1021.731	10.02589
1022.096	-27.06902
1022.461	10.02384
1022.826	11.02633
1023.191	4.01057
1023.556	-16.03797
1023.92	-2.00496
1024.285	13.03194
1024.649	26.06398
1025.014	22.05476
1025.378	-17.04324
1025.742	16.03997
1026.107	28.0636
1026.471	29.06796
1026.835	8.01998
1027.199	-18.04387
1027.562	-3.00704
1027.926	56.13674
1028.29	-3.00766
1028.654	9.02087
1029.017	8.01981
1029.381	-30.07273
1029.744	40.10216
1030.107	23.05468
1030.471	21.05054
1030.834	18.0412
1031.197	59.14183
1031.56	14.03325
1031.923	-7.01827
1032.286	21.04958
1032.648	44.10531
1033.011	-14.03253
1033.374	32.07545
1033.736	5.01324
1034.099	64.15552
1034.461	-3.00765
1034.823	-5.01257
1035.185	43.10833
1035.548	35.08538
1035.91	9.02172
1036.272	-11.02533
1036.634	27.06631
1036.995	-30.07158
1037.357	-41.1014
1037.719	-5.01228
1038.08	9.02153
1038.442	0
1038.803	13.03142
1039.165	6.01525
1039.526	5.01218
1039.887	-23.05577
1040.248	-23.0574
1040.609	-3.00748
1040.97	-1.00247
1041.331	38.09636
1041.692	-38.09019
1042.053	8.01836
1042.413	14.03284
1042.774	12.02938
1043.134	39.09301
1043.495	-1.00254
1043.855	36.08751
1044.215	2.00501
1044.576	-46.11194
1044.936	32.0736
1045.296	70.17397
1045.656	1.00247
1046.016	25.0606
1046.375	2.00489
1046.735	-44.1016
1047.095	-18.04267
1047.454	17.03627
1047.814	24.05795
1048.173	62.14771
1048.533	3.00693
1048.892	-46.11236
1049.251	18.04542
1049.61	-9.02239
1049.969	10.02374
1050.328	-11.02415
1050.687	-56.13887
1051.046	-18.04436
1051.405	18.04501
1051.763	21.04854
1052.122	-28.07078
1052.48	4.00989
1052.839	-13.03094
1053.197	-35.08369
1053.555	58.13196
1053.914	28.06873
1054.272	-35.08592
1054.63	-36.08937
1054.988	-26.06263
1055.345	-15.03273
1055.703	-11.02676
1056.061	-18.04682
1056.419	20.05201
1056.776	0
1057.134	-42.09895
1057.491	7.01765
1057.848	14.03506
1058.206	-1.00237
1058.563	-18.04022
1058.92	10.02322
1059.277	5.01243
1059.634	58.13617
1059.991	9.02172
1060.348	-58.13388
1060.704	-32.07741
1061.061	40.09306
1061.418	-12.02942
1061.774	-27.06756
1062.131	-21.05615
1062.487	10.02355
1062.843	5.01256
1063.199	-9.02261
1063.555	-37.08715
1063.911	24.06086
1064.267	-20.04234
1064.623	-11.027
1064.979	37.08783
1065.335	37.08861
1065.691	-17.04124
1066.046	-30.06704
1066.402	-32.07386
1066.757	5.01271
1067.112	11.02717
1067.468	-27.06466
1067.823	14.03387
1068.178	-23.05636
1068.533	18.04387
1068.888	9.02166
1069.243	15.03723
1069.598	24.05856
1069.952	-17.03878
1070.307	-26.06521
1070.662	-25.06017
1071.016	-28.0637
1071.371	-12.02762
1071.725	25.06005
1072.079	29.06998
1072.434	14.03422
1072.788	43.10247
1073.142	29.07156
1073.496	-21.05046
1073.85	-33.07773
1074.203	11.02686
1074.557	4.01071
1074.911	54.1287
1075.265	-22.05183
1075.618	3.00738
1075.971	-27.06513
1076.325	24.06123
1076.678	-37.08603
1077.031	-26.0597
1077.385	15.03326
1077.738	-13.0297
1078.091	-30.06927
1078.444	22.05133
1078.796	9.02223
1079.149	-1.00251
1079.502	-11.02627
1079.855	-37.0877
1080.207	-11.02738
1080.56	-12.03132
1080.912	32.07811
1081.264	-6.01459
1081.617	-34.0841
1081.969	-39.09986
1082.321	-21.05192
1082.673	-47.10929
1083.025	-58.14035
1083.377	-6.01302
1083.728	-25.05914
1084.08	30.0751
1084.432	-22.05374
1084.783	21.04945
1085.135	-34.08643
1085.486	-21.04869
1085.838	-3.00745
1086.189	-38.09368
1086.54	-20.04836
1086.891	-15.03834
1087.242	-14.03446
1087.593	-9.02214
1087.944	3.00685
1088.295	31.07069
1088.646	-10.02449
1088.996	-20.04878
1089.347	38.09337
1089.698	-63.15202
1090.048	-7.01834
1090.398	16.03733
1090.749	13.0313
1091.099	-48.12272
1091.449	5.01255
1091.799	20.0503
1092.149	-28.06921
1092.499	-36.08915
1092.849	-14.03596
1093.199	20.05036
1093.548	19.04588
1093.898	-10.02527
1094.248	-2.00518
1094.597	-64.16649
1094.947	-5.01345
1095.296	-5.01246
1095.645	32.08341
1095.994	21.05067
1096.343	4.01014
1096.692	-20.05311
1097.041	-23.06295
1097.39	19.04788
1097.739	29.07558
1098.088	56.14975
1098.437	-37.09854
1098.785	34.09182
1099.134	7.0187
1099.482	33.09092
1099.83	18.04751
1100.179	-26.06863
1100.527	2.00535
1100.875	-40.10725
1101.223	-17.0456
1101.571	13.0361
1101.919	-32.0847
1102.267	6.01699
1102.615	-12.03865
1102.962	3.00967
1103.31	-3.00965
1103.658	11.03543
