Data from N2 R5 sample 4_Subt2__0__12-15-09-848.txt Node

Date: Fri Aug 29 12:15:09 PDT 2025
User: uwsun
Spectrometer: HDX01956
Trigger mode: 0
Integration Time (sec): 5.000000E-1
Scans to average: 1
Nonlinearity correction enabled: true
Boxcar width: 0
Storing dark spectrum: false
XAxis mode: Wavelengths
Number of Pixels in Spectrum: 2068
>>>>>Begin Spectral Data<<<<<
194.03	217.58855
194.578	251.76875
195.127	241.72761
195.676	245.74167
196.225	276.69809
196.773	300.78269
197.321	423.05273
197.87	559.23784
198.418	527.15767
198.966	494.09983
199.513	440.9408
200.061	486.04618
200.609	565.27399
201.156	477.87219
201.704	446.96393
202.251	490.11027
202.798	499.10479
203.345	546.13879
203.892	533.13156
204.438	535.07453
204.985	486.96624
205.532	527.17512
206.078	552.1345
206.624	517.0665
207.17	529.02774
207.716	522.06164
208.262	547.8826
208.808	465.96864
209.354	506.03512
209.899	595.2612
210.445	493.0333
210.99	523.0528
211.535	597.15901
212.08	559.08097
212.625	522.106
213.17	512.10273
213.715	434.81301
214.259	587.13089
214.804	602.23854
215.348	496.95855
215.892	535.07749
216.436	539.0482
216.98	568.04152
217.524	507.00928
218.068	571.20815
218.612	517.10803
219.155	501.99768
219.698	447.915
220.242	497.06188
220.785	475.94811
221.328	443.95643
221.871	517.12281
222.414	526.11643
222.956	405.84441
223.499	416.80779
224.041	464.93109
224.583	511.93485
225.126	468.87801
225.668	450.94177
226.21	450.97756
226.751	391.73624
227.293	452.88775
227.835	496.02975
228.376	554.07513
228.918	497.07747
229.459	407.87985
230	437.89655
230.541	494.96796
231.082	462.96089
231.622	496.97142
232.163	460.9546
232.704	483.02077
233.244	479.01496
233.784	486.02152
234.324	421.78534
234.864	398.77984
235.404	492.99822
235.944	519.04041
236.484	489.04476
237.023	437.88562
237.563	457.89863
238.102	504.00586
238.641	512.10037
239.18	439.87462
239.719	511.08902
240.258	539.00987
240.797	463.94303
241.335	558.1453
241.874	456.73046
242.412	452.92754
242.95	448.9102
243.488	489.94163
244.026	482.93596
244.564	501.85652
245.102	446.8487
245.64	499.01962
246.177	447.85122
246.715	570.13942
247.252	499.96597
247.789	553.85
248.326	479.96807
248.863	489.89414
249.4	510.97004
249.936	487.83123
250.473	510.99317
251.009	473.9095
251.546	471.86992
252.082	493.901
252.618	495.91746
253.154	472.95633
253.69	450.85548
254.226	522.03751
254.761	505.94347
255.297	512.92557
255.832	526.03284
256.367	519.01691
256.903	499.90782
257.438	533.03996
257.972	511.94287
258.507	486.92438
259.042	481.8684
259.576	442.79083
260.111	514.98954
260.645	524.93373
261.179	496.96223
261.713	512.93833
262.247	521.99554
262.781	495.8499
263.315	548.1055
263.849	543.12374
264.382	548.03511
264.915	509.98439
265.449	439.89496
265.982	571.05836
266.515	506.02483
267.048	512.88311
267.58	569.01008
268.113	516.90806
268.646	563.13815
269.178	529.96144
269.71	481.8684
270.243	581.07479
270.775	539.13387
271.307	544.08032
271.838	558.09064
272.37	603.203
272.902	558.03138
273.433	549.96996
273.965	568.12754
274.496	573.16899
275.027	497.02241
275.558	546.08177
276.089	526.05326
276.62	555.16553
277.15	531.08169
277.681	537.94627
278.211	615.21902
278.741	508.90568
279.272	552.01365
279.802	575.16989
280.332	545.03925
280.861	604.16677
281.391	540.98667
281.921	566.10735
282.45	545.11631
282.98	572.2195
283.509	595.06073
284.038	591.0699
284.567	607.13307
285.096	559.09182
285.625	549.99831
286.153	521.98735
286.682	589.06519
287.21	573.1028
287.739	556.05231
288.267	544.05819
288.795	633.33894
289.323	570.05308
289.851	636.16708
290.378	526.94409
290.906	586.11948
291.433	639.25664
291.961	604.06431
292.488	609.20204
293.015	536.00151
293.542	532.08152
294.069	636.21989
294.596	588.15808
295.122	646.19499
295.649	654.10283
296.175	659.24249
296.702	670.25925
297.228	674.26927
297.754	631.08563
298.28	694.18508
298.806	616.14791
299.332	628.05198
299.857	659.12426
300.383	706.37721
300.908	608.1341
301.433	659.22061
301.958	734.26971
302.483	679.28841
303.008	658.25244
303.533	708.41838
304.058	701.24693
304.582	672.18936
305.107	625.25966
305.631	747.25701
306.155	673.16672
306.679	668.1614
307.203	738.25095
307.727	750.30502
308.251	670.24998
308.775	664.1648
309.298	744.29182
309.822	716.34785
310.345	756.29885
310.868	749.29812
311.391	795.41965
311.914	688.27665
312.437	798.29319
312.96	772.29461
313.482	789.325
314.005	795.4328
314.527	798.51354
315.049	823.49019
315.571	809.22122
316.093	852.47204
316.615	803.35078
317.137	847.23308
317.659	846.43068
318.18	857.4278
318.702	811.28961
319.223	881.16199
319.744	867.2818
320.265	853.39
320.786	812.36559
321.307	829.4045
321.828	923.34179
322.348	908.38812
322.869	914.38249
323.389	976.8681
323.909	950.37742
324.43	1024.56911
324.95	937.33708
325.47	960.48707
325.989	943.38032
326.509	984.27494
327.029	987.31585
327.548	980.2965
328.067	1039.48261
328.587	1024.55434
329.106	1060.37796
329.625	1166.85431
330.144	1022.35608
330.662	1035.36114
331.181	1083.42575
331.7	1080.41653
332.218	1156.29844
332.736	1169.47033
333.255	1200.46224
333.773	1097.41443
334.291	1231.66376
334.808	1190.32598
335.326	1225.37236
335.844	1193.37379
336.361	1210.57915
336.879	1231.38654
337.396	1204.43902
337.913	1258.35269
338.43	1323.32442
338.947	1294.43381
339.464	1255.15324
339.981	1307.39252
340.497	1356.53727
341.014	1326.45637
341.53	1417.28179
342.046	1344.45144
342.562	1378.52744
343.078	1496.39276
343.594	1479.41838
344.11	1473.39064
344.626	1499.53886
345.141	1497.25005
345.657	1590.2783
346.172	1484.37396
346.687	1501.22953
347.202	1552.16455
347.717	1632.34082
348.232	1570.44981
348.747	1607.19843
349.261	1541.99633
349.776	1591.22578
350.29	1612.30957
350.805	1747.39916
351.319	1703.18181
351.833	1569.04283
352.347	1714.16305
352.861	1659.11138
353.374	1788.11546
353.888	1753.22146
354.401	1771.05058
354.915	1696.92328
355.428	1858.22849
355.941	1844.00773
356.454	1950.94319
356.967	1845.06571
357.48	1905.97094
357.993	1898.15614
358.505	1869.09192
359.018	1967.08317
359.53	1962.99164
360.042	1979.77421
360.554	1984.01425
361.066	1910.9978
361.578	2032.65935
362.09	1984.91154
362.602	1978.6549
363.113	2016.77147
363.625	2089.64062
364.136	2105.57621
364.647	2084.60962
365.158	2136.66241
365.669	2157.73363
366.18	2199.6554
366.691	2138.47164
367.201	2126.67095
367.712	2150.47934
368.222	2301.41491
368.733	2247.23647
369.243	2349.20775
369.753	2353.33518
370.263	2435.362
370.773	2344.46891
371.282	2431.24652
371.792	2448.99114
372.301	2478.13305
372.811	2552.32273
373.32	2539.64981
373.829	2787.69699
374.338	2809.4931
374.847	2831.47496
375.356	2923.42051
375.865	2958.0692
376.373	3178.0104
376.882	3265.19722
377.39	3295.00378
377.898	3262.89502
378.407	3503.63735
378.915	3720.54311
379.423	3887.53158
379.93	4011.52366
380.438	4074.5443
380.946	4398.74561
381.453	4513.92456
381.96	4693.36356
382.468	4930.28014
382.975	5339.03826
383.482	5500.21482
383.989	5368.46086
384.495	5718.77807
385.002	6016.11669
385.509	6305.42294
386.015	6718.23986
386.521	7180.13737
387.028	7369.72047
387.534	7429.45385
388.04	7818.83714
388.546	7937.04865
389.051	8391.10394
389.557	8997.41444
390.063	9951.01601
390.568	9958.5752
391.073	10397.0643
391.578	10586.62235
392.084	10961.18886
392.589	11275.45591
393.093	11938.49513
393.598	13304.84025
394.103	14376.86968
394.607	16174.00518
395.112	17112.20093
395.616	17890.07582
396.12	19127.93491
396.624	20896.98161
397.128	22776.71458
397.632	25617.00486
398.136	27105.36179
398.639	27752.47501
399.143	30556.8283
399.646	28179.2192
400.15	25083.82847
400.653	20124.16724
401.156	13866.23708
401.659	5169.95759
402.162	1054.15589
402.664	0
403.167	0
403.67	0
404.172	0
404.674	0
405.176	0
405.678	0
406.18	0
406.682	0
407.184	0
407.686	0
408.187	0
408.688	0
409.19	0
409.691	0
410.192	0
410.693	0
411.194	435.30976
411.694	4082.94878
412.195	8864.71461
412.696	12089.80453
413.196	12760.96929
413.696	12863.67595
414.196	13703.56671
414.696	17261.84252
415.196	21764.24417
415.696	29583.19008
416.196	36460.31858
416.695	37245.54132
417.195	32859.06225
417.694	31160.84381
418.194	29391.10837
418.693	26667.17305
419.192	26303.50165
419.691	25892.59093
420.19	25320.82199
420.688	24968.3551
421.187	23778.22628
421.685	22576.79584
422.184	20332.42475
422.682	17369.92863
423.18	14633.21346
423.678	12934.51566
424.176	11991.50089
424.674	11326.75409
425.172	11014.36951
425.669	10387.19273
426.167	9641.51171
426.664	8699.3377
427.161	8016.98978
427.659	7488.43432
428.156	6800.96602
428.652	6474.85919
429.149	6139.32037
429.646	5875.31055
430.143	5688.47342
430.639	5260.27151
431.135	4901.2802
431.632	4751.11999
432.128	4407.66493
432.624	4111.52539
433.12	3949.54953
433.616	3917.53481
434.111	3598.5481
434.607	3597.59212
435.103	3578.57709
435.598	3443.63121
436.093	3290.91479
436.588	3173.00429
437.083	2950.22107
437.578	2880.37883
438.073	2491.76539
438.568	2490.92794
439.062	2505.61903
439.557	2543.9432
440.051	2267.9909
440.546	2228.04456
441.04	2149.26147
441.534	2116.49783
442.028	2206.37468
442.522	1951.46681
443.015	2031.24896
443.509	2027.58658
444.002	1963.61073
444.496	1845.39154
444.989	1887.68623
445.482	1794.75561
445.975	1686.52168
446.468	1726.43736
446.961	1748.44531
447.454	1701.60958
447.947	1703.69899
448.439	1634.83689
448.931	1582.63232
449.424	1622.97563
449.916	1668.87639
450.408	1536.68718
450.9	1485.86885
451.392	1472.99037
451.884	1435.80916
452.375	1349.94203
452.867	1389.82208
453.358	1376.78069
453.849	1400.6815
454.341	1378.80855
454.832	1351.7234
455.323	1352.98995
455.814	1293.88651
456.304	1229.88697
456.795	1276.89369
457.285	1281.88789
457.776	1283.96037
458.266	1203.97611
458.756	1205.03853
459.247	1059.93573
459.737	1096.96318
460.226	1054.85743
460.716	1019.96523
461.206	1046.01016
461.695	1049.1192
462.185	1017.98866
462.674	1033.97269
463.163	985.88954
463.653	968.80346
464.142	960.02198
464.63	897.02981
465.119	890.92481
465.608	892.93143
466.096	909.88479
466.585	923.00063
467.073	851.01338
467.561	874.04514
468.05	840.97373
468.538	861.08997
469.026	785.98449
469.513	772.79871
470.001	726.86106
470.489	788.97963
470.976	820.99025
471.463	737.03731
471.951	720.0394
472.438	617.83479
472.925	654.86899
473.412	619.92245
473.899	668.89298
474.385	588.89027
474.872	592.82916
475.359	545.83274
475.845	586.7098
476.331	592.78379
476.817	558.87265
477.303	589.85589
477.789	531.83014
478.275	495.81221
478.761	442.71892
479.247	517.75578
479.732	466.78317
480.218	470.84658
480.703	471.80348
481.188	429.61619
481.673	417.65597
482.158	344.49697
482.643	447.81195
483.128	406.64106
483.612	340.57103
484.097	404.71499
484.581	384.64319
485.066	318.56834
485.55	351.5489
486.034	306.47948
486.518	283.49129
487.002	362.64866
487.486	305.55764
487.969	248.46087
488.453	330.63314
488.936	303.51013
489.42	230.39006
489.903	338.65287
490.386	358.4127
490.869	272.4538
491.352	290.55559
491.835	262.41482
492.318	208.36692
492.8	232.3707
493.283	236.47511
493.765	201.39449
494.247	235.43835
494.73	218.38055
495.212	220.42963
495.694	131.24799
496.175	157.29867
496.657	203.38919
497.139	193.26637
497.62	118.22803
498.102	112.22963
498.583	182.37467
499.064	108.1972
499.545	178.33045
500.026	114.21048
500.507	133.25523
500.988	183.37495
501.469	92.19298
501.949	140.28951
502.43	84.16653
502.91	52.08991
503.39	125.26411
503.87	70.13845
504.35	163.32112
504.83	102.18634
505.31	112.22787
505.79	61.12374
506.269	98.19402
506.749	49.09503
507.228	86.17034
507.707	73.13691
508.187	76.15568
508.666	45.09462
509.145	3.00605
509.623	12.02436
510.102	66.13728
510.581	61.12736
511.059	49.10557
511.538	117.25955
512.016	80.16402
512.494	61.12809
512.972	36.07448
513.45	-61.12368
513.928	61.1273
514.406	-6.01251
514.884	56.12477
515.361	79.16267
515.839	19.03761
516.316	21.04406
516.793	67.1477
517.27	34.07229
517.747	47.10504
518.224	29.05872
518.701	-11.02158
519.178	-9.01958
519.654	-11.02324
520.131	37.0801
520.607	33.07211
521.083	33.06587
521.56	0
522.036	12.02321
522.512	47.10213
522.987	-2.00417
523.463	19.03976
523.939	29.06283
524.414	15.03069
524.89	24.05025
525.365	-15.03016
525.84	-16.03355
526.315	-2.00427
526.79	23.04576
527.265	-6.01216
527.74	5.01081
528.215	20.04171
528.689	6.01176
529.164	-8.0155
529.638	51.11605
530.112	-32.06736
530.587	-33.06268
531.061	-42.09071
531.534	28.06037
532.008	15.03197
532.482	-15.03089
532.956	-40.09145
533.429	20.04314
533.903	12.02369
534.376	-2.00395
534.849	-2.00415
535.322	15.03157
535.795	-14.03075
536.268	29.06192
536.741	8.01721
537.213	8.01655
537.686	-27.05905
538.158	5.00995
538.631	40.08679
539.103	-4.00799
539.575	7.01307
540.047	-12.0237
540.519	22.04708
540.991	73.1585
541.463	-7.01525
541.934	46.09337
542.406	-5.01068
542.877	0
543.348	-13.02833
543.82	13.02865
544.291	11.02308
544.762	-22.04686
545.233	48.10664
545.703	3.00591
546.174	38.07844
546.645	17.03589
547.115	73.15444
547.585	52.10555
548.056	32.06775
548.526	122.24674
548.996	179.36841
549.466	165.34725
549.935	86.17577
550.405	132.2464
550.875	123.24973
551.344	168.34336
551.814	152.29768
552.283	220.4009
552.752	190.37016
553.221	192.3465
553.69	257.4694
554.159	190.39061
554.628	222.40886
555.096	219.46393
555.565	259.47521
556.033	229.45369
556.502	217.44501
556.97	212.3977
557.438	227.45752
557.906	231.46879
558.374	159.31692
558.842	168.34881
559.31	206.39771
559.777	203.42289
560.245	248.5018
560.712	229.45836
561.18	261.49096
561.647	253.48435
562.114	260.5063
562.581	297.62668
563.048	306.60184
563.514	300.62731
563.981	350.67638
564.448	386.72272
564.914	397.77439
565.381	414.78588
565.847	467.90272
566.313	465.89326
566.779	515.94312
567.245	501.95871
567.711	506.99147
568.176	532.96125
568.642	557.13012
569.108	579.14433
569.573	622.16715
570.038	629.03324
570.504	652.13651
570.969	728.42288
571.434	715.19322
571.899	772.40156
572.363	794.36212
572.828	881.49205
573.293	876.48316
573.757	860.46386
574.222	890.44281
574.686	836.38088
575.15	914.59118
575.614	903.5121
576.078	876.51683
576.542	925.5305
577.006	1003.60076
577.469	1011.82031
577.933	942.50944
578.396	995.70576
578.86	968.6527
579.323	956.65226
579.786	939.45057
580.249	861.44549
580.712	900.63778
581.175	801.50558
581.637	899.53167
582.1	874.41598
582.563	893.40429
583.025	810.48933
583.487	795.18423
583.95	750.21381
584.412	787.23917
584.874	740.3897
585.336	715.31466
585.797	723.19537
586.259	752.3714
586.721	650.20121
587.182	707.29666
587.643	638.14607
588.105	625.17827
588.566	584.98057
589.027	593.14247
589.488	586.07136
589.949	570.11888
590.41	511.79605
590.87	579.06628
591.331	566.98464
591.791	498.94122
592.252	484.90624
592.712	541.0601
593.172	488.902
593.632	462.83984
594.092	501.91516
594.552	486.85748
595.011	423.80826
595.471	443.82393
595.931	446.82477
596.39	453.90084
596.849	409.79931
597.308	484.86466
597.768	390.83895
598.227	410.83223
598.685	452.86723
599.144	426.83352
599.603	485.9501
600.062	423.73557
600.52	388.72611
600.978	416.82861
601.437	478.90518
601.895	428.75314
602.353	471.86382
602.811	495.90008
603.269	475.94151
603.727	473.93754
604.184	449.8355
604.642	501.00889
605.099	517.98024
605.557	515.03
606.014	520.90409
606.471	564.13523
606.928	547.93371
607.385	612.17829
607.842	712.25836
608.299	684.24841
608.755	663.25861
609.212	613.07373
609.668	630.08824
610.125	754.40979
610.581	725.35446
611.037	702.26324
611.493	655.23735
611.949	608.17619
612.405	635.99699
612.861	698.30489
613.316	656.24863
613.772	722.29864
614.227	690.28737
614.683	700.17868
615.138	674.25249
615.593	653.21248
616.048	702.27422
616.503	689.36022
616.958	650.31643
617.412	703.32236
617.867	663.16334
618.321	728.1781
618.776	703.23499
619.23	619.18408
619.684	691.25199
620.138	749.3842
620.592	630.25433
621.046	626.20761
621.5	681.34377
621.954	673.2317
622.407	702.25936
622.861	645.28871
623.314	637.19329
623.768	589.14236
624.221	541.88973
624.674	549.06515
625.127	568.11757
625.58	613.16862
626.033	555.03837
626.485	529.07761
626.938	539.09453
627.39	525.0447
627.843	529.04778
628.295	536.06044
628.747	483.99852
629.199	454.90304
629.651	439.87584
630.103	461.92443
630.555	404.75904
631.006	423.88076
631.458	400.84232
631.909	431.88305
632.361	432.8969
632.812	359.74918
633.263	386.74882
633.714	400.77005
634.165	349.77189
634.616	367.79305
635.067	393.79026
635.518	368.80048
635.968	344.63293
636.419	329.65852
636.869	334.73178
637.319	315.67253
637.769	268.55941
638.219	341.75231
638.669	246.55103
639.119	311.70535
639.569	252.57144
640.019	302.65163
640.468	263.55275
640.918	300.67585
641.367	249.52794
641.816	252.53278
642.265	221.48637
642.714	220.48467
643.163	203.44638
643.612	170.39114
644.061	159.32489
644.51	197.42973
644.958	171.36241
645.406	174.40034
645.855	193.45406
646.303	232.51775
646.751	160.3519
647.199	231.50132
647.647	203.44807
648.095	136.30339
648.543	197.39047
648.99	173.39891
649.438	200.45316
649.885	208.49439
650.333	146.27754
650.78	181.42201
651.227	161.37967
651.674	172.38004
652.121	152.35963
652.568	148.34962
653.015	218.53009
653.461	134.31127
653.908	177.40032
654.354	175.40594
654.801	114.26251
655.247	158.33947
655.693	136.3461
656.139	133.31242
656.585	170.39691
657.031	104.23871
657.477	99.21183
657.922	77.176
658.368	128.31033
658.813	153.34942
659.259	97.23008
659.704	119.27331
660.149	139.31822
660.594	134.31287
661.039	113.25474
661.484	144.33859
661.929	105.24357
662.373	96.23937
662.818	137.33408
663.262	114.27118
663.707	94.236
664.151	105.25433
664.595	109.26034
665.039	123.30251
665.483	101.25471
665.927	125.2918
666.371	75.17322
666.814	98.23321
667.258	72.17009
667.701	111.23987
668.145	126.31063
668.588	71.17436
669.031	98.22935
669.474	91.21876
669.917	112.24809
670.36	140.34311
670.803	138.33016
671.245	92.19528
671.688	111.26977
672.13	71.16019
672.573	110.27805
673.015	101.24224
673.457	83.18213
673.899	109.26352
674.341	101.24353
674.783	84.20174
675.225	110.26949
675.666	96.23038
676.108	80.17558
676.549	135.31836
676.991	73.16275
677.432	86.17353
677.873	97.22537
678.314	79.1897
678.755	80.19541
679.196	83.19139
679.637	111.27118
680.078	104.24435
680.518	136.31654
680.959	89.21411
681.399	75.18684
681.839	103.25098
682.28	86.21272
682.72	73.16873
683.16	132.32674
683.6	142.32345
684.039	62.13172
684.479	80.19723
684.919	39.09122
685.358	117.29622
685.798	72.18922
686.237	123.29736
686.676	142.3292
687.115	92.21759
687.554	105.25011
687.993	154.33985
688.432	114.26146
688.871	93.21257
689.309	121.28888
689.748	95.20143
690.186	107.25663
690.625	120.2815
691.063	131.31348
691.501	138.33971
691.939	111.27662
692.377	100.24463
692.815	151.35885
693.253	130.31245
693.69	62.1386
694.128	70.17099
694.565	137.32608
695.003	135.34094
695.44	137.32131
695.877	90.21162
696.314	171.36653
696.751	135.30856
697.188	145.33222
697.625	185.42148
698.061	115.27624
698.498	163.39183
698.934	139.33389
699.371	92.21792
699.807	147.34652
700.243	140.33572
700.679	143.32382
701.115	149.35014
701.551	152.3567
701.987	183.40849
702.422	131.31072
702.858	134.31876
703.294	143.32395
703.729	160.38878
704.164	173.41255
704.599	151.33581
705.035	93.21
705.47	161.38835
705.904	88.20668
706.339	184.42453
706.774	123.28848
707.209	124.28633
707.643	184.43702
708.078	173.41713
708.512	104.26026
708.946	155.36977
709.38	162.3815
709.814	163.37091
710.248	163.39436
710.682	130.30889
711.116	113.26968
711.549	168.42903
711.983	145.33422
712.416	155.36495
712.85	138.34272
713.283	148.34894
713.716	179.44494
714.149	196.46157
714.582	167.37293
715.015	164.40743
715.448	177.44125
715.881	225.48476
716.313	154.35914
716.746	152.35601
717.178	164.39117
717.61	149.37549
718.043	183.45073
718.475	129.31234
718.907	172.43135
719.339	140.3167
719.77	110.26127
720.202	151.37916
720.634	114.27742
721.065	136.32177
721.497	162.39393
721.928	129.31586
722.359	112.27011
722.79	137.32683
723.221	134.33618
723.652	198.50333
724.083	93.21145
724.514	118.27193
724.945	114.26857
725.375	115.26719
725.806	163.40369
726.236	175.44337
726.666	134.3168
727.096	184.44608
727.526	128.3239
727.956	83.1904
728.386	178.43348
728.816	132.33247
729.246	115.27939
729.675	134.32841
730.105	130.31931
730.534	87.20517
730.964	139.34991
731.393	195.47798
731.822	162.40992
732.251	152.38284
732.68	159.37262
733.109	82.20328
733.537	120.28962
733.966	150.36993
734.395	143.32922
734.823	153.34407
735.251	92.22271
735.68	157.3904
736.108	161.40369
736.536	142.33389
736.964	194.44403
737.392	143.35585
737.82	128.30682
738.247	143.34115
738.675	161.38217
739.102	112.27957
739.53	131.3319
739.957	110.2826
740.384	146.35848
740.811	163.40929
741.238	111.27108
741.665	129.29865
742.092	137.32633
742.519	74.18425
742.945	101.24326
743.372	138.33996
743.798	143.36513
744.225	112.26663
744.651	136.3396
745.077	136.3375
745.503	133.32348
745.929	131.31348
746.355	172.42356
746.781	136.33553
747.207	78.18426
747.632	54.13293
748.058	152.37638
748.483	134.30794
748.908	113.28058
749.334	98.24134
749.759	84.19936
750.184	102.24348
750.609	159.38743
751.033	178.41641
751.458	106.23901
751.883	168.41203
752.307	109.25694
752.732	94.23506
753.156	82.2035
753.58	154.36337
754.005	142.35817
754.429	112.26345
754.853	92.22848
755.277	118.27919
755.7	162.39791
756.124	98.24347
756.548	121.28634
756.971	152.36837
757.394	118.30305
757.818	128.32769
758.241	141.3552
758.664	112.2823
759.087	81.18215
759.51	116.28819
759.933	100.24099
760.356	94.24124
760.778	113.27751
761.201	124.30097
761.623	117.28371
762.046	160.37665
762.468	184.43634
762.89	162.396
763.312	141.34229
763.734	95.22933
764.156	105.25929
764.578	137.31414
765	132.32062
765.421	82.20868
765.843	120.31323
766.264	168.40163
766.686	137.34203
767.107	106.25689
767.528	55.1398
767.949	112.28412
768.37	51.12641
768.791	126.30387
769.212	58.14661
769.632	71.16659
770.053	97.25514
770.473	111.26967
770.894	111.27752
771.314	119.28389
771.734	88.20595
772.154	71.18308
772.575	103.23921
772.994	67.15351
773.414	110.26408
773.834	101.25234
774.254	83.20383
774.673	115.27949
775.093	83.20587
775.512	40.09956
775.931	89.22581
776.351	86.21389
776.77	72.17679
777.189	62.14862
777.607	71.18193
778.026	50.12553
778.445	31.07838
778.864	104.26616
779.282	102.24525
779.701	75.18962
780.119	44.11205
780.537	60.15053
780.955	109.27646
781.373	46.11474
781.791	54.12251
782.209	93.21479
782.627	62.16388
783.045	55.12763
783.462	47.1209
783.88	69.17891
784.297	66.16666
784.715	16.04155
785.132	69.16776
785.549	52.13088
785.966	72.18155
786.383	46.11403
786.8	60.14037
787.217	62.14783
787.633	40.10061
788.05	68.16244
788.466	93.21948
788.883	25.06437
789.299	75.18112
789.715	79.19236
790.131	45.11272
790.547	78.19505
790.963	51.12737
791.379	36.09175
791.795	58.13334
792.21	62.14578
792.626	40.09581
793.041	68.16832
793.457	52.12928
793.872	11.02625
794.287	12.02903
794.702	73.18027
795.117	9.02265
795.532	12.03043
795.947	32.07785
796.362	81.19376
796.776	91.21326
797.191	21.05199
797.605	-5.01194
798.02	10.02466
798.434	60.13451
798.848	10.02494
799.262	36.08999
799.676	55.13492
800.09	50.12372
800.504	57.139
800.918	6.01412
801.331	79.20702
801.745	45.10422
802.158	19.048
802.572	65.15821
802.985	46.11199
803.398	36.08662
803.811	114.29124
804.224	57.14246
804.637	-5.01211
805.05	34.0796
805.462	48.11864
805.875	20.05229
806.288	-8.01961
806.7	28.07098
807.112	52.12132
807.525	46.1142
807.937	-5.01254
808.349	39.09836
808.761	53.13098
809.173	70.1699
809.584	45.1119
809.996	10.02478
810.408	38.09861
810.819	49.11591
811.231	90.2317
811.642	100.23724
812.053	175.40819
812.464	167.39014
812.875	100.25431
813.286	81.20814
813.697	95.22159
814.108	33.08128
814.519	44.09885
814.929	34.08732
815.34	51.12427
815.75	31.07932
816.16	45.11276
816.571	57.1484
816.981	39.09279
817.391	68.16443
817.801	48.11973
818.211	29.06977
818.62	24.05832
819.03	56.13771
819.44	65.16993
819.849	26.06605
820.259	41.1055
820.668	48.11856
821.077	-2.00503
821.486	26.0632
821.895	63.15598
822.304	31.08264
822.713	26.06204
823.122	18.04535
823.531	38.09071
823.939	-18.04459
824.348	44.10756
824.756	55.13816
825.164	47.11878
825.573	0
825.981	55.13682
826.389	76.19074
826.797	34.0857
827.205	-1.00233
827.612	61.1508
828.02	-7.01669
828.428	40.10237
828.835	26.06888
829.243	16.03854
829.65	34.08506
830.057	36.08794
830.464	51.12469
830.871	51.1226
831.278	10.02445
831.685	-5.01134
832.092	39.09603
832.499	22.04865
832.905	52.13201
833.312	46.1055
833.718	49.12251
834.124	34.07829
834.531	79.19873
834.937	49.12613
835.343	30.07293
835.749	31.07299
836.155	40.10516
836.561	54.13313
836.966	48.11782
837.372	45.11495
837.777	23.05773
838.183	57.12713
838.588	58.1442
838.993	20.04913
839.399	25.06158
839.804	-59.14709
840.209	-7.01804
840.613	-1.00226
841.018	22.05613
841.423	31.07996
841.828	40.10158
842.232	112.2751
842.637	17.04049
843.041	11.02844
843.445	0
843.849	8.02001
844.253	26.06228
844.657	-22.05623
845.061	19.04353
845.465	33.08017
845.869	12.02818
846.272	-13.0321
846.676	21.05121
847.079	10.02566
847.483	54.13494
847.886	54.13166
848.289	36.09643
848.692	11.02811
849.095	50.1204
849.498	78.19717
849.901	17.03937
850.304	66.15767
850.707	29.07436
851.109	56.14186
851.512	2.00497
851.914	-23.05881
852.316	3.00767
852.718	-14.03659
853.121	4.00991
853.523	-19.04512
853.925	5.01316
854.326	-16.04055
854.728	13.0337
855.13	-8.02087
855.531	-10.02422
855.933	23.05563
856.334	6.0151
856.736	-27.06159
857.137	2.0047
857.538	17.04306
857.939	11.02741
858.34	40.09785
858.741	20.05262
859.142	62.1489
859.542	0
859.943	21.05254
860.343	31.07714
860.744	41.10039
861.144	37.09063
861.544	-6.0146
861.945	44.11241
862.345	28.06888
862.745	31.07742
863.145	21.05058
863.544	-7.01789
863.944	41.09721
864.344	20.05003
864.743	10.02503
865.143	32.08256
865.542	13.03043
865.941	-13.0326
866.34	39.09379
866.74	59.15827
867.139	-9.02182
867.537	35.08953
867.936	-4.00974
868.335	-6.01544
868.734	26.0668
869.132	6.01409
869.531	32.07779
869.929	-37.08597
870.327	-5.01213
870.726	60.14955
871.124	22.05179
871.522	7.01799
871.92	22.05462
872.318	4.00988
872.715	45.11166
873.113	24.05884
873.511	-2.00504
873.908	-44.11304
874.306	2.00502
874.703	13.03279
875.1	23.05918
875.497	25.0603
875.894	-27.06717
876.291	17.04203
876.688	7.01821
877.085	38.09151
877.482	34.08545
877.878	-14.03415
878.275	6.01538
878.671	85.18825
879.068	13.03164
879.464	32.0777
879.86	19.04526
880.256	29.07193
880.652	7.01796
881.048	58.14368
881.444	46.10972
881.84	-4.01027
882.236	25.06321
882.631	37.09114
883.027	64.15476
883.422	56.14317
883.817	-15.03817
884.213	-17.04417
884.608	-13.03228
885.003	-5.01219
885.398	59.14757
885.793	13.03288
886.188	-21.05292
886.582	84.21437
886.977	21.05018
887.371	21.05343
887.766	-23.058
888.16	31.0777
888.554	53.13112
888.949	32.08069
889.343	26.06386
889.737	-11.02962
890.131	35.08811
890.525	25.06426
890.918	18.0456
891.312	40.09599
891.706	3.00794
892.099	50.12733
892.492	32.06941
892.886	29.0713
893.279	10.02567
893.672	34.08686
894.065	52.13027
894.458	-16.04075
894.851	79.19272
895.244	-7.01807
895.637	2.00487
896.029	-4.00989
896.422	37.0907
896.814	42.10465
897.206	-7.01687
897.599	24.05969
897.991	-2.00489
898.383	15.03572
898.775	20.04547
899.167	0
899.559	41.10403
899.951	36.08518
900.342	33.08423
900.734	-12.03013
901.125	58.15207
901.517	19.04694
901.908	79.18854
902.299	3.0074
902.69	12.02855
903.082	48.11637
903.473	-9.02181
903.863	5.01287
904.254	31.07228
904.645	92.22723
905.036	-17.0417
905.426	91.20682
905.817	-9.02234
906.207	-26.06289
906.597	-4.00946
906.987	33.08583
907.378	-1.00255
907.768	-7.01869
908.158	-25.06185
908.547	-19.04969
908.937	26.06703
909.327	-8.01965
909.717	40.1018
910.106	26.06278
910.495	64.15947
910.885	-1.00256
911.274	12.03021
911.663	37.09418
912.052	20.04965
912.441	25.06388
912.83	8.01853
913.219	73.19039
913.608	34.08358
913.997	-16.0406
914.385	56.13373
914.774	40.09763
915.162	-28.06776
915.55	6.01465
915.939	-10.02552
916.327	38.0951
916.715	-1.00257
917.103	34.08398
917.491	40.0992
917.878	43.10591
918.266	35.09103
918.654	20.05138
919.041	-26.06877
919.429	-10.02389
919.816	34.08647
920.203	8.01956
920.591	24.05982
920.978	25.06153
921.365	-7.01855
921.752	18.0432
922.139	12.02628
922.525	28.06755
922.912	25.06128
923.299	4.01003
923.685	19.04984
924.072	0
924.458	-1.0025
924.844	-2.005
925.231	-31.07333
925.617	-36.09297
926.003	28.07186
926.389	-16.04085
926.774	38.09654
927.16	26.06488
927.546	2.00515
927.931	33.08263
928.317	15.03481
928.702	-27.06486
929.088	-28.06725
929.473	-3.00771
929.858	-15.03672
930.243	-13.03158
930.628	-7.01722
931.013	27.06721
931.398	28.06471
931.783	30.07927
932.167	4.00987
932.552	28.07045
932.937	52.12905
933.321	11.0278
933.705	26.06584
934.09	81.20362
934.474	59.13995
934.858	-1.00262
935.242	-9.02111
935.626	21.05404
936.009	4.01072
936.393	-8.02057
936.777	15.03865
937.16	20.05231
937.544	15.03559
937.927	-40.10312
938.311	50.12209
938.694	65.17149
939.077	1.00242
939.46	83.20263
939.843	46.0961
940.226	7.01809
940.609	-27.06295
940.991	20.05119
941.374	-6.01482
941.757	29.07185
942.139	28.06319
942.522	41.0971
942.904	21.05077
943.286	68.17226
943.668	54.1398
944.05	19.04708
944.432	5.01244
944.814	16.03966
945.196	-39.09663
945.578	-51.12358
945.959	29.06826
946.341	34.08373
946.722	27.06367
947.104	5.01206
947.485	28.06545
947.866	20.05066
948.247	18.04568
948.628	33.08077
949.009	-13.03366
949.39	22.05506
949.771	54.12554
950.152	15.03706
950.532	-36.08996
950.913	7.01703
951.293	-4.0109
951.674	31.07526
952.054	9.02247
952.434	4.01001
952.814	15.03594
953.194	68.17744
953.574	71.17424
953.954	19.0454
954.334	7.01758
954.714	-49.12163
955.093	39.0961
955.473	-6.01516
955.853	16.04166
956.232	53.1452
956.611	12.029
956.99	23.05809
957.37	31.07927
957.749	80.18979
958.128	5.0127
958.506	-10.02621
958.885	22.05581
959.264	3.00742
959.643	27.06174
960.021	7.01748
960.4	2.00458
960.778	44.10852
961.156	16.04036
961.535	8.0188
961.913	31.07282
962.291	-13.03372
962.669	-9.02304
963.047	-18.04649
963.424	40.10226
963.802	11.02724
964.18	47.119
964.557	35.08087
964.935	-12.02878
965.312	-14.03686
965.69	47.11777
966.067	54.13141
966.444	49.12078
966.821	69.1773
967.198	21.05123
967.575	49.12051
967.952	54.12717
968.329	36.08784
968.705	24.05177
969.082	44.11296
969.458	-3.00727
969.835	32.07817
970.211	11.02842
970.587	2.00502
970.963	42.1079
971.339	31.08121
971.715	34.08515
972.091	37.09134
972.467	56.13953
972.843	11.02749
973.219	51.12246
973.594	-16.04232
973.97	10.02399
974.345	-16.03878
974.721	52.12588
975.096	9.02195
975.471	63.14909
975.846	43.10345
976.221	13.03323
976.596	3.00726
976.971	43.1063
977.346	10.02347
977.72	23.05887
978.095	27.07006
978.469	43.10278
978.844	83.20744
979.218	-18.04371
979.593	19.0458
979.967	29.07093
980.341	29.06706
980.715	-1.00254
981.089	34.08536
981.463	21.0485
981.837	-8.01976
982.21	39.09097
982.584	15.03647
982.957	12.03017
983.331	28.06648
983.704	-11.02733
984.078	-2.00498
984.451	9.02265
984.824	-13.03203
985.197	26.06344
985.57	29.07301
985.943	57.1406
986.316	59.14473
986.688	33.07984
987.061	21.0495
987.434	21.05499
987.806	49.11887
988.179	1.00238
988.551	40.10165
988.923	21.05199
989.295	59.14719
989.667	-59.14388
990.039	-17.04252
990.411	25.05783
990.783	13.03016
991.155	-12.02917
991.527	63.15478
991.898	-6.0151
992.27	-31.07782
992.641	40.10053
993.012	65.15251
993.384	29.06945
993.755	39.09962
994.126	12.02907
994.497	12.02966
994.868	29.0669
995.239	23.05602
995.61	10.02534
995.98	-5.01227
996.351	-29.07285
996.722	14.0327
997.092	-36.08666
997.462	-55.13111
997.833	17.04056
998.203	20.04876
998.573	-11.02769
998.943	-9.02135
999.313	-5.01211
999.683	32.07706
1000.053	8.01856
1000.423	15.03669
1000.792	16.04171
1001.162	-26.06488
1001.531	53.13059
1001.901	4.01005
1002.27	12.02704
1002.639	-5.0129
1003.009	28.06686
1003.378	-4.01032
1003.747	21.04989
1004.116	9.0217
1004.485	-28.06791
1004.853	35.0889
1005.222	13.033
1005.591	43.10223
1005.959	-39.08946
1006.328	-4.0091
1006.696	-15.03662
1007.064	37.09328
1007.433	18.04524
1007.801	56.1373
1008.169	41.10369
1008.537	42.09315
1008.905	-7.01649
1009.273	29.0719
1009.64	-12.02896
1010.008	-14.03378
1010.375	52.12621
1010.743	67.15419
1011.11	19.04522
1011.478	-7.0175
1011.845	10.0237
1012.212	28.06365
1012.579	24.05919
1012.946	34.08116
1013.313	63.14955
1013.68	-31.07083
1014.047	-20.04829
1014.414	-10.02389
1014.78	-11.02763
1015.147	2.00488
1015.513	39.09415
1015.88	44.11261
1016.246	26.06445
1016.612	9.02077
1016.978	12.02961
1017.344	15.0373
1017.71	42.10255
1018.076	37.08746
1018.442	9.02331
1018.808	10.02517
1019.174	24.06047
1019.539	62.14237
1019.905	-22.0526
1020.27	-11.02744
1020.636	13.03138
1021.001	21.05054
1021.366	-20.04865
1021.731	-4.01038
1022.096	-23.05875
1022.461	45.10657
1022.826	17.04065
1023.191	32.08418
1023.556	14.03303
1023.92	31.07647
1024.285	33.08077
1024.649	25.06153
1025.014	37.09184
1025.378	10.02531
1025.742	16.03997
1026.107	61.13763
1026.471	65.15126
1026.835	36.08944
1027.199	-16.03898
1027.562	-2.0047
1027.926	42.10282
1028.29	42.10639
1028.654	30.06927
1029.017	44.10824
1029.381	17.04085
1029.744	18.04615
1030.107	26.06178
1030.471	14.03374
1030.834	29.06623
1031.197	41.0989
1031.56	56.13193
1031.923	34.08811
1032.286	53.12435
1032.648	35.08391
1033.011	-13.0302
1033.374	29.06842
1033.736	49.1288
1034.099	14.03434
1034.461	8.02035
1034.823	17.04257
1035.185	29.07324
1035.548	31.07568
1035.91	11.02653
1036.272	11.02522
1036.634	18.04428
1036.995	1.00237
1037.357	-17.04186
1037.719	76.18384
1038.08	42.09983
1038.442	-3.00719
1038.803	11.02659
1039.165	22.05577
1039.526	11.02676
1039.887	17.04091
1040.248	-29.07246
1040.609	36.08915
1040.97	-6.01481
1041.331	47.119
1041.692	-29.06871
1042.053	54.12281
1042.413	14.03284
1042.774	33.08047
1043.134	32.07642
1043.495	12.03036
1043.855	-4.0098
1044.215	41.10188
1044.576	11.02648
1044.936	10.0231
1045.296	23.05765
1045.656	27.0665
1046.016	43.10388
1046.375	15.03661
1046.735	-23.05289
1047.095	62.1447
1047.454	-1.00214
1047.814	12.02904
1048.173	16.03846
1048.533	-10.02317
1048.892	4.00968
1049.251	39.09804
1049.61	-21.05235
1049.969	32.07565
1050.328	15.03275
1050.687	15.03672
1051.046	20.04894
1051.405	-4.01004
1051.763	10.02316
1052.122	5.01256
1052.48	6.01483
1052.839	-7.01664
1053.197	-27.06446
1053.555	51.11619
1053.914	58.14157
1054.272	45.10883
1054.63	-15.0371
1054.988	-15.03606
1055.345	-39.08554
1055.703	20.04838
1056.061	29.07483
1056.419	10.02605
1056.776	15.03659
1057.134	27.06276
1057.491	42.10526
1057.848	12.03006
1058.206	-4.0095
1058.563	-22.0492
1058.92	29.06709
1059.277	36.08898
1059.634	13.03079
1059.991	45.10785
1060.348	-17.03892
1060.704	-34.08228
1061.061	58.13446
1061.418	4.00978
1061.774	29.07183
1062.131	-13.03471
1062.487	-23.05451
1062.843	50.12458
1063.199	15.03752
1063.555	20.04659
1063.911	22.05581
1064.267	36.07528
1064.623	-2.0049
1064.979	61.14413
1065.335	51.12181
1065.691	7.0169
1066.046	43.09464
1066.402	13.02974
1066.757	17.04313
1067.112	29.0714
1067.468	-45.10814
1067.823	30.07235
1068.178	10.02435
1068.533	56.13552
1068.888	12.02886
1069.243	16.03971
1069.598	4.0098
1069.952	-24.05482
1070.307	-14.03504
1070.662	3.00718
1071.016	10.02258
1071.371	-13.02993
1071.725	29.06961
1072.079	-20.04871
1072.434	38.09248
1072.788	-12.0289
1073.142	16.03958
1073.496	-32.07706
1073.85	2.00468
1074.203	18.0439
1074.557	31.08264
1074.911	-9.02171
1075.265	55.12763
1075.618	23.0564
1075.971	58.13765
1076.325	0
1076.678	-9.02081
1077.031	-45.10373
1077.385	50.11006
1077.738	6.01366
1078.091	-18.04147
1078.444	49.11371
1078.796	-18.04469
1079.149	13.03253
1079.502	-24.05746
1079.855	32.07483
1080.207	31.07658
1080.56	-2.00521
1080.912	36.08781
1081.264	10.02424
1081.617	4.00983
1081.969	13.03298
1082.321	33.08077
1082.673	-54.12574
1083.025	43.10207
1083.377	-31.06765
1083.728	38.08879
1084.08	21.05266
1084.432	0
1084.783	47.1101
1085.135	-3.00758
1085.486	-30.06969
1085.838	7.01736
1086.189	33.08029
1086.54	25.05994
1086.891	4.01019
1087.242	28.0684
1087.593	56.13608
1087.944	28.0636
1088.295	22.05025
1088.646	28.06809
1088.996	5.01214
1089.347	43.10556
1089.698	-58.13983
1090.048	48.12461
1090.398	23.05359
1090.749	23.05527
1091.099	13.03288
1091.449	32.07991
1091.799	2.00505
1092.149	-12.02957
1092.499	-7.01724
1092.849	-17.04368
1093.199	37.09288
1093.548	-19.04621
1093.898	-31.07863
1094.248	49.12582
1094.597	-28.07239
1094.947	-1.00269
1095.296	63.15506
1095.645	30.07823
1095.994	28.06748
1096.343	15.03795
1096.692	-5.01324
1097.041	-21.05746
1097.39	29.07295
1097.739	33.08595
1098.088	72.19203
1098.437	-18.04778
1098.785	46.12398
1099.134	84.22158
1099.482	25.06897
1099.83	14.03698
1100.179	11.02886
1100.527	22.05868
1100.875	3.00799
1101.223	26.06925
1101.571	-2.00557
1101.919	-11.02901
1102.267	20.05651
1102.615	-6.01931
1102.962	11.03541
1103.31	-4.01287
1103.658	12.03865
