Data from N2 R5 sample 10_Subt2__1__11-55-40-874.txt Node

Date: Fri Aug 29 11:55:40 PDT 2025
User: uwsun
Spectrometer: HDX01956
Trigger mode: 0
Integration Time (sec): 5.000000E-1
Scans to average: 1
Nonlinearity correction enabled: true
Boxcar width: 0
Storing dark spectrum: false
XAxis mode: Wavelengths
Number of Pixels in Spectrum: 2068
>>>>>Begin Spectral Data<<<<<
194.03	211.57283
194.578	201.61968
195.127	216.65435
195.676	209.63577
196.225	262.66433
196.773	252.66287
197.321	365.91999
197.87	495.11048
198.418	466.03653
198.966	485.08177
199.513	343.7488
200.061	421.92061
200.609	502.14625
201.156	378.70844
201.704	391.85502
202.251	424.9754
202.798	419.94483
203.345	508.06831
203.892	502.07282
204.438	505.02116
204.985	450.90217
205.532	493.10689
206.078	448.9438
206.624	464.97021
207.17	471.92921
207.716	482.99088
208.262	493.80757
208.808	406.85684
209.354	450.93385
209.899	532.14293
210.445	480.00888
210.99	419.86506
211.535	511.01206
212.08	517.00963
212.625	464.99725
213.17	480.04077
213.715	371.70579
214.259	446.8896
214.804	534.1152
215.348	467.90878
215.892	438.90327
216.436	504.98989
216.98	473.88936
217.524	438.88744
218.068	411.9014
218.612	429.93849
219.155	429.86861
219.698	390.80863
220.242	424.92188
220.785	442.889
221.328	375.82142
221.871	444.98093
222.414	416.90564
222.956	380.79669
223.499	380.74422
224.041	450.90592
224.583	455.84415
225.126	382.73185
225.668	422.88865
226.21	394.86613
226.751	358.67957
227.293	432.85247
227.835	350.75162
228.376	449.89455
228.918	439.96523
229.459	388.84219
230	436.8947
230.541	431.85709
231.082	424.88932
231.622	428.85172
232.163	337.71856
232.704	401.86428
233.244	431.92455
233.784	434.92436
234.324	358.67824
234.864	399.78162
235.404	427.8792
235.944	408.84027
236.484	447.96547
237.023	400.8175
237.563	427.84557
238.102	416.84865
238.641	433.94804
239.18	382.77115
239.719	430.93413
240.258	457.87492
240.797	489.99009
241.335	441.93049
241.874	407.66104
242.412	418.86435
242.95	413.84579
243.488	421.82394
244.026	414.81695
244.564	419.73208
245.102	427.8163
245.64	472.97207
246.177	430.82223
246.715	421.87192
247.252	409.80879
247.789	448.70987
248.326	370.76647
248.863	427.79298
249.4	447.86323
249.936	422.73286
250.473	467.91873
251.009	430.83537
251.546	405.76036
252.082	442.81818
252.618	431.81157
253.154	431.88145
253.69	401.77142
254.226	433.87992
254.761	436.82846
255.297	356.66918
255.832	426.85761
256.367	456.90828
256.903	448.82557
257.438	465.92341
257.972	421.7943
258.507	393.7644
259.042	470.85092
259.576	428.76854
260.111	476.92475
260.645	458.83003
261.179	455.89132
261.713	388.73329
262.247	470.90917
262.781	448.77885
263.315	394.82422
263.849	433.91962
264.382	484.92998
264.915	448.87906
265.449	433.88393
265.982	508.95777
266.515	442.90988
267.048	369.6607
267.58	461.8425
268.113	482.85575
268.646	491.00868
269.178	427.79614
269.71	478.86364
270.243	506.95493
270.775	484.03026
271.307	477.96359
271.838	544.06674
272.37	480.98632
272.902	454.86224
273.433	462.83472
273.965	471.95758
274.496	469.98088
275.027	458.95215
275.558	520.03641
276.089	395.81625
276.62	480.02439
277.15	442.92012
277.681	488.87091
278.211	533.07641
278.741	430.78206
279.272	445.84041
279.802	520.07102
280.332	537.02595
280.861	481.95785
281.391	487.90173
281.921	541.0646
282.45	554.13247
282.98	525.13053
283.509	538.97457
284.038	481.8964
284.567	580.08979
285.096	575.11888
285.625	493.9092
286.153	497.94737
286.682	521.95989
287.21	505.98928
287.739	516.98766
288.267	580.11871
288.795	572.22583
289.323	478.90474
289.851	526.99317
290.378	483.87647
290.906	518.00561
291.433	602.19404
291.961	510.92195
292.488	560.11784
293.015	498.94076
293.542	523.06537
294.069	560.09352
294.596	584.15127
295.122	556.05128
295.649	592.01484
296.175	602.15066
296.702	584.12051
297.228	550.06684
297.754	561.98445
298.28	547.97196
298.806	611.13998
299.332	554.94796
299.857	601.04107
300.383	579.16306
300.908	543.02891
301.433	552.04931
301.958	605.08193
302.483	584.13346
303.008	564.0977
303.533	647.31423
304.058	612.11336
304.582	585.05848
305.107	600.21613
305.631	610.06426
306.155	629.10297
306.679	557.99796
307.203	621.08549
307.727	657.17091
308.251	659.23276
308.775	560.00876
309.298	641.14292
309.822	633.21558
310.345	672.1801
310.868	672.18813
311.391	714.30131
311.914	641.20317
312.437	702.16793
312.96	684.17423
313.482	613.07823
314.005	691.27809
314.527	688.3395
315.049	711.32367
315.571	703.09438
316.093	759.34336
316.615	721.23956
317.137	719.08748
317.659	812.38565
318.18	758.29674
318.702	729.18603
319.223	807.0903
319.744	813.22141
320.265	735.23677
320.786	748.27959
321.307	783.34285
321.828	869.28399
322.348	851.32257
322.869	823.27815
323.389	812.77568
323.909	790.20134
324.43	929.46282
324.95	834.22793
325.47	843.34987
325.989	857.28702
326.509	929.22571
327.029	917.25037
327.548	829.15114
328.067	885.32288
328.587	1013.54258
329.106	915.24682
329.625	977.63644
330.144	947.28733
330.662	895.23134
331.181	927.28304
331.7	966.31461
332.218	992.18231
332.736	1037.36288
333.255	1055.35055
333.773	1016.34537
334.291	1060.51135
334.808	1014.20439
335.326	1079.27446
335.844	1041.26521
336.361	1059.45101
336.879	1065.27342
337.396	1111.37146
337.913	1218.32964
338.43	1129.21914
338.947	1186.36715
339.464	1145.10214
339.981	1193.32683
340.497	1178.42286
341.014	1162.35512
341.53	1279.22636
342.046	1181.35472
342.562	1266.4618
343.078	1263.29273
343.594	1281.32978
344.11	1341.33613
344.626	1283.42962
345.141	1385.21599
345.657	1414.23134
346.172	1316.30575
346.687	1416.20571
347.202	1415.13408
347.717	1413.27922
348.232	1412.39155
348.747	1405.15378
349.261	1412.97857
349.776	1368.16911
350.29	1476.27519
350.805	1507.34374
351.319	1570.16521
351.833	1378.01163
352.347	1474.12895
352.861	1484.08812
353.374	1660.11019
353.888	1529.19034
354.401	1561.04078
354.915	1604.92352
355.428	1636.21162
355.941	1573.00622
356.454	1654.96303
356.967	1639.06353
357.48	1681.98307
357.993	1711.1537
358.505	1685.09154
359.018	1853.09126
359.53	1707.00833
360.042	1783.80705
360.554	1782.03066
361.066	1711.00834
361.578	1625.73148
362.09	1814.93316
362.602	1770.69777
363.113	1824.80681
363.625	1895.68965
364.136	1919.62818
364.647	1776.68223
365.158	1877.72651
365.669	1995.7748
366.18	1917.73022
366.691	1918.54056
367.201	1824.74097
367.712	1954.54189
368.222	1940.53952
368.733	2005.33296
369.243	1970.36091
369.753	2073.4448
370.263	1993.52807
370.773	2259.50214
371.282	2161.36223
371.792	2195.11381
372.301	2291.22094
372.811	2284.43971
373.32	2322.76784
373.829	2490.86007
374.338	2545.64199
374.847	2583.61519
375.356	2629.58713
375.865	2751.1823
376.373	2889.16388
376.882	3121.27537
377.39	3051.13032
377.898	3112.96807
378.407	3235.73329
378.915	3409.61331
379.423	3559.58915
379.93	3593.54163
380.438	3737.5238
380.946	3882.56811
381.453	4121.70048
381.96	4534.2015
382.468	4673.88914
382.975	4848.14159
383.482	4823.71663
383.989	4963.63007
384.495	5267.46019
385.002	5704.85739
385.509	5993.03809
386.015	6343.0683
386.521	6644.76072
387.028	7023.25521
387.534	6965.97303
388.04	7206.04697
388.546	7466.89
389.051	8244.60677
389.557	8638.3953
390.063	9081.56853
390.568	9053.39137
391.073	9591.42698
391.578	9774.70871
392.084	10230.96051
392.589	10761.04452
393.093	11884.71372
393.598	12886.96911
394.103	13861.10662
394.607	15367.97168
395.112	16056.54415
395.616	16629.64404
396.12	18281.18149
396.624	19916.46847
397.128	21170.62593
397.632	23404.75344
398.136	25106.28144
398.639	27658.04729
399.143	30765.24493
399.646	28278.31599
400.15	25083.82847
400.653	20124.16724
401.156	13866.23708
401.659	5169.95759
402.162	1054.15589
402.664	0
403.167	0
403.67	0
404.172	0
404.674	0
405.176	0
405.678	0
406.18	0
406.682	0
407.184	0
407.686	0
408.187	0
408.688	0
409.19	0
409.691	0
410.192	0
410.693	0
411.194	435.30976
411.694	4082.94878
412.195	8864.71461
412.696	12089.80453
413.196	12760.96929
413.696	12863.67595
414.196	13703.56671
414.696	17261.84252
415.196	21764.24417
415.696	29583.19008
416.196	33618.03089
416.695	28934.61244
417.195	27623.08848
417.694	26046.91019
418.194	24295.79415
418.693	22837.55339
419.192	22497.61942
419.691	21903.18769
420.19	21485.37844
420.688	21026.68053
421.187	19405.50842
421.685	17755.31699
422.184	15623.65665
422.682	13550.15288
423.18	11869.37745
423.678	10780.59831
424.176	9992.90708
424.674	9630.37785
425.172	8906.73228
425.669	8065.33645
426.167	7418.78547
426.664	6853.85003
427.161	6333.10334
427.659	5993.73716
428.156	5636.67198
428.652	5313.10421
429.149	5064.32242
429.646	4922.92898
430.143	4672.65721
430.639	4260.0465
431.135	4098.69543
431.632	3911.62749
432.128	3623.53157
432.624	3516.57012
433.12	3310.57338
433.616	3362.56734
434.111	3209.64935
434.607	3109.76027
435.103	3017.76876
435.598	2741.92784
436.093	2652.25286
436.588	2575.33095
437.083	2468.49314
437.578	2419.6387
438.073	2021.00193
438.568	2206.06917
439.062	2103.83283
439.557	1962.2128
440.051	1838.17679
440.546	1808.21839
441.04	1860.36627
441.534	1822.58136
442.028	1748.51783
442.522	1735.52293
443.015	1757.34238
443.509	1679.66129
444.002	1664.66898
444.496	1492.47006
444.989	1592.727
445.482	1612.7737
445.975	1531.5463
446.468	1541.47479
446.961	1472.49651
447.454	1459.63492
447.947	1348.71133
448.439	1402.82966
448.931	1383.64243
449.424	1450.96044
449.916	1351.85856
450.408	1252.68019
450.9	1195.82361
451.392	1213.9323
451.884	1256.78768
452.375	1155.89026
452.867	1228.79751
453.358	1073.72569
453.849	1163.66128
454.341	1107.75786
454.832	1139.695
455.323	1091.90698
455.814	1120.84007
456.304	1057.83159
456.795	1037.81969
457.285	1071.82664
457.776	1161.92269
458.266	949.86441
458.756	1010.94865
459.247	876.83813
459.737	906.86487
460.226	867.76896
460.716	831.85073
461.206	830.87533
461.695	883.00297
462.185	848.88296
462.674	850.86353
463.163	837.8057
463.653	833.73576
464.142	740.85657
464.63	824.97219
465.119	737.8128
465.608	749.82674
466.096	718.75529
466.585	734.85468
467.073	719.8976
467.561	764.95033
468.05	716.86785
468.538	683.91825
469.026	664.86761
469.513	659.71285
470.001	632.77508
470.489	617.81287
470.976	624.80638
471.463	578.85525
471.951	596.89431
472.438	506.70944
472.925	416.59657
473.412	524.80323
473.899	521.73027
474.385	503.78084
474.872	433.63716
475.359	417.66129
475.845	448.56947
476.331	489.66961
476.817	401.65569
477.303	400.6152
477.789	428.6891
478.275	367.62364
478.761	416.68156
479.247	392.59506
479.732	325.56721
480.218	366.6768
480.703	325.5762
481.188	319.47393
481.673	385.61122
482.158	265.39224
482.643	347.64632
483.128	244.40327
483.612	286.48741
484.097	295.5369
484.581	335.56863
485.066	287.51703
485.55	249.40094
486.034	277.43769
486.518	231.40654
487.002	187.35019
487.486	232.432
487.969	196.36895
488.453	237.46492
488.936	200.34617
489.42	261.43892
489.903	192.38386
490.386	276.32793
490.869	188.3209
491.352	238.4617
491.835	175.28401
492.318	180.31985
492.8	187.30263
493.283	156.31984
493.765	114.22834
494.247	198.37272
494.73	180.31736
495.212	161.31882
495.694	107.20375
496.175	36.0705
496.657	104.20416
497.139	140.19654
497.62	59.11563
498.102	71.14692
498.583	111.23216
499.064	95.17403
499.545	98.18556
500.026	56.1049
500.507	100.19343
500.988	107.223
501.469	34.07223
501.949	72.15116
502.43	25.05025
502.91	31.0539
503.39	89.18953
503.87	19.03803
504.35	65.13101
504.83	26.04841
505.31	68.13973
505.79	-25.05171
506.269	24.04834
506.749	9.01762
507.228	-7.01417
507.707	41.0775
508.187	48.09895
508.666	-12.02555
509.145	-33.06709
509.623	27.05462
510.102	5.01054
510.581	46.09636
511.059	9.01956
511.538	14.03172
512.016	-12.02512
512.494	30.06343
512.972	9.01873
513.45	-53.10726
513.928	-60.12858
514.406	-59.12444
514.884	-32.0726
515.361	-18.03787
515.839	-14.02792
516.316	-33.07006
516.793	14.03121
517.27	56.1185
517.747	-5.01129
518.224	-11.02248
518.701	1.00196
519.178	-23.05019
519.654	15.03151
520.131	-57.12587
520.607	11.02415
521.083	-54.10996
521.56	-30.06296
522.036	-40.07834
522.512	16.035
522.987	-19.03979
523.463	-18.03797
523.939	-18.03939
524.414	29.05915
524.89	0
525.365	-69.14048
525.84	-96.20484
526.315	-36.07741
526.79	-82.16713
527.265	-35.07139
527.74	-17.03693
528.215	-29.06114
528.689	-82.16401
529.164	-36.0702
529.638	-19.04385
530.112	-69.14643
530.587	-83.15959
531.061	-81.17639
531.534	19.04104
532.008	-57.12339
532.482	-15.03089
532.956	-62.14237
533.429	-26.05663
533.903	-21.04178
534.376	-25.0496
534.849	-12.02495
535.322	-47.10026
535.795	-5.01096
536.268	-23.04966
536.741	-31.06725
537.213	0
537.686	-41.08993
538.158	-63.12733
538.631	37.08034
539.103	-42.08467
539.575	34.06306
540.047	23.04505
540.519	21.04495
540.991	44.09612
541.463	-11.02399
541.934	13.02659
542.406	-1.00213
542.877	25.05027
543.348	55.11814
543.82	18.03962
544.291	110.22574
544.762	76.15843
545.233	55.12201
545.703	34.06652
546.174	113.22932
546.645	87.18084
547.115	88.18557
547.585	111.22228
548.056	86.17991
548.526	122.24674
548.996	153.31674
549.466	232.48104
549.935	212.42089
550.405	198.36355
550.875	223.44242
551.344	243.48819
551.814	251.48005
552.283	314.55858
552.752	306.57972
553.221	327.5698
553.69	362.64365
554.159	383.75311
554.628	382.67534
555.096	384.78409
555.565	394.69838
556.033	448.84214
556.502	387.76313
556.97	423.75233
557.438	466.88763
557.906	542.02025
558.374	478.88219
558.842	515.98646
559.31	572.00622
559.777	576.09875
560.245	686.24765
560.712	754.32515
561.18	727.21064
561.647	810.34224
562.114	791.34574
562.581	836.55416
563.048	959.59744
563.514	989.75248
563.981	983.61338
564.448	1099.70003
564.914	1193.89263
565.381	1191.8389
565.847	1288.00667
566.313	1265.96872
566.779	1377.98654
567.245	1426.13021
567.711	1492.25517
568.176	1503.06187
568.642	1558.45504
569.108	1621.443
569.573	1703.37523
570.038	1743.02299
570.504	1873.26786
570.969	1919.73121
571.434	1918.20568
571.899	1968.53935
572.363	2014.39171
572.828	2118.46065
573.293	2080.44293
573.757	2196.48127
574.222	2229.35259
574.686	2267.37247
575.15	2202.61062
575.614	2283.48446
576.078	2295.58029
576.542	2351.47523
577.006	2301.41767
577.469	2377.8786
577.933	2257.367
578.396	2238.64185
578.86	2258.60758
579.323	2199.62272
579.786	2252.2461
580.249	2168.42826
580.712	2146.73728
581.175	2063.73045
581.637	2141.5038
582.1	1991.27327
582.563	1974.19582
583.025	1929.59394
583.487	1860.93577
583.95	1795.09576
584.412	1773.04071
584.874	1795.52792
585.336	1701.38138
585.797	1638.05355
586.259	1657.35388
586.721	1498.19886
587.182	1517.2318
587.643	1547.15311
588.105	1401.15084
588.566	1399.84305
589.027	1280.06689
589.488	1311.97013
589.949	1300.12057
590.41	1170.48234
590.87	1254.92834
591.331	1243.78381
591.791	1032.69741
592.252	1049.69259
592.712	1091.86493
593.172	1050.67087
593.632	1039.6152
594.092	982.57736
594.552	973.5007
595.011	976.61652
595.471	994.59762
595.931	943.52862
596.39	887.58515
596.849	875.52111
597.308	867.39632
597.768	846.63983
598.227	874.58555
598.685	832.4496
599.144	842.48483
599.603	828.48975
600.062	796.24798
600.52	838.39414
600.978	758.38865
601.437	780.36737
601.895	819.2942
602.353	801.34668
602.811	792.33114
603.269	782.43775
603.727	862.55264
604.184	820.38508
604.642	857.58657
605.099	822.44194
605.557	887.62346
606.014	879.38378
606.471	939.72919
606.928	905.39701
607.385	1012.76415
607.842	970.60124
608.299	938.60389
608.755	991.73334
609.212	930.49605
609.668	936.48789
610.125	1052.82447
610.581	1029.78023
611.037	973.63149
611.493	985.71289
611.949	918.64616
612.405	947.35397
612.861	1014.75002
613.316	939.66624
613.772	950.61058
614.227	979.69795
614.683	1064.61826
615.138	921.60805
615.593	970.66144
616.048	947.6137
616.503	985.81137
616.958	959.80667
617.412	999.74463
617.867	937.52823
618.321	958.45195
618.776	964.57989
619.23	928.64455
619.684	986.65471
620.138	929.64078
620.592	888.66328
621.046	893.61394
621.5	872.6445
621.954	888.53848
622.407	889.51946
622.861	870.64874
623.314	875.54438
623.768	798.47163
624.221	710.11208
624.674	761.40292
625.127	752.41644
625.58	751.38445
626.033	819.43403
626.485	708.38438
626.938	723.40742
627.39	684.31149
627.843	679.29844
628.295	635.22764
628.747	654.29857
629.199	627.19536
629.651	599.14907
630.103	584.13616
630.555	556.0041
631.006	592.18457
631.458	572.15717
631.909	608.19417
632.361	521.0584
632.812	491.9946
633.263	475.90191
633.714	464.87952
634.165	495.05943
634.616	482.01398
635.067	493.96851
635.518	481.0192
635.968	480.85308
636.419	373.73898
636.869	391.84635
637.319	380.79986
637.769	368.75108
638.219	449.96813
638.669	358.78336
639.119	381.85179
639.569	366.81067
640.019	360.7671
640.468	352.72527
640.918	361.80309
641.367	321.66988
641.816	353.72979
642.265	310.66946
642.714	301.65184
643.163	323.6923
643.612	238.54013
644.061	276.54898
644.51	286.61208
644.958	274.56761
645.406	267.60287
645.855	285.65845
646.303	316.69293
646.751	250.53943
647.199	265.57094
647.647	300.6487
648.095	251.54658
648.543	268.52238
648.99	216.49379
649.438	266.5946
649.885	243.57368
650.333	287.52685
650.78	242.55745
651.227	281.64714
651.674	205.44983
652.121	248.57582
652.568	186.43614
653.015	249.60195
653.461	191.43866
653.908	245.54642
654.354	199.45941
654.801	165.37607
655.247	232.4905
655.693	229.57314
656.139	219.50578
656.585	223.51522
657.031	130.29684
657.477	154.32559
657.922	192.42866
658.368	201.4806
658.813	256.57248
659.259	194.45152
659.704	143.32685
660.149	186.42179
660.594	160.37166
661.039	135.30297
661.484	243.56031
661.929	175.40031
662.373	141.3487
662.818	173.41902
663.262	137.32445
663.707	146.36311
664.151	182.43443
664.595	158.37382
665.039	167.40738
665.483	165.41133
665.927	163.37765
666.371	97.22305
666.814	206.48001
667.258	123.28769
667.701	188.39957
668.145	190.46288
668.588	159.3841
669.031	147.34072
669.474	138.32878
669.917	190.41402
670.36	166.40487
670.803	182.43177
671.245	111.23463
671.688	179.42947
672.13	93.20888
672.573	172.42995
673.015	136.32401
673.457	124.26975
673.899	166.397
674.341	109.26243
674.783	87.20882
675.225	100.24545
675.666	98.23509
676.108	102.22283
676.549	136.32065
676.991	114.252
677.432	99.19917
677.873	151.34708
678.314	106.25322
678.755	147.35458
679.196	144.32801
679.637	156.37792
680.078	140.32662
680.518	165.38183
680.959	90.21648
681.399	119.29408
681.839	96.23423
682.28	68.16876
682.72	86.19827
683.16	88.21958
683.6	120.27456
684.039	112.23534
684.479	79.1948
684.919	64.14896
685.358	134.33823
685.798	113.29491
686.237	110.26659
686.676	164.37854
687.115	99.23383
687.554	73.17495
687.993	92.20566
688.432	109.25024
688.871	46.10614
689.309	112.26786
689.748	112.23659
690.186	135.32206
690.625	61.14475
691.063	105.25251
691.501	93.23084
691.939	93.23252
692.377	93.2278
692.815	101.24234
693.253	125.30072
693.69	41.09205
694.128	39.09581
694.565	78.18776
695.003	94.23913
695.44	68.16164
695.877	57.13489
696.314	89.19414
696.751	112.25718
697.188	69.1605
697.625	98.22719
698.061	57.13843
698.498	100.24326
698.934	101.24436
699.371	36.0862
699.807	72.1722
700.243	54.13161
700.679	82.18799
701.115	97.23026
701.551	51.12204
701.987	124.28017
702.422	89.21281
702.858	76.1828
703.294	109.24864
703.729	108.26498
704.164	71.17262
704.599	32.07292
705.035	58.1319
705.47	81.19833
705.904	56.13234
706.339	146.33941
706.774	75.17755
707.209	80.18635
707.643	68.16511
708.078	78.19145
708.512	52.13135
708.946	96.23161
709.38	73.17489
709.814	55.12789
710.248	114.27836
710.682	49.11824
711.116	54.13033
711.549	74.1921
711.983	54.12673
712.416	85.20286
712.85	75.1884
713.283	89.21224
713.716	105.26451
714.149	102.2446
714.582	74.16842
715.015	123.30786
715.448	83.21044
715.881	105.23205
716.313	71.16828
716.746	48.11471
717.178	37.0904
717.61	67.17132
718.043	92.2304
718.475	89.21711
718.907	147.37031
719.339	51.11746
719.77	88.2099
720.202	75.1909
720.634	66.16206
721.065	79.18897
721.497	119.2917
721.928	67.16594
722.359	64.15575
722.79	96.23082
723.221	107.26975
723.652	127.3269
724.083	98.2226
724.514	126.28991
724.945	97.22928
725.375	76.17794
725.806	100.25052
726.236	109.2794
726.666	111.26359
727.096	91.22447
727.526	102.2593
727.956	20.04646
728.386	123.30262
728.816	46.11764
729.246	83.20285
729.675	62.15398
730.105	128.31452
730.534	58.13755
730.964	124.31299
731.393	117.29094
731.822	141.35812
732.251	122.30893
732.68	116.27414
733.109	65.16163
733.537	101.24464
733.966	77.19245
734.395	87.20253
734.823	105.23845
735.251	70.17016
735.68	126.31508
736.108	112.28331
736.536	93.22076
736.964	5.01188
737.392	113.28273
737.82	116.2787
738.247	100.24053
738.675	113.27071
739.102	122.30398
739.53	97.24724
739.957	103.26494
740.384	120.29606
740.811	103.26143
741.238	91.22307
741.665	51.1199
742.092	94.22576
742.519	55.13741
742.945	58.14083
743.372	77.19182
743.798	60.15544
744.225	47.11329
744.651	86.21669
745.077	89.22276
745.503	103.25192
745.929	60.14552
746.355	161.39728
746.781	91.22637
747.207	66.15628
747.632	38.09382
748.058	81.20318
748.483	65.15144
748.908	68.17023
749.334	93.22924
749.759	91.21568
750.184	53.1277
750.609	113.27771
751.033	122.28854
751.458	122.27419
751.883	111.27511
752.307	49.11685
752.732	66.16588
753.156	105.25948
753.58	104.24778
754.005	88.22411
754.429	62.14726
754.853	92.22848
755.277	75.17893
755.7	97.24112
756.124	52.13027
756.548	68.16257
756.971	89.21825
757.394	86.2221
757.818	63.16312
758.241	125.3158
758.664	85.21528
759.087	66.14888
759.51	144.35592
759.933	52.12645
760.356	92.23619
760.778	87.21468
761.201	95.23184
761.623	93.22653
762.046	129.30551
762.468	108.25987
762.89	108.26665
763.312	95.23261
763.734	116.27891
764.156	123.30273
764.578	77.17869
765	95.23235
765.421	50.12796
765.843	83.21802
766.264	118.28479
766.686	88.22165
767.107	53.12973
767.528	45.11458
767.949	97.24672
768.37	69.17046
768.791	105.25423
769.212	28.07116
769.632	51.12013
770.053	89.23441
770.473	96.23388
770.894	158.39167
771.314	118.28156
771.734	56.13188
772.154	77.19834
772.575	87.20269
772.994	15.03473
773.414	110.26408
773.834	65.16346
774.254	47.11619
774.673	50.123
775.093	69.17158
775.512	70.17327
775.931	47.12014
776.351	74.18445
776.77	33.08161
777.189	38.09151
777.607	48.12349
778.026	78.19484
778.445	34.08591
778.864	120.30624
779.282	62.1502
779.701	30.07645
780.119	44.11205
780.537	51.12816
780.955	110.27894
781.373	24.0601
781.791	16.03658
782.209	57.13259
782.627	74.1952
783.045	22.05139
783.462	33.08509
783.88	36.09387
784.297	41.10399
784.715	22.05707
785.132	51.12441
785.549	12.03042
785.966	41.10395
786.383	44.10912
786.8	61.14268
787.217	18.04328
787.633	18.04545
788.05	63.15064
788.466	67.15892
788.883	2.00517
789.299	26.06337
789.715	54.1321
790.131	45.11272
790.547	36.09071
790.963	25.06273
791.379	81.20479
791.795	20.04633
792.21	35.08273
792.626	35.08391
793.041	57.14138
793.457	39.09719
793.872	33.07843
794.287	-35.08541
794.702	12.02997
795.117	16.04021
795.532	-18.04589
795.947	45.1092
796.362	42.10122
796.776	51.12046
797.191	38.09379
797.605	-32.0768
798.02	29.07127
798.434	70.15661
798.848	7.01747
799.262	-8.02016
799.676	44.10816
800.09	40.09916
800.504	-51.12687
800.918	-16.03781
801.331	39.10289
801.745	28.06507
802.158	19.048
802.572	30.0735
802.985	66.16007
803.398	37.08901
803.811	57.14708
804.224	31.07784
804.637	-2.00484
805.05	12.02822
805.462	66.1626
805.875	-18.04737
806.288	13.03174
806.7	8.02035
807.112	11.02587
807.525	5.01251
807.937	6.01502
808.349	37.09334
808.761	25.0621
809.173	34.08308
809.584	39.09709
809.996	43.10591
810.408	97.24916
810.819	99.23192
811.231	110.28221
811.642	67.15996
812.053	3.00723
812.464	37.08864
812.875	-8.02073
813.286	15.03899
813.697	114.26491
814.108	48.1179
814.519	9.02036
814.929	39.10007
815.34	16.03924
815.75	11.02825
816.16	26.06537
816.571	51.13292
816.981	31.07387
817.391	-2.0049
817.801	1.00252
818.211	52.12455
818.62	4.00976
819.03	10.0248
819.44	56.14662
819.849	16.04072
820.259	33.08503
820.668	-9.02246
821.077	-1.00252
821.486	31.07529
821.895	25.06233
822.304	18.04809
822.713	36.08574
823.122	50.12526
823.531	26.06221
823.939	20.0492
824.348	16.03932
824.756	66.16546
825.164	11.02798
825.573	12.03042
825.981	36.08986
826.389	60.15102
826.797	-5.01269
827.205	-6.01399
827.612	37.09187
828.02	-29.06942
828.428	45.11507
828.835	2.00532
829.243	20.04814
829.65	8.02011
830.057	59.1435
830.464	5.01233
830.871	47.11307
831.278	7.01712
831.685	-15.03409
832.092	37.09114
832.499	13.0288
832.905	47.11942
833.312	19.04381
833.718	36.09022
834.124	-10.02323
834.531	17.04324
834.937	6.01556
835.343	30.07293
835.749	30.07065
836.155	14.03697
836.561	-10.02494
836.966	16.0395
837.372	35.08956
837.777	-8.02019
838.183	30.06729
838.588	24.06004
838.993	32.07843
839.399	-26.06464
839.804	-54.1345
840.209	-9.0232
840.613	19.04271
841.018	18.04595
841.423	3.00778
841.828	-18.04618
842.232	77.19036
842.637	-2.00478
843.041	18.04649
843.445	-19.04836
843.849	-20.05027
844.253	24.05751
844.657	-23.05879
845.061	22.05038
845.465	15.03657
845.869	11.02584
846.272	-1.00246
846.676	40.0972
847.079	18.04612
847.483	19.04778
847.886	50.122
848.289	12.03227
848.692	27.0688
849.095	-9.02191
849.498	56.14211
849.901	22.0509
850.304	-15.03639
850.707	22.05648
851.109	27.06875
851.512	27.06677
851.914	1.00255
852.316	22.05603
852.718	-42.1103
853.121	33.08128
853.523	-6.01421
853.925	-10.02639
854.326	-26.066
854.728	-6.0156
855.13	-10.02609
855.531	-12.02907
855.933	24.05803
856.334	18.04521
856.736	13.02941
857.137	-15.0354
857.538	-7.0178
857.939	-12.03003
858.34	12.02951
858.741	60.15678
859.142	20.04842
859.542	19.05045
859.943	7.01756
860.343	-15.03764
860.744	2.00493
861.144	35.08576
861.544	-56.1375
861.945	0
862.345	39.09574
862.745	-1.00251
863.145	15.03617
863.544	-2.00511
863.944	3.00717
864.344	24.06
864.743	56.13903
865.143	8.02073
865.542	-9.02116
865.941	0
866.34	46.11048
866.74	9.02434
867.139	-47.11478
867.537	33.08444
867.936	29.07019
868.335	33.08432
868.734	19.04887
869.132	6.01409
869.531	44.10672
869.929	-34.07895
870.327	-11.02671
870.726	42.10503
871.124	-12.02844
871.522	32.08187
871.92	7.01743
872.318	33.08104
872.715	18.04488
873.113	-32.07927
873.511	-17.04292
873.908	-39.10011
874.306	-9.02265
874.703	37.09291
875.1	35.08987
875.497	0
875.894	-16.03972
876.291	11.02722
876.688	8.0208
877.085	33.07954
877.482	13.0328
877.878	10.02428
878.275	-19.04891
878.671	39.0872
879.068	44.10648
879.464	40.09698
879.86	-4.00957
880.256	19.04721
880.652	18.04608
881.048	17.04243
881.444	5.01202
881.84	-10.02571
882.236	18.04557
882.631	36.08869
883.027	24.05847
883.422	14.03606
883.817	-51.13059
884.213	-2.00518
884.608	-13.03228
885.003	7.01703
885.398	-11.02786
885.793	15.03792
886.188	-9.02263
886.582	56.14362
886.977	12.02872
887.371	24.06103
887.766	-40.10118
888.16	4.01008
888.554	25.06217
888.949	51.12816
889.343	27.06631
889.737	-32.08648
890.131	20.05048
890.525	8.02062
890.918	5.0127
891.312	44.10551
891.706	-4.0106
892.099	44.11217
892.492	-55.1215
892.886	40.09814
893.279	14.03592
893.672	3.00771
894.065	14.03531
894.458	47.11836
894.851	55.13477
895.244	15.03857
895.637	-3.0073
896.029	-12.0297
896.422	-3.00741
896.814	-42.10624
897.206	-34.08234
897.599	50.12377
897.991	2.00488
898.383	-9.02153
898.775	-51.1176
899.167	-25.05921
899.559	34.08637
899.951	28.06635
900.342	41.10451
900.734	-64.16218
901.125	46.12085
901.517	-4.00992
901.908	35.08423
902.299	28.06878
902.69	-5.01193
903.082	17.04146
903.473	-39.09503
903.863	-10.0258
904.254	-16.03765
904.645	52.12938
905.036	5.01222
905.426	26.05987
905.817	-1.00248
906.207	-9.0217
906.597	-19.04507
906.987	34.08842
907.378	28.07113
907.768	-15.04011
908.158	-34.08425
908.547	-5.01304
908.937	24.0619
909.327	13.03181
909.717	53.13457
910.106	-19.04626
910.495	30.07521
910.885	45.11414
911.274	-25.06336
911.663	53.13452
912.052	7.01742
912.441	19.0486
912.83	20.04622
913.219	65.16975
913.608	20.04929
913.997	-22.05589
914.385	0
914.774	-13.03204
915.162	-3.00723
915.55	33.08014
915.939	-30.07683
916.327	25.06271
916.715	25.06402
917.103	52.12801
917.491	53.13112
917.878	23.05686
918.266	13.03394
918.654	13.03344
919.041	-17.0449
919.429	-16.03827
919.816	30.07635
920.203	0
920.591	-2.00501
920.978	27.06643
921.365	63.16498
921.752	-10.02413
922.139	-18.03967
922.525	8.01937
922.912	-12.02962
923.299	-20.05036
923.685	19.04984
924.072	83.19025
924.458	-2.005
924.844	57.14091
925.231	-19.04484
925.617	-22.05668
926.003	12.03088
926.389	-20.0511
926.774	8.02043
927.16	13.03252
927.546	-16.04132
927.931	30.07516
928.317	-17.0397
928.702	36.08544
929.088	-34.08175
929.473	27.06899
929.858	-14.03426
930.243	-17.04133
930.628	-3.00737
931.013	-13.0326
931.398	20.04629
931.783	49.12906
932.167	-5.01235
932.552	5.01263
932.937	31.07723
933.321	28.07055
933.705	21.05323
934.09	46.11636
934.474	22.05256
934.858	34.08845
935.242	-14.03287
935.626	-15.03884
936.009	-7.0188
936.393	17.04352
936.777	5.01291
937.16	25.06534
937.544	9.02138
937.927	-22.05654
938.311	43.10513
938.694	30.07961
939.077	29.06971
939.46	15.03708
939.843	36.07538
940.226	16.04129
940.609	11.02546
940.991	-5.01285
941.374	-8.01977
941.757	27.06692
942.139	-14.03186
942.522	31.07356
942.904	31.07481
943.286	23.05873
943.668	42.10896
944.05	9.02234
944.432	-42.10541
944.814	30.07418
945.196	-33.08167
945.578	-19.04576
945.959	11.02598
946.341	49.12034
946.722	15.03546
947.104	4.00965
947.485	8.01877
947.866	-14.03568
948.247	-3.00764
948.628	20.04907
949.009	-6.01552
949.39	20.05007
949.771	17.03981
950.152	6.01485
950.532	-53.13285
950.913	11.02673
951.293	29.07861
951.674	-25.06133
952.054	-20.0502
952.434	-3.00752
952.814	23.05502
953.194	19.04999
953.574	48.11829
953.954	18.04302
954.334	6.01507
954.714	-27.06675
955.093	27.06668
955.473	-3.00757
955.853	18.04686
956.232	36.09889
956.611	30.07224
956.99	-9.02286
957.37	33.08435
957.749	31.07424
958.128	22.05571
958.506	20.05215
958.885	-7.01785
959.264	-34.08462
959.643	-10.02304
960.021	7.01748
960.4	-33.07607
960.778	18.04461
961.156	-18.04568
961.535	6.01411
961.913	-6.0142
962.291	-40.10423
962.669	11.02806
963.047	17.04364
963.424	19.04875
963.802	-14.03483
964.18	61.15406
964.557	-13.03032
964.935	8.01911
965.312	-29.07654
965.69	41.10284
966.067	26.0636
966.444	50.12322
966.821	-2.0052
967.198	43.10447
967.575	71.17391
967.952	-10.02384
968.329	13.03186
968.705	3.0065
969.082	5.01292
969.458	-47.11483
969.835	12.02942
970.211	3.00776
970.587	-31.07832
970.963	45.11555
971.339	-8.0211
971.715	-3.00756
972.091	0
972.467	25.06264
972.843	-39.09836
973.219	36.08669
973.594	-26.06888
973.97	34.08119
974.345	-22.05338
974.721	32.07776
975.096	-19.04658
975.471	28.06671
975.846	-5.01214
976.221	8.02047
976.596	10.02415
976.971	38.09403
977.346	0
977.72	5.01284
978.095	-1.00261
978.469	0
978.844	65.16299
979.218	-52.12707
979.593	15.03618
979.967	37.09036
980.341	-7.0163
980.715	7.01777
981.089	-10.02531
981.463	-32.07469
981.837	-40.09938
982.21	24.05615
982.584	-23.05632
982.957	-10.02524
983.331	9.02145
983.704	-5.01241
984.078	30.07421
984.451	35.08767
984.824	-12.02956
985.197	-18.04428
985.57	26.06549
985.943	41.10143
986.316	50.12286
986.688	16.03884
987.061	22.05185
987.434	9.02362
987.806	22.05364
988.179	-10.02387
988.551	39.09913
988.923	-6.01493
989.295	35.0877
989.667	-26.06301
990.039	7.01743
990.411	11.02552
990.783	-31.07254
991.155	-11.02673
991.527	63.15478
991.898	-29.07329
992.27	29.07201
992.641	19.04793
993.012	14.03318
993.384	-20.04834
993.755	-16.04126
994.126	-21.05119
994.497	-34.08475
994.868	-11.02558
995.239	22.0536
995.61	-23.05863
995.98	-20.04922
996.351	-20.05016
996.722	-39.09204
997.092	-33.07939
997.462	-78.18676
997.833	44.10443
998.203	39.09475
998.573	17.04258
998.943	-25.05948
999.313	3.00725
999.683	-45.10994
1000.053	7.01624
1000.423	14.03425
1000.792	35.09094
1001.162	16.03962
1001.531	-14.03492
1001.901	6.01507
1002.27	25.05617
1002.639	17.04368
1003.009	-51.12362
1003.378	-13.0336
1003.747	-14.03348
1004.116	-47.11453
1004.485	21.05046
1004.853	29.07374
1005.222	37.09351
1005.591	7.01676
1005.959	-29.06639
1006.328	-19.04336
1006.696	-36.08823
1007.064	11.02786
1007.433	28.07025
1007.801	23.05674
1008.169	9.02289
1008.537	13.02901
1008.905	-32.07574
1009.273	-5.01247
1009.64	-8.01929
1010.008	28.06702
1010.375	85.20503
1010.743	66.15192
1011.11	-29.06966
1011.478	8.01995
1011.845	43.10125
1012.212	-41.09451
1012.579	17.04198
1012.946	37.08827
1013.313	8.01919
1013.68	8.01813
1014.047	-32.07744
1014.414	-1.00238
1014.78	3.00752
1015.147	36.08728
1015.513	-15.03658
1015.88	48.12276
1016.246	32.07924
1016.612	57.13028
1016.978	19.04682
1017.344	-7.01748
1017.71	70.17003
1018.076	-5.01191
1018.442	-10.02599
1018.808	-8.0202
1019.174	39.098
1019.539	66.15143
1019.905	7.01664
1020.27	-2.00498
1020.636	5.01209
1021.001	40.09592
1021.366	-6.01456
1021.731	31.07996
1022.096	-25.06388
1022.461	9.02146
1022.826	14.0335
1023.191	25.06585
1023.556	-4.00947
1023.92	13.03217
1024.285	33.08077
1024.649	-23.05711
1025.014	16.03987
1025.378	1.00254
1025.742	-9.02258
1026.107	-27.06201
1026.471	18.04228
1026.835	8.01998
1027.199	-30.07328
1027.562	-24.05659
1027.926	13.032
1028.29	14.03564
1028.654	3.00696
1029.017	12.02969
1029.381	-11.02657
1029.744	-2.00515
1030.107	55.12995
1030.471	-14.03392
1030.834	-5.0115
1031.197	77.18447
1031.56	-36.08633
1031.923	10.02602
1032.286	8.01894
1032.648	19.04569
1033.011	-23.05354
1033.374	20.04727
1033.736	3.00795
1034.099	37.09036
1034.461	-26.06654
1034.823	-21.05294
1035.185	27.06821
1035.548	11.02695
1035.91	6.01449
1036.272	-14.03226
1036.634	25.06142
1036.995	-11.02615
1037.357	-2.00491
1037.719	-11.02704
1038.08	3.00718
1038.442	-29.06985
1038.803	22.05308
1039.165	26.06586
1039.526	-5.0122
1039.887	34.08156
1040.248	-42.10518
1040.609	35.08669
1040.97	8.01969
1041.331	13.03311
1041.692	-48.11414
1042.053	13.02981
1042.413	23.05386
1042.774	24.05862
1043.134	-3.00721
1043.495	39.09818
1043.855	4.00978
1044.215	18.04492
1044.576	14.03369
1044.936	42.0964
1045.296	20.05016
1045.656	2.00495
1046.016	41.09909
1046.375	15.03661
1046.735	38.08631
1047.095	-1.00236
1047.454	6.01283
1047.814	12.02904
1048.173	59.14065
1048.533	-11.0255
1048.892	-30.07306
1049.251	20.05045
1049.61	12.02974
1049.969	33.078
1050.328	-6.01316
1050.687	-32.07901
1051.046	-12.02954
1051.405	-7.01758
1051.763	-31.07239
1052.122	-27.06824
1052.48	10.02469
1052.839	17.04023
1053.197	4.00949
1053.555	53.1207
1053.914	-1.00247
1054.272	4.00975
1054.63	-14.03462
1054.988	-33.0796
1055.345	5.01087
1055.703	26.06282
1056.061	28.07226
1056.419	13.03385
1056.776	34.08265
1057.134	-19.04456
1057.491	-5.01264
1057.848	13.03256
1058.206	-61.14647
1058.563	-39.08752
1058.92	8.01858
1059.277	22.05452
1059.634	43.10125
1059.991	44.10547
1060.348	-29.06655
1060.704	-67.16314
1061.061	44.10229
1061.418	-34.0837
1061.774	-2.00498
1062.131	-18.0481
1062.487	-18.04262
1062.843	-6.0151
1063.199	39.09712
1063.555	-18.04224
1063.911	-15.0383
1064.267	2.00421
1064.623	-16.03932
1064.979	63.1488
1065.335	7.01686
1065.691	-18.04367
1066.046	12.02658
1066.402	-7.01608
1066.757	2.00509
1067.112	17.04195
1067.468	-10.02387
1067.823	-3.00728
1068.178	-9.022
1068.533	-12.02941
1068.888	-6.01448
1069.243	-8.01994
1069.598	15.03666
1069.952	-50.11481
1070.307	-51.12848
1070.662	-11.0264
1071.016	-37.08433
1071.371	-26.06001
1071.725	47.11243
1072.079	-8.01944
1072.434	-35.08634
1072.788	-15.03614
1073.142	-9.02236
1073.496	-1.00239
1073.85	-16.03756
1074.203	2.00489
1074.557	0
1074.911	28.06707
1075.265	-19.04474
1075.618	36.08807
1075.971	-2.0048
1076.325	-1.00256
1076.678	-29.06732
1077.031	-40.09211
1077.385	-12.02676
1077.738	-7.01597
1078.091	-47.1089
1078.444	5.0117
1078.796	-19.04718
1079.149	23.05744
1079.502	-63.15197
1079.855	-3.00706
1080.207	11.02727
1080.56	26.06743
1080.912	30.07325
1081.264	-46.1127
1081.617	9.02209
1081.969	2.00508
1082.321	30.07347
1082.673	-24.05555
1083.025	-2.00479
1083.377	60.12841
1083.728	15.03521
1084.08	-23.05813
1084.432	-6.01461
1084.783	8.01888
1085.135	-9.02278
1085.486	-45.10484
1085.838	-11.02737
1086.189	-20.04914
1086.54	41.098
1086.891	-8.02042
1087.242	-21.05176
1087.593	21.05136
1087.944	2.00457
1088.295	33.07522
1088.646	10.0244
1088.996	-46.11274
1089.347	29.07138
1089.698	-59.14226
1090.048	-13.0341
1090.398	23.05359
1090.749	-12.02903
1091.099	-45.11499
1091.449	41.10221
1091.799	-10.02529
1092.149	-31.07667
1092.499	-16.03948
1092.849	23.05869
1093.199	52.13018
1093.548	-9.02185
1093.898	27.06778
1094.248	12.03101
1094.597	-43.11145
1094.947	-7.01883
1095.296	11.02733
1095.645	18.04703
1095.994	-2.00485
1096.343	-11.02796
1096.692	2.00529
1097.041	-27.07395
1097.39	19.04788
1097.739	-6.01573
1098.088	41.10991
1098.437	-35.09318
1098.785	23.06223
1099.134	6.01603
1099.482	44.12102
1099.83	7.01851
1100.179	2.00525
1100.527	16.04272
1100.875	6.01597
1101.223	18.04801
1101.571	16.04441
1101.919	-20.05283
1102.267	11.03113
1102.615	-8.02576
1102.962	8.02576
1103.31	-1.00322
1103.658	13.04186
