Data from N2 R5 sample 11_Subt2__5__11-59-16-369.txt Node

Date: Fri Aug 29 11:59:16 PDT 2025
User: uwsun
Spectrometer: HDX01956
Trigger mode: 0
Integration Time (sec): 5.000000E-1
Scans to average: 1
Nonlinearity correction enabled: true
Boxcar width: 0
Storing dark spectrum: false
XAxis mode: Wavelengths
Number of Pixels in Spectrum: 2068
>>>>>Begin Spectral Data<<<<<
194.03	318.84825
194.578	317.96235
195.127	308.92135
195.676	345.02728
196.225	339.84775
196.773	354.91499
197.321	530.29385
197.87	729.55769
198.418	751.5729
198.966	671.43983
199.513	641.30913
200.061	679.4019
200.609	705.54466
201.156	642.12376
201.704	699.42711
202.251	679.48015
202.798	683.4549
203.345	771.52875
203.892	741.50271
204.438	765.45614
204.985	730.36752
205.532	769.62977
206.078	765.49778
206.624	742.45439
207.17	791.44231
207.716	734.42175
208.262	750.1403
208.808	744.45214
209.354	692.35688
209.899	758.55017
210.445	756.49374
210.99	738.41317
211.535	789.46263
212.08	753.38953
212.625	734.48409
213.17	680.41244
213.715	698.22138
214.259	765.41171
214.804	721.44413
215.348	682.25795
215.892	680.32453
216.436	687.28968
216.98	705.24887
217.524	721.36493
218.068	708.45368
218.612	741.51228
219.155	663.26901
219.698	660.28429
220.242	675.3874
220.785	646.23672
221.328	646.33219
221.871	667.40294
222.414	665.36927
222.956	593.18301
223.499	610.12827
224.041	694.31725
224.583	715.23971
225.126	621.11976
225.668	618.24353
226.21	626.30707
226.751	597.06595
227.293	640.19981
227.835	606.22775
228.376	697.3072
228.918	695.44395
229.459	609.25775
230	594.17376
230.541	629.19163
231.082	629.25786
231.622	656.2347
232.163	587.18187
232.704	601.23787
233.244	597.23293
233.784	636.29332
234.324	611.08482
234.864	641.18247
235.404	620.2195
235.944	634.23771
236.484	662.36217
237.023	649.24996
237.563	662.23747
238.102	656.26377
238.641	697.43911
239.18	553.07088
239.719	623.29591
240.258	645.17739
240.797	668.29556
241.335	668.33752
241.874	640.97203
242.412	635.24758
242.95	646.25163
243.488	656.21111
244.026	698.28431
244.564	656.07383
245.102	652.17728
245.64	680.33332
246.177	666.19955
246.715	706.36743
247.252	628.17669
247.789	755.09115
248.326	657.27207
248.863	583.03929
249.4	639.17583
249.936	736.17165
250.473	657.23326
251.009	644.18594
251.546	658.15727
252.082	705.21845
252.618	633.13154
253.154	693.33166
253.69	713.26767
254.226	696.32812
254.761	692.23184
255.297	640.1179
255.832	643.22829
256.367	669.26508
256.903	715.22856
257.438	736.36793
257.972	719.25656
258.507	684.23708
259.042	709.20458
259.576	684.14666
260.111	708.29818
260.645	711.20474
261.179	669.24287
261.713	705.22815
262.247	726.31721
262.781	667.09158
263.315	756.45327
263.849	750.48117
264.382	758.35936
264.915	762.38337
265.449	668.28939
265.982	794.39124
266.515	744.42605
267.048	677.11541
267.58	748.26726
268.113	745.23185
268.646	753.45688
269.178	720.24411
269.71	741.24825
270.243	763.34836
270.775	794.57772
271.307	779.46344
271.838	791.46197
272.37	758.45852
272.902	742.30946
273.433	724.21986
273.965	753.43117
274.496	790.53331
275.027	738.437
275.558	772.44991
276.089	728.39063
276.62	785.56597
277.15	789.51427
277.681	747.24335
278.211	775.47949
278.741	758.26345
279.272	735.28864
279.802	768.4948
280.332	753.36457
280.861	769.42761
281.391	768.32163
281.921	817.50486
282.45	783.51862
282.98	812.642
283.509	807.36122
284.038	746.29804
284.567	820.45121
285.096	802.47755
285.625	773.32494
286.153	799.41066
286.682	755.30855
287.21	752.38595
287.739	818.45067
288.267	767.414
288.795	833.68566
289.323	814.41368
289.851	898.54105
290.378	801.3357
290.906	780.42114
291.433	858.60146
291.961	819.36356
292.488	842.57232
293.015	816.42091
293.542	839.58796
294.069	869.57446
294.596	878.61301
295.122	819.45057
295.649	890.40642
296.175	875.56365
296.702	890.58358
297.228	901.60361
297.754	896.43464
298.28	913.46902
298.806	927.59648
299.332	892.38857
299.857	882.41615
300.383	1000.81651
300.908	848.48921
301.433	930.60804
301.958	956.55803
302.483	877.58496
303.008	997.74386
303.533	964.81832
304.058	950.58283
304.582	858.44632
305.107	948.77065
305.631	998.56697
306.155	976.55882
306.679	938.51664
307.203	973.54651
307.727	940.55497
308.251	1000.71573
308.775	950.54389
309.298	950.56119
309.822	1032.7944
310.345	1080.6983
310.868	1061.6899
311.391	1092.80346
311.914	993.70505
312.437	1113.64769
312.96	1057.63759
313.482	1051.64155
314.005	1099.82957
314.527	1048.86836
315.049	1065.81158
315.571	1096.5162
316.093	1176.86072
316.615	1093.69662
317.137	1159.52978
317.659	1167.80583
318.18	1169.78472
318.702	1089.5973
319.223	1202.42103
319.744	1295.67376
320.265	1179.7503
320.786	1179.78947
321.307	1212.84589
321.828	1253.64193
322.348	1334.79097
322.869	1256.71176
323.389	1247.97795
323.909	1276.66961
324.43	1384.90285
324.95	1314.66131
325.47	1397.89689
325.989	1346.73521
326.509	1325.5259
327.029	1417.63133
327.548	1363.58209
328.067	1403.78216
328.587	1469.94558
329.106	1428.63507
329.625	1488.1549
330.144	1436.65423
330.662	1465.66139
331.181	1534.72894
331.7	1581.74228
332.218	1596.50991
332.736	1561.70914
333.255	1612.6912
333.773	1627.73945
334.291	1656.94183
334.808	1651.53477
335.326	1684.57693
335.844	1681.60497
336.361	1725.8822
336.879	1711.59832
337.396	1812.72112
337.913	1843.55933
338.43	1786.46813
338.947	1868.64664
339.464	1816.28581
339.981	1792.56773
340.497	1949.75252
341.014	1887.65594
341.53	1925.37691
342.046	1969.6473
342.562	1995.72911
343.078	1998.48482
343.594	2046.52651
344.11	2084.49322
344.626	2050.67188
345.141	2127.29607
345.657	2107.30586
346.172	2127.4646
346.687	2067.27378
347.202	2185.16105
347.717	2147.36856
348.232	2237.51969
348.747	2225.18552
349.261	2117.96104
349.776	2373.19353
350.29	2271.31868
350.805	2380.38209
351.319	2281.13911
351.833	2225.99275
352.347	2292.11254
352.861	2403.02359
353.374	2434.01271
353.888	2416.1509
354.401	2394.94491
354.915	2437.76993
355.428	2516.12584
355.941	2644.80589
356.454	2592.76217
356.967	2604.89402
357.48	2575.79518
357.993	2663.98687
358.505	2664.90499
359.018	2812.84183
359.53	2758.75258
360.042	2759.49283
360.554	2740.79124
361.066	2655.79637
361.578	2722.39027
362.09	2673.69711
362.602	2823.31789
363.113	2878.4408
363.625	2894.30015
364.136	3007.17028
364.647	2913.25221
365.158	3099.23243
365.669	3024.36363
366.18	2963.32019
366.691	3019.0553
367.201	2991.29724
367.712	3029.06351
368.222	3140.99336
368.733	3200.73633
369.243	3278.71053
369.753	3348.81158
370.263	3368.86887
370.773	3355.95135
371.282	3301.78015
371.792	3533.39184
372.301	3652.48871
372.811	3654.72326
373.32	3723.01448
373.829	3800.14918
374.338	4029.88749
374.847	3902.92996
375.356	4231.81871
375.865	4384.59698
376.373	4522.61828
376.882	4679.72639
377.39	4652.64305
377.898	4833.6422
378.407	5102.83106
378.915	5248.03817
379.423	5588.34055
379.93	5669.67032
380.438	5924.20235
380.946	6244.27665
381.453	6452.15092
381.96	6946.51994
382.468	7424.04034
382.975	7667.20589
383.482	7891.06467
383.989	7785.58835
384.495	8406.13348
385.002	8878.87026
385.509	9392.27285
386.015	10063.01864
386.521	10390.43303
387.028	10828.87638
387.534	11166.4257
388.04	11458.90391
388.546	11922.45656
389.051	12781.70912
389.557	13804.23364
390.063	14412.5714
390.568	14552.8089
391.073	15150.95362
391.578	15922.02457
392.084	16093.74854
392.589	17264.17292
393.093	18911.97568
393.598	20319.82832
394.103	22068.82601
394.607	23915.74755
395.112	25343.67252
395.616	26831.03966
396.12	28718.7755
396.624	31651.05062
397.128	34602.05522
397.632	37993.82043
398.136	38229.80857
398.639	35930.74503
399.143	32503.66402
399.646	28888.45294
400.15	25083.82847
400.653	20124.16724
401.156	13866.23708
401.659	5169.95759
402.162	1054.15589
402.664	0
403.167	0
403.67	0
404.172	0
404.674	0
405.176	0
405.678	0
406.18	0
406.682	0
407.184	0
407.686	0
408.187	0
408.688	0
409.19	0
409.691	0
410.192	0
410.693	0
411.194	435.30976
411.694	4082.94878
412.195	8864.71461
412.696	12089.80453
413.196	12760.96929
413.696	12863.67595
414.196	13703.56671
414.696	17261.84252
415.196	21764.24417
415.696	29583.19008
416.196	36460.31858
416.695	40057.39798
417.195	41365.04949
417.694	41069.38582
418.194	38302.23145
418.693	36256.46402
419.192	35786.74328
419.691	34794.87754
420.19	33874.75986
420.688	32668.04379
421.187	30358.57529
421.685	28166.0388
422.184	25056.11868
422.682	21661.20935
423.18	19190.77001
423.678	17374.04965
424.176	16107.83324
424.674	15214.51452
425.172	14242.42398
425.669	13372.46355
426.167	12291.41047
426.664	11066.20869
427.161	10314.97114
427.659	9768.058
428.156	9096.83409
428.652	8751.3934
429.149	8346.15328
429.646	7852.90926
430.143	7380.18081
430.639	6998.98402
431.135	6642.71302
431.632	6362.91023
432.128	5840.16177
432.624	5746.6728
433.12	5431.60006
433.616	5381.46795
434.111	5192.05815
434.607	4938.75398
435.103	5014.8349
435.598	4520.58263
436.093	4397.60258
436.588	4272.62796
437.083	4018.74312
437.578	3764.92747
438.073	3497.20788
438.568	3555.33811
439.062	3380.13377
439.557	3207.57355
440.051	3177.49374
440.546	3057.59861
441.04	3070.79177
441.534	2959.1096
442.028	2917.03053
442.522	2777.10895
443.015	2778.88764
443.509	2769.28038
444.002	2684.33051
444.496	2700.02197
444.989	2632.42408
445.482	2663.47464
445.975	2563.20414
446.468	2470.15581
446.961	2401.20491
447.454	2417.38557
447.947	2319.53588
448.439	2344.69104
448.931	2198.48218
449.424	2343.86887
449.916	2270.76665
450.408	2282.51587
450.9	2207.77981
451.392	2098.96782
451.884	2040.75076
452.375	1936.95891
452.867	2153.74333
453.358	1851.75928
453.849	1975.60498
454.341	1916.78279
454.832	1878.68429
455.323	1948.02012
455.814	1930.90089
456.304	1815.93569
456.795	1784.93158
457.285	1903.91014
457.776	1816.01477
458.266	1745.07025
458.756	1694.15119
459.247	1580.08499
459.737	1589.10066
460.226	1568.97747
460.716	1555.15173
461.206	1506.18536
461.695	1547.34437
462.185	1436.16008
462.674	1458.13229
463.163	1453.05141
463.653	1446.94112
464.142	1372.2338
464.63	1350.29993
465.119	1253.11857
465.608	1325.15327
466.096	1321.07108
466.585	1336.22567
467.073	1317.31499
467.561	1266.30807
468.05	1302.26129
468.538	1264.38605
469.026	1202.29559
469.513	1125.00292
470.001	1188.18035
470.489	1165.26253
470.976	1079.18464
471.463	1042.32875
471.951	1032.34944
472.438	1027.2071
472.925	1004.18198
473.412	994.31603
473.899	973.17171
474.385	996.32749
474.872	950.18143
475.359	874.20656
475.845	815.90773
476.331	851.03039
476.817	829.19486
477.303	812.09889
477.789	794.14669
478.275	770.16664
478.761	797.16785
479.247	801.06937
479.732	676.07033
480.218	658.12707
480.703	767.2041
481.188	648.8679
481.673	697.00764
482.158	641.84173
482.643	724.22185
483.128	576.8653
483.612	541.85909
484.097	571.96684
484.581	669.0328
485.066	500.85183
485.55	547.8071
486.034	516.75967
486.518	537.86989
487.002	477.82951
487.486	498.86628
487.969	469.8238
488.453	523.95681
488.936	482.77214
489.42	446.7124
489.903	501.92997
490.386	432.48433
490.869	434.69203
491.352	472.86457
491.835	494.73037
492.318	405.67782
492.8	367.56392
493.283	403.78012
493.765	397.74313
494.247	410.73166
494.73	390.65002
495.212	367.69173
495.694	354.63367
496.175	289.53213
496.657	358.66068
497.139	294.39258
497.62	214.40403
498.102	287.56514
498.583	295.59183
499.064	254.44667
499.545	238.43524
500.026	236.42242
500.507	278.51483
500.988	313.62243
501.469	154.3186
501.949	241.48707
502.43	236.45125
502.91	217.35874
503.39	257.52728
503.87	179.345
504.35	212.41283
504.83	225.39827
505.31	240.47403
505.79	157.31148
506.269	191.3699
506.749	167.31475
507.228	176.34126
507.707	169.30944
508.187	194.38678
508.666	139.28621
509.145	141.27529
509.623	145.28539
510.102	161.32778
510.581	239.47926
511.059	152.32024
511.538	164.36025
512.016	221.43866
512.494	184.37589
512.972	169.33921
513.45	77.15119
513.928	128.26315
514.406	87.17761
514.884	167.36352
515.361	118.24084
515.839	114.22062
516.316	150.30573
516.793	112.24457
517.27	167.3448
517.747	102.22538
518.224	124.24561
518.701	81.15544
519.178	94.20005
519.654	126.25822
520.131	89.19052
520.607	122.26156
521.083	66.13073
521.56	129.2612
522.036	115.21696
522.512	111.23792
522.987	93.18994
523.463	121.24747
523.939	97.20711
524.414	120.23969
524.89	143.29153
525.365	125.24324
525.84	58.11962
526.315	67.14088
526.79	150.28959
527.265	93.18416
527.74	52.11129
528.215	80.16462
528.689	65.12558
529.164	87.1647
529.638	147.328
530.112	65.1339
530.587	51.09489
531.061	59.12466
531.534	138.29049
532.008	91.19075
532.482	92.18487
532.956	7.01585
533.429	90.1912
533.903	81.15732
534.376	82.15861
534.849	78.15891
535.322	77.15984
535.795	90.19337
536.268	36.07675
536.741	80.16944
537.213	57.11663
537.686	52.11182
538.158	28.05541
538.631	90.1932
539.103	41.08108
539.575	95.17351
540.047	42.0819
540.519	105.22068
540.991	109.23485
541.463	118.25025
541.934	98.19656
542.406	66.13875
542.877	57.11377
543.348	73.1562
543.82	125.26897
544.291	136.27745
544.762	132.27174
545.233	126.27538
545.703	123.23558
546.174	131.26476
546.645	118.24357
547.115	178.36792
547.585	186.36599
548.056	160.32923
548.526	209.41426
548.996	253.51203
549.466	244.50456
549.935	226.44722
550.405	251.45472
550.875	268.52611
551.344	282.56144
551.814	305.57571
552.283	357.62801
552.752	321.60591
553.221	291.51188
553.69	307.55364
554.159	304.6089
554.628	317.56992
555.096	369.75603
555.565	351.62911
556.033	346.66673
556.502	259.52609
556.97	296.54378
557.438	275.54814
557.906	307.61221
558.374	273.52972
558.842	279.56491
559.31	289.54684
559.777	240.49585
560.245	347.68618
560.712	344.6702
561.18	317.58809
561.647	327.61481
562.114	321.61602
562.581	415.85296
563.048	445.84659
563.514	428.86956
563.981	489.91357
564.448	530.95714
564.914	539.01434
565.381	565.03158
565.847	661.21701
566.313	635.16846
566.779	621.10547
567.245	637.17743
567.711	680.2762
568.176	707.21932
568.642	760.47149
569.108	812.51844
569.573	855.5137
570.038	903.3727
570.504	858.41577
570.969	916.71161
571.434	896.42244
571.899	1049.77279
572.363	1048.67813
572.828	1075.72692
573.293	1105.75732
573.757	1146.80368
574.222	1093.67295
574.686	1176.76428
575.15	1155.88541
575.614	1206.85623
576.078	1220.92413
576.542	1242.87961
577.006	1199.80925
577.469	1301.17114
577.933	1264.84522
578.396	1213.96076
578.86	1236.9618
579.323	1148.88487
579.786	1223.73635
580.249	1109.73862
580.712	1172.98843
581.175	1136.96235
581.637	1117.7937
582.1	1160.73179
582.563	1074.60263
583.025	1032.79346
583.487	1009.40804
583.95	956.45925
584.412	1089.56903
584.874	943.68374
585.336	926.61383
585.797	867.37741
586.259	931.62214
586.721	859.50582
587.182	871.5325
587.643	888.49461
588.105	787.42559
588.566	774.23164
589.027	744.38214
589.488	716.26676
589.949	747.40597
590.41	668.99349
590.87	682.22404
591.331	636.08463
591.791	614.12606
592.252	612.10829
592.712	669.27187
593.172	602.07961
593.632	660.13837
594.092	598.06416
594.552	552.95722
595.011	558.02984
595.471	561.01134
595.931	497.90739
596.39	498.97995
596.849	526.9995
597.308	514.91117
597.768	468.98983
598.227	518.0238
598.685	506.95821
599.144	513.9831
599.603	525.01704
600.062	489.83555
600.52	404.75306
600.978	512.99706
601.437	528.98767
601.895	478.83015
602.353	535.96543
602.811	502.91119
603.269	546.0626
603.727	513.0056
604.184	493.90737
604.642	482.97659
605.099	538.0132
605.557	544.08082
606.014	538.93095
606.471	597.19266
606.928	646.07216
607.385	706.32899
607.842	701.24242
608.299	685.24993
608.755	630.20545
609.212	662.14487
609.668	667.141
610.125	719.35583
610.581	668.26535
611.037	666.20936
611.493	663.25005
611.949	584.13616
612.405	561.89958
612.861	673.26583
613.316	665.26303
613.772	696.26011
614.227	661.242
614.683	631.08216
615.138	649.21342
615.593	677.24965
616.048	710.28616
616.503	636.271
616.958	648.31297
617.412	636.21578
617.867	617.0955
618.321	677.11108
618.776	632.13062
619.23	620.18571
619.684	665.21275
620.138	620.18227
620.592	575.15926
621.046	629.21254
621.5	601.20789
621.954	639.17937
622.407	599.10263
622.861	564.14774
623.314	592.12113
623.768	516.01793
624.221	547.8981
624.674	536.0431
625.127	486.97614
625.58	570.09781
626.033	499.94795
626.485	478.98664
626.938	502.02785
627.39	505.00949
627.843	475.95427
628.295	457.92234
628.747	455.94654
629.199	398.80198
629.651	362.73514
630.103	475.94943
630.555	421.78768
631.006	347.73474
631.458	400.84232
631.909	402.82904
632.361	337.71451
632.812	325.68335
633.263	343.67223
633.714	324.63514
634.165	298.66612
634.616	270.59556
635.067	291.59892
635.518	299.65994
635.968	321.59402
636.419	312.62695
636.869	264.58696
637.319	255.55152
637.769	240.50408
638.219	265.59395
638.669	196.44356
639.119	292.66482
639.569	207.47369
640.019	255.55576
640.468	201.42822
640.918	258.58623
641.367	206.44087
641.816	187.40099
642.265	238.52191
642.714	214.47205
643.163	226.49455
643.612	150.3465
644.061	105.21718
644.51	176.38563
644.958	143.30492
645.406	133.30852
645.855	156.36966
646.303	218.48792
646.751	101.22489
647.199	209.45571
647.647	159.35418
648.095	151.33581
648.543	191.37911
648.99	143.33171
649.438	176.40073
649.885	154.36985
650.333	124.23698
650.78	160.37459
651.227	154.36365
651.674	108.24183
652.121	165.3894
652.568	137.32433
653.015	204.49735
653.461	166.38316
653.908	162.36751
654.354	114.26763
654.801	138.31625
655.247	162.34776
655.693	123.31373
656.139	107.25262
656.585	131.3082
657.031	91.20942
657.477	47.1017
657.922	91.20741
658.368	131.31742
658.813	146.33391
659.259	97.23008
659.704	87.20109
660.149	109.25104
660.594	115.26951
661.039	80.18156
661.484	123.2904
661.929	183.41793
662.373	58.14562
662.818	88.21655
663.262	73.17502
663.707	92.23106
664.151	129.31105
664.595	59.14226
665.039	79.19587
665.483	114.28683
665.927	86.20229
666.371	102.23431
666.814	85.20278
667.258	106.24876
667.701	145.31107
668.145	125.30822
668.588	74.18163
669.031	45.10641
669.474	84.2022
669.917	85.18935
670.36	69.17133
670.803	120.28809
671.245	102.21603
671.688	52.12778
672.13	46.10432
672.573	95.24078
673.015	86.20686
673.457	92.2015
673.899	114.27535
674.341	70.16978
674.783	98.23474
675.225	71.1752
675.666	32.07773
676.108	53.11699
676.549	68.16244
676.991	63.14075
677.432	67.13578
677.873	48.1126
678.314	89.2133
678.755	77.18819
679.196	23.05367
679.637	83.20383
680.078	114.26732
680.518	92.21599
680.959	74.17853
681.399	82.20402
681.839	62.15223
682.28	62.15403
682.72	12.02807
683.16	102.25387
683.6	128.29239
684.039	51.10861
684.479	61.15091
684.919	32.07495
685.358	80.20388
685.798	27.0715
686.237	92.22372
686.676	136.31566
687.115	71.1686
687.554	70.16786
687.993	67.15055
688.432	22.05139
688.871	51.11756
689.309	96.2303
689.748	54.11552
690.186	103.24723
690.625	68.16114
691.063	48.11668
691.501	32.08031
691.939	50.12598
692.377	63.15518
692.815	101.24234
693.253	92.22271
693.69	35.07868
694.128	47.1153
694.565	64.15447
695.003	61.15609
695.44	22.05276
695.877	20.04767
696.314	51.11215
696.751	29.0677
697.188	86.19938
697.625	109.25214
698.061	28.06837
698.498	66.16158
698.934	52.12697
699.371	35.08382
699.807	103.24488
700.243	62.15088
700.679	50.11537
701.115	126.29742
701.551	14.03374
701.987	83.1891
702.422	57.13713
702.858	83.19938
703.294	27.06261
703.729	85.20944
704.164	85.20612
704.599	83.18719
705.035	40.0913
705.47	34.08398
705.904	20.04759
706.339	70.16517
706.774	37.08824
707.209	42.09856
707.643	54.13146
708.078	35.08659
708.512	-6.01531
708.946	45.10961
709.38	31.07486
709.814	14.03282
710.248	68.16746
710.682	23.05577
711.116	25.06067
711.549	60.15613
711.983	39.09179
712.416	92.21927
712.85	88.22054
713.283	44.10583
713.716	121.30395
714.149	108.25869
714.582	101.22862
715.015	71.17938
715.448	99.25029
715.881	82.1821
716.313	43.10247
716.746	82.19469
717.178	47.11461
717.61	67.17132
718.043	103.25743
718.475	46.11312
718.907	103.26152
719.339	20.04635
719.77	45.10822
720.202	80.20345
720.634	72.17659
721.065	97.23123
721.497	52.12905
721.928	61.15125
722.359	1.00246
722.79	37.08996
723.221	73.18515
723.652	146.37456
724.083	75.17115
724.514	82.19033
724.945	15.03602
725.375	25.05912
725.806	81.20362
726.236	115.29447
726.666	97.23097
727.096	83.20504
727.526	59.15113
727.956	19.04414
728.386	93.23008
728.816	55.14044
729.246	72.17633
729.675	21.05254
730.105	87.21539
730.534	93.21906
730.964	102.25847
731.393	111.27632
731.822	68.17494
732.251	83.21164
732.68	62.14805
733.109	75.18616
733.537	82.19933
733.966	88.2195
734.395	72.16811
734.823	115.26063
735.251	62.15094
735.68	83.20917
736.108	54.13801
736.536	62.14805
736.964	69.1619
737.392	60.15156
737.82	100.24099
738.247	75.18125
738.675	117.28008
739.102	28.07095
739.53	55.14123
739.957	80.2066
740.384	65.16199
740.811	94.23896
741.238	68.1674
741.665	41.09657
742.092	130.31007
742.519	78.19407
742.945	61.14803
743.372	78.19428
743.798	79.20399
744.225	71.17036
744.651	75.18935
745.077	70.17581
745.503	87.21342
745.929	91.21942
746.355	113.2813
746.781	59.14762
747.207	10.02393
747.632	32.0791
748.058	88.22046
748.483	68.15833
748.908	47.11811
749.334	90.22196
749.759	53.12654
750.184	43.1038
750.609	70.1734
751.033	124.29315
751.458	120.2698
751.883	111.27511
752.307	21.05035
752.732	32.08092
753.156	42.10499
753.58	71.17023
754.005	98.24913
754.429	36.08593
754.853	74.18438
755.277	74.17657
755.7	68.16992
756.124	41.10292
756.548	61.14603
756.971	91.22307
757.394	87.22464
757.818	95.24462
758.241	66.1685
758.664	76.1928
759.087	41.09296
759.51	87.21728
759.933	80.19352
760.356	84.21596
760.778	63.15615
761.201	118.28673
761.623	101.24565
762.046	63.1511
762.468	129.30916
762.89	92.22781
763.312	93.2278
763.734	38.09272
764.156	64.15923
764.578	71.16496
765	59.14527
765.421	54.1381
765.843	73.19208
766.264	119.28715
766.686	73.18436
767.107	67.16357
767.528	12.03073
767.949	50.12823
768.37	99.24322
768.791	88.21375
769.212	39.09892
769.632	56.13178
770.053	52.13781
770.473	50.12286
770.894	56.1414
771.314	96.23003
771.734	55.12955
772.154	120.30678
772.575	81.18894
772.994	0
773.414	99.23817
773.834	50.12607
774.254	72.17718
774.673	78.19088
775.093	51.12724
775.512	39.09709
775.931	93.23579
776.351	82.20409
776.77	22.05452
777.189	43.10345
777.607	47.12094
778.026	53.13299
778.445	20.05066
778.864	107.27369
779.282	62.1502
779.701	67.16963
780.119	1.00257
780.537	13.03289
780.955	48.12306
781.373	52.12957
781.791	-1.00229
782.209	73.16927
782.627	54.14292
783.045	32.0746
783.462	45.11579
783.88	14.03664
784.297	33.08382
784.715	10.026
785.132	35.08564
785.549	-14.03565
785.966	34.08631
786.383	48.11895
786.8	85.19788
787.217	29.06958
787.633	14.03538
788.05	70.16716
788.466	54.12841
788.883	26.06694
789.299	-4.0098
789.715	33.08104
790.131	42.10526
790.547	31.07818
790.963	46.11499
791.379	29.074
791.795	41.09458
792.21	42.09914
792.626	15.0361
793.041	39.09705
793.457	29.0724
793.872	31.0737
794.287	-27.06579
794.702	35.08703
795.117	28.07022
795.532	-1.00254
795.947	46.11161
796.362	45.10838
796.776	100.23394
797.191	-11.02739
797.605	-6.01433
798.02	-9.02227
798.434	11.02491
798.848	15.03738
799.262	9.02261
799.676	52.12763
800.09	35.08684
800.504	6.01477
800.918	75.17412
801.331	66.17334
801.745	-1.00234
802.158	-1.00254
802.572	82.19895
802.985	48.11681
803.398	62.14845
803.811	38.09838
804.224	48.12016
804.637	-5.01211
805.05	23.05397
805.462	9.0224
805.875	19.04969
806.288	18.0439
806.7	53.13376
807.112	18.04228
807.525	15.03745
807.937	-25.06294
808.349	56.1408
808.761	26.06457
809.173	21.05144
809.584	54.13406
809.996	40.09858
810.408	112.28694
810.819	134.31176
811.231	144.36723
811.642	198.46083
812.053	107.25292
812.464	80.19009
812.875	42.1079
813.286	66.17004
813.697	84.19636
814.108	43.10572
814.519	45.10107
814.929	55.14074
815.34	18.04413
815.75	37.09458
816.16	33.08287
816.571	39.10185
816.981	10.02393
817.391	43.10447
817.801	28.0701
818.211	15.03618
818.62	51.1233
819.03	42.10355
819.44	33.08674
819.849	40.10136
820.259	60.15388
820.668	1.00249
821.077	13.03262
821.486	29.07046
821.895	43.10685
822.304	35.09324
822.713	17.04063
823.122	9.02271
823.531	9.0216
823.939	29.07122
824.348	15.03687
824.756	39.09825
825.164	56.1413
825.573	21.05315
825.981	62.15403
826.389	54.13606
826.797	69.17283
827.205	-17.03972
827.612	78.19223
828.02	49.11555
828.428	49.12521
828.835	2.00532
829.243	35.08401
829.65	-9.02269
830.057	57.13869
830.464	7.01725
830.871	60.14399
831.278	-1.00245
831.685	35.07874
832.092	23.0568
832.499	-19.04238
832.905	28.07138
833.312	32.0736
833.718	59.14725
834.124	25.05767
834.531	26.06603
834.937	31.08005
835.343	20.04871
835.749	43.10101
836.155	47.12342
836.561	34.08413
836.966	35.08611
837.372	50.1276
837.777	-21.05313
838.183	62.13814
838.588	-12.03021
838.993	56.13664
839.399	-1.00247
839.804	-25.06194
840.209	-1.00257
840.613	-22.04987
841.018	27.06882
841.423	30.0774
841.828	42.10662
842.232	76.18792
842.637	50.11835
843.041	-22.05721
843.445	1.00254
843.849	26.06481
844.253	55.13101
844.657	16.04062
845.061	13.02982
845.465	-3.00734
845.869	32.07486
846.272	37.09053
846.676	91.21901
847.079	13.03333
847.483	66.16457
847.886	51.12441
848.289	15.04032
848.692	38.09664
849.095	38.09171
849.498	105.26414
849.901	45.10364
850.304	65.15531
850.707	40.10237
851.109	44.1117
851.512	16.03965
851.914	-46.1181
852.316	30.07629
852.718	-4.01044
853.121	-6.01488
853.523	9.02126
853.925	-7.01846
854.326	-13.03293
854.728	18.04662
855.13	-2.00521
855.531	-11.02664
855.933	37.08925
856.334	-3.00756
856.736	-11.02501
857.137	24.05621
857.538	9.02283
857.939	11.02741
858.34	24.05889
858.741	59.15419
859.142	45.10842
859.542	52.13731
859.943	8.02006
860.343	-32.08054
860.744	27.06628
861.144	-7.01729
861.544	-50.12263
861.945	-9.02321
862.345	33.0811
862.745	7.01756
863.145	43.10313
863.544	41.10392
863.944	-8.01915
864.344	37.09228
864.743	59.14639
865.143	-5.01298
865.542	6.01406
865.941	22.05482
866.34	38.0914
866.74	42.11298
867.139	16.03862
867.537	29.07426
867.936	36.08702
868.335	32.08178
868.734	31.07957
869.132	50.11638
869.531	20.04873
869.929	-5.01154
870.327	-16.03889
870.726	40.10006
871.124	52.1217
871.522	31.07932
871.92	55.13572
872.318	19.04678
872.715	12.02995
873.113	-2.00493
873.511	41.10244
873.908	-16.04091
874.306	2.00502
874.703	32.08043
875.1	58.14833
875.497	-32.07802
875.894	-24.05967
876.291	1.00248
876.688	8.0208
877.085	49.11775
877.482	16.04034
877.878	34.08218
878.275	6.01538
878.671	23.0516
879.068	23.05588
879.464	40.09698
879.86	28.06658
880.256	4.00997
880.652	30.07664
881.048	41.10188
881.444	45.10736
881.84	-15.0386
882.236	62.15572
882.631	12.02969
883.027	68.16431
883.422	31.0796
883.817	23.05813
884.213	36.09268
884.608	-31.07723
885.003	29.07027
885.398	19.04787
885.793	36.09068
886.188	-27.06812
886.582	89.22693
886.977	15.03588
887.371	31.07874
887.766	-9.02264
888.16	17.04272
888.554	32.07947
888.949	42.10571
889.343	27.06631
889.737	-4.01076
890.131	-6.01522
890.525	19.04889
890.918	32.08086
891.312	26.06256
891.706	41.10781
892.099	37.09444
892.492	11.02396
892.886	31.07619
893.279	26.06656
893.672	-8.02059
894.065	2.00506
894.458	46.11586
894.851	26.06405
895.244	-6.01548
895.637	52.12531
896.029	0
896.422	47.115
896.814	4.01004
897.206	-9.02169
897.599	36.08934
897.991	10.02438
898.383	14.03334
898.775	5.0114
899.167	-43.10219
899.559	21.05347
899.951	52.12265
900.342	66.16749
900.734	-44.1111
901.125	38.09997
901.517	-40.09988
901.908	29.06987
902.299	5.01233
902.69	18.04277
903.082	29.07056
903.473	-8.01938
903.863	35.08959
904.254	4.00938
904.645	34.08487
905.036	-47.11594
905.426	20.04611
905.817	-6.01488
906.207	-7.01687
906.597	30.07049
906.987	49.12709
907.378	17.04327
907.768	-4.01068
908.158	8.01967
908.547	15.039
908.937	0
909.327	25.06103
909.717	113.28385
910.106	2.00485
910.495	67.16685
910.885	23.05856
911.274	-6.01516
911.663	59.14959
912.052	43.1063
912.441	24.06134
912.83	13.03008
913.219	23.0605
913.608	7.01729
913.997	-28.07121
914.385	39.09343
914.774	23.05632
915.162	12.02882
915.55	48.11624
915.939	1.00255
916.327	32.08017
916.715	35.08946
917.103	60.14749
917.491	39.09673
917.878	2.00496
918.266	38.09878
918.654	63.16064
919.041	-17.0449
919.429	8.01905
919.816	42.10666
920.203	15.03663
920.591	-6.01504
920.978	66.16122
921.365	-8.0212
921.752	15.03602
922.139	-18.03967
922.525	-32.07808
922.912	25.06128
923.299	18.04501
923.685	44.11493
924.072	24.05566
924.458	41.10177
924.844	15.03737
925.231	44.10257
925.617	5.01282
926.003	26.06675
926.389	-2.00509
926.774	40.10158
927.16	-2.00502
927.546	-23.05947
927.931	36.09009
928.317	76.17424
928.702	40.09486
929.088	-30.07208
929.473	35.08931
929.858	-52.12815
930.243	-26.06332
930.628	-26.06417
931.013	-24.0603
931.398	48.11049
931.783	67.17593
932.167	35.08583
932.552	14.03531
932.937	76.18778
933.321	4.01012
933.705	-14.0357
934.09	49.12388
934.474	10.02394
934.858	19.04955
935.242	-7.01641
935.626	0
936.009	6.01608
936.393	2.00513
936.777	22.05662
937.16	20.05231
937.544	-31.07421
937.927	6.01534
938.311	59.14382
938.694	10.02663
939.077	-13.0315
939.46	49.12038
939.843	-4.00845
940.226	30.07724
940.609	-12.0279
940.991	6.01539
941.374	-12.02967
941.757	24.05952
942.139	-1.00227
942.522	38.09005
942.904	20.04836
943.286	22.05619
943.668	66.17051
944.05	17.04214
944.432	27.06692
944.814	38.09382
945.196	-23.05682
945.578	-44.10648
945.959	27.06357
946.341	57.13978
946.722	23.05428
947.104	25.06005
947.485	18.04216
947.866	7.01777
948.247	8.02034
948.628	11.02703
949.009	10.02579
949.39	29.07248
949.771	-6.01411
950.152	42.10324
950.532	-5.01242
950.913	39.09429
951.293	-12.03274
951.674	-10.02446
952.054	24.05976
952.434	23.05738
952.814	28.06691
953.194	47.12308
953.574	63.15483
953.954	3.00719
954.334	-11.02772
954.714	-18.04443
955.093	47.11564
955.473	-4.0101
955.853	1.00261
956.232	48.1316
956.611	36.08659
956.99	8.02026
957.37	6.01541
957.749	11.02644
958.128	29.07335
958.506	0
958.885	24.06086
959.264	-20.04965
959.643	23.05263
960.021	-2.005
960.4	-6.01376
960.778	66.16212
961.156	13.03281
961.535	37.08647
961.913	28.06581
962.291	22.05672
962.669	-8.02047
963.047	23.05898
963.424	15.03852
963.802	-3.00745
964.18	66.16654
964.557	27.06248
964.935	51.12083
965.312	0
965.69	45.1128
966.067	36.0879
966.444	35.0865
966.821	43.11099
967.198	21.05123
967.575	57.13998
967.952	25.05921
968.329	18.04407
968.705	25.05391
969.082	21.05413
969.458	-44.10744
969.835	24.05871
970.211	4.01035
970.587	26.06502
970.963	37.09514
971.339	24.06295
971.715	47.11743
972.091	32.07907
972.467	43.10739
972.843	-4.01002
973.219	88.20982
973.594	31.08135
973.97	38.09067
974.345	-8.01936
974.721	13.0317
975.096	13.03168
975.471	20.04772
975.846	4.00969
976.221	4.01024
976.596	-8.01939
976.971	13.03232
977.346	28.06548
977.72	-16.04124
978.095	23.05972
978.469	-7.01689
978.844	28.07068
979.218	16.0386
979.593	20.0482
979.967	29.07093
980.341	-21.04904
980.715	22.05571
981.089	7.01766
981.463	-25.05827
981.837	-14.03462
982.21	79.18282
982.584	14.03404
982.957	0
983.331	18.04282
983.704	53.13016
984.078	3.00746
984.451	46.11499
984.824	-14.0345
985.197	19.04642
985.57	6.01517
985.943	56.13816
986.316	27.06663
986.688	47.11341
987.061	9.02127
987.434	11.02886
987.806	21.05121
988.179	16.038
988.551	36.09155
988.923	6.0149
989.295	48.11999
989.667	-19.04599
990.039	-8.01998
990.411	3.00697
990.783	28.06476
991.155	-10.0243
991.527	69.16933
991.898	10.0251
992.27	-17.04257
992.641	51.12793
993.012	30.07087
993.384	-18.04349
993.755	-7.01802
994.126	22.0532
994.497	-13.03228
994.868	27.06231
995.239	5.01222
995.61	-9.02288
995.98	6.01469
996.351	7.01747
996.722	-5.01172
997.092	-30.07213
997.462	-22.05211
997.833	47.11148
998.203	68.16431
998.573	-8.02013
998.943	5.01183
999.313	-7.01696
999.683	-6.01455
1000.053	13.03013
1000.423	-20.04924
1000.792	32.08319
1001.162	1.00248
1001.531	23.05699
1001.901	8.02009
1002.27	-8.0181
1002.639	19.04881
1003.009	7.01678
1003.378	29.07441
1003.747	12.02856
1004.116	-20.04849
1004.485	16.03849
1004.853	9.02296
1005.222	12.03046
1005.591	15.03585
1005.959	-5.01139
1006.328	-22.05023
1006.696	6.01459
1007.064	14.03544
1007.433	26.06525
1007.801	37.09103
1008.169	14.03558
1008.537	-21.04719
1008.905	-7.01649
1009.273	52.12839
1009.64	-8.01929
1010.008	2.00481
1010.375	50.12141
1010.743	26.06032
1011.11	9.02146
1011.478	3.00749
1011.845	20.0473
1012.212	-14.0321
1012.579	12.02966
1012.946	34.08116
1013.313	32.07642
1013.68	18.04072
1014.047	-16.0386
1014.414	-7.01671
1014.78	-19.0478
1015.147	38.0921
1015.513	16.03879
1015.88	18.04628
1016.246	23.05705
1016.612	9.02077
1016.978	3.00741
1017.344	-19.04754
1017.71	37.09043
1018.076	20.04743
1018.442	23.05943
1018.808	3.00756
1019.174	-7.01774
1019.539	86.19653
1019.905	-25.0598
1020.27	6.01492
1020.636	30.07219
1021.001	11.02652
1021.366	0
1021.731	22.05684
1022.096	17.04312
1022.461	-13.03113
1022.826	36.08577
1023.191	47.12333
1023.556	0
1023.92	-15.03731
1024.285	-6.01479
1024.649	-1.00247
1025.014	32.0795
1025.378	11.02784
1025.742	25.06235
1026.107	1.00228
1026.471	53.12363
1026.835	8.01998
1027.199	-26.06346
1027.562	-11.02587
1027.926	51.12465
1028.29	-8.02045
1028.654	-18.04196
1029.017	15.0371
1029.381	-41.09961
1029.744	1.00257
1030.107	70.16492
1030.471	4.00966
1030.834	2.00459
1031.197	40.0965
1031.56	9.0214
1031.923	0
1032.286	14.0331
1032.648	-2.00483
1033.011	-32.07463
1033.374	44.1035
1033.736	9.02382
1034.099	38.09279
1034.461	8.02035
1034.823	22.05504
1035.185	20.05059
1035.548	3.00736
1035.91	14.03375
1036.272	-43.09967
1036.634	30.07363
1036.995	2.00474
1037.357	-29.07156
1037.719	4.00981
1038.08	31.07384
1038.442	-11.0264
1038.803	37.08901
1039.165	2.00509
1039.526	12.02919
1039.887	-3.00725
1040.248	-19.04738
1040.609	32.0793
1040.97	-29.07188
1041.331	19.04834
1041.692	-2.00471
1042.053	15.03438
1042.413	22.05153
1042.774	7.01715
1043.134	55.13076
1043.495	10.02531
1043.855	26.06332
1044.215	32.07965
1044.576	-4.00966
1044.936	9.02079
1045.296	48.11977
1045.656	24.05915
1046.016	15.03643
1046.375	18.0439
1046.735	-70.16248
1047.095	26.06111
1047.454	8.0171
1047.814	51.12251
1048.173	52.12413
1048.533	-13.03014
1048.892	16.03863
1049.251	27.06802
1049.61	14.03468
1049.969	-23.05495
1050.328	-35.07722
1050.687	8.01961
1051.046	-8.01968
1051.405	29.07238
1051.763	-26.06066
1052.122	-12.03025
1052.48	16.03946
1052.839	24.05672
1053.197	-19.04529
1053.555	36.08227
1053.914	25.0614
1054.272	25.06069
1054.63	-24.05945
1054.988	28.06676
1055.345	-46.10105
1055.703	10.02424
1056.061	19.04911
1056.419	21.0546
1056.776	25.06087
1057.134	26.06044
1057.491	-21.05323
1057.848	-1.00251
1058.206	-1.00237
1058.563	-43.09658
1058.92	-1.00233
1059.277	41.10125
1059.634	16.03787
1059.991	20.04816
1060.348	-24.05502
1060.704	-17.04101
1061.061	44.10229
1061.418	14.03416
1061.774	13.03229
1062.131	-18.0481
1062.487	-42.09991
1062.843	37.09241
1063.199	30.07483
1063.555	8.01868
1063.911	8.02034
1064.267	-3.00633
1064.623	1.00245
1064.979	57.13478
1065.335	47.11234
1065.691	-21.05098
1066.046	-14.03118
1066.402	-6.01378
1066.757	11.02794
1067.112	19.04687
1067.468	-10.02387
1067.823	15.03628
1068.178	-9.022
1068.533	-1.00245
1068.888	19.04564
1069.243	-7.01744
1069.598	-1.00245
1069.952	-40.09167
1070.307	0
1070.662	4.00957
1071.016	-25.05684
1071.371	4.00918
1071.725	47.11243
1072.079	-32.07811
1072.434	-1.00245
1072.788	20.04787
1073.142	66.16176
1073.496	-33.07948
1073.85	5.01169
1074.203	27.06574
1074.557	3.00803
1074.911	68.16164
1075.265	25.05836
1075.618	31.07591
1075.971	-4.00961
1076.325	-2.00513
1076.678	-14.03241
1077.031	-21.04817
1077.385	31.06851
1077.738	-15.03429
1078.091	-4.00919
1078.444	21.049
1078.796	18.04439
1079.149	36.0897
1079.502	-16.03825
1079.855	16.03753
1080.207	25.06183
1080.56	5.01301
1080.912	71.17204
1081.264	24.05803
1081.617	12.02943
1081.969	-20.05104
1082.321	16.03929
1082.673	-15.03466
1083.025	13.03104
1083.377	-193.43561
1083.728	27.06323
1084.08	17.04266
1084.432	-4.00974
1084.783	37.08685
1085.135	5.01262
1085.486	-53.12367
1085.838	17.04209
1086.189	-13.0319
1086.54	37.08851
1086.891	-31.07946
1087.242	-7.01721
1087.593	12.0294
1087.944	26.05908
1088.295	46.10457
1088.646	6.01465
1088.996	-2.00486
1089.347	3.00742
1089.698	-32.07677
1090.048	33.08589
1090.398	28.06517
1090.749	-18.04359
1091.099	-3.00761
1091.449	3.00753
1091.799	18.04529
1092.149	-42.10408
1092.499	-22.05434
1092.849	24.06123
1093.199	72.17959
1093.548	-3.00727
1093.898	1.00252
1094.248	20.05162
1094.597	-23.05941
1094.947	17.04556
1095.296	-14.03495
1095.645	33.08601
1095.994	-4.0097
1096.343	22.05559
1096.692	-14.03714
1097.041	-31.08495
1097.39	-23.0584
1097.739	17.0444
1098.088	64.17092
1098.437	-28.07446
1098.785	31.08376
1099.134	25.0666
1099.482	50.13739
1099.83	12.03171
1100.179	8.021
1100.527	39.10372
1100.875	-26.06955
1101.223	31.0825
1101.571	12.03333
1101.919	-6.01581
1102.267	30.08464
1102.615	1.00322
1102.962	15.04827
1103.31	13.04173
1103.658	26.0836
