Data from N2 R5 sample 7_Subt2__3__12-01-05-366.txt Node

Date: Fri Aug 29 12:01:05 PDT 2025
User: uwsun
Spectrometer: HDX01956
Trigger mode: 0
Integration Time (sec): 5.000000E-1
Scans to average: 1
Nonlinearity correction enabled: true
Boxcar width: 0
Storing dark spectrum: false
XAxis mode: Wavelengths
Number of Pixels in Spectrum: 2068
>>>>>Begin Spectral Data<<<<<
194.03	148.40589
194.578	173.5353
195.127	144.44046
195.676	143.43883
196.225	157.40552
196.773	176.46892
197.321	269.68969
197.87	412.94175
198.418	375.85151
198.966	309.71559
199.513	281.62151
200.061	324.72304
200.609	372.87321
201.156	326.61882
201.704	323.71648
202.251	338.79095
202.798	334.76626
203.345	413.88823
203.892	364.80254
204.438	370.77265
204.985	323.66657
205.532	384.88306
206.078	428.90564
206.624	350.75033
207.17	453.89748
207.716	345.73115
208.262	327.56046
208.808	339.72596
209.354	359.76015
209.899	428.94164
210.445	333.7239
210.99	369.77039
211.535	411.83446
212.08	370.74899
212.625	346.76254
213.17	387.85735
213.715	251.49145
214.259	385.77881
214.804	387.8359
215.348	377.74935
215.892	334.7049
216.436	390.78658
216.98	398.76214
217.524	319.66394
218.068	366.81033
218.612	371.82157
219.155	282.5902
219.698	343.71865
220.242	350.77297
220.785	324.66939
221.328	343.75641
221.871	333.75278
222.414	340.75215
222.956	241.5208
223.499	256.51608
224.041	338.698
224.583	364.69062
225.126	321.62405
225.668	264.57526
226.21	319.71232
226.751	266.51626
227.293	330.66679
227.835	329.70973
228.376	391.7895
228.918	342.7673
229.459	310.68407
230	310.65425
230.541	341.69234
231.082	364.7736
231.622	322.6566
232.163	282.60848
232.704	313.68737
233.244	311.68441
233.784	389.83662
234.324	278.53697
234.864	332.66067
235.404	356.74473
235.944	316.66428
236.484	362.79613
237.023	338.7005
237.563	329.66645
238.102	337.69983
238.641	322.72154
239.18	314.64378
239.719	317.70522
240.258	348.6838
240.797	351.73313
241.335	366.78496
241.874	352.58053
242.412	321.67821
242.95	275.58077
243.488	350.69649
244.026	280.56992
244.564	380.67075
245.102	346.67442
245.64	375.78916
246.177	392.75646
246.715	396.82473
247.252	328.66093
247.789	432.68765
248.326	306.64298
248.863	267.5156
249.4	336.66614
249.936	342.6065
250.473	369.74269
251.009	352.69656
251.546	369.69891
252.082	273.52668
252.618	330.63681
253.154	301.63372
253.69	366.71001
254.226	330.68637
254.761	337.65578
255.297	339.63989
255.832	323.66567
256.367	339.69362
256.903	385.72067
257.438	367.74546
257.972	365.6981
258.507	288.57418
259.042	322.60496
259.576	300.55641
260.111	351.70223
260.645	375.69397
261.179	317.64126
261.713	363.69024
262.247	321.6431
262.781	355.63235
263.315	368.77426
263.849	372.80058
264.382	375.73947
264.915	316.63938
265.449	329.68749
265.982	372.72476
266.515	370.77402
267.048	320.58019
267.58	378.70529
268.113	340.62589
268.646	345.73338
269.178	299.57518
269.71	392.7238
270.243	391.7587
270.775	402.87257
271.307	439.89456
271.838	419.8472
272.37	398.83295
272.902	428.81801
273.433	321.60086
273.965	382.79239
274.496	374.79866
275.027	391.825
275.558	384.79085
276.089	340.71126
276.62	390.85013
277.15	431.89942
277.681	394.72021
278.211	383.80139
278.741	358.663
279.272	404.77064
279.802	385.8184
280.332	387.76743
280.861	401.81341
281.391	393.74474
281.921	430.86964
282.45	426.89746
282.98	409.90419
283.509	403.75511
284.038	385.73457
284.567	422.82491
285.096	451.9048
285.625	375.71202
286.153	356.70183
286.682	420.79339
287.21	419.83749
287.739	405.796
288.267	436.87127
288.795	473.03493
289.323	387.74878
289.851	427.82579
290.378	432.79408
290.906	385.77239
291.433	436.89955
291.961	426.78659
292.488	430.88558
293.015	418.80509
293.542	411.85997
294.069	405.82115
294.596	489.98692
295.122	460.89153
295.649	447.79709
296.175	437.86983
296.702	474.93491
297.228	456.90575
297.754	419.76263
298.28	481.86929
298.806	463.8967
299.332	446.78524
299.857	493.87961
300.383	493.00961
300.908	445.86472
301.433	414.81465
301.958	516.94519
302.483	484.96316
303.008	517.01728
303.533	494.03791
304.058	520.96934
304.582	443.83171
305.107	474.9898
305.631	530.94541
306.155	444.81737
306.679	502.91212
307.203	520.93428
307.727	487.90713
308.251	553.06117
308.775	487.89498
309.298	456.85296
309.822	549.0753
310.345	542.98532
310.868	520.95684
311.391	569.0746
311.914	538.03507
312.437	538.93639
312.96	541.96529
313.482	549.98311
314.005	564.07581
314.527	552.10899
315.049	628.19292
315.571	519.85209
316.093	638.16429
316.615	584.04027
317.137	633.98291
317.659	655.16433
318.18	601.07089
318.702	600.011
319.223	617.88611
319.744	625.99264
320.265	560.98811
320.786	612.08463
321.307	673.18773
321.828	617.98217
322.348	656.07682
322.869	644.05178
323.389	682.68781
323.909	699.0913
324.43	708.18506
324.95	697.06859
325.47	685.14552
325.989	730.13754
326.509	715.01005
327.029	715.03825
327.548	665.97253
328.067	737.15016
328.587	777.26507
329.106	763.09045
329.625	757.34329
330.144	688.01344
330.662	724.0504
331.181	829.18298
331.7	809.15648
332.218	841.05639
332.736	800.13389
333.255	809.12179
333.773	878.21524
334.291	901.34771
334.808	832.05267
335.326	894.12615
335.844	882.13184
336.361	862.2554
336.879	909.14717
337.396	923.21367
337.913	905.1065
338.43	937.08663
338.947	937.17866
339.464	870.9356
339.981	928.13524
340.497	923.2153
341.014	969.20906
341.53	971.05238
342.046	984.21032
342.562	1052.3094
343.078	1027.15057
343.594	1076.20749
344.11	1035.16052
344.626	1063.28206
345.141	1069.07238
345.657	1094.09097
346.172	1060.16217
346.687	1068.05574
347.202	1105.01827
347.717	1140.1557
348.232	1181.27411
348.747	1180.07178
349.261	1077.88212
349.776	1179.09457
350.29	1203.168
350.805	1202.21661
351.319	1176.04884
351.833	1179.95429
352.347	1252.06434
352.861	1208.01143
353.374	1239.02161
353.888	1261.11049
354.401	1289.98837
354.915	1238.87486
355.428	1272.1168
355.941	1304.96176
356.454	1335.92879
356.967	1317.00921
357.48	1298.9369
357.993	1365.09375
358.505	1361.04194
359.018	1465.06389
359.53	1475.99192
360.042	1413.81492
360.554	1368.99249
361.066	1401.97983
361.578	1391.73486
362.09	1440.92607
362.602	1479.72224
363.113	1569.82538
363.625	1490.73499
364.136	1612.68037
364.647	1477.70953
365.158	1605.7603
365.669	1556.82425
366.18	1607.7705
366.691	1526.61183
367.201	1521.76737
367.712	1644.60811
368.222	1580.61074
368.733	1645.43752
369.243	1746.42794
369.753	1709.54417
370.263	1679.60057
370.773	1720.64951
371.282	1689.5044
371.792	1748.28594
372.301	1909.36933
372.811	1946.55418
373.32	1841.00017
373.829	1882.14524
374.338	2024.91358
374.847	2069.88686
375.356	2140.84982
375.865	2203.49154
376.373	2313.48842
376.882	2502.62397
377.39	2489.44501
377.898	2498.30313
378.407	2630.02421
378.915	2617.94735
379.423	2692.93748
379.93	2929.73789
380.438	2971.69347
380.946	3225.58484
381.453	3276.58236
381.96	3568.66678
382.468	3718.97624
382.975	3913.09443
383.482	4020.56788
383.989	4042.37177
384.495	4327.47314
385.002	4382.86943
385.509	4655.53185
386.015	5062.09618
386.521	5159.44685
387.028	5398.90271
387.534	5567.26118
388.04	5815.08625
388.546	5862.9373
389.051	6336.58411
389.557	6884.92839
390.063	7304.73445
390.568	7240.50275
391.073	7568.16363
391.578	7859.02038
392.084	7853.98105
392.589	8275.74267
393.093	9038.76332
393.598	9918.10868
394.103	10578.13355
394.607	11779.39919
395.112	12481.65257
395.616	13199.39065
396.12	13872.22605
396.624	15292.04664
397.128	16685.46651
397.632	18298.53443
398.136	19999.19896
398.639	21017.34691
399.143	24233.9441
399.646	26216.59923
400.15	24229.61645
400.653	19938.62934
401.156	13866.23708
401.659	5169.95759
402.162	1054.15589
402.664	0
403.167	0
403.67	0
404.172	0
404.674	0
405.176	0
405.678	0
406.18	0
406.682	0
407.184	0
407.686	0
408.187	0
408.688	0
409.19	0
409.691	0
410.192	0
410.693	0
411.194	435.30976
411.694	4082.94878
412.195	8864.71461
412.696	12089.80453
413.196	12760.96929
413.696	12863.67595
414.196	13703.56671
414.696	17261.84252
415.196	21764.24417
415.696	29583.19008
416.196	30515.23072
416.695	24791.63095
417.195	22770.23326
417.694	21793.36317
418.194	20532.83259
418.693	18863.80703
419.192	19028.80996
419.691	18424.38098
420.19	18443.84939
420.688	17728.1432
421.187	16692.52147
421.685	15503.56835
422.184	13500.69921
422.682	11699.64025
423.18	10094.89291
423.678	9092.73414
424.176	8192.42758
424.674	7951.67191
425.172	7548.68674
425.669	6964.85984
426.167	6442.74472
426.664	5891.14352
427.161	5434.8844
427.659	4977.19113
428.156	4588.40306
428.652	4513.44715
429.149	4277.95757
429.646	4051.61645
430.143	3960.98679
430.639	3555.70086
431.135	3371.57548
431.632	3227.58827
432.128	2986.67161
432.624	2875.79367
433.12	2686.77856
433.616	2684.7952
434.111	2450.9913
434.607	2433.10037
435.103	2491.03014
435.598	2284.17664
436.093	2237.48754
436.588	2165.56133
437.083	2044.72364
437.578	1899.90462
438.073	1732.12017
438.568	1801.2336
439.062	1721.00638
439.557	1669.31004
440.051	1461.28855
440.546	1467.31398
441.04	1491.45236
441.534	1415.63222
442.028	1429.5639
442.522	1448.56458
443.015	1375.42119
443.509	1377.678
444.002	1285.67775
444.496	1329.48639
444.989	1266.71815
445.482	1186.74401
445.975	1129.55165
446.468	1188.49916
446.961	1134.50655
447.454	1202.62709
447.947	1090.67449
448.439	1090.76835
448.931	1121.62153
449.424	1134.88404
449.916	1029.77646
450.408	963.62298
450.9	986.75708
451.392	981.84182
451.884	972.71158
452.375	828.74386
452.867	979.72644
453.358	898.66641
453.849	845.57854
454.341	871.67404
454.832	791.58504
455.323	839.78117
455.814	786.69161
456.304	806.71333
456.795	853.73551
457.285	857.73272
457.776	901.80759
458.266	748.74221
458.756	758.78991
459.247	644.67763
459.737	626.6698
460.226	659.63988
460.716	610.68081
461.206	673.75402
461.695	604.75865
462.185	627.71092
462.674	667.72839
463.163	687.7036
463.653	617.5989
464.142	548.67949
464.63	619.78489
465.119	589.68654
465.608	623.7209
466.096	551.61832
466.585	620.75219
467.073	523.69761
467.561	555.74087
468.05	571.72791
468.538	505.71868
469.026	513.70435
469.513	544.61489
470.001	514.65669
470.489	480.66134
470.976	453.61944
471.463	449.69041
471.951	453.70893
472.438	435.62365
472.925	329.48463
473.412	416.658
473.899	426.61514
474.385	383.61539
474.872	353.53214
475.359	375.60184
475.845	358.4692
476.331	346.49581
476.817	356.58942
477.303	321.50518
477.789	293.48979
478.275	219.38704
478.761	316.53216
479.247	333.51437
479.732	225.40304
480.218	285.53769
480.703	248.44849
481.188	214.32809
481.673	206.34386
482.158	198.29906
482.643	279.52844
483.128	152.25763
483.612	221.38324
484.097	225.41678
484.581	174.30823
485.066	144.26893
485.55	171.28144
486.034	111.1838
486.518	120.21734
487.002	137.25973
487.486	125.23895
487.969	134.25609
488.453	177.35214
488.936	111.19668
489.42	110.19262
489.903	169.33968
490.386	141.17582
490.869	134.23205
491.352	125.24904
491.835	139.22787
492.318	90.16367
492.8	72.12031
493.283	112.23192
493.765	62.12568
494.247	126.24139
494.73	57.10373
495.212	100.20085
495.694	41.07933
496.175	-3.00593
496.657	42.08366
497.139	36.05222
497.62	-12.02391
498.102	1.0021
498.583	25.05329
499.064	-11.02069
499.545	35.0673
500.026	-13.02477
500.507	49.09594
500.988	18.03826
501.469	-30.06462
501.949	40.08457
502.43	-63.1292
502.91	-16.02816
503.39	0
503.87	8.01605
504.35	34.06902
504.83	6.01123
505.31	-58.12257
505.79	-21.0434
506.269	-10.0203
506.749	-42.08323
507.228	-20.0406
507.707	-32.06157
508.187	51.10506
508.666	-52.11168
509.145	-66.1352
509.623	-19.03884
510.102	-46.09807
510.581	12.02533
511.059	-59.13007
511.538	-48.11013
512.016	-35.07363
512.494	13.02759
512.972	-42.08841
513.45	-73.14842
513.928	-61.13075
514.406	-99.21064
514.884	-55.12536
515.361	-29.06117
515.839	-52.10464
516.316	-43.09149
516.793	-39.08788
517.27	-46.09951
517.747	-69.1579
518.224	-48.0989
518.701	-79.15746
519.178	-67.14758
519.654	-101.21761
520.131	-89.19785
520.607	-24.05307
521.083	-76.15554
521.56	-73.15465
522.036	-56.11009
522.512	-53.11762
522.987	-125.26793
523.463	-68.14503
523.939	-52.11461
524.414	-57.11853
524.89	-61.13013
525.365	-105.21552
525.84	-140.30157
526.315	-122.2672
526.79	-33.06651
527.265	-59.12099
527.74	-81.17834
528.215	-121.26025
528.689	-106.2132
529.164	-68.13361
529.638	-72.16791
530.112	-102.21802
530.587	-101.19504
531.061	-117.25674
531.534	-60.1318
532.008	-132.29032
532.482	-71.14804
532.956	-139.32409
533.429	-80.17625
533.903	-43.08599
534.376	-73.14645
534.849	-71.14955
535.322	-60.12836
535.795	-97.21679
536.268	-100.21948
536.741	-75.16423
537.213	-25.0521
537.686	-120.26759
538.158	-131.26889
538.631	-51.11281
539.103	-112.22942
539.575	-63.11967
540.047	-61.12187
540.519	-48.10429
540.991	-72.16115
541.463	-51.11215
541.934	-62.12896
542.406	-51.10998
542.877	-58.11886
543.348	-49.10761
543.82	-59.13197
544.291	-25.05287
544.762	-48.10282
545.233	-87.19869
545.703	-72.14441
546.174	-11.02296
546.645	-78.16809
547.115	-27.05837
547.585	8.0164
548.056	-62.13396
548.526	9.01867
548.996	16.03414
549.466	102.21764
549.935	17.03529
550.405	41.07826
550.875	52.10729
551.344	61.1277
551.814	86.17106
552.283	93.17493
552.752	83.16582
553.221	58.10827
553.69	119.22494
554.159	98.20565
554.628	105.19906
555.096	79.17248
555.565	127.24077
556.033	125.25368
556.502	130.27184
556.97	119.22836
557.438	118.24379
557.906	127.26386
558.374	101.20403
558.842	109.22929
559.31	140.27457
559.777	107.22766
560.245	196.40131
560.712	208.41835
561.18	178.34167
561.647	189.36743
562.114	206.4063
562.581	272.57708
563.048	356.69193
563.514	257.54252
563.981	347.67106
564.448	343.64903
564.914	392.76554
565.381	416.78929
565.847	423.82628
566.313	450.86756
566.779	476.88026
567.245	491.94184
567.711	538.04451
568.176	517.93771
568.642	571.15488
569.108	578.14262
569.573	669.24102
570.038	709.13919
570.504	636.11323
570.969	713.39845
571.434	699.17156
571.899	786.42197
572.363	823.40108
572.828	877.48686
573.293	857.45835
573.757	877.48606
574.222	851.39448
574.686	842.38852
575.15	894.56447
575.614	947.56702
576.078	938.59789
576.542	965.57934
577.006	955.54467
577.469	1027.84165
577.933	921.48445
578.396	942.63748
578.86	960.64251
579.323	941.63272
579.786	882.38493
580.249	877.46603
580.712	843.55595
581.175	831.55059
581.637	921.56001
582.1	914.4644
582.563	881.39014
583.025	827.51418
583.487	838.23234
583.95	718.17234
584.412	781.23182
584.874	699.32579
585.336	655.22224
585.797	690.15107
586.259	693.28243
586.721	605.13044
587.182	670.2401
587.643	656.17305
588.105	697.29113
588.566	606.01004
589.027	541.0551
589.488	605.10088
589.949	580.13586
590.41	516.80268
590.87	576.06154
591.331	542.94885
591.791	561.04237
592.252	531.98273
592.712	492.9768
593.172	502.92464
593.632	578.01839
594.092	542.97982
594.552	502.88202
595.011	447.84915
595.471	503.9216
595.931	493.901
596.39	526.02652
596.849	484.92909
597.308	561.98239
597.768	525.09467
598.227	513.01508
598.685	590.09283
599.144	520.99483
599.603	573.09751
600.062	585.97394
600.52	524.94775
600.978	612.1619
601.437	665.2005
601.895	628.04623
602.353	687.19042
602.811	722.23632
603.269	685.28971
603.727	739.37249
604.184	723.25295
604.642	793.49125
605.099	831.45433
605.557	801.49746
606.014	807.29644
606.471	863.61915
606.928	881.36938
607.385	987.73174
607.842	1053.69907
608.299	1036.72571
608.755	1018.76812
609.212	1031.61203
609.668	1072.63919
610.125	1170.96691
610.581	1188.97028
611.037	1104.78625
611.493	1152.9166
611.949	1111.89518
612.405	1112.50992
612.861	1193.9629
613.316	1162.94494
613.772	1223.92392
614.227	1202.96414
614.683	1198.75135
615.138	1134.87106
615.593	1160.88782
616.048	1182.88952
616.503	1223.11593
616.958	1168.08808
617.412	1244.0343
617.867	1134.74987
618.321	1159.65407
618.776	1164.80379
619.23	1187.96484
619.684	1178.87563
620.138	1216.99044
620.592	1133.99597
621.046	1183.98293
621.5	1079.93317
621.954	1134.83913
622.407	1129.80795
622.861	988.81917
623.314	1057.77864
623.768	1017.77429
624.221	979.41663
624.674	978.7065
625.127	1000.77065
625.58	951.66667
626.033	928.57911
626.485	829.57511
626.938	898.67626
627.39	866.58853
627.843	883.60638
628.295	836.53954
628.747	830.58122
629.199	774.42372
629.651	715.33377
630.103	730.37156
630.555	693.20847
631.006	703.37102
631.458	673.33045
631.909	719.37573
632.361	600.19728
632.812	580.14926
633.263	596.09683
633.714	563.03986
634.165	574.20788
634.616	593.21753
635.067	556.07439
635.518	565.17561
635.968	566.98359
636.419	488.94083
636.869	562.17014
637.319	483.9936
637.769	466.92993
638.219	528.11727
638.669	456.97711
639.119	509.10587
639.569	470.01645
640.019	479.99425
640.468	436.88137
640.918	452.9865
641.367	380.78261
641.816	395.80893
642.265	411.86834
642.714	417.88063
643.163	386.81606
643.612	329.73283
644.061	348.68058
644.51	417.86711
644.958	351.71459
645.406	358.79328
645.855	375.85082
646.303	355.77204
646.751	360.75843
647.199	376.79075
647.647	356.76055
648.095	283.61207
648.543	351.67067
648.99	331.73911
649.438	347.76266
649.885	346.80046
650.333	365.6569
650.78	326.73831
651.227	286.658
651.674	328.70104
652.121	290.66773
652.568	322.73489
653.015	325.77436
653.461	288.64855
653.908	316.69439
654.354	310.6998
654.801	239.53657
655.247	300.62481
655.693	273.67781
656.139	227.52342
656.585	285.65033
657.031	198.44589
657.477	253.52329
657.922	251.55354
658.368	253.59891
658.813	283.62933
659.259	199.4627
659.704	232.52074
660.149	224.50403
660.594	241.55082
661.039	186.41304
661.484	253.5822
661.929	228.51597
662.373	173.42532
662.818	220.52814
663.262	185.43405
663.707	211.51854
664.151	174.41597
664.595	158.37382
665.039	258.61864
665.483	204.50495
665.927	239.54537
666.371	134.30585
666.814	187.43737
667.258	160.37151
667.701	215.45426
668.145	237.57229
668.588	193.46324
669.031	172.39669
669.474	185.43677
669.917	177.38676
670.36	222.53577
670.803	219.51583
671.245	191.39665
671.688	195.46644
672.13	116.25931
672.573	201.4998
673.015	152.36102
673.457	122.26551
673.899	194.46147
674.341	169.40224
674.783	165.39016
675.225	200.48177
675.666	138.32852
676.108	144.31179
676.549	210.48799
676.991	149.32695
677.432	138.27513
677.873	147.33815
678.314	150.35531
678.755	158.38032
679.196	137.3125
679.637	163.39436
680.078	112.26273
680.518	172.39748
680.959	152.3613
681.399	142.34943
681.839	171.41137
682.28	156.3809
682.72	108.2479
683.16	144.35566
683.6	139.31681
684.039	136.28426
684.479	106.26008
684.919	39.09122
685.358	155.38977
685.798	116.30258
686.237	173.41429
686.676	171.39415
687.115	127.29833
687.554	143.33814
687.993	85.19029
688.432	101.23225
688.871	101.23048
689.309	132.31448
689.748	145.30408
690.186	130.31043
690.625	100.2355
691.063	107.25722
691.501	129.31809
691.939	147.36393
692.377	109.2662
692.815	68.16418
693.253	103.24883
693.69	44.09873
694.128	93.22619
694.565	150.35613
695.003	104.2641
695.44	101.23855
695.877	71.16756
696.314	69.15115
696.751	129.29521
697.188	84.19482
697.625	166.37964
698.061	68.1648
698.498	143.34506
698.934	143.34324
699.371	100.23651
699.807	133.31437
700.243	91.22025
700.679	86.197
701.115	149.35014
701.551	141.3316
701.987	98.2226
702.422	118.28059
702.858	105.25117
703.294	134.30412
703.729	116.28419
704.164	120.28907
704.599	60.13595
705.035	73.16551
705.47	90.22
705.904	100.23431
706.339	123.28724
706.774	101.2379
707.209	69.16107
707.643	102.24608
708.078	99.24205
708.512	48.12133
708.946	132.31629
709.38	100.23834
709.814	134.30671
710.248	147.35672
710.682	74.17772
711.116	97.23221
711.549	111.28631
711.983	90.20972
712.416	137.3237
712.85	95.23778
713.283	147.34665
713.716	159.39666
714.149	171.40465
714.582	95.2153
715.015	170.42187
715.448	159.39767
715.881	119.26222
716.313	82.19394
716.746	101.23892
717.178	100.24144
717.61	88.22419
718.043	110.27458
718.475	83.2027
718.907	164.41188
719.339	89.20342
719.77	61.14625
720.202	120.303
720.634	113.27504
721.065	146.34476
721.497	106.26046
721.928	107.26306
722.359	59.14371
722.79	96.23082
723.221	145.36305
723.652	149.38205
724.083	98.2226
724.514	99.22901
724.945	86.20371
725.375	82.19176
725.806	133.3312
726.236	112.28694
726.666	136.3214
727.096	118.28963
727.526	85.21673
727.956	60.13827
728.386	150.36721
728.816	93.23588
729.246	77.1884
729.675	85.21021
730.105	119.29289
730.534	96.22599
730.964	142.35727
731.393	153.37796
731.822	105.26839
732.251	147.37058
732.68	86.20442
733.109	101.24951
733.537	64.1561
733.966	101.25134
734.395	130.30006
734.823	125.28271
735.251	66.16056
735.68	152.37831
736.108	127.32039
736.536	116.27414
736.964	83.19421
737.392	102.25571
737.82	92.22204
738.247	134.32023
738.675	182.43027
739.102	71.17854
739.53	100.25476
739.957	92.2371
740.384	128.31533
740.811	107.27139
741.238	75.18439
741.665	73.17088
742.092	158.37483
742.519	96.23807
742.945	98.23617
743.372	114.28208
743.798	158.40236
744.225	59.14189
744.651	128.32008
745.077	86.21537
745.503	100.24472
745.929	50.1215
746.355	158.39009
746.781	99.24591
747.207	56.13286
747.632	52.12806
748.058	88.22046
748.483	104.24044
748.908	94.23421
749.334	112.2751
749.759	119.28052
750.184	81.19413
750.609	134.32804
751.033	119.28161
751.458	98.22133
751.883	113.27997
752.307	35.08369
752.732	95.23752
753.156	86.21327
753.58	133.3151
754.005	126.31872
754.429	67.15898
754.853	76.1893
755.277	95.22577
755.7	113.28007
756.124	75.18711
756.548	97.23061
756.971	70.17226
757.394	117.30053
757.818	111.28502
758.241	103.26124
758.664	99.25011
759.087	67.1511
759.51	94.23447
759.933	70.16965
760.356	103.26393
760.778	101.24859
761.201	119.2891
761.623	136.32861
762.046	102.24282
762.468	145.34645
762.89	138.33884
763.312	135.3281
763.734	113.27185
764.156	94.2326
764.578	110.2536
765	93.22755
765.421	66.16844
765.843	112.29274
766.264	124.29893
766.686	143.35662
767.107	105.25452
767.528	44.11205
767.949	57.14601
768.37	98.2408
768.791	108.26135
769.212	46.11653
769.632	42.0991
770.053	97.25514
770.473	98.23867
770.894	129.32148
771.314	111.26521
771.734	89.20825
772.154	94.24141
772.575	93.21641
772.994	29.06695
773.414	67.16216
773.834	88.22038
774.254	82.20142
774.673	92.22456
775.093	69.17158
775.512	49.12176
775.931	77.19578
776.351	62.15488
776.77	60.14765
777.189	74.17698
777.607	75.19205
778.026	111.27562
778.445	12.03044
778.864	73.18784
779.282	65.15738
779.701	59.14959
780.119	47.11963
780.537	40.10071
780.955	73.18633
781.373	46.11474
781.791	53.12026
782.209	122.28014
782.627	55.14555
783.045	29.06764
783.462	60.15399
783.88	37.09646
784.297	13.03314
784.715	43.11115
785.132	46.11232
785.549	44.11091
785.966	67.16909
786.383	49.1214
786.8	44.10326
787.217	13.03129
787.633	42.1056
788.05	78.18598
788.466	67.15892
788.883	23.05925
789.299	56.13572
789.715	57.13936
790.131	37.09281
790.547	42.10571
790.963	51.12737
791.379	58.14724
791.795	4.0093
792.21	11.02612
792.626	11.02649
793.041	42.10446
793.457	30.07489
793.872	17.04053
794.287	18.04349
794.702	38.09444
795.117	5.01259
795.532	-9.02291
795.947	24.05847
796.362	57.13697
796.776	95.22246
797.191	15.03718
797.605	-53.1277
798.02	23.05659
798.434	46.10342
798.848	24.05971
799.262	15.03764
799.676	47.11547
800.09	17.04232
800.504	34.08327
800.918	42.09814
801.331	47.12383
801.745	9.02099
802.158	20.05052
802.572	21.05153
802.985	41.09991
803.398	35.08423
803.811	86.22079
804.224	38.0953
804.637	0
805.05	27.0633
805.462	61.15042
805.875	0
806.288	-12.02943
806.7	27.06846
807.112	15.03525
807.525	24.05982
807.937	30.07478
808.349	50.12585
808.761	7.01744
809.173	16.03923
809.584	48.1193
809.996	-15.03734
810.408	45.11664
810.819	85.19967
811.231	108.27717
811.642	81.19287
812.053	108.25523
812.464	62.14783
812.875	41.10535
813.286	25.06487
813.697	53.12465
814.108	32.07883
814.519	32.07207
814.929	59.15086
815.34	28.06852
815.75	2.00514
816.16	11.02773
816.571	41.10704
816.981	9.02154
817.391	-16.0393
817.801	34.08502
818.211	46.11031
818.62	12.02922
819.03	30.07413
819.44	74.19316
819.849	-32.08213
820.259	53.13609
820.668	-33.08272
821.077	6.01507
821.486	-14.03429
821.895	37.09204
822.304	19.05075
822.713	12.02871
823.122	26.06542
823.531	18.04313
823.939	-7.01731
824.348	39.09542
824.756	18.04552
825.164	59.14879
825.573	9.02283
825.981	27.06751
826.389	53.13357
826.797	15.03794
827.205	-10.02333
827.612	43.10666
828.02	-8.01907
828.428	12.03086
828.835	-3.00799
829.243	53.12678
829.65	42.10492
830.057	27.06606
830.464	6.01479
830.871	35.08439
831.278	-3.00735
831.685	14.03163
832.092	29.07154
832.499	4.00888
832.905	21.0536
833.312	0
833.718	49.12251
834.124	15.03467
834.531	34.08622
834.937	20.05174
835.343	22.05356
835.749	71.16587
836.155	1.00265
836.561	-1.00249
836.966	33.08122
837.372	25.06408
837.777	-16.04044
838.183	11.02477
838.588	26.06502
838.993	0
839.399	9.02223
839.804	2.00493
840.209	7.01799
840.613	21.04719
841.018	15.03832
841.423	-26.06773
841.828	20.05097
842.232	68.16839
842.637	-12.02874
843.041	-12.03115
843.445	31.07821
843.849	-11.0276
844.253	12.02882
844.657	-16.04085
845.061	-18.04155
845.465	23.05598
845.869	3.00706
846.272	-18.04449
846.676	11.02687
847.079	16.04101
847.483	54.13494
847.886	44.10748
848.289	-3.00809
848.692	31.07893
849.095	-2.00486
849.498	86.21708
849.901	1.00232
850.304	45.10793
850.707	20.05137
851.109	46.11673
851.512	-22.0549
851.914	-18.04599
852.316	34.0864
852.718	-47.12354
853.121	-13.03229
853.523	16.03774
853.925	41.10726
854.326	-15.038
854.728	52.13387
855.13	-21.0549
855.531	10.02413
855.933	45.10838
856.334	-9.02271
856.736	-37.08457
857.137	9.02114
857.538	11.02789
857.939	26.06462
858.34	40.09785
858.741	30.07879
859.142	-16.039
859.542	48.12683
859.943	45.1121
860.343	-6.01503
860.744	43.10525
861.144	-11.02718
861.544	-23.05613
861.945	14.03596
862.345	50.1225
862.745	19.04756
863.145	23.05537
863.544	3.00765
863.944	3.00717
864.344	29.07243
864.743	30.07483
865.143	29.07486
865.542	-6.0141
865.941	14.03493
866.34	33.07945
866.74	28.07549
867.139	-33.08038
867.537	8.02056
867.936	-12.02927
868.335	-6.01544
868.734	29.07447
869.132	5.01174
869.531	8.01953
869.929	-71.16607
870.327	-8.01942
870.726	17.0427
871.124	35.08219
871.522	42.10726
871.92	26.0645
872.318	14.0345
872.715	53.13131
873.113	20.04907
873.511	-10.02521
873.908	-16.04091
874.306	16.04008
874.703	22.05539
875.1	37.09498
875.497	12.02902
875.894	-21.05218
876.291	26.06417
876.688	15.03896
877.085	24.05795
877.482	-7.01772
877.878	15.03639
878.275	10.02561
878.671	33.07388
879.068	18.04377
879.464	6.01464
879.86	23.05474
880.256	-10.02498
880.652	-10.02573
881.048	40.09941
881.444	8.01922
881.84	12.03073
882.236	9.02282
882.631	-2.00496
883.027	40.09716
883.422	4.01032
883.817	-14.03562
884.213	45.11567
884.608	-8.01985
885.003	-13.03175
885.398	-20.05074
885.793	1.00253
886.188	-31.07826
886.582	42.10798
886.977	29.06918
887.371	15.03821
887.766	-24.06054
888.16	37.09264
888.554	52.12867
888.949	6.0152
889.343	46.11257
889.737	-22.05936
890.131	-16.04065
890.525	-15.03883
890.918	-21.05357
891.312	32.07691
891.706	4.01058
892.099	-1.00257
892.492	21.04565
892.886	16.03943
893.279	25.06402
893.672	-21.05417
894.065	34.08545
894.458	38.09585
894.851	41.10073
895.244	8.0206
895.637	30.0726
896.029	11.02711
896.422	15.03692
896.814	47.117
897.206	-45.1092
897.599	43.10658
897.991	-32.07863
898.383	-7.01674
898.775	-52.11993
899.167	-44.10459
899.559	28.07121
899.951	10.02378
900.342	49.12472
900.734	-37.09331
901.125	9.02379
901.517	22.05432
901.908	-8.01941
902.299	-32.07947
902.69	-4.00954
903.082	47.11397
903.473	-5.01211
903.863	19.04877
904.254	-14.03293
904.645	25.06251
905.036	-11.02695
905.426	54.12365
905.817	7.01732
906.207	-51.12395
906.597	-18.04269
906.987	35.091
907.378	29.07366
907.768	29.07697
908.158	-12.02962
908.547	11.02862
908.937	6.01552
909.327	24.0586
909.717	47.11946
910.106	3.00727
910.495	17.04272
910.885	-12.03074
911.274	51.12751
911.663	25.06377
912.052	44.10876
912.441	11.02818
912.83	3.00696
913.219	-12.03175
913.608	13.03208
913.997	-49.12507
914.385	47.11243
914.774	-26.06424
915.162	-6.01446
915.55	12.02926
915.939	7.01781
916.327	15.03769
916.715	-15.03868
917.103	85.20797
917.491	38.09427
917.878	-1.00248
918.266	13.03394
918.654	5.01288
919.041	-13.03431
919.429	-1.00238
919.816	36.09152
920.203	25.06094
920.591	9.02249
920.978	3.00741
921.365	9.02378
921.752	12.02883
922.139	18.03937
922.525	3.00727
922.912	17.04173
923.299	-4.01004
923.685	0
924.072	6.01397
924.458	0
924.844	-15.03757
925.231	-26.06145
925.617	-16.04118
926.003	62.15817
926.389	13.03302
926.774	9.02298
927.16	39.09709
927.546	3.00772
927.931	0
928.317	13.03018
928.702	-3.00717
929.088	-27.06483
929.473	19.04862
929.858	-18.04408
930.243	7.01694
930.628	-10.02461
931.013	-8.02004
931.398	28.06471
931.783	-8.02127
932.167	-6.01483
932.552	34.08545
932.937	26.06483
933.321	-7.01775
933.705	41.10355
934.09	28.07106
934.474	12.02872
934.858	-8.02096
935.242	-56.13255
935.626	17.04377
936.009	-20.05382
936.393	39.09944
936.777	-5.01293
937.16	27.07054
937.544	37.08742
937.927	-36.09275
938.311	26.06377
938.694	54.14273
939.077	47.1126
939.46	62.15195
939.843	0
940.226	8.02068
940.609	6.0139
940.991	-10.02573
941.374	23.05651
941.757	36.08908
942.139	-36.0823
942.522	54.12757
942.904	44.10591
943.286	34.08665
943.668	49.12696
944.05	9.02234
944.432	-2.00498
944.814	37.09137
945.196	-32.07918
945.578	-50.12113
945.959	9.02127
946.341	38.09351
946.722	23.05428
947.104	10.02409
947.485	-24.05667
947.866	-16.04079
948.247	7.0178
948.628	29.07104
949.009	-7.01811
949.39	-19.0479
949.771	-26.0614
950.152	-1.00248
950.532	-53.13285
950.913	14.03401
951.293	-6.01636
951.674	19.04623
952.054	-16.04013
952.434	-6.01505
952.814	12.02877
953.194	31.0814
953.574	6.0149
953.954	-36.08692
954.334	7.01758
954.714	-57.14169
955.093	22.05438
955.473	20.05029
955.853	22.05723
956.232	46.12616
956.611	36.08659
956.99	-4.01015
957.37	34.08689
957.749	15.03603
958.128	-4.01018
958.506	-13.03409
958.885	22.05581
959.264	0
959.643	-7.01612
960.021	2.005
960.4	10.02285
960.778	26.06434
961.156	1.00253
961.535	36.08415
961.913	-16.03793
962.291	-47.12262
962.669	-17.04358
963.047	4.01029
963.424	-14.03613
963.802	3.00744
964.18	39.09888
964.557	10.02322
964.935	10.02388
965.312	3.00787
965.69	63.1574
966.067	-1.00246
966.444	5.01242
966.821	-13.03388
967.198	41.09965
967.575	41.10099
967.952	11.02612
968.329	13.03186
968.705	-24.0523
969.082	3.00776
969.458	1.00242
969.835	14.03431
970.211	5.01293
970.587	22.05506
970.963	37.09514
971.339	-31.08206
971.715	6.0151
972.091	-14.03488
972.467	36.09003
972.843	-42.10598
973.219	69.16512
973.594	-29.07687
973.97	63.14961
974.345	-20.04851
974.721	25.06083
975.096	6.01464
975.471	32.07618
975.846	28.06755
976.221	-10.02566
976.596	-29.07056
976.971	-2.00499
977.346	-6.01412
977.72	-35.0905
978.095	27.07006
978.469	41.09804
978.844	29.07319
979.218	-36.08771
979.593	53.12693
979.967	29.07093
980.341	11.02553
980.715	22.05571
981.089	14.03528
981.463	-10.02324
981.837	-21.05199
982.21	9.02112
982.584	-26.0637
982.957	-41.10406
983.331	3.00716
983.704	-7.01738
984.078	34.08404
984.451	27.06773
984.824	-43.10654
985.197	-17.04181
985.57	9.02274
985.943	47.11615
986.316	69.16895
986.688	-1.00243
987.061	4.00946
987.434	-6.01578
987.806	58.14046
988.179	-30.07189
988.551	27.06877
988.923	-14.03488
989.295	26.06525
989.667	-5.01207
990.039	-48.12073
990.411	-16.03731
990.783	7.01626
991.155	-19.04625
991.527	62.15235
991.898	-45.11405
992.27	-12.03002
992.641	54.13538
993.012	50.11766
993.384	-3.00723
993.755	13.03336
994.126	7.01697
994.497	-29.07222
994.868	-9.02092
995.239	-3.00734
995.61	15.03798
995.98	-15.03688
996.351	-24.06023
996.722	4.00936
997.092	-17.04077
997.462	-35.08312
997.833	16.03818
998.203	45.1092
998.573	7.01757
998.943	21.04952
999.313	-2.00484
999.683	0
1000.053	8.01856
1000.423	3.00735
1000.792	3.00784
1001.162	23.05688
1001.531	37.09144
1001.901	40.09988
1002.27	-10.02263
1002.639	22.05648
1003.009	18.04307
1003.378	6.01546
1003.747	4.00953
1004.116	-12.02905
1004.485	23.05525
1004.853	37.09394
1005.222	18.04565
1005.591	62.14686
1005.959	-27.06179
1006.328	-5.01138
1006.696	-16.03907
1007.064	-8.02033
1007.433	58.14473
1007.801	28.06901
1008.169	38.09616
1008.537	-16.03591
1008.905	-26.06147
1009.273	7.01743
1009.64	-36.08728
1010.008	23.0551
1010.375	83.20028
1010.743	47.10859
1011.11	-23.05519
1011.478	13.03239
1011.845	0
1012.212	18.041
1012.579	-13.03228
1012.946	1.0024
1013.313	47.11191
1013.68	13.02944
1014.047	-25.06042
1014.414	-8.0191
1014.78	31.07728
1015.147	41.09931
1015.513	10.02427
1015.88	42.10753
1016.246	58.14294
1016.612	49.11218
1016.978	1.00247
1017.344	69.16989
1017.71	58.1412
1018.076	33.07806
1018.442	53.13624
1018.808	29.07274
1019.174	10.02526
1019.539	53.12192
1019.905	-2.00476
1020.27	34.08413
1020.636	47.11273
1021.001	2.00483
1021.366	5.01211
1021.731	12.03106
1022.096	-10.02549
1022.461	39.09247
1022.826	0
1023.191	29.07633
1023.556	-4.00947
1023.92	26.06419
1024.285	30.07347
1024.649	35.08599
1025.014	31.07703
1025.378	-22.05601
1025.742	13.03249
1026.107	16.03643
1026.471	44.10281
1026.835	28.06967
1027.199	-31.07574
1027.562	11.02576
1027.926	38.0931
1028.29	7.01784
1028.654	19.04397
1029.017	-4.00993
1029.381	6.01445
1029.744	37.09454
1030.107	46.10888
1030.471	-28.06801
1030.834	13.02979
1031.197	51.12279
1031.56	-28.06704
1031.923	-17.04444
1032.286	29.06836
1032.648	26.06244
1033.011	17.03926
1033.374	44.1035
1033.736	-7.01857
1034.099	28.0685
1034.461	-22.05626
1034.823	-5.01257
1035.185	22.05563
1035.548	19.04649
1035.91	11.02653
1036.272	-44.10201
1036.634	65.15851
1036.995	16.03784
1037.357	-13.03199
1037.719	10.02449
1038.08	33.07858
1038.442	24.05722
1038.803	0
1039.165	5.01271
1039.526	28.06791
1039.887	-1.00241
1040.248	-40.10014
1040.609	-7.01747
1040.97	-1.00247
1041.331	14.03565
1041.692	-5.01179
1042.053	34.07764
1042.413	18.04219
1042.774	6.01471
1043.134	22.05264
1043.495	38.09568
1043.855	14.03417
1044.215	29.07222
1044.576	-15.03629
1044.936	35.08045
1045.296	23.05765
1045.656	27.0665
1046.016	30.07265
1046.375	28.06817
1046.735	-25.05751
1047.095	28.06579
1047.454	17.03627
1047.814	-15.03648
1048.173	11.02646
1048.533	-21.04877
1048.892	-31.07551
1049.251	36.09055
1049.61	-11.02737
1049.969	0
1050.328	-17.03737
1050.687	13.03183
1051.046	19.04651
1051.405	10.02504
1051.763	-13.03025
1052.122	-44.11154
1052.48	7.01729
1052.839	-1.00237
1053.197	13.0308
1053.555	32.07319
1053.914	29.07117
1054.272	38.09203
1054.63	-15.0371
1054.988	4.00958
1055.345	1.00217
1055.703	9.02182
1056.061	28.07226
1056.419	9.02345
1056.776	-3.00734
1057.134	-30.07051
1057.491	-19.04814
1057.848	18.04505
1058.206	23.05434
1058.563	30.06637
1058.92	22.05096
1059.277	30.07423
1059.634	36.08488
1059.991	20.04816
1060.348	-46.10592
1060.704	-44.10668
1061.061	71.16418
1061.418	-5.01224
1061.774	-16.03995
1062.131	-9.02402
1062.487	18.04232
1062.843	21.0526
1063.199	21.05247
1063.555	-9.02108
1063.911	38.09612
1064.267	73.1514
1064.623	-35.0863
1064.979	32.07603
1065.335	50.11944
1065.691	-17.04124
1066.046	19.04203
1066.402	-5.01148
1066.757	-11.02805
1067.112	35.08608
1067.468	-22.05264
1067.823	15.03628
1068.178	26.06313
1068.533	10.02441
1068.888	41.09808
1069.243	29.0718
1069.598	-6.01472
1069.952	-41.09398
1070.307	-11.02751
1070.662	-28.06743
1071.016	-16.03631
1071.371	-28.06466
1071.725	32.07677
1072.079	-21.05115
1072.434	-31.07641
1072.788	12.02877
1073.142	25.06174
1073.496	0
1073.85	-3.00703
1074.203	-8.01961
1074.557	51.1355
1074.911	58.13813
1075.265	26.06068
1075.618	43.10505
1075.971	25.05971
1076.325	-25.06433
1076.678	-36.08369
1077.031	-4.00914
1077.385	9.01998
1077.738	-41.0942
1078.091	0
1078.444	47.10911
1078.796	-9.02231
1079.149	15.03752
1079.502	0
1079.855	-6.01414
1080.207	37.0913
1080.56	-26.06803
1080.912	26.06353
1081.264	-16.03898
1081.617	2.00491
1081.969	-17.04336
1082.321	23.0564
1082.673	-72.16824
1083.025	9.0215
1083.377	-212.48035
1083.728	24.05623
1084.08	-6.01512
1084.432	4.00972
1084.783	22.05179
1085.135	-23.05836
1085.486	-45.10484
1085.838	8.01984
1086.189	9.022
1086.54	12.02884
1086.891	-19.0486
1087.242	-10.0246
1087.593	42.10232
1087.944	15.03416
1088.295	10.0229
1088.646	18.04385
1088.996	-21.05123
1089.347	32.07872
1089.698	-23.05508
1090.048	68.17592
1090.398	-8.01875
1090.749	57.13609
1091.099	-53.13562
1091.449	-6.01509
1091.799	62.15476
1092.149	-45.11157
1092.499	11.027
1092.849	-6.01539
1093.199	47.11777
1093.548	-22.05354
1093.898	19.04776
1094.248	29.07473
1094.597	-17.04387
1094.947	16.04289
1095.296	16.03972
1095.645	48.12478
1095.994	38.0914
1096.343	70.17537
1096.692	-33.08782
1097.041	-1.00273
1097.39	-8.02026
1097.739	15.03919
1098.088	45.12056
1098.437	6.01586
1098.785	50.13468
1099.134	34.09044
1099.482	28.07721
1099.83	41.10781
1100.179	12.03147
1100.527	52.138
1100.875	1.00266
1101.223	1.00267
1101.571	3.00834
1101.919	-43.11402
1102.267	3.0085
1102.615	3.00965
1102.962	9.02898
1103.31	1.00321
1103.658	15.04829
