Data from N2 R5 sample 12_Subt2__5__11-57-11-372.txt Node

Date: Fri Aug 29 11:57:11 PDT 2025
User: uwsun
Spectrometer: HDX01956
Trigger mode: 0
Integration Time (sec): 5.000000E-1
Scans to average: 1
Nonlinearity correction enabled: true
Boxcar width: 0
Storing dark spectrum: false
XAxis mode: Wavelengths
Number of Pixels in Spectrum: 2068
>>>>>Begin Spectral Data<<<<<
194.03	158.43263
194.578	168.52017
195.127	165.50328
195.676	155.47491
196.225	196.50282
196.773	189.50246
197.321	305.77704
197.87	378.86996
198.418	361.82205
198.966	363.83161
199.513	308.67738
200.061	281.63266
200.609	416.96808
201.156	296.56598
201.704	294.6561
202.251	359.83662
202.798	365.83216
203.345	391.8449
203.892	388.85115
204.438	398.82595
204.985	313.64739
205.532	390.89578
206.078	419.88834
206.624	351.75231
207.17	426.84931
207.716	378.7953
208.262	389.65568
208.808	357.76153
209.354	341.72488
209.899	453.9914
210.445	366.79004
210.99	355.74346
211.535	373.76387
212.08	364.73785
212.625	388.84756
213.17	390.86345
213.715	326.62698
214.259	397.80088
214.804	404.86944
215.348	350.70006
215.892	423.87528
216.436	353.71801
216.98	389.74653
217.524	317.66007
218.068	345.76719
218.612	395.87033
219.155	336.6948
219.698	355.74182
220.242	338.74835
220.785	311.6444
221.328	338.74616
221.871	335.757
222.414	357.78695
222.956	282.60404
223.499	285.57071
224.041	367.75295
224.583	342.65236
225.126	329.63839
225.668	315.67895
226.21	345.76623
226.751	312.59889
227.293	372.74441
227.835	309.66944
228.376	367.74512
228.918	355.79433
229.459	351.76789
230	344.72059
230.541	342.69421
231.082	359.76381
231.622	332.67545
232.163	347.73828
232.704	336.7343
233.244	284.62854
233.784	337.7329
234.324	276.53337
234.864	337.66984
235.404	338.7099
235.944	316.66428
236.484	370.81235
237.023	383.78577
237.563	309.6288
238.102	353.73044
238.641	334.74658
239.18	303.62277
239.719	333.73835
240.258	352.69101
240.797	383.79429
241.335	409.86904
241.874	332.55058
242.412	350.73477
242.95	305.63989
243.488	376.7437
244.026	341.68443
244.564	311.55884
245.102	331.64748
245.64	384.8065
246.177	332.6499
246.715	400.83232
247.252	374.74564
247.789	336.54952
248.326	307.64493
248.863	313.59777
249.4	400.78117
249.936	348.61618
250.473	340.68889
251.009	309.61763
251.546	407.76374
252.082	362.68347
252.618	366.70018
253.154	371.76906
253.69	335.65469
254.226	361.74566
254.761	318.62161
255.297	364.68287
255.832	314.64844
256.367	386.78137
256.903	337.6383
257.438	355.72306
257.972	328.63295
258.507	343.67509
259.042	362.67342
259.576	283.5271
260.111	374.74425
260.645	410.75211
261.179	307.62245
261.713	368.69889
262.247	362.71836
262.781	332.59489
263.315	382.80124
263.849	361.77875
264.382	424.82647
264.915	384.76487
265.449	338.70489
265.982	407.78635
266.515	382.79699
267.048	323.58518
267.58	402.74561
268.113	314.58179
268.646	376.79388
269.178	325.62129
269.71	393.72547
270.243	370.72155
270.775	352.77219
271.307	414.84841
271.838	398.80862
272.37	393.8234
272.902	358.69582
273.433	368.68084
273.965	395.81698
274.496	359.76912
275.027	395.83271
275.558	406.83202
276.089	319.67044
276.62	430.92936
277.15	389.81934
277.681	383.70204
278.211	362.76097
278.741	336.62567
279.272	432.81846
279.802	413.87256
280.332	365.72753
280.861	411.83179
281.391	359.68596
281.921	447.9005
282.45	428.90128
282.98	452.99026
283.509	362.68515
284.038	428.8081
284.567	451.87555
285.096	417.84316
285.625	387.73265
286.153	383.75027
286.682	405.76786
287.21	380.76641
287.739	369.7314
288.267	381.77108
288.795	459.0072
289.323	380.73647
289.851	447.86033
290.378	375.69917
290.906	345.69854
291.433	429.8865
291.961	422.77998
292.488	465.95012
293.015	410.7912
293.542	415.86757
294.069	451.9048
294.596	460.93458
295.122	452.8777
295.649	430.77014
296.175	473.9336
296.702	488.95936
297.228	493.97079
297.754	467.83967
298.28	459.83418
298.806	462.89498
299.332	399.71111
299.857	451.81339
300.383	508.03687
300.908	413.80866
301.433	441.86226
301.958	473.8758
302.483	465.92944
303.008	493.97719
303.533	476.00397
304.058	520.96934
304.582	445.83506
305.107	486.01029
305.631	553.98059
306.155	445.81901
306.679	467.85605
307.203	465.84723
307.727	506.93809
308.251	487.95086
308.775	462.85436
309.298	501.92673
309.822	543.06503
310.345	529.96486
310.868	528.96962
311.391	575.08436
311.914	469.91875
312.437	514.90028
312.96	555.9867
313.482	525.94593
314.005	586.11191
314.527	564.13001
315.049	547.05924
315.571	507.83516
316.093	575.06579
316.615	513.93187
317.137	575.9079
317.659	639.14052
318.18	653.14816
318.702	602.01382
319.223	597.8627
319.744	552.89496
320.265	591.03293
320.786	577.03175
321.307	607.08943
321.828	685.06814
322.348	604.00559
322.869	625.02608
323.389	495.5379
323.909	701.0938
324.43	685.15367
324.95	630.98597
325.47	709.17799
325.989	653.04004
326.509	714.00895
327.029	718.04166
327.548	676.98531
328.067	708.11408
328.587	699.16261
329.106	665.98032
329.625	814.42339
330.144	781.11838
330.662	748.0773
331.181	794.14526
331.7	795.14137
332.218	815.03282
332.736	809.14345
333.255	792.10411
333.773	777.10984
334.291	886.33116
334.808	824.04538
335.326	868.10308
335.844	808.06268
336.361	838.22933
336.879	900.13929
337.396	874.16777
337.913	898.10062
338.43	880.04168
338.947	954.19311
339.464	879.94198
339.981	911.12104
340.497	959.24781
341.014	957.19899
341.53	949.03719
342.046	1054.26515
342.562	1021.28431
343.078	981.11787
343.594	992.14802
344.11	1067.18222
344.626	1078.29332
345.141	1051.06199
345.657	1107.09812
346.172	1064.16479
346.687	1038.03868
347.202	1078.00495
347.717	1125.14733
348.232	1115.23323
348.747	1099.03348
349.261	1053.87227
349.776	1118.06506
350.29	1154.14311
350.805	1201.21608
351.319	1194.05648
351.833	1120.93203
352.347	1166.03023
352.861	1150.98912
353.374	1308.04407
353.888	1274.11549
354.401	1202.96135
354.915	1230.87285
355.428	1331.13819
355.941	1247.94636
356.454	1316.92476
356.967	1247.98885
357.48	1285.93372
357.993	1305.07547
358.505	1270.01589
359.018	1433.05755
359.53	1383.97637
360.042	1366.81034
360.554	1382.99549
361.066	1327.96426
361.578	1438.73664
362.09	1440.92607
362.602	1388.72051
363.113	1463.82266
363.625	1553.73351
364.136	1603.68121
364.647	1404.70893
365.158	1588.76115
365.669	1516.82371
366.18	1523.77287
366.691	1528.61166
367.201	1533.76725
367.712	1519.62192
368.222	1587.60994
368.733	1575.45149
369.243	1736.43046
369.753	1781.52894
370.263	1619.60929
370.773	1655.65865
371.282	1721.49764
371.792	1719.2947
372.301	1841.39043
372.811	1797.59037
373.32	1846.99763
373.829	1819.16896
374.338	1996.92672
374.847	2044.89889
375.356	2080.87943
375.865	2172.50875
376.373	2290.50128
376.882	2356.70409
377.39	2343.52714
377.898	2363.37978
378.407	2564.06004
378.915	2653.92875
379.423	2697.9349
379.93	2864.76559
380.438	2966.69537
380.946	3120.60813
381.453	3313.57866
381.96	3480.65183
382.468	3650.94065
382.975	3946.11808
383.482	3829.38505
383.989	3940.28151
384.495	4083.11137
385.002	4360.82058
385.509	4609.41566
386.015	5008.89525
386.521	5276.91752
387.028	5304.46982
387.534	5413.46757
388.04	5695.44005
388.546	5950.49874
389.051	6255.97091
389.557	6763.86451
390.063	7114.94595
390.568	7047.61035
391.073	7485.25814
391.578	7886.33376
392.084	7705.197
392.589	8452.05718
393.093	9065.13242
393.598	9754.74269
394.103	10735.41186
394.607	11911.20837
395.112	12289.15054
395.616	12753.0635
396.12	14017.67648
396.624	15251.71121
397.128	16318.54702
397.632	18017.93701
398.136	19280.37221
398.639	20779.61921
399.143	23730.3475
399.646	25952.85261
400.15	24235.74018
400.653	19929.40958
401.156	13866.23708
401.659	5169.95759
402.162	1054.15589
402.664	0
403.167	0
403.67	0
404.172	0
404.674	0
405.176	0
405.678	0
406.18	0
406.682	0
407.184	0
407.686	0
408.187	0
408.688	0
409.19	0
409.691	0
410.192	0
410.693	0
411.194	435.30976
411.694	4082.94878
412.195	8864.71461
412.696	12089.80453
413.196	12760.96929
413.696	12863.67595
414.196	13703.56671
414.696	17261.84252
415.196	21764.24417
415.696	29583.19008
416.196	27434.11979
416.695	22931.50804
417.195	21872.83416
417.694	20305.36557
418.194	19015.50865
418.693	17883.94652
419.192	17955.26318
419.691	17444.57336
420.19	16837.77581
420.688	16607.54248
421.187	15617.44739
421.685	14328.29122
422.184	12480.80431
422.682	11002.50512
423.18	9459.02454
423.678	8658.16646
424.176	8039.65891
424.674	7444.30888
425.172	7122.74638
425.669	6536.61034
426.167	5926.55187
426.664	5430.86416
427.161	5043.38034
427.659	4754.58567
428.156	4272.67628
428.652	4279.09096
429.149	4070.70212
429.646	3733.31822
430.143	3551.79092
430.639	3327.66435
431.135	3211.59118
431.632	2980.63624
432.128	2831.7304
432.624	2731.86144
433.12	2576.8281
433.616	2551.85714
434.111	2437.99825
434.607	2379.13047
435.103	2309.13062
435.598	2216.21511
436.093	2097.56475
436.588	2010.64469
437.083	1812.83763
437.578	1875.91555
438.073	1586.16935
438.568	1642.28288
439.062	1570.06304
439.557	1563.33691
440.051	1450.29093
440.546	1338.337
441.04	1376.4663
441.534	1381.63258
442.028	1428.56396
442.522	1349.56922
443.015	1337.42525
443.509	1331.67614
444.002	1183.66606
444.496	1236.48944
444.989	1256.71689
445.482	1196.74597
445.975	1144.5531
446.468	1112.49546
446.961	1079.50209
447.454	1106.61415
447.947	1062.66797
448.439	1055.7575
448.931	968.58976
449.424	1052.85324
449.916	1008.76869
450.408	956.62092
450.9	886.71451
451.392	879.78981
451.884	950.70341
452.375	803.72945
452.867	947.71424
453.358	746.59743
453.849	894.5957
454.341	826.65361
454.832	809.59278
455.323	760.73195
455.814	763.67838
456.304	737.67266
456.795	750.67751
457.285	887.74788
457.776	790.74333
458.266	668.68489
458.756	714.75713
459.247	636.67134
459.737	616.66168
460.226	650.63354
460.716	609.67996
461.206	595.68634
461.695	584.7386
462.185	583.67195
462.674	620.68935
463.163	627.6578
463.653	590.57925
464.142	526.65723
464.63	602.76779
465.119	513.61469
465.608	540.64406
466.096	533.6022
466.585	547.68089
467.073	495.66637
467.561	479.65547
468.05	528.683
468.538	489.69939
469.026	492.6801
469.513	398.47478
470.001	441.57752
470.489	458.6355
470.976	421.58166
471.463	449.69041
471.951	376.60156
472.438	387.56314
472.925	368.53564
473.412	366.58722
473.899	402.5848
474.385	413.65796
474.872	352.5308
475.359	305.49923
475.845	303.40447
476.331	343.49197
476.817	319.53355
477.303	272.43413
477.789	231.39271
478.275	191.34002
478.761	273.46513
479.247	333.51437
479.732	168.30536
480.218	230.43978
480.703	214.39036
481.188	208.31945
481.673	210.35016
482.158	137.21071
482.643	247.47149
483.128	151.256
483.612	163.28701
484.097	197.36746
484.581	200.35189
485.066	141.26353
485.55	111.18574
486.034	146.23942
486.518	136.24531
487.002	78.15001
487.486	137.26113
487.969	134.25609
488.453	89.1807
488.936	80.14289
489.42	132.22981
489.903	113.23006
490.386	104.13138
490.869	101.17644
491.352	145.28754
491.835	68.11369
492.318	82.14942
492.8	57.09564
493.283	48.10082
493.765	37.07543
494.247	69.13401
494.73	53.09655
495.212	91.18316
495.694	52.10034
496.175	-42.08377
496.657	71.14046
497.139	84.12003
497.62	-21.04194
498.102	-47.09983
498.583	52.11018
499.064	-12.02258
499.545	65.12407
500.026	22.04156
500.507	23.04531
500.988	23.04883
501.469	-13.0279
501.949	-21.04499
502.43	-36.07338
502.91	-31.05478
503.39	16.03461
503.87	-19.03836
504.35	37.07505
504.83	-42.07953
505.31	-28.05878
505.79	-35.07256
506.269	-38.07763
506.749	-54.10731
507.228	-51.10426
507.707	17.03232
508.187	3.00625
508.666	-84.18164
509.145	-99.20431
509.623	-95.19755
510.102	-43.09161
510.581	19.04004
511.059	-81.17939
511.538	-2.00455
512.016	2.00417
512.494	-30.06426
512.972	-36.07568
513.45	-103.21084
513.928	-33.07031
514.406	-101.21499
514.884	-44.10006
515.361	-57.12096
515.839	-34.06813
516.316	-52.11086
516.793	-14.03139
517.27	-20.04303
517.747	-64.14631
518.224	-63.13025
518.701	-92.18393
519.178	-131.29242
519.654	-44.09364
520.131	-51.11248
520.607	-44.09771
521.083	-114.23532
521.56	-119.25463
522.036	-77.15212
522.512	-51.11314
522.987	-77.16333
523.463	-87.18632
523.939	-62.13694
524.414	-59.12275
524.89	-78.16701
525.365	-89.18202
525.84	-116.24859
526.315	-93.20244
526.79	-60.12168
527.265	-94.1943
527.74	-85.1873
528.215	-34.07176
528.689	-44.08723
529.164	-55.10774
529.638	-6.01381
530.112	-112.23991
530.587	-136.26483
531.061	-88.19192
531.534	-91.2012
532.008	-103.22516
532.482	-109.22919
532.956	-106.24555
533.429	-86.18971
533.903	-31.06182
534.376	-128.26006
534.849	-67.141
535.322	-74.15879
535.795	-95.21224
536.268	-47.102
536.741	-64.13982
537.213	-86.18167
537.686	-74.16344
538.158	-157.32415
538.631	-33.07272
539.103	-88.17928
539.575	-98.18775
540.047	-49.09762
540.519	9.01932
540.991	9.01981
541.463	-37.08112
541.934	-84.17557
542.406	-61.13182
542.877	-36.07341
543.348	-30.06562
543.82	-7.01549
544.291	38.07925
544.762	3.00636
545.233	-8.01798
545.703	-19.03764
546.174	24.0497
546.645	-50.1071
547.115	67.14194
547.585	40.08142
548.056	21.04457
548.526	98.19929
548.996	77.16212
549.466	127.26951
549.935	108.21963
550.405	98.18448
550.875	115.23392
551.344	152.31178
551.814	161.31464
552.283	228.41463
552.752	189.3683
553.221	242.43115
553.69	251.45913
554.159	237.48207
554.628	208.38442
555.096	246.51805
555.565	255.46834
556.033	291.56816
556.502	283.57169
556.97	292.53698
557.438	288.57231
557.906	378.74135
558.374	332.63513
558.842	320.64184
559.31	364.67613
559.777	354.71266
560.245	438.84767
560.712	452.85803
561.18	465.83092
561.647	506.90958
562.114	498.91497
562.581	598.1767
563.048	613.11716
563.514	592.15612
563.981	639.14817
564.448	697.20395
564.914	763.35817
565.381	795.36858
565.847	816.44487
566.313	902.55041
566.779	944.5427
567.245	932.59787
567.711	985.71199
568.176	1009.60306
568.642	1009.83892
569.108	1067.87155
569.573	1110.83735
570.038	1142.61589
570.504	1181.77873
570.969	1216.10543
571.434	1315.84482
571.899	1315.06504
572.363	1352.98328
572.828	1448.08731
573.293	1339.99097
573.757	1408.05281
574.222	1411.96348
574.686	1364.93425
575.15	1423.15305
575.614	1472.09357
576.078	1433.12478
576.542	1459.06904
577.006	1479.05067
577.469	1528.39636
577.933	1421.97756
578.396	1465.20412
578.86	1414.13234
579.323	1405.14569
579.786	1338.83299
580.249	1257.88837
580.712	1301.13104
581.175	1317.16696
581.637	1268.95116
582.1	1205.77514
582.563	1283.79722
583.025	1199.99351
583.487	1104.49506
583.95	1055.56416
584.412	1098.57767
584.874	1011.77397
585.336	1019.73307
585.797	1038.57009
586.259	956.65488
586.721	864.51263
587.182	932.61407
587.643	862.46096
588.105	855.52233
588.566	781.24033
589.027	793.45546
589.488	769.34204
589.949	774.44725
590.41	667.9923
590.87	727.28994
591.331	737.2233
591.791	678.2237
592.252	627.13118
592.712	659.25587
593.172	603.08113
593.632	687.17656
594.092	626.10604
594.552	621.05586
595.011	533.99136
595.471	537.97549
595.931	537.97053
596.39	546.06058
596.849	512.97621
597.308	544.95686
597.768	520.08543
598.227	522.03076
598.685	506.95821
599.144	522.99818
599.603	532.02891
600.062	464.79814
600.52	473.86662
600.978	493.9644
601.437	557.03287
601.895	513.88271
602.353	461.84761
602.811	519.93799
603.269	543.0575
603.727	539.05019
604.184	510.93467
604.642	527.05502
605.099	531.00171
605.557	600.17676
606.014	570.97797
606.471	572.14924
606.928	598.00543
607.385	650.24019
607.842	670.1969
608.299	681.24387
608.755	657.24902
609.212	659.14058
609.668	627.08391
610.125	732.376
610.581	696.30949
611.037	731.30579
611.493	644.2198
611.949	630.21243
612.405	641.00339
612.861	695.30024
613.316	644.22931
613.772	687.24662
614.227	656.2341
614.683	749.24464
615.138	638.19605
615.593	667.23422
616.048	689.2547
616.503	696.37181
616.958	653.32161
617.412	659.25283
617.867	641.13113
618.321	744.19865
618.776	692.21912
619.23	602.15622
619.684	674.2264
620.138	691.29529
620.592	597.19763
621.046	634.22073
621.5	591.19049
621.954	617.14494
622.407	614.12606
622.861	555.1317
623.314	566.07859
623.768	539.05767
624.221	559.91475
624.674	509.99853
625.127	513.0222
625.58	613.16862
626.033	539.01235
626.485	443.92158
626.938	488.00228
627.39	443.89983
627.843	455.9183
628.295	451.91149
628.747	441.92028
629.199	408.82023
629.651	378.76483
630.103	361.74064
630.555	373.70615
631.006	397.83141
631.458	377.79791
631.909	391.80834
632.361	343.72627
632.812	353.73764
633.263	367.71519
633.714	297.58593
634.165	333.73897
634.616	303.66373
635.067	327.66755
635.518	293.64751
635.968	331.611
636.419	316.6344
636.869	278.61629
637.319	303.6486
637.769	232.48814
638.219	308.68421
638.669	221.49758
639.119	250.57403
639.569	240.54555
640.019	292.6314
640.468	192.40985
640.918	304.6843
641.367	169.36459
641.816	242.51276
642.265	230.50521
642.714	211.46572
643.163	200.44006
643.612	169.38891
644.061	118.24336
644.51	130.2876
644.958	162.34401
645.406	191.43796
645.855	168.39717
646.303	189.42554
646.751	156.34339
647.199	216.47027
647.647	185.40988
648.095	130.29037
648.543	193.3829
648.99	145.33622
649.438	182.41389
649.885	206.48983
650.333	145.2757
650.78	189.43997
651.227	165.3888
651.674	122.27238
652.121	172.40537
652.568	151.3565
653.015	177.4337
653.461	145.33608
653.908	218.48892
654.354	164.38125
654.801	107.24673
655.247	164.3519
655.693	156.39559
656.139	154.36027
656.585	145.34021
657.031	69.15949
657.477	82.1761
657.922	151.33999
658.368	176.42284
658.813	197.44591
659.259	97.23008
659.704	121.27779
660.149	72.16705
660.594	92.21658
661.039	90.20385
661.484	151.35456
661.929	130.30006
662.373	114.28332
662.818	128.31266
663.262	85.20333
663.707	121.30231
664.151	130.3134
664.595	70.16844
665.039	94.23243
665.483	103.25966
665.927	121.28268
666.371	77.17777
666.814	123.2913
667.258	54.12801
667.701	120.25882
668.145	128.31545
668.588	127.30865
669.031	21.04989
669.474	90.2164
669.917	129.28474
670.36	132.32399
670.803	157.37426
671.245	111.23463
671.688	111.26977
672.13	50.11329
672.573	115.29043
673.015	112.26806
673.457	101.22079
673.899	84.20404
674.341	70.16978
674.783	24.0583
675.225	127.31016
675.666	47.11384
676.108	42.09292
676.549	79.18832
676.991	94.20866
677.432	58.11779
677.873	113.26171
678.314	80.19206
678.755	93.22662
679.196	57.13212
679.637	93.22797
680.078	103.24205
680.518	114.26648
680.959	105.25184
681.399	88.21871
681.839	124.30097
682.28	36.08986
682.72	92.21185
683.16	92.2294
683.6	74.17088
684.039	85.17967
684.479	59.14602
684.919	6.01412
685.358	78.19885
685.798	93.24354
686.237	104.25233
686.676	99.23147
687.115	69.16392
687.554	102.2431
687.993	73.16383
688.432	113.25922
688.871	79.18108
689.309	45.109
689.748	65.13872
690.186	70.16907
690.625	37.0882
691.063	59.14312
691.501	97.24059
691.939	80.20049
692.377	59.14543
692.815	70.16895
693.253	118.28425
693.69	59.13197
694.128	71.1734
694.565	68.164
695.003	102.25912
695.44	56.13342
695.877	49.11614
696.314	86.18772
696.751	146.33297
697.188	93.2153
697.625	134.30843
698.061	9.02205
698.498	116.28134
698.934	101.24436
699.371	43.10282
699.807	104.24721
700.243	107.2582
700.679	84.1925
701.115	104.24654
701.551	81.19272
701.987	109.24703
702.422	56.13475
702.858	59.14237
703.294	63.14504
703.729	99.24331
704.164	37.09053
704.599	88.19826
705.035	42.09582
705.47	43.10603
705.904	38.09012
706.339	81.19072
706.774	69.16354
707.209	43.10089
707.643	83.20097
708.078	67.16479
708.512	27.06851
708.946	49.11927
709.38	57.13697
709.814	64.14855
710.248	68.16746
710.682	70.16824
711.116	5.01218
711.549	61.15871
711.983	26.06135
712.416	64.15336
712.85	88.22054
713.283	105.24963
713.716	137.34315
714.149	62.14981
714.582	83.18856
715.015	97.24392
715.448	93.23538
715.881	81.17991
716.313	63.14955
716.746	55.13126
717.178	33.08068
717.61	64.16374
718.043	65.16357
718.475	73.17861
718.907	148.37277
719.339	24.05557
719.77	17.0411
720.202	44.11261
720.634	52.12801
721.065	69.16537
721.497	75.18535
721.928	52.12914
722.359	30.07347
722.79	62.15003
723.221	105.2648
723.652	93.2408
724.083	54.12375
724.514	41.09594
724.945	14.03362
725.375	34.08026
725.806	46.11636
726.236	64.16534
726.666	75.17934
727.096	56.13903
727.526	51.13082
727.956	24.05571
728.386	78.1935
728.816	33.08459
729.246	16.03959
729.675	44.10963
730.105	31.07754
730.534	14.03348
730.964	65.1658
731.393	94.23472
731.822	72.18511
732.251	103.2617
732.68	104.24635
733.109	32.08005
733.537	65.15851
733.966	52.13055
734.395	68.15889
734.823	88.20053
735.251	47.11474
735.68	109.27341
736.108	51.13041
736.536	71.16925
736.964	36.08501
737.392	87.2187
737.82	55.13367
738.247	43.10455
738.675	52.12602
739.102	57.1437
739.53	47.12086
739.957	58.15036
740.384	110.27189
740.811	61.15598
741.238	41.10143
741.665	37.08722
742.092	74.1784
742.519	6.01512
742.945	69.16719
743.372	66.16475
743.798	67.17336
744.225	33.07975
744.651	73.18436
745.077	47.11853
745.503	71.17469
745.929	30.07317
746.355	130.32261
746.781	83.20677
747.207	-13.03125
747.632	35.08646
748.058	57.1436
748.483	73.16981
748.908	47.11811
749.334	34.08472
749.759	85.20169
750.184	43.1038
750.609	85.20998
751.033	149.35055
751.458	60.13656
751.883	78.19449
752.307	-3.00723
752.732	16.04057
753.156	62.15443
753.58	86.2056
754.005	90.22912
754.429	53.1261
754.853	40.10028
755.277	69.1648
755.7	70.17486
756.124	47.11785
756.548	37.08898
756.971	96.23511
757.394	58.15052
757.818	62.16056
758.241	58.14828
758.664	45.11478
759.087	6.0137
759.51	65.16299
759.933	40.09749
760.356	52.13443
760.778	46.11437
761.201	61.14981
761.623	88.21455
762.046	51.1226
762.468	106.25515
762.89	64.15929
763.312	63.15518
763.734	57.13858
764.156	59.14693
764.578	50.11665
765	72.17685
765.421	11.02834
765.843	67.17647
766.264	73.17768
766.686	54.13684
767.107	28.06885
767.528	20.05115
767.949	84.21415
768.37	37.09194
768.791	78.18982
769.212	36.09136
769.632	9.02137
770.053	63.16666
770.473	53.13016
770.894	53.1339
771.314	58.13998
771.734	42.09918
772.154	55.14221
772.575	53.12431
772.994	-15.03493
773.414	59.14302
773.834	72.18083
774.254	21.05216
774.673	39.09613
775.093	43.10743
775.512	21.05245
775.931	43.10999
776.351	32.08037
776.77	-4.00996
777.189	14.03387
777.607	15.03881
778.026	47.11806
778.445	3.00762
778.864	58.14963
779.282	56.13582
779.701	26.06631
780.119	15.0384
780.537	-19.04834
780.955	74.18885
781.373	18.04513
781.791	8.01832
782.209	46.10723
782.627	51.13505
783.045	32.0746
783.462	14.03622
783.88	-6.01576
784.297	6.01531
784.715	2.00521
785.132	32.07834
785.549	25.06323
785.966	27.06863
786.383	33.082
786.8	67.15653
787.217	-29.07035
787.633	10.02529
788.05	74.17657
788.466	78.18462
788.883	-12.0311
789.299	13.03176
789.715	25.06149
790.131	19.04781
790.547	23.05809
790.963	34.08518
791.379	44.11198
791.795	28.06476
792.21	23.05449
792.626	31.07438
793.041	22.05492
793.457	55.13667
793.872	-4.00957
794.287	-41.10017
794.702	33.08209
795.117	6.01511
795.532	-18.04589
795.947	55.13322
796.362	61.14647
796.776	87.20405
797.191	12.02976
797.605	-50.1204
798.02	38.09324
798.434	-34.0777
798.848	-5.01251
799.262	-16.04037
799.676	62.1519
800.09	20.04976
800.504	-8.01974
800.918	-40.09497
801.331	43.11337
801.745	5.01167
802.158	9.02278
802.572	14.0344
802.985	35.08538
803.398	-44.10748
803.811	64.16494
804.224	-8.02023
804.637	-19.04613
805.05	10.02352
805.462	22.05464
805.875	-20.05265
806.288	-12.02943
806.7	14.03558
807.112	30.07029
807.525	27.06726
807.937	12.03001
808.349	9.02282
808.761	32.07939
809.173	10.02454
809.584	5.01252
809.996	27.0667
810.408	82.21118
810.819	83.19505
811.231	66.17063
811.642	52.12451
812.053	53.12659
812.464	17.04088
812.875	17.04387
813.286	8.02082
813.697	71.16639
814.108	26.06412
814.519	32.07207
814.929	68.1736
815.34	-18.04443
815.75	-12.03094
816.16	44.11027
816.571	29.07587
816.981	5.01197
817.391	33.08032
817.801	-18.04544
818.211	14.03378
818.62	13.03165
819.03	57.14014
819.44	32.08413
819.849	19.04833
820.259	27.06965
820.668	-7.01746
821.077	-26.0657
821.486	29.07046
821.895	45.11178
822.304	6.01606
822.713	-7.01681
823.122	40.10039
823.531	-17.04101
823.939	-16.03962
824.348	31.07596
824.756	60.15058
825.164	54.13631
825.573	16.04053
825.981	12.03008
826.389	63.15848
826.797	3.0076
827.205	-13.03035
827.612	13.03242
828.02	-7.01669
828.428	34.08711
828.835	10.02656
829.243	54.12915
829.65	-8.02016
830.057	-2.00492
830.464	15.03692
830.871	27.0652
831.278	-12.02945
831.685	51.11436
832.092	37.09114
832.499	6.01331
832.905	32.08152
833.312	-5.01158
833.718	5.0126
834.124	22.05078
834.531	12.03055
834.937	33.08518
835.343	-16.03923
835.749	35.08235
836.155	9.02378
836.561	-10.02494
836.966	17.04197
837.372	36.0921
837.777	32.0802
838.183	23.05166
838.588	10.02508
838.993	20.04913
839.399	-37.09218
839.804	-11.02718
840.209	22.0564
840.613	-11.02488
841.018	9.02301
841.423	38.0979
841.828	-19.04875
842.232	60.14879
842.637	0
843.041	10.02586
843.445	30.0757
843.849	22.05488
844.253	60.14278
844.657	4.01018
845.061	-21.0485
845.465	-8.01959
845.869	5.01176
846.272	-10.02468
846.676	6.01467
847.079	-22.05676
847.483	92.22831
847.886	74.17975
848.289	31.0831
848.692	3.00768
849.095	19.04602
849.498	31.07902
849.901	13.03013
850.304	-1.00242
850.707	9.02316
851.109	38.09657
851.512	18.04459
851.914	13.03303
852.316	0
852.718	-18.04708
853.121	35.08618
853.523	1.00237
853.925	-1.00263
854.326	-41.10436
854.728	13.0337
855.13	-15.03917
855.531	-15.03636
855.933	8.0194
856.334	-2.00504
856.736	-55.12617
857.137	-2.00471
857.538	-23.05867
857.939	-26.06523
858.34	4.00985
858.741	50.13087
859.142	12.02909
859.542	11.02925
859.943	57.14169
860.343	-25.06285
860.744	40.09796
861.144	-5.01234
861.544	-43.10533
861.945	-45.11676
862.345	11.02714
862.745	12.03007
863.145	23.05537
863.544	22.05595
863.944	41.09721
864.344	75.18575
864.743	33.08227
865.143	24.062
865.542	-26.06133
865.941	8.01998
866.34	7.01694
866.74	47.12633
867.139	-15.03641
867.537	21.05385
867.936	14.03398
868.335	5.01284
868.734	39.09997
869.132	15.03515
869.531	-10.0245
869.929	-40.09299
870.327	-3.00727
870.726	71.17662
871.124	25.05882
871.522	39.09965
871.92	20.04967
872.318	5.01234
872.715	41.10181
873.113	7.01722
873.511	9.02262
873.908	-43.11045
874.306	-29.07324
874.703	29.07293
875.1	21.05406
875.497	-10.02428
875.894	-15.03723
876.291	34.08379
876.688	-15.03916
877.085	12.02904
877.482	34.08545
877.878	-2.00487
878.275	13.03328
878.671	31.06943
879.068	5.01219
879.464	-21.0515
879.86	-1.00239
880.256	25.06205
880.652	32.08172
881.048	46.1142
881.444	-34.08234
881.84	10.02562
882.236	30.07578
882.631	-8.01987
883.027	39.09475
883.422	-4.01033
883.817	-40.10223
884.213	-4.01037
884.608	-27.06721
885.003	-16.0391
885.398	-6.01518
885.793	35.08817
886.188	-38.09606
886.582	34.08753
886.977	-32.07723
887.371	42.10647
887.766	0
888.16	55.13727
888.554	36.08934
888.949	17.04298
889.343	27.06631
889.737	-29.07833
890.131	5.01265
890.525	20.05145
890.918	-1.00254
891.312	29.06974
891.706	28.07379
892.099	17.04355
892.492	9.01962
892.886	10.02467
893.279	-28.07236
893.672	-13.03349
894.065	5.01263
894.458	18.04557
894.851	40.09829
895.244	-1.00258
895.637	-11.02682
896.029	12.02957
896.422	-1.00247
896.814	-31.07826
897.206	-21.05073
897.599	74.18237
897.991	-15.03674
898.383	-7.01674
898.775	10.02278
899.167	-59.14065
899.559	21.05347
899.951	46.10863
900.342	32.0817
900.734	-17.04272
901.125	38.09997
901.517	-43.10743
901.908	16.03865
902.299	16.03939
902.69	13.03092
903.082	12.02929
903.473	-16.03882
903.863	-10.0258
904.254	-14.03293
904.645	28.06997
905.036	-73.18093
905.426	24.05529
905.817	-13.03229
906.207	-26.06289
906.597	-34.08088
906.987	25.06511
907.378	-31.07957
907.768	8.02131
908.158	-1.00246
908.547	-35.09178
908.937	12.03101
909.327	53.12871
909.717	31.07902
910.106	-24.05849
910.495	29.07272
910.885	23.05856
911.274	17.04277
911.663	41.10429
912.052	-1.00249
912.441	-3.0077
912.83	-21.04893
913.219	34.08926
913.608	21.05174
913.997	-31.07888
914.385	10.02409
914.774	2.00492
915.162	-12.02895
915.55	47.11384
915.939	-12.03064
916.327	10.02515
916.715	5.01285
917.103	56.13776
917.491	18.04482
917.878	15.03714
918.266	-8.02096
918.654	25.06417
919.041	-7.01846
919.429	-17.04067
919.816	32.08141
920.203	18.04394
920.591	31.07717
920.978	20.04927
921.365	44.1156
921.752	13.03123
922.139	-3.00659
922.525	10.02421
922.912	15.03684
923.299	-2.00502
923.685	-13.03429
924.072	-7.01633
924.458	35.08697
924.844	-31.07787
925.231	17.03984
925.617	17.0435
926.003	-2.00516
926.389	4.01018
926.774	12.03063
927.16	19.04747
927.546	-23.05947
927.931	31.07765
928.317	14.0325
928.702	25.05946
929.088	-21.05037
929.473	15.03841
929.858	-39.09588
930.243	-12.02915
930.628	-25.06169
931.013	4.01
931.398	38.08764
931.783	38.10027
932.167	-30.07445
932.552	-15.03803
932.937	14.03498
933.321	-1.00253
933.705	-21.05362
934.09	56.1414
934.474	38.0905
934.858	3.00785
935.242	-14.03287
935.626	-5.01292
936.009	12.03212
936.393	42.10704
936.777	-3.00775
937.16	-22.05795
937.544	38.08977
937.927	-5.01281
938.311	29.07109
938.694	33.08753
939.077	40.09596
939.46	35.08621
939.843	16.03365
940.226	-9.02333
940.609	1.00232
940.991	-20.05154
941.374	-20.04953
941.757	15.03726
942.139	-14.03186
942.522	35.08299
942.904	44.10591
943.286	24.06127
943.668	16.04169
944.05	-19.0474
944.432	-24.06004
944.814	23.05694
945.196	-13.03206
945.578	-72.17515
945.959	20.04716
946.341	52.12763
946.722	57.13364
947.104	-4.00966
947.485	27.06313
947.866	-15.03823
948.247	29.07345
948.628	6.01476
949.009	7.01806
949.39	29.07248
949.771	35.08167
950.152	13.03213
950.532	-30.07489
950.913	48.11585
951.293	-19.0519
951.674	-22.05394
952.054	-22.05523
952.434	-14.03516
952.814	11.02637
953.194	45.11788
953.574	50.12318
953.954	-8.01921
954.334	18.04513
954.714	-34.08416
955.093	19.04699
955.473	-38.09654
955.853	19.04945
956.232	24.06605
956.611	15.03622
956.99	-11.02795
957.37	17.04358
957.749	8.01924
958.128	8.02031
958.506	5.01307
958.885	-16.04086
959.264	-15.03721
959.643	22.05036
960.021	21.05232
960.4	-17.03906
960.778	52.12806
961.156	-8.02027
961.535	-9.02122
961.913	29.06815
962.291	-8.02073
962.669	-18.04615
963.047	15.03852
963.424	9.02313
963.802	-8.01988
964.18	56.14156
964.557	-5.01164
964.935	10.02388
965.312	2.00525
965.69	31.0779
966.067	30.07333
966.444	10.02483
966.821	15.03891
967.198	14.0342
967.575	28.06913
967.952	-13.03101
968.329	32.07814
968.705	23.04962
969.082	17.04385
969.458	-37.09023
969.835	1.00246
970.211	16.04131
970.587	15.03759
970.963	1.00259
971.339	3.0079
971.715	7.01762
972.091	19.04706
972.467	42.10492
972.843	-13.03263
973.219	33.07951
973.594	-6.01584
973.97	39.09304
974.345	-6.01451
974.721	32.07776
975.096	-14.03429
975.471	30.07145
975.846	4.00969
976.221	-12.03081
976.596	-14.03397
976.971	22.0546
977.346	35.08174
977.72	-1.00257
978.095	19.04937
978.469	-2.00482
978.844	38.09575
979.218	-33.08035
979.593	28.06737
979.967	6.01474
980.341	-48.11269
980.715	29.07335
981.089	-8.02024
981.463	-56.13132
981.837	-46.11441
982.21	12.02814
982.584	-35.08589
982.957	-18.0455
983.331	31.07356
983.704	-23.05728
984.078	-3.00747
984.451	65.16193
984.824	-12.02956
985.197	-17.04181
985.57	5.01264
985.943	43.10634
986.316	69.16895
986.688	5.01216
987.061	25.05889
987.434	5.01313
987.806	43.10443
988.179	-29.06948
988.551	23.05863
988.923	2.00497
989.295	45.11255
989.667	-20.04842
990.039	1.00249
990.411	14.03246
990.783	6.01394
991.155	-39.09528
991.527	82.20075
991.898	-17.04287
992.27	-30.07529
992.641	24.06049
993.012	23.05441
993.384	-4.00964
993.755	9.02311
994.126	18.04356
994.497	-16.03975
994.868	14.03239
995.239	7.0171
995.61	3.00761
995.98	26.06344
996.351	-27.0678
996.722	-23.05411
997.092	-29.06971
997.462	-32.07595
997.833	35.08321
998.203	30.07301
998.573	-23.05803
998.943	2.00473
999.313	35.08411
999.683	-20.04864
1000.053	2.00465
1000.423	1.00245
1000.792	20.0521
1001.162	-9.02239
1001.531	48.11838
1001.901	30.07505
1002.27	-15.03398
1002.639	34.08711
1003.009	-1.0024
1003.378	11.02831
1003.747	-40.09614
1004.116	-26.06311
1004.485	9.02168
1004.853	43.10906
1005.222	20.0507
1005.591	13.03109
1005.959	-31.071
1006.328	-31.07091
1006.696	-29.07098
1007.064	-12.03052
1007.433	34.08521
1007.801	63.15426
1008.169	26.06593
1008.537	48.10633
1008.905	-29.0686
1009.273	3.00747
1009.64	11.02643
1010.008	2.00481
1010.375	46.11178
1010.743	47.10859
1011.11	-16.03834
1011.478	4.00998
1011.845	43.10125
1012.212	-22.05052
1012.579	8.01979
1012.946	17.04071
1013.313	-14.03373
1013.68	24.05423
1014.047	-10.0241
1014.414	-24.05749
1014.78	10.02503
1015.147	20.04864
1015.513	12.02912
1015.88	33.08462
1016.246	7.01741
1016.612	39.08946
1016.978	12.02961
1017.344	4.00997
1017.71	41.10013
1018.076	17.04034
1018.442	48.12349
1018.808	1.00252
1019.174	-9.02281
1019.539	79.18079
1019.905	-33.07906
1020.27	9.02237
1020.636	40.09607
1021.001	19.04574
1021.366	0
1021.731	-7.01818
1022.096	2.00509
1022.461	8.01908
1022.826	-13.03126
1023.191	6.01585
1023.556	-20.0475
1023.92	49.12047
1024.285	-18.04448
1024.649	1.00247
1025.014	13.03241
1025.378	16.04046
1025.742	8.02001
1026.107	27.06134
1026.471	6.01412
1026.835	-15.03761
1027.199	-8.01946
1027.562	-6.0141
1027.926	22.05406
1028.29	0
1028.654	11.0255
1029.017	-9.02236
1029.381	-11.02657
1029.744	18.04615
1030.107	43.10184
1030.471	2.00483
1030.834	-4.0092
1031.197	13.03152
1031.56	-4.00953
1031.923	10.02602
1032.286	26.06133
1032.648	48.1148
1033.011	-34.07932
1033.374	8.01895
1033.736	7.01853
1034.099	12.02944
1034.461	-2.0051
1034.823	-6.01509
1035.185	-29.074
1035.548	3.00736
1035.91	-9.02179
1036.272	4.00919
1036.634	40.098
1036.995	-8.01901
1037.357	-23.05669
1037.719	38.09258
1038.08	-18.04328
1038.442	-24.05775
1038.803	18.04346
1039.165	22.05577
1039.526	38.09199
1039.887	12.02891
1040.248	6.0149
1040.609	61.15036
1040.97	-25.06192
1041.331	-9.02301
1041.692	-47.11174
1042.053	23.05263
1042.413	31.07248
1042.774	32.07805
1043.134	48.11427
1043.495	32.08066
1043.855	-14.03435
1044.215	21.05237
1044.576	6.01446
1044.936	24.05529
1045.296	13.03264
1045.656	0
1046.016	-2.00487
1046.375	66.15953
1046.735	26.0592
1047.095	7.01651
1047.454	13.02776
1047.814	11.02662
1048.173	49.11703
1048.533	-10.02317
1048.892	-51.12469
1049.251	21.05296
1049.61	-22.05486
1049.969	-18.04297
1050.328	-30.06612
1050.687	26.06351
1051.046	-29.07161
1051.405	-1.00251
1051.763	-17.03959
1052.122	4.01005
1052.48	-3.00742
1052.839	18.04259
1053.197	13.0308
1053.555	43.09813
1053.914	31.07605
1054.272	33.07999
1054.63	-7.01729
1054.988	-39.09418
1055.345	16.03469
1055.703	32.07723
1056.061	-20.05205
1056.419	-10.02614
1056.776	63.15231
1057.134	35.08122
1057.491	32.08034
1057.848	42.10465
1058.206	-9.0214
1058.563	-22.0492
1058.92	40.09233
1059.277	19.04711
1059.634	19.04495
1059.991	14.03375
1060.348	-13.02974
1060.704	-37.08959
1061.061	0
1061.418	-5.01224
1061.774	9.02237
1062.131	0
1062.487	-49.11672
1062.843	28.07005
1063.199	29.07235
1063.555	-14.03283
1063.911	25.06339
1064.267	43.08978
1064.623	-61.15114
1064.979	49.11605
1065.335	45.1076
1065.691	12.02895
1066.046	4.00888
1066.402	-11.02528
1066.757	53.13361
1067.112	32.07875
1067.468	-33.07912
1067.823	-4.00971
1068.178	22.05346
1068.533	19.0463
1068.888	27.06476
1069.243	-30.07508
1069.598	2.0049
1069.952	-41.09398
1070.307	-37.09298
1070.662	-8.01919
1071.016	-61.13971
1071.371	-18.04148
1071.725	-12.02903
1072.079	-17.04138
1072.434	-10.02455
1072.788	-2.00481
1073.142	9.02229
1073.496	-30.07221
1073.85	10.02336
1074.203	18.0439
1074.557	3.00803
1074.911	38.09085
1075.265	22.05139
1075.618	46.11232
1075.971	1.0024
1076.325	-2.00513
1076.678	-37.08603
1077.031	12.02735
1077.385	-6.01336
1077.738	-1.00228
1078.091	-49.11358
1078.444	28.06525
1078.796	-2.00495
1079.149	6.01503
1079.502	-34.08156
1079.855	6.0141
1080.207	36.08885
1080.56	-21.0549
1080.912	36.08781
1081.264	-12.02921
1081.617	5.01228
1081.969	1.00254
1082.321	16.03929
1082.673	-50.11633
1083.025	-9.02158
1083.377	-244.55644
1083.728	21.04923
1084.08	-14.03533
1084.432	27.06535
1084.783	30.07051
1085.135	20.05036
1085.486	8.01844
1085.838	-8.0199
1086.189	19.04635
1086.54	40.09563
1086.891	-16.04091
1087.242	18.04405
1087.593	0
1087.944	-2.00457
1088.295	14.03203
1088.646	2.00489
1088.996	-19.04633
1089.347	34.08361
1089.698	-27.06471
1090.048	33.08589
1090.398	6.01403
1090.749	4.00965
1091.099	-5.01269
1091.449	-15.03777
1091.799	44.11019
1092.149	-22.05432
1092.499	-1.00246
1092.849	-10.02566
1093.199	16.04031
1093.548	-18.04377
1093.898	-20.05063
1094.248	28.07216
1094.597	-34.08799
1094.947	28.0749
1095.296	16.03972
1095.645	-23.06052
1095.994	5.0121
1096.343	12.03038
1096.692	-2.0053
1097.041	-20.05471
1097.39	-7.01772
1097.739	24.0626
1098.088	38.10192
1098.437	-17.04512
1098.785	14.03793
1099.134	43.11421
1099.482	20.05522
1099.83	49.12867
1100.179	-7.01842
1100.527	13.03472
1100.875	-12.03203
1101.223	44.11685
1101.571	7.01946
1101.919	-1.00263
1102.267	3.0085
1102.615	-2.00643
1102.962	14.04506
1103.31	4.01285
1103.658	16.0515
