Data from N2 R5 sample 1_Subt2__2__12-33-36-822.txt Node

Date: Fri Aug 29 12:33:36 PDT 2025
User: uwsun
Spectrometer: HDX01956
Trigger mode: 0
Integration Time (sec): 5.000000E-1
Scans to average: 1
Nonlinearity correction enabled: true
Boxcar width: 0
Storing dark spectrum: false
XAxis mode: Wavelengths
Number of Pixels in Spectrum: 2068
>>>>>Begin Spectral Data<<<<<
194.03	259.69765
194.578	272.83075
195.127	289.8668
195.676	275.8291
196.225	327.81952
196.773	306.79752
197.321	443.0986
197.87	659.42923
198.418	596.29053
198.966	650.40101
199.513	573.18805
200.061	589.24031
200.609	670.4787
201.156	548.9841
201.704	564.18629
202.251	585.30033
202.798	628.35354
203.345	696.40395
203.892	626.30245
204.438	636.24808
204.985	631.21057
205.532	638.3904
206.078	721.42615
206.624	627.26196
207.17	670.25863
207.716	635.25873
208.262	650.01723
208.808	674.3371
209.354	608.21552
209.899	653.36683
210.445	672.35361
210.99	644.26083
211.535	713.34647
212.08	666.2554
212.625	677.38651
213.17	660.37694
213.715	601.07808
214.259	696.30628
214.804	717.43743
215.348	694.27629
215.892	699.35546
216.436	690.29436
216.98	700.24161
217.524	641.23689
218.068	640.33398
218.612	618.29605
219.155	667.27545
219.698	633.23955
220.242	617.28455
220.785	650.24319
221.328	618.28235
221.871	604.28782
222.414	585.22593
222.956	552.11154
223.499	548.02904
224.041	587.14282
224.583	610.08669
225.126	547.0047
225.668	585.18595
226.21	530.12983
226.751	555.00152
227.293	599.13413
227.835	480.00001
228.376	604.1584
228.918	616.30208
229.459	521.0969
230	599.18227
230.541	615.16903
231.082	597.20259
231.622	600.14462
232.163	572.15559
232.704	539.12541
233.244	581.20413
233.784	616.25828
234.324	564.01339
234.864	541.02261
235.404	593.1737
235.944	563.11734
236.484	595.24253
237.023	579.13363
237.563	591.12387
238.102	591.15608
238.641	629.31828
239.18	620.1817
239.719	623.29591
240.258	627.14966
240.797	649.26434
241.335	605.22879
241.874	593.91318
242.412	576.14718
242.95	594.16498
243.488	603.12781
244.026	587.10974
244.564	642.05495
245.102	645.16669
245.64	618.22926
246.177	591.08461
246.715	639.25723
247.252	601.13349
247.789	625.94044
248.326	579.14166
248.863	601.06647
249.4	658.20511
249.936	618.01654
250.473	619.17265
251.009	641.18129
251.546	630.11602
252.082	623.09987
252.618	609.09527
253.154	615.20368
253.69	615.12081
254.226	606.18127
254.761	619.12241
255.297	567.00913
255.832	597.15294
256.367	659.24918
256.903	679.17777
257.438	676.27491
257.972	643.1459
258.507	568.05724
259.042	676.1586
259.576	584.00538
260.111	669.23855
260.645	680.16173
261.179	643.20218
261.713	660.16322
262.247	660.21729
262.781	619.02639
263.315	628.24396
263.849	647.30826
264.382	723.3081
264.915	657.22417
265.449	637.23857
265.982	734.3061
266.515	660.29038
267.048	627.04714
267.58	729.24132
268.113	606.04002
268.646	652.29158
269.178	612.08744
269.71	688.17543
270.243	660.19723
270.775	722.45846
271.307	689.32268
271.838	720.35407
272.37	688.34585
272.902	676.21324
273.433	628.08536
273.965	650.266
274.496	733.4418
275.027	673.33045
275.558	731.38659
276.089	599.1795
276.62	727.46958
277.15	737.43199
277.681	685.15932
278.211	663.29963
278.741	617.06772
279.272	716.2615
279.802	697.37925
280.332	658.22088
280.861	709.33563
281.391	639.137
281.921	742.3921
282.45	730.43353
282.98	750.53794
283.509	700.2146
284.038	706.24124
284.567	784.40032
285.096	722.3565
285.625	738.27664
286.153	727.30732
286.682	708.24217
287.21	707.31751
287.739	737.33416
288.267	712.33046
288.795	757.55825
289.323	703.25631
289.851	779.37885
290.378	753.27196
290.906	761.39311
291.433	741.42268
291.961	766.29363
292.488	792.49703
293.015	745.32127
293.542	729.41643
294.069	749.39801
294.596	835.55038
295.122	796.41815
295.649	765.25175
296.175	798.454
296.702	804.462
297.228	789.44447
297.754	811.32948
298.28	814.34592
298.806	784.40104
299.332	807.2869
299.857	779.28681
300.383	843.59166
300.908	783.39817
301.433	829.47137
301.958	900.48941
302.483	854.55233
303.008	848.54062
303.533	862.66612
304.058	899.51852
304.582	842.42543
305.107	786.52626
305.631	849.38965
306.155	876.43838
306.679	845.40158
307.203	815.35316
307.727	871.4679
308.251	836.49649
308.775	835.40019
309.298	830.40886
309.822	912.63537
310.345	996.60356
310.868	912.51349
311.391	968.6527
311.914	880.55605
312.437	983.51175
312.96	1003.57803
313.482	924.4956
314.005	970.6712
314.527	968.76092
315.049	1062.80792
315.571	926.34991
316.093	1042.71107
316.615	1032.62994
317.137	1034.42065
317.659	1123.75967
318.18	1096.70873
318.702	1051.55914
319.223	1054.31191
319.744	1031.44997
320.265	1063.63254
320.786	1126.73543
321.307	1129.76097
321.828	1141.55013
322.348	1172.65554
322.869	1116.58877
323.389	856.80247
323.909	1213.61993
324.43	1244.78581
324.95	1202.57705
325.47	1180.71324
325.989	1182.60685
326.509	1189.43682
327.029	1326.57665
327.548	1327.56014
328.067	1285.69676
328.587	1308.82272
329.106	1284.54706
329.625	1364.04892
330.144	1297.56911
330.662	1306.56717
331.181	1409.66062
331.7	1369.628
332.218	1371.41939
332.736	1416.63439
333.255	1452.61731
333.773	1457.65835
334.291	1549.88486
334.808	1455.46465
335.326	1556.53495
335.844	1527.55054
336.361	1505.77722
336.879	1492.52214
337.396	1564.63815
337.913	1572.4929
338.43	1688.44965
338.947	1611.5796
339.464	1645.26685
339.981	1605.51937
340.497	1682.68568
341.014	1684.60863
341.53	1646.34499
342.046	1758.61043
342.562	1755.68127
343.078	1744.45818
343.594	1870.51452
344.11	1738.464
344.626	1824.64118
345.141	1923.30638
345.657	1933.31373
346.172	1906.4618
346.687	1835.27841
347.202	1878.19049
347.717	2003.3761
348.232	1994.52486
348.747	2015.21304
349.261	1859.99846
349.776	2123.23877
350.29	2078.34084
350.805	2156.41275
351.319	2055.1764
351.833	1971.03859
352.347	2082.15059
352.861	2107.09119
353.374	2175.07759
353.888	2113.21062
354.401	2190.9993
354.915	2161.85535
355.428	2264.18935
355.941	2284.92971
356.454	2338.85332
356.967	2291.99494
357.48	2277.8962
357.993	2329.09241
358.505	2424.9892
359.018	2440.9826
359.53	2476.86459
360.042	2482.6158
360.554	2484.89109
361.066	2448.87428
361.578	2394.53694
362.09	2495.76915
362.602	2503.47046
363.113	2529.60266
363.625	2537.47352
364.136	2656.35173
364.647	2509.44993
365.158	2667.45402
365.669	2660.54389
366.18	2638.48154
366.691	2664.24335
367.201	2659.46401
367.712	2701.23803
368.222	2765.19781
368.733	2827.94585
369.243	2798.97989
369.753	2953.03447
370.263	2974.09073
370.773	2964.17012
371.282	2918.99574
371.792	2975.70386
372.301	3128.78147
372.811	3222.96718
373.32	3113.32611
373.829	3256.43196
374.338	3535.0988
374.847	3426.14825
375.356	3548.08509
375.865	3691.73585
376.373	3840.7299
376.882	4091.83353
377.39	4026.71537
377.898	3955.64375
378.407	4312.53999
378.915	4621.63651
379.423	4662.63603
379.93	4934.88486
380.438	5122.11647
380.946	5436.75756
381.453	5512.10174
381.96	5769.11259
382.468	6058.85161
382.975	6692.95001
383.482	6842.82222
383.989	6766.82182
384.495	7011.98897
385.002	7339.92713
385.509	7637.81913
386.015	8224.91412
386.521	8614.11827
387.028	8934.87517
387.534	9396.38152
388.04	9825.94475
388.546	9598.95309
389.051	10151.97351
389.557	11088.29564
390.063	12463.56097
390.568	12682.73963
391.073	12813.05013
391.578	13503.20226
392.084	13522.18215
392.589	13750.32855
393.093	14698.70662
393.598	16227.4051
394.103	17960.93021
394.607	19496.5967
395.112	21015.31614
395.616	22057.07532
396.12	23537.07012
396.624	26465.43917
397.128	29029.31643
397.632	32571.6787
398.136	35007.78268
398.639	34934.48548
399.143	31826.09474
399.646	28888.45294
400.15	25083.82847
400.653	20124.16724
401.156	13866.23708
401.659	5169.95759
402.162	1054.15589
402.664	0
403.167	0
403.67	0
404.172	0
404.674	0
405.176	0
405.678	0
406.18	0
406.682	0
407.184	0
407.686	0
408.187	0
408.688	0
409.19	0
409.691	0
410.192	0
410.693	0
411.194	435.30976
411.694	4082.94878
412.195	8864.71461
412.696	12089.80453
413.196	12760.96929
413.696	12863.67595
414.196	13703.56671
414.696	17261.84252
415.196	21764.24417
415.696	29583.19008
416.196	36460.31858
416.695	40057.39798
417.195	40567.10796
417.694	38809.76682
418.194	36779.67167
418.693	33747.79715
419.192	32599.48716
419.691	32381.87948
420.19	32050.69515
420.688	31224.35343
421.187	29979.26711
421.685	28008.35303
422.184	25868.7581
422.682	22411.79851
423.18	18713.26856
423.678	16785.2032
424.176	15378.47732
424.674	14425.05829
425.172	14200.82082
425.669	13548.95382
426.167	12489.03161
426.664	11277.73043
427.161	10197.7412
427.659	9527.87363
428.156	8792.31545
428.652	8324.50096
429.149	8046.29208
429.646	7614.59517
430.143	7303.84421
430.639	6795.24162
431.135	6425.09824
431.632	6048.14599
432.128	5600.77751
432.624	5296.13207
433.12	4967.07264
433.616	5013.06668
434.111	4552.63902
434.607	4429.55943
435.103	4493.58523
435.598	4421.559
436.093	4228.61573
436.588	3948.6917
437.083	3740.83691
437.578	3630.98571
438.073	3273.32721
438.568	3255.50214
439.062	3113.27653
439.557	3139.61208
440.051	2941.6275
440.546	2804.74178
441.04	2746.97191
441.534	2741.22511
442.028	2701.14584
442.522	2539.22998
443.015	2568.00086
443.509	2513.40372
444.002	2315.49465
444.496	2385.18046
444.989	2378.53454
445.482	2354.60552
445.975	2305.32324
446.468	2329.22214
446.961	2245.27479
447.454	2210.4696
447.947	2025.63329
448.439	2078.77183
448.931	2055.53101
449.424	2089.9346
449.916	2122.80881
450.408	2016.60414
450.9	1949.84083
451.392	1889.99854
451.884	1926.77563
452.375	1829.97009
452.867	1834.81181
453.358	1730.77604
453.849	1809.64344
454.341	1848.79434
454.832	1688.71494
455.323	1647.03053
455.814	1691.92218
456.304	1633.94205
456.795	1640.93608
457.285	1601.92701
457.776	1649.01578
458.266	1547.05697
458.756	1544.13297
459.247	1488.07151
459.737	1353.05484
460.226	1452.96516
460.716	1307.08974
461.206	1338.13841
461.695	1367.28345
462.185	1344.13285
462.674	1418.12249
463.163	1324.02154
463.653	1359.92726
464.142	1160.14045
464.63	1243.25003
465.119	1255.11938
465.608	1205.10533
466.096	1167.01547
466.585	1232.18088
467.073	1181.24413
467.561	1099.21062
468.05	1169.19489
468.538	1135.30519
469.026	1064.20754
469.513	1046.96567
470.001	1037.09395
470.489	1016.16383
470.976	1016.14203
471.463	1033.32125
471.951	959.28421
472.438	914.11798
472.925	844.05094
473.412	898.22631
473.899	837.05647
474.385	846.18279
474.872	900.1385
475.359	815.14615
475.845	782.88184
476.331	837.01842
476.817	732.08641
477.303	740.0247
477.789	750.0977
478.275	693.07374
478.761	718.07721
479.247	703.96963
479.732	647.03281
480.218	717.20902
480.703	660.06775
481.188	658.87841
481.673	615.91259
482.158	545.73864
482.643	632.09287
483.128	555.83899
483.612	559.88312
484.097	583.98397
484.581	557.88909
485.066	543.91441
485.55	466.70453
486.034	476.70932
486.518	476.78428
487.002	415.73351
487.486	454.79891
487.969	433.76773
488.453	466.86478
488.936	436.70757
489.42	427.68573
489.903	409.77658
490.386	461.51115
490.869	366.59492
491.352	429.79431
491.835	427.64416
492.318	365.61756
492.8	358.55155
493.283	360.70405
493.765	333.63319
494.247	366.66056
494.73	371.62158
495.212	340.64508
495.694	281.51246
496.175	211.39612
496.657	359.66236
497.139	310.41175
497.62	219.41296
498.102	275.54304
498.583	232.47222
499.064	258.45323
499.545	253.46092
500.026	222.3988
500.507	237.44339
500.988	264.53099
501.469	220.44841
501.949	189.38654
502.43	199.38392
502.91	178.29745
503.39	223.46104
503.87	200.38353
504.35	228.4423
504.83	184.32917
505.31	177.35477
505.79	174.34383
506.269	192.37175
506.749	143.27111
507.228	155.30205
507.707	146.26888
508.187	242.47709
508.666	143.29418
509.145	137.26773
509.623	80.15987
510.102	102.21045
510.581	177.36003
511.059	130.27521
511.538	153.33686
512.016	163.32792
512.494	204.41485
512.972	111.22578
513.45	101.19719
513.928	147.30091
514.406	60.12324
514.884	121.26596
515.361	132.26856
515.839	148.28408
516.316	148.30179
516.793	54.11937
517.27	187.38436
517.747	100.22105
518.224	126.24945
518.701	125.23733
519.178	76.16237
519.654	127.26021
520.131	79.16948
520.607	79.17094
521.083	80.15794
521.56	99.20183
522.036	135.25344
522.512	130.2775
522.987	61.12549
523.463	83.17121
523.939	104.22171
524.414	131.26099
524.89	93.19175
525.365	93.18235
525.84	17.03538
526.315	46.09717
526.79	61.12028
527.265	105.20734
527.74	51.10917
528.215	67.13827
528.689	56.10843
529.164	99.18686
529.638	97.21867
530.112	20.04162
530.587	66.12234
531.061	13.02774
531.534	57.12212
532.008	76.15984
532.482	65.13143
532.956	22.04967
533.429	43.09229
533.903	95.18389
534.376	69.13388
534.849	80.16291
535.322	69.14349
535.795	51.1105
536.268	69.14604
536.741	35.07486
537.213	88.17879
537.686	70.14994
538.158	45.08869
538.631	96.20582
539.103	42.08303
539.575	74.13587
540.047	55.10692
540.519	74.15659
540.991	107.23064
541.463	91.19413
541.934	79.15915
542.406	52.10965
542.877	67.13342
543.348	87.18559
543.82	118.25429
544.291	158.32072
544.762	103.21342
545.233	101.22191
545.703	97.18695
546.174	174.34819
546.645	120.24759
547.115	125.26144
547.585	150.29766
548.056	153.31532
548.526	192.38208
548.996	175.3605
549.466	273.56086
549.935	204.40577
550.405	237.43089
550.875	246.48543
551.344	255.51087
551.814	239.45843
552.283	287.51412
552.752	274.52315
553.221	247.43949
553.69	352.62749
554.159	288.57899
554.628	319.57322
555.096	309.64169
555.565	373.66476
556.033	350.67378
556.502	324.64836
556.97	265.49063
557.438	324.63845
557.906	314.62515
558.374	292.56402
558.842	266.54019
559.31	280.53098
559.777	246.50756
560.245	376.73848
560.712	316.61975
561.18	309.57439
561.647	334.62689
562.114	394.74281
562.581	423.86783
563.048	361.70082
563.514	368.7579
563.981	417.79293
564.448	409.76144
564.914	453.87188
565.381	527.97289
565.847	549.03878
566.313	511.97076
566.779	600.0738
567.245	594.10957
567.711	604.15449
568.176	561.00463
568.642	629.25553
569.108	593.16822
569.573	683.26263
570.038	719.15203
570.504	672.16529
570.969	746.45192
571.434	698.1702
571.899	761.3854
572.363	826.40507
572.828	843.44217
573.293	890.50124
573.757	858.46123
574.222	824.36025
574.686	844.39106
575.15	862.52098
575.614	890.49555
576.078	885.52881
576.542	901.50052
577.006	917.49884
577.469	975.77144
577.933	858.40717
578.396	923.61239
578.86	982.67039
579.323	887.56073
579.786	881.38375
580.249	816.38652
580.712	829.5354
581.175	813.52368
581.637	847.46299
582.1	822.35094
582.563	805.29761
583.025	822.5069
583.487	754.13687
583.95	753.21765
584.412	707.13854
584.874	729.37271
585.336	681.26269
585.797	700.1646
586.259	654.22188
586.721	598.11927
587.182	680.25551
587.643	562.02894
588.105	585.11352
588.566	592.99184
589.027	572.10748
589.488	591.07916
589.949	599.16788
590.41	503.78541
590.87	523.97808
591.331	550.96083
591.791	507.95612
592.252	433.82095
592.712	471.93969
593.172	468.86935
593.632	461.83824
594.092	472.86849
594.552	449.79983
595.011	402.77204
595.471	457.84701
595.931	449.82969
596.39	407.81804
596.849	458.88469
597.308	479.85683
597.768	433.92283
598.227	434.87612
598.685	489.92986
599.144	440.85806
599.603	455.89765
600.062	438.75864
600.52	474.86823
600.978	462.91039
601.437	513.96317
601.895	451.78885
602.353	459.84436
602.811	453.83248
603.269	477.94503
603.727	458.91099
604.184	516.94424
604.642	547.09008
605.099	533.005
605.557	513.02647
606.014	540.93391
606.471	495.01188
606.928	542.92641
607.385	636.21754
607.842	719.26845
608.299	713.29193
608.755	705.32483
609.212	630.09865
609.668	670.14522
610.125	728.36981
610.581	796.46134
611.037	716.28388
611.493	665.25321
611.949	556.08878
612.405	609.96332
612.861	696.30179
613.316	605.16563
613.772	639.17348
614.227	610.16035
614.683	663.12745
615.138	634.18971
615.593	637.18742
616.048	635.17197
616.503	670.32853
616.958	662.3371
617.412	664.26082
617.867	632.11783
618.321	637.0569
618.776	661.1738
619.23	638.21489
619.684	598.10879
620.138	635.20653
620.592	608.21664
621.046	659.26134
621.5	587.1835
621.954	591.10369
622.407	580.07267
622.861	543.1102
623.314	569.08353
623.768	538.05595
624.221	515.85307
624.674	567.09543
625.127	508.01339
625.58	555.07271
626.033	521.98445
626.485	466.96446
626.938	471.97285
627.39	469.94699
627.843	451.91107
628.295	437.88603
628.747	488.00589
629.199	447.89056
629.651	399.80344
630.103	415.84104
630.555	393.74037
631.006	393.82376
631.458	380.80373
631.909	369.76663
632.361	358.75555
632.812	336.70476
633.263	332.65236
633.714	370.71743
634.165	317.70581
634.616	323.70455
635.067	327.66755
635.518	280.62046
635.968	317.58721
636.419	281.5687
636.869	274.60793
637.319	315.67253
637.769	246.516
638.219	310.68837
638.669	231.51903
639.119	307.69684
639.569	210.48027
640.019	289.62532
640.468	217.4607
640.918	266.60343
641.367	204.43678
641.816	204.43584
642.265	211.46533
642.714	246.53899
643.163	236.51534
643.612	206.47055
644.061	184.37384
644.51	197.42973
644.958	166.3522
645.406	192.44016
645.855	142.3374
646.303	214.47936
646.751	147.3242
647.199	161.35462
647.647	140.31309
648.095	152.33796
648.543	165.32949
648.99	163.37661
649.438	225.50721
649.885	164.39311
650.333	196.36805
650.78	156.36552
651.227	150.35448
651.674	158.35013
652.121	136.32277
652.568	137.32433
653.015	197.48091
653.461	128.29768
653.908	161.36532
654.354	175.40594
654.801	131.30063
655.247	147.31658
655.693	128.3262
656.139	138.32385
656.585	160.3743
657.031	105.24096
657.477	99.21183
657.922	139.31374
658.368	153.36919
658.813	178.40447
659.259	104.24635
659.704	83.192
660.149	124.28473
660.594	144.33555
661.039	122.27452
661.484	140.32944
661.929	162.37154
662.373	100.24916
662.818	136.3317
663.262	129.30598
663.707	112.28028
664.151	146.3509
664.595	93.2228
665.039	143.3504
665.483	148.37009
665.927	131.30544
666.371	90.20724
666.814	86.20513
667.258	90.21187
667.701	150.32145
668.145	167.4086
668.588	122.29678
669.031	105.2454
669.474	78.18797
669.917	107.23727
670.36	128.3144
670.803	177.42031
671.245	105.22224
671.688	169.40625
672.13	129.2876
672.573	142.35689
673.015	151.35871
673.457	110.24
673.899	139.33414
674.341	123.29534
674.783	141.33496
675.225	137.33395
675.666	88.21151
676.108	147.31808
676.549	141.33212
676.991	113.24984
677.432	134.2674
677.873	125.28881
678.314	135.3207
678.755	133.32166
679.196	116.26572
679.637	174.4201
680.078	172.39874
680.518	131.3052
680.959	148.35206
681.399	148.36379
681.839	156.37636
682.28	109.26848
682.72	130.29708
683.16	125.30981
683.6	141.32124
684.039	127.26598
684.479	128.31277
684.919	110.2537
685.358	161.40442
685.798	134.34845
686.237	155.37246
686.676	196.44951
687.115	117.27537
687.554	148.34962
687.993	116.25803
688.432	112.25697
688.871	147.33233
689.309	144.34228
689.748	155.32433
690.186	157.37296
690.625	139.32486
691.063	157.37383
691.501	158.38751
691.939	167.41193
692.377	152.36823
692.815	173.40939
693.253	175.417
693.69	178.38836
694.128	149.35859
694.565	127.30286
695.003	188.47028
695.44	205.47439
695.877	123.28735
696.314	162.34791
696.751	186.42076
697.188	195.44228
697.625	193.43899
698.061	154.36718
698.498	227.53903
698.934	201.47711
699.371	195.45268
699.807	157.36937
700.243	149.35668
700.679	214.47758
701.115	258.59335
701.551	152.3567
701.987	223.49365
702.422	197.4613
702.858	162.38328
703.294	187.41983
703.729	190.45907
704.164	185.44015
704.599	201.44235
705.035	202.44595
705.47	201.48115
705.904	135.31415
706.339	253.57569
706.774	171.39729
707.209	157.36015
707.643	188.44617
708.078	167.40312
708.512	203.49888
708.946	213.50247
709.38	209.48768
709.814	200.45169
710.248	198.47587
710.682	191.44848
711.116	133.3162
711.549	194.49316
711.983	165.3788
712.416	211.49137
712.85	185.45549
713.283	228.52918
713.716	226.55693
714.149	201.47288
714.582	170.37939
715.015	230.56449
715.448	215.53227
715.881	210.45391
716.313	162.3772
716.746	168.39224
717.178	199.47145
717.61	188.47045
718.043	187.46024
718.475	137.33121
718.907	200.49903
719.339	149.33644
719.77	109.25894
720.202	193.48095
720.634	166.40003
721.065	177.41545
721.497	193.46658
721.928	164.39894
722.359	112.27011
722.79	173.40986
723.221	170.42372
723.652	198.50333
724.083	108.24481
724.514	143.3279
724.945	215.49654
725.375	92.21472
725.806	200.49196
726.236	214.5384
726.666	147.34665
727.096	172.41793
727.526	149.37562
727.956	121.27545
728.386	176.42877
728.816	134.33739
729.246	172.41339
729.675	148.36178
730.105	151.36945
730.534	155.36069
730.964	182.45461
731.393	204.49921
731.822	143.36307
732.251	165.41461
732.68	203.47163
733.109	156.38147
733.537	134.32255
733.966	155.38191
734.395	140.3225
734.823	175.39176
735.251	132.31714
735.68	217.53368
736.108	142.35727
736.536	172.40206
736.964	143.33066
737.392	172.42575
737.82	156.37194
738.247	156.37123
738.675	208.48925
739.102	138.34284
739.53	135.34179
739.957	150.38267
740.384	186.4533
740.811	150.37753
741.238	128.31161
741.665	146.33686
742.092	168.39779
742.519	113.27935
742.945	105.2527
743.372	157.38541
743.798	121.31015
744.225	128.30378
744.651	160.39778
745.077	123.30597
745.503	156.37778
745.929	166.39457
746.355	183.44973
746.781	128.31626
747.207	128.29944
747.632	115.27991
748.058	162.40041
748.483	115.26528
748.908	105.2611
749.334	146.35636
749.759	165.38547
750.184	136.32252
750.609	176.42749
751.033	195.45465
751.458	144.32217
751.883	161.39538
752.307	127.29833
752.732	74.18572
753.156	109.26917
753.58	171.40215
754.005	151.38025
754.429	91.21493
754.853	135.33264
755.277	125.29535
755.7	147.36207
756.124	114.28239
756.548	124.29327
756.971	164.39655
757.394	169.43015
757.818	122.31266
758.241	120.30344
758.664	129.32416
759.087	88.19761
759.51	141.3487
759.933	124.29746
760.356	138.35143
760.778	94.23166
761.201	147.35525
761.623	168.40347
762.046	156.36752
762.468	209.49323
762.89	149.3651
763.312	156.37764
763.734	114.2742
764.156	136.33393
764.578	116.26711
765	146.3537
765.421	65.16591
765.843	150.38952
766.264	172.41087
766.686	122.30541
767.107	90.21877
767.528	87.21988
767.949	137.34599
768.37	133.32469
768.791	111.26846
769.212	88.22125
769.632	69.16196
770.053	109.28612
770.473	126.30525
770.894	138.34334
771.314	111.26521
771.734	98.2289
772.154	139.35417
772.575	128.2958
772.994	93.21197
773.414	140.33418
773.834	108.26949
774.254	80.19658
774.673	122.29611
775.093	119.29321
775.512	96.2365
775.931	117.29538
776.351	93.23101
776.77	77.18889
777.189	83.19816
777.607	104.26495
778.026	121.2999
778.445	39.09846
778.864	145.36841
779.282	76.18364
779.701	71.17963
780.119	65.16492
780.537	76.19012
780.955	97.24655
781.373	74.18365
781.791	71.16052
782.209	113.25994
782.627	82.21601
783.045	83.19154
783.462	59.15145
783.88	49.12749
784.297	79.19902
784.715	65.16737
785.132	41.10021
785.549	56.14085
785.966	89.22373
786.383	62.15325
786.8	79.18413
787.217	35.08388
787.633	48.12055
788.05	120.28381
788.466	135.31601
788.883	35.08997
789.299	56.13572
789.715	66.1611
790.131	92.22848
790.547	55.13811
790.963	60.14961
791.379	67.16981
791.795	104.2369
792.21	57.13416
792.626	48.1148
793.041	69.17077
793.457	64.15877
793.872	33.07843
794.287	1.00242
794.702	69.17052
795.117	60.14961
795.532	12.03043
795.947	89.21419
796.362	98.23366
796.776	87.20405
797.191	61.14992
797.605	32.07586
798.02	33.08104
798.434	72.16102
798.848	52.12872
799.262	53.13208
799.676	37.09107
800.09	78.19202
800.504	34.08327
800.918	49.11434
801.331	89.23283
801.745	62.14311
802.158	23.05807
802.572	82.19895
802.985	40.09749
803.398	53.12712
803.811	104.26616
804.224	48.12016
804.637	14.03378
805.05	49.11439
805.462	69.16989
805.875	56.14553
806.288	44.1068
806.7	63.15871
807.112	36.08425
807.525	41.10188
807.937	4.01002
808.349	64.16068
808.761	60.14809
809.173	41.10006
809.584	45.1119
809.996	19.04701
810.408	2.00522
810.819	35.08302
811.231	84.21648
811.642	119.28128
812.053	182.42393
812.464	262.60062
812.875	207.5164
813.286	124.31623
813.697	120.27853
814.108	76.18571
814.519	45.10107
814.929	78.19878
815.34	33.08068
815.75	63.1603
816.16	53.13261
816.571	54.14067
816.981	41.09751
817.391	72.17397
817.801	41.1024
818.211	65.15531
818.62	37.08969
819.03	37.0913
819.44	90.23428
819.849	42.10639
820.259	72.18427
820.668	39.09649
821.077	17.04263
821.486	53.12818
821.895	62.15353
822.304	55.14603
822.713	43.10227
823.122	20.05038
823.531	38.09071
823.939	56.13684
824.348	29.07109
824.756	72.18031
825.164	43.10875
825.573	52.13088
825.981	96.23702
826.389	51.12857
826.797	31.07818
827.205	29.06714
827.612	51.12631
828.02	38.0898
828.428	57.14544
828.835	53.13978
829.243	31.07447
829.65	-28.07083
830.057	51.12423
830.464	36.08826
830.871	67.16058
831.278	-1.00245
831.685	60.13429
832.092	34.08379
832.499	41.09031
832.905	32.08152
833.312	42.0964
833.718	54.13489
834.124	55.12612
834.531	33.0837
834.937	55.14143
835.343	57.13786
835.749	55.1289
836.155	37.09732
836.561	26.06443
836.966	8.01978
837.372	56.14277
837.777	36.09016
838.183	59.13154
838.588	0
838.993	58.14146
839.399	18.04439
839.804	16.03934
840.209	16.04106
840.613	36.08064
841.018	21.05358
841.423	32.08253
841.828	35.08896
842.232	78.19279
842.637	88.20676
843.041	16.04134
843.445	11.02785
843.849	-9.02258
844.253	30.0718
844.657	-12.03061
845.061	61.13858
845.465	8.01953
845.869	28.06556
846.272	35.08567
846.676	36.08754
847.079	54.13747
847.483	93.23075
847.886	61.14853
848.289	31.0831
848.692	28.07133
849.095	27.0653
849.498	121.30351
849.901	44.10136
850.304	30.07216
850.707	30.07691
851.109	54.13684
851.512	57.14019
851.914	-16.04086
852.316	49.12419
852.718	-12.03136
853.121	16.03953
853.523	18.04244
853.925	20.05251
854.326	2.00505
854.728	48.12366
855.13	33.08548
855.531	7.0169
855.933	39.09404
856.334	22.05521
856.736	31.06989
857.137	1.00235
857.538	19.04811
857.939	23.05719
858.34	78.18946
858.741	56.14642
859.142	73.17495
859.542	32.08478
859.943	40.09974
860.343	-11.02758
860.744	60.1464
861.144	23.05648
861.544	0
861.945	2.00515
862.345	49.12007
862.745	45.1121
863.145	94.22326
863.544	48.12151
863.944	20.04761
864.344	56.13918
864.743	44.10947
865.143	51.13114
865.542	-2.0047
865.941	29.07217
866.34	57.13661
866.74	53.14232
867.139	11.02657
867.537	30.07681
867.936	68.16338
868.335	30.0767
868.734	15.03861
869.132	17.03983
869.531	50.12113
869.929	9.02072
870.327	11.0266
870.726	45.11247
871.124	80.1862
871.522	30.07678
871.92	57.1406
872.318	52.12726
872.715	47.11658
873.113	20.04907
873.511	23.05765
873.908	-17.04347
874.306	36.08986
874.703	25.06291
875.1	70.17865
875.497	58.13903
875.894	-15.03723
876.291	61.14959
876.688	22.05707
877.085	40.09629
877.482	4.01011
877.878	5.01215
878.275	27.06894
878.671	38.08498
879.068	41.09927
879.464	31.07529
879.86	11.02624
880.256	49.12109
880.652	30.07664
881.048	78.19251
881.444	47.11208
881.84	32.08167
882.236	25.06321
882.631	43.1058
883.027	82.19761
883.422	-4.01033
883.817	-18.04582
884.213	59.15129
884.608	20.04936
885.003	20.04854
885.398	8.02019
885.793	53.13309
886.188	17.04255
886.582	84.21437
886.977	25.05969
887.371	42.10647
887.766	7.01756
888.16	56.13974
888.554	12.02991
888.949	37.09321
889.343	57.13921
889.737	-21.05665
890.131	32.0806
890.525	11.02834
890.918	15.03802
891.312	55.13161
891.706	58.15207
892.099	62.15756
892.492	51.11017
892.886	6.01481
893.279	26.06656
893.672	3.00771
894.065	57.14267
894.458	12.03041
894.851	74.18069
895.244	-1.00258
895.637	13.03156
896.029	24.05902
896.422	41.10043
896.814	9.02256
897.206	0
897.599	71.17507
897.991	33.08011
898.383	38.09008
898.775	-2.00457
899.167	-10.02361
899.559	78.1966
899.951	72.16917
900.342	59.14991
900.734	-7.01756
901.125	76.19865
901.517	21.05186
901.908	65.15554
902.299	12.02956
902.69	-12.02868
903.082	38.0923
903.473	-8.01938
903.863	60.15291
904.254	18.04208
904.645	73.18093
905.036	13.03171
905.426	58.1327
905.817	21.05184
906.207	-26.06289
906.597	21.04943
906.987	58.1502
907.378	10.02549
907.768	41.10861
908.158	44.10748
908.547	12.03122
908.937	31.07985
909.327	21.05131
909.717	42.10685
910.106	50.12017
910.495	65.16193
910.885	38.0965
911.274	37.09274
911.663	33.08406
912.052	61.15031
912.441	-23.05927
912.83	-18.04191
913.219	52.1361
913.608	34.08358
913.997	18.0454
914.385	45.10768
914.774	28.0685
915.162	28.06704
915.55	45.10904
915.939	37.09365
916.327	56.13969
916.715	47.11988
917.103	81.19833
917.491	31.077
917.878	55.13517
918.266	33.08586
918.654	65.16568
919.041	-33.08739
919.429	8.01905
919.816	42.10666
920.203	9.022
920.591	23.05734
920.978	53.12977
921.365	9.02378
921.752	0
922.139	31.06762
922.525	19.04592
922.912	7.01722
923.299	22.05498
923.685	5.01315
924.072	32.0741
924.458	35.08697
924.844	11.02742
925.231	1.00235
925.617	19.0486
926.003	29.07441
926.389	23.05832
926.774	35.08896
927.16	25.06239
927.546	15.03853
927.931	58.14457
928.317	27.06251
928.702	20.04761
929.088	15.03573
929.473	10.02563
929.858	-21.05146
930.243	7.01694
930.628	23.05625
931.013	29.07217
931.398	36.08306
931.783	89.23283
932.167	28.06875
932.552	41.10292
932.937	78.19265
933.321	-8.02029
933.705	30.07591
934.09	72.18129
934.474	40.09523
934.858	25.06513
935.242	-18.04229
935.626	41.10513
936.009	13.03479
936.393	26.06645
936.777	11.02836
937.16	27.07054
937.544	63.14811
937.927	13.03321
938.311	61.14864
938.694	53.14011
939.077	21.05056
939.46	81.19782
939.843	26.05456
940.226	0
940.609	16.03699
940.991	11.0282
941.374	31.07605
941.757	42.10381
942.139	-16.03643
942.522	42.09945
942.904	59.14162
943.286	44.11194
943.668	67.17306
944.05	44.10852
944.432	38.09399
944.814	59.14511
945.196	-10.02464
945.578	-9.02164
945.959	45.10558
946.341	50.12277
946.722	35.08241
947.104	43.10294
947.485	53.12329
947.866	28.07083
948.247	16.04062
948.628	61.14853
949.009	3.00775
949.39	51.12696
949.771	69.15993
950.152	25.06165
950.532	-18.04483
950.913	40.09669
951.293	31.084
951.674	53.12813
952.054	-16.04013
952.434	51.12659
952.814	39.09301
953.194	56.14642
953.574	51.12562
953.954	2.00479
954.334	2.00503
954.714	2.00492
955.093	36.08875
955.473	1.00252
955.853	27.07018
956.232	44.12071
956.611	44.10567
956.99	12.03037
957.37	13.03335
957.749	69.16404
958.128	22.05571
958.506	60.15538
958.885	19.04822
959.264	-24.05963
959.643	31.07083
960.021	21.05232
960.4	-9.02065
960.778	94.22969
961.156	32.08049
961.535	47.10963
961.913	38.08914
962.291	-14.03632
962.669	27.06868
963.047	18.0462
963.424	17.04364
963.802	13.03219
964.18	77.19391
964.557	10.02322
964.935	66.15592
965.312	17.04452
965.69	74.18452
966.067	52.12659
966.444	64.15732
966.821	53.13657
967.198	67.16204
967.575	52.12782
967.952	60.14114
968.329	50.12168
968.705	41.08811
969.082	-1.00259
969.458	-15.03643
969.835	49.11931
970.211	27.06957
970.587	56.13928
970.963	55.14098
971.339	42.10982
971.715	67.16679
972.091	33.08152
972.467	53.13213
972.843	19.04742
973.219	74.17691
973.594	20.05258
973.97	74.17536
974.345	2.00483
974.721	36.08741
975.096	18.04382
975.471	17.04059
975.846	36.08672
976.221	16.04088
976.596	7.01692
976.971	11.02735
977.346	29.0678
977.72	-3.00771
978.095	19.04937
978.469	54.1288
978.844	60.15058
979.218	24.05782
979.593	48.11506
979.967	17.04167
980.341	29.06706
980.715	35.08843
981.089	41.10281
981.463	-31.07234
981.837	34.08333
982.21	89.20555
982.584	2.00487
982.957	6.0151
983.331	30.0712
983.704	8.01981
984.078	8.01987
984.451	105.25967
984.824	7.01718
985.197	28.06829
985.57	37.09301
985.943	77.18924
986.316	64.15685
986.688	26.06299
987.061	47.11023
987.434	17.04455
987.806	-10.02453
988.179	17.04037
988.551	59.14943
988.923	34.08398
989.295	51.12742
989.667	-32.07764
990.039	15.0373
990.411	25.05783
990.783	29.06706
991.155	-21.05113
991.527	95.23201
991.898	6.01507
992.27	34.08435
992.641	35.08805
993.012	55.1293
993.384	16.03841
993.755	40.10216
994.126	11.02665
994.497	4.0099
994.868	36.08293
995.239	28.06814
995.61	13.03293
995.98	29.07072
996.351	10.02494
996.722	-50.11826
997.092	-23.05523
997.462	-36.08551
997.833	18.04293
998.203	57.13801
998.573	43.1072
998.943	2.00473
999.313	11.02655
999.683	36.08662
1000.053	6.01393
1000.423	56.13592
1000.792	24.06248
1001.162	13.03221
1001.531	24.05945
1001.901	54.1345
1002.27	43.09626
1002.639	40.10237
1003.009	37.0882
1003.378	21.05396
1003.747	35.08292
1004.116	10.02411
1004.485	29.06958
1004.853	50.12666
1005.222	29.0734
1005.591	81.19116
1005.959	-6.01367
1006.328	39.08796
1006.696	-4.00975
1007.064	-18.04582
1007.433	38.09516
1007.801	27.06655
1008.169	44.11122
1008.537	67.14783
1008.905	3.00705
1009.273	31.07683
1009.64	28.06707
1010.008	56.13332
1010.375	83.20028
1010.743	103.23533
1011.11	-1.00239
1011.478	28.06956
1011.845	29.06847
1012.212	12.02737
1012.579	10.02473
1012.946	65.15424
1013.313	52.1237
1013.68	12.02718
1014.047	-39.0945
1014.414	-14.03347
1014.78	33.08224
1015.147	43.10412
1015.513	5.01215
1015.88	35.08972
1016.246	19.04716
1016.612	72.16407
1016.978	35.08599
1017.344	91.22315
1017.71	69.16763
1018.076	18.0427
1018.442	39.10049
1018.808	29.07274
1019.174	28.0705
1019.539	119.27013
1019.905	18.0427
1020.27	-4.00997
1020.636	64.15301
1021.001	52.12441
1021.366	16.03866
1021.731	23.05941
1022.096	13.033
1022.461	51.12064
1022.826	18.04303
1023.191	20.05272
1023.556	26.06121
1023.92	31.07647
1024.285	57.1389
1024.649	29.07133
1025.014	54.13362
1025.378	19.04802
1025.742	66.16337
1026.107	32.07263
1026.471	42.09818
1026.835	40.0993
1027.199	8.0194
1027.562	-10.02351
1027.926	13.032
1028.29	9.02293
1028.654	56.12864
1029.017	40.09847
1029.381	46.10993
1029.744	23.05892
1030.107	14.03334
1030.471	45.10781
1030.834	20.04576
1031.197	78.18683
1031.56	0
1031.923	48.12409
1032.286	111.25748
1032.648	27.06483
1033.011	8.01851
1033.374	55.1291
1033.736	12.03174
1034.099	17.04167
1034.461	-2.0051
1034.823	7.01756
1035.185	13.03293
1035.548	2.00491
1035.91	50.11972
1036.272	19.0435
1036.634	17.04183
1036.995	4.00948
1037.357	20.04891
1037.719	16.03914
1038.08	29.06911
1038.442	33.07855
1038.803	19.04587
1039.165	27.06838
1039.526	15.03647
1039.887	23.05529
1040.248	18.04459
1040.609	42.10389
1040.97	17.04178
1041.331	28.07113
1041.692	-50.11894
1042.053	29.06628
1042.413	15.03518
1042.774	14.03426
1043.134	71.16828
1043.495	46.11566
1043.855	21.05119
1044.215	50.12404
1044.576	-21.05087
1044.936	27.06216
1045.296	78.19357
1045.656	71.17346
1046.016	30.07265
1046.375	29.07059
1046.735	4.00915
1047.095	29.06812
1047.454	63.13305
1047.814	-2.00485
1048.173	63.15007
1048.533	2.00462
1048.892	-47.11483
1049.251	32.08054
1049.61	3.00745
1049.969	9.02137
1050.328	17.0371
1050.687	20.04891
1051.046	12.02941
1051.405	24.05995
1051.763	0
1052.122	17.04263
1052.48	10.02469
1052.839	-44.10535
1053.197	-6.01427
1053.555	51.11619
1053.914	10.02463
1054.272	58.13993
1054.63	-17.04206
1054.988	3.00719
1055.345	-13.02836
1055.703	12.02907
1056.061	15.0388
1056.419	26.06754
1056.776	41.09953
1057.134	-3.00701
1057.491	41.10277
1057.848	20.05003
1058.206	40.0942
1058.563	1.00223
1058.92	40.09233
1059.277	17.04217
1059.634	3.00712
1059.991	43.1031
1060.348	37.08379
1060.704	-30.07254
1061.061	68.15733
1061.418	1.00245
1061.774	16.03972
1062.131	-26.06957
1062.487	7.01649
1062.843	51.12705
1063.199	30.07483
1063.555	7.01635
1063.911	-14.03574
1064.267	38.07943
1064.623	-9.02209
1064.979	124.2894
1065.335	57.13598
1065.691	9.02173
1066.046	-3.00667
1066.402	-21.04837
1066.757	45.11361
1067.112	0
1067.468	-5.01192
1067.823	10.02421
1068.178	32.07761
1068.533	60.14509
1068.888	30.07191
1069.243	12.0298
1069.598	-24.05908
1069.952	-30.06861
1070.307	-23.05765
1070.662	6.01436
1071.016	-26.05913
1071.371	-13.02993
1071.725	43.10294
1072.079	20.04834
1072.434	7.01713
1072.788	33.07879
1073.142	38.09362
1073.496	19.04531
1073.85	3.00702
1074.203	20.04876
1074.557	39.10383
1074.911	34.08135
1075.265	7.0164
1075.618	6.01476
1075.971	43.10235
1076.325	20.05106
1076.678	-5.01155
1077.031	25.05682
1077.385	52.11442
1077.738	28.06344
1078.091	-29.06695
1078.444	18.04203
1078.796	47.1153
1079.149	42.10454
1079.502	-7.01671
1079.855	0
1080.207	34.08395
1080.56	38.09834
1080.912	38.09265
1081.264	39.09404
1081.617	12.02943
1081.969	-11.02803
1082.321	-25.06185
1082.673	-4.00922
1083.025	-10.02398
1083.377	34.07318
1083.728	38.08879
1084.08	40.09996
1084.432	5.01215
1084.783	29.06818
1085.135	10.02522
1085.486	38.08708
1085.838	49.1206
1086.189	13.03175
1086.54	25.05994
1086.891	-17.04347
1087.242	4.00981
1087.593	39.09507
1087.944	17.0387
1088.295	21.04798
1088.646	49.11869
1088.996	-13.03167
1089.347	10.0247
1089.698	-17.04067
1090.048	43.11172
1090.398	0
1090.749	33.07915
1091.099	-2.00507
1091.449	6.01505
1091.799	14.03525
1092.149	-24.05928
1092.499	25.06121
1092.849	4.01024
1093.199	35.08789
1093.548	-6.01456
1093.898	36.09022
1094.248	58.1487
1094.597	-40.10363
1094.947	53.14119
1095.296	-13.03244
1095.645	41.10671
1095.994	19.04587
1096.343	16.04047
1096.692	-12.03182
1097.041	17.04623
1097.39	57.14267
1097.739	22.05741
1098.088	6.01618
1098.437	2.00529
1098.785	26.07031
1099.134	48.12738
1099.482	29.07995
1099.83	45.11824
1100.179	7.01837
1100.527	40.10637
1100.875	0
1101.223	33.0878
1101.571	6.01668
1101.919	-15.03959
1102.267	31.08745
1102.615	0
1102.962	26.08356
1103.31	15.04814
1103.658	21.06756
