Data from N2 R5 sample 11_Subt2__4__11-59-15-369.txt Node

Date: Fri Aug 29 11:59:15 PDT 2025
User: uwsun
Spectrometer: HDX01956
Trigger mode: 0
Integration Time (sec): 5.000000E-1
Scans to average: 1
Nonlinearity correction enabled: true
Boxcar width: 0
Storing dark spectrum: false
XAxis mode: Wavelengths
Number of Pixels in Spectrum: 2068
>>>>>Begin Spectral Data<<<<<
194.03	319.85078
194.578	329.99716
195.127	284.85239
195.676	301.90425
196.225	342.85479
196.773	360.92952
197.321	522.27619
197.87	724.54867
198.418	686.45719
198.966	662.42324
199.513	649.3231
200.061	591.24398
200.609	788.69656
201.156	690.19278
201.704	701.43055
202.251	686.49321
202.798	714.5108
203.345	808.58843
203.892	742.5044
204.438	773.46854
204.985	709.33498
205.532	769.62977
206.078	800.55349
206.624	750.46733
207.17	771.41287
207.716	731.41694
208.262	746.13554
208.808	711.39846
209.354	736.42835
209.899	819.65201
210.445	726.44443
210.99	716.37824
211.535	766.42803
212.08	698.30554
212.625	715.4519
213.17	765.5592
213.715	603.08113
214.259	686.29064
214.804	744.48236
215.348	665.23174
215.892	718.38607
216.436	760.40142
216.98	753.31751
217.524	626.21223
218.068	708.45368
218.612	700.44175
219.155	667.27545
219.698	646.26118
220.242	702.43421
220.785	674.28171
221.328	584.22087
221.871	655.3813
222.414	660.36049
222.956	598.19162
223.499	602.11566
224.041	657.25812
224.583	709.23123
225.126	641.15
225.668	599.2105
226.21	596.2526
226.751	587.05075
227.293	618.16476
227.835	656.31406
228.376	649.23139
228.918	676.41036
229.459	598.23803
230	680.31699
230.541	664.24734
231.082	637.27153
231.622	662.24419
232.163	609.22005
232.704	678.3726
233.244	666.35442
233.784	663.34004
234.324	626.10719
234.864	604.12439
235.404	654.27622
235.944	672.30023
236.484	663.36392
237.023	647.2467
237.563	648.21543
238.102	680.30255
238.641	701.44608
239.18	573.10439
239.719	727.47764
240.258	671.21691
240.797	682.31835
241.335	676.35106
241.874	679.01819
242.412	679.32038
242.95	622.21194
243.488	689.26168
244.026	686.26598
244.564	701.13332
245.102	650.17426
245.64	703.37102
246.177	692.2382
246.715	635.25052
247.252	749.36213
247.789	701.02982
248.326	660.27697
248.863	616.0889
249.4	690.25367
249.936	646.05446
250.473	728.34297
251.009	681.24261
251.546	707.22775
252.082	716.2339
252.618	662.17467
253.154	619.21038
253.69	608.10999
254.226	639.23598
254.761	689.22744
255.297	657.14253
255.832	737.37625
256.367	719.34323
256.903	661.15193
257.438	694.30316
257.972	701.23082
258.507	665.20846
259.042	715.21284
259.576	670.12742
260.111	713.30572
260.645	719.21569
261.179	699.28905
261.713	676.18652
262.247	723.31275
262.781	709.14694
263.315	699.36192
263.849	713.42018
264.382	722.30662
264.915	733.3404
265.449	637.23857
265.982	756.33769
266.515	750.43549
267.048	705.15266
267.58	745.26318
268.113	664.12216
268.646	711.38927
269.178	708.22722
269.71	744.25229
270.243	758.34124
270.775	737.4837
271.307	701.34188
271.838	823.50912
272.37	768.47425
272.902	761.33643
273.433	697.18287
273.965	765.44979
274.496	797.54435
275.027	754.46264
275.558	742.40373
276.089	682.31709
276.62	784.56433
277.15	851.60914
277.681	770.27366
278.211	763.46077
278.741	764.27138
279.272	758.32106
279.802	758.47881
280.332	787.41401
280.861	765.42158
281.391	745.28981
281.921	789.46336
282.45	803.55007
282.98	773.57695
283.509	800.35194
284.038	759.31619
284.567	770.38022
285.096	833.52289
285.625	781.33583
286.153	814.4316
286.682	805.37699
287.21	784.43349
287.739	802.42812
288.267	820.49191
288.795	855.72156
289.323	808.40546
289.851	856.48525
290.378	850.39865
290.906	739.36024
291.433	836.56879
291.961	832.38033
292.488	810.52439
293.015	836.44816
293.542	849.60301
294.069	899.61655
294.596	887.6259
295.122	864.51263
295.649	865.37658
296.175	886.57888
296.702	885.57669
297.228	936.65103
297.754	920.46319
298.28	901.45455
298.806	984.66931
299.332	899.39666
299.857	871.40279
300.383	939.73178
300.908	849.49059
301.433	921.59623
301.958	987.59484
302.483	900.61711
303.008	933.65899
303.533	944.78922
304.058	978.61717
304.582	897.49629
305.107	894.69183
305.631	974.53971
306.155	949.52716
306.679	967.55097
307.203	963.53492
307.727	978.60114
308.251	960.66446
308.775	987.58766
309.298	1024.64883
309.822	1027.78803
310.345	1041.65507
310.868	1042.66848
311.391	1142.86046
311.914	968.67306
312.437	1053.58674
312.96	1078.66008
313.482	1092.6857
314.005	1048.7687
314.527	1116.95522
315.049	1083.83342
315.571	1074.49604
316.093	1157.84044
316.615	1125.73033
317.137	1179.54606
317.659	1264.9018
318.18	1155.7705
318.702	1136.64281
319.223	1193.41488
319.744	1244.63493
320.265	1155.72687
320.786	1143.75302
321.307	1247.87996
321.828	1265.65117
322.348	1198.67872
322.869	1305.75103
323.389	1308.99565
323.909	1286.6772
324.43	1338.86615
324.95	1351.68696
325.47	1388.89003
325.989	1399.77213
326.509	1354.54306
327.029	1396.61927
327.548	1413.61093
328.067	1417.79157
328.587	1466.94348
329.106	1388.6122
329.625	1507.17004
330.144	1452.66308
330.662	1492.67551
331.181	1531.72744
331.7	1547.72619
332.218	1551.49465
332.736	1637.7422
333.255	1643.70339
333.773	1608.73142
334.291	1657.94233
334.808	1672.54072
335.326	1728.58881
335.844	1711.61369
336.361	1663.85616
336.879	1777.61491
337.396	1778.71222
337.913	1775.54716
338.43	1884.48062
338.947	1803.63378
339.464	1808.28531
339.981	1843.57698
340.497	1808.72307
341.014	1857.65063
341.53	1934.37717
342.046	1942.64413
342.562	2033.73337
343.078	2066.48551
343.594	2073.52676
344.11	2050.49345
344.626	2053.67208
345.141	2137.29501
345.657	2103.30622
346.172	2065.46658
346.687	2124.26823
347.202	2193.15965
347.717	2204.36257
348.232	2212.5217
348.747	2221.18625
349.261	2208.9404
349.776	2341.20092
350.29	2332.30787
350.805	2394.37937
351.319	2397.1109
351.833	2316.96932
352.347	2312.10787
352.861	2379.03047
353.374	2605.95485
353.888	2446.14278
354.401	2462.92308
354.915	2506.74421
355.428	2504.12946
355.941	2554.84111
356.454	2688.72221
356.967	2574.90524
357.48	2670.7566
357.993	2557.02517
358.505	2660.90656
359.018	2808.84358
359.53	2684.78435
360.042	2761.49187
360.554	2804.76316
361.066	2658.79513
361.578	2734.38439
362.09	2828.62701
362.602	2818.32044
363.113	2909.42508
363.625	2956.2675
364.136	3025.16047
364.647	2887.2659
365.158	3095.23462
365.669	3085.33107
366.18	3020.2899
366.691	2995.06854
367.201	3028.27745
367.712	3069.04132
368.222	3027.05697
368.733	3084.80217
369.243	3268.7162
369.753	3288.84566
370.263	3322.895
370.773	3275.99672
371.282	3432.70599
371.792	3402.46314
372.301	3611.5108
372.811	3744.67376
373.32	3632.05627
373.829	3843.12928
374.338	4007.89527
374.847	4171.83728
375.356	4266.80957
375.865	4362.59777
376.373	4595.62065
376.882	4692.72598
377.39	4658.64337
377.898	4885.65681
378.407	5184.8883
378.915	5287.074
379.423	5505.24702
379.93	5738.77047
380.438	5832.04491
380.946	6327.47403
381.453	6517.33064
381.96	6903.36487
382.468	7468.24927
382.975	7779.77977
383.482	7844.80168
383.989	7796.64781
384.495	8573.28998
385.002	9100.71349
385.509	9388.23716
386.015	10003.39796
386.521	10437.94824
387.028	10879.46531
387.534	11245.39397
388.04	11434.60259
388.546	11813.01115
389.051	12879.07627
389.557	13812.35099
390.063	14390.24682
390.568	14588.32534
391.073	15311.25507
391.578	16036.63668
392.084	16310.72124
392.589	17536.59441
393.093	18896.80942
393.598	20253.196
394.103	22026.47627
394.607	24104.26507
395.112	25485.9312
395.616	26636.0042
396.12	28779.61794
396.624	31977.47197
397.128	34512.68858
397.632	38129.65087
398.136	38254.29411
398.639	35933.8154
399.143	32503.66402
399.646	28888.45294
400.15	25083.82847
400.653	20124.16724
401.156	13866.23708
401.659	5169.95759
402.162	1054.15589
402.664	0
403.167	0
403.67	0
404.172	0
404.674	0
405.176	0
405.678	0
406.18	0
406.682	0
407.184	0
407.686	0
408.187	0
408.688	0
409.19	0
409.691	0
410.192	0
410.693	0
411.194	435.30976
411.694	4082.94878
412.195	8864.71461
412.696	12089.80453
413.196	12760.96929
413.696	12863.67595
414.196	13703.56671
414.696	17261.84252
415.196	21764.24417
415.696	29583.19008
416.196	36460.31858
416.695	40057.39798
417.195	41392.74103
417.694	41195.75467
418.194	38223.19713
418.693	36369.15336
419.192	35974.70388
419.691	34581.37064
420.19	34027.29787
420.688	32836.76866
421.187	30712.64019
421.685	28176.14759
422.184	25263.79902
422.682	21774.21906
423.18	19186.72408
423.678	17312.23531
424.176	16128.11861
424.674	15114.06095
425.172	14400.72094
425.669	13175.70296
426.167	12118.13528
426.664	11153.24098
427.161	10429.18478
427.659	9789.25434
428.156	9173.48755
428.652	8670.82829
429.149	8295.83226
429.646	7933.37057
430.143	7410.31583
430.639	6966.86343
431.135	6547.43683
431.632	6266.66434
432.128	5832.14795
432.624	5630.51486
433.12	5570.79836
433.616	5414.51015
434.111	5210.0749
434.607	5061.83032
435.103	4987.81679
435.598	4608.60926
436.093	4336.60557
436.588	4203.63737
437.083	4010.7454
437.578	3719.94646
438.073	3602.15481
438.568	3567.33179
439.062	3382.13274
439.557	3216.56847
440.051	3187.48811
440.546	3093.57817
441.04	3027.81609
441.534	3042.06398
442.028	2922.02779
442.522	2799.09727
443.015	2771.89149
443.509	2760.28495
444.002	2712.31668
444.496	2650.04835
444.989	2604.43711
445.482	2686.46386
445.975	2652.15953
446.468	2563.10963
446.961	2547.13413
447.454	2370.40579
447.947	2359.52027
448.439	2361.68497
448.931	2278.45176
449.424	2271.89023
449.916	2243.77499
450.408	2186.55072
450.9	2121.80334
451.392	2147.95762
451.884	2049.74855
452.375	2011.94768
452.867	2111.75489
453.358	1969.73622
453.849	1933.61584
454.341	1947.77681
454.832	1878.68429
455.323	1813.03087
455.814	1874.9085
456.304	1829.93447
456.795	1772.93239
457.285	1869.91442
457.776	1848.01283
458.266	1667.06777
458.756	1691.15096
459.247	1534.07891
459.737	1593.10114
460.226	1597.97929
460.716	1495.14041
461.206	1557.19594
461.695	1563.34872
462.185	1470.16872
462.674	1513.14405
463.163	1474.05526
463.653	1405.93517
464.142	1368.23233
464.63	1363.30543
465.119	1311.14076
465.608	1330.15505
466.096	1335.07533
466.585	1287.20553
467.073	1249.28127
467.561	1238.2932
468.05	1271.24697
468.538	1238.37078
469.026	1210.30025
469.513	1142.01046
470.001	1147.15858
470.489	1042.1823
470.976	1075.18202
471.463	1056.34028
471.951	1067.37916
472.438	935.13532
472.925	928.12232
473.412	1010.33024
473.899	982.1788
474.385	1018.34714
474.872	919.15505
475.359	924.25546
475.845	879.95546
476.331	917.08464
476.817	851.21833
477.303	826.1128
477.789	839.19506
478.275	799.20029
478.761	719.07839
479.247	823.09088
479.732	707.10961
480.218	745.24683
480.703	624.0196
481.188	700.92161
481.673	669.97659
482.158	599.7976
482.643	696.1834
483.128	658.96435
483.612	611.95092
484.097	565.95823
484.581	593.9369
485.066	567.94862
485.55	532.78854
486.034	516.75967
486.518	492.80706
487.002	455.79585
487.486	452.7958
487.969	438.77559
488.453	489.90227
488.936	407.66588
489.42	441.70541
489.903	412.7817
490.386	427.47963
490.869	466.73629
491.352	480.87745
491.835	413.62565
492.318	395.66289
492.8	363.55843
493.283	374.729
493.765	378.71089
494.247	431.76498
494.73	412.68255
495.212	385.72245
495.694	349.62552
496.175	243.45259
496.657	302.56515
497.139	351.45986
497.62	249.46608
498.102	272.53749
498.583	313.62533
499.064	280.48905
499.545	293.52839
500.026	270.47905
500.507	257.47843
500.988	321.63715
501.469	208.42511
501.949	214.43519
502.43	212.40772
502.91	228.37578
503.39	280.57148
503.87	209.39992
504.35	231.4478
504.83	189.33768
505.31	198.39493
505.79	200.3928
506.269	163.31779
506.749	162.3057
507.228	229.4384
507.707	167.30594
508.187	225.44535
508.666	146.30015
509.145	152.29599
509.623	137.27015
510.102	188.38039
510.581	215.43353
511.059	112.23804
511.538	211.4589
512.016	221.43866
512.494	147.30282
512.972	156.31405
513.45	101.19719
513.928	138.28307
514.406	71.14547
514.884	158.34458
515.361	186.37376
515.839	137.26367
516.316	115.23626
516.793	150.32492
517.27	157.32488
517.747	115.25341
518.224	126.24945
518.701	129.24468
519.178	93.19796
519.654	101.20816
520.131	159.33521
520.607	113.24273
521.083	77.15212
521.56	110.22369
522.036	100.18935
522.512	133.28372
522.987	71.14573
523.463	92.18939
523.939	168.35317
524.414	151.29944
524.89	114.23394
525.365	16.03194
525.84	25.05194
526.315	95.19852
526.79	110.21441
527.265	140.27418
527.74	60.12819
528.215	87.17874
528.689	77.14834
529.164	106.19973
529.638	116.26049
530.112	110.22431
530.587	66.12234
531.061	59.12466
531.534	68.14535
532.008	78.16397
532.482	142.28205
532.956	25.05641
533.429	64.13674
533.903	83.16113
534.376	74.14341
534.849	55.11264
535.322	73.15167
535.795	84.18071
536.268	95.19993
536.741	66.14021
537.213	100.20262
537.686	37.07982
538.158	53.10426
538.631	90.1932
539.103	37.07323
539.575	101.18418
540.047	63.12224
540.519	69.14617
540.991	117.25165
541.463	81.17317
541.934	102.2044
542.406	48.10131
542.877	56.1118
543.348	122.25828
543.82	120.25849
544.291	149.30307
544.762	100.20735
545.233	130.28388
545.703	72.1396
546.174	196.39022
546.645	153.31334
547.115	171.35401
547.585	139.27654
548.056	143.29538
548.526	216.42743
548.996	247.50057
549.466	264.54347
549.935	247.48637
550.405	241.43772
550.875	253.49842
551.344	289.57443
551.814	296.55995
552.283	326.57812
552.752	295.56038
553.221	355.61402
553.69	340.60798
554.159	350.69357
554.628	341.60929
555.096	342.70499
555.565	321.57978
556.033	390.74357
556.502	291.58678
556.97	328.59773
557.438	301.59633
557.906	338.66917
558.374	310.5962
558.842	288.58193
559.31	326.61127
559.777	273.55985
560.245	336.66614
560.712	341.66483
561.18	359.65904
561.647	352.65775
562.114	381.72059
562.581	441.90108
563.048	446.84829
563.514	463.93316
563.981	487.91029
564.448	507.92097
564.914	576.07429
565.381	580.05502
565.847	626.16254
566.313	625.1529
566.779	650.14855
567.245	654.20379
567.711	731.35491
568.176	732.25416
568.642	769.48575
569.108	821.5319
569.573	818.46194
570.038	880.34673
570.504	895.46194
570.969	935.73901
571.434	1007.54884
571.899	992.70196
572.363	1112.74888
572.828	1134.79187
573.293	1135.78986
573.757	1124.78005
574.222	1147.72822
574.686	1195.78279
575.15	1244.98132
575.614	1226.87617
576.078	1269.97385
576.542	1241.87865
577.006	1291.89592
577.469	1350.22344
577.933	1240.82321
578.396	1173.91706
578.86	1284.00965
579.323	1207.94992
579.786	1248.75828
580.249	1192.82488
580.712	1192.01049
581.175	1103.92178
581.637	1172.8533
582.1	1172.74351
582.563	1132.66028
583.025	1070.84112
583.487	1022.42039
583.95	1036.54467
584.412	1060.54073
584.874	1014.77786
585.336	985.69037
585.797	929.45019
586.259	934.6261
586.721	859.50582
587.182	893.5623
587.643	864.46357
588.105	816.46736
588.566	731.17731
589.027	727.3562
589.488	729.28546
589.949	775.44877
590.41	654.97677
590.87	692.23884
591.331	701.17492
591.791	664.20266
592.252	566.03681
592.712	629.20731
593.172	628.11883
593.632	605.05857
594.092	602.07019
594.552	615.04732
595.011	581.06622
595.471	564.01598
595.931	616.08947
596.39	545.05888
596.849	568.06668
597.308	524.92649
597.768	461.97652
598.227	552.08246
598.685	544.019
599.144	480.92719
599.603	494.96567
600.062	475.81467
600.52	501.91146
600.978	463.91214
601.437	495.93348
601.895	503.86781
602.353	534.96388
602.811	513.92856
603.269	529.0336
603.727	507.99695
604.184	510.93467
604.642	543.0831
605.099	479.91661
605.557	584.14965
606.014	545.94131
606.471	612.21844
606.928	656.08581
607.385	708.33211
607.842	730.28421
608.299	711.28896
608.755	662.25701
609.212	708.20969
609.668	664.13677
610.125	706.33551
610.581	728.35907
611.037	668.21238
611.493	637.20858
611.949	644.23526
612.405	639.00083
612.861	717.3342
613.316	662.25824
613.772	662.20879
614.227	686.28115
614.683	683.1553
615.138	677.25713
615.593	678.25118
616.048	738.32748
616.503	680.34525
616.958	665.34225
617.412	674.27673
617.867	552.99791
618.321	661.08958
618.776	666.18117
619.23	602.15622
619.684	661.20665
620.138	715.33245
620.592	640.27132
621.046	648.24354
621.5	615.23209
621.954	660.21182
622.407	621.13692
622.861	624.25274
623.314	620.16625
623.768	510.00749
624.221	489.8158
624.674	543.05499
625.127	499.99925
625.58	567.09281
626.033	574.06896
626.485	438.9122
626.938	503.02967
627.39	482.97034
627.843	442.89473
628.295	481.96543
628.747	454.94467
629.199	474.93843
629.651	394.79428
630.103	413.83737
630.555	403.75735
631.006	376.79109
631.458	364.77259
631.909	406.83653
632.361	325.69087
632.812	299.63228
633.263	331.65055
633.714	317.62245
634.165	394.86322
634.616	298.65347
635.067	296.60852
635.518	376.81649
635.968	292.54427
636.419	264.53637
636.869	303.66821
637.319	235.51044
637.769	236.49611
638.219	317.70288
638.669	228.51261
639.119	217.50156
639.569	259.58647
640.019	255.55576
640.468	213.4526
640.918	243.55383
641.367	251.53195
641.816	248.52479
642.265	213.46955
642.714	184.40843
643.163	174.38494
643.612	153.35322
644.061	148.30317
644.51	170.37295
644.958	206.43324
645.406	164.37809
645.855	213.49916
646.303	200.44929
646.751	150.3306
647.199	183.40122
647.647	137.30657
648.095	145.32286
648.543	198.39236
648.99	176.40559
649.438	201.45534
649.885	172.41166
650.333	181.34114
650.78	161.37686
651.227	187.43875
651.674	140.31141
652.121	141.33431
652.568	162.38165
653.015	185.45263
653.461	135.31353
653.908	165.37409
654.354	200.46163
654.801	113.26026
655.247	157.33739
655.693	131.33367
656.139	139.32613
656.585	157.3675
657.031	109.24994
657.477	90.19295
657.922	70.16022
658.368	148.35746
658.813	160.36489
659.259	124.29259
659.704	111.25534
660.149	117.26904
660.594	49.11632
661.039	115.25914
661.484	149.35
661.929	118.27302
662.373	80.20006
662.818	80.19716
663.262	90.21508
663.707	129.32183
664.151	107.25907
664.595	76.18266
665.039	91.22513
665.483	85.21498
665.927	115.26898
666.371	43.09994
666.814	119.28204
667.258	55.13036
667.701	90.19537
668.145	171.41807
668.588	101.24666
669.031	62.14613
669.474	67.1618
669.917	92.20464
670.36	61.15169
670.803	154.36732
671.245	81.17234
671.688	97.23636
672.13	85.19123
672.573	110.27805
673.015	53.12828
673.457	65.14317
673.899	101.24455
674.341	59.14339
674.783	65.15667
675.225	66.16301
675.666	62.14975
676.108	53.11699
676.549	96.2281
676.991	84.18685
677.432	90.18144
677.873	61.14273
678.314	98.23447
678.755	80.19541
679.196	38.08841
679.637	96.23519
680.078	86.20277
680.518	81.19057
680.959	76.18329
681.399	87.21626
681.839	78.19095
682.28	67.1663
682.72	63.14591
683.16	86.21467
683.6	116.26562
684.039	56.11913
684.479	53.13131
684.919	14.03291
685.358	111.28133
685.798	48.12666
686.237	70.17092
686.676	78.18312
687.115	59.14043
687.554	65.15602
687.993	78.17487
688.432	69.15968
688.871	88.20134
689.309	59.14253
689.748	49.10494
690.186	73.17622
690.625	46.10947
691.063	61.14792
691.501	83.20639
691.939	56.14095
692.377	25.06201
692.815	28.06811
693.253	87.21081
693.69	43.0965
694.128	27.06648
694.565	69.16638
695.003	88.22411
695.44	66.15694
695.877	38.09026
696.314	39.08598
696.751	54.12544
697.188	60.13982
697.625	103.23855
698.061	20.04891
698.498	77.18812
698.934	82.1991
699.371	33.07906
699.807	33.07951
700.243	51.12437
700.679	85.19475
701.115	104.24654
701.551	85.20208
701.987	78.17789
702.422	54.12999
702.858	48.11607
703.294	56.12911
703.729	85.20944
704.164	6.01477
704.599	39.08875
705.035	51.11615
705.47	23.05692
705.904	23.0547
706.339	68.16052
706.774	99.23328
707.209	50.11716
707.643	70.1699
708.078	38.09396
708.512	29.07355
708.946	96.23161
709.38	40.09643
709.814	71.16457
710.248	57.14066
710.682	84.20136
711.116	0
711.549	76.19723
711.983	50.11743
712.416	74.17698
712.85	64.16109
713.283	69.16518
713.716	147.36753
714.149	76.18315
714.582	59.13469
715.015	107.26859
715.448	76.19293
715.881	85.18864
716.313	44.10483
716.746	41.09811
717.178	54.13151
717.61	83.21164
718.043	64.16109
718.475	73.17861
718.907	82.20897
719.339	3.00698
719.77	22.05314
720.202	40.10244
720.634	54.13289
721.065	61.14642
721.497	114.2797
721.928	33.08224
722.359	26.06372
722.79	20.04878
723.221	23.05885
723.652	115.29663
724.083	41.0942
724.514	61.14217
724.945	44.10507
725.375	10.02372
725.806	83.20857
726.236	94.24158
726.666	68.16282
727.096	94.23174
727.526	90.22928
727.956	36.08336
728.386	93.23008
728.816	56.14297
729.246	55.13512
729.675	25.06251
730.105	95.23486
730.534	23.05491
730.964	103.26096
731.393	126.3128
731.822	96.24577
732.251	103.2617
732.68	86.20442
733.109	45.11231
733.537	71.17294
733.966	87.21705
734.395	59.13811
734.823	91.20724
735.251	19.04663
735.68	121.30285
736.108	71.18091
736.536	71.16925
736.964	53.12474
737.392	73.18397
737.82	84.20304
738.247	84.20266
738.675	101.24252
739.102	63.15865
739.53	68.17421
739.957	87.22441
740.384	109.26946
740.811	77.19634
741.238	94.23029
741.665	44.10358
742.092	74.1784
742.519	34.08527
742.945	51.124
743.372	88.21879
743.798	91.23448
744.225	53.1276
744.651	52.13182
745.077	44.11102
745.503	74.18197
745.929	75.18139
746.355	109.27154
746.781	61.15257
747.207	4.00958
747.632	9.02234
748.058	69.17345
748.483	90.20865
748.908	72.18012
749.334	46.11437
749.759	63.15013
750.184	50.12054
750.609	112.27531
751.033	104.24682
751.458	91.20582
751.883	90.22392
752.307	72.17095
752.732	33.08343
753.156	89.22059
753.58	80.19148
754.005	126.31872
754.429	58.13787
754.853	81.20157
755.277	70.16716
755.7	119.29462
756.124	88.21903
756.548	61.14603
756.971	86.21101
757.394	110.2829
757.818	118.30262
758.241	76.19368
758.664	76.1928
759.087	30.06817
759.51	70.17537
759.933	93.22441
760.356	49.12674
760.778	60.14879
761.201	107.26054
761.623	73.17848
762.046	111.26379
762.468	120.28809
762.89	73.1814
763.312	70.1722
763.734	68.16499
764.156	104.25687
764.578	86.19922
765	72.17685
765.421	25.06426
765.843	76.19987
766.264	111.26825
766.686	67.16939
767.107	91.22116
767.528	26.06642
767.949	75.19151
768.37	65.16069
768.791	77.18742
769.212	35.08884
769.632	33.078
770.053	65.17189
770.473	73.17861
770.894	81.20362
771.314	102.24413
771.734	30.07101
772.154	47.1217
772.575	55.12895
772.994	70.16029
773.414	87.20978
773.834	31.07843
774.254	42.10393
774.673	84.20534
775.093	53.13218
775.512	16.04
775.931	62.15806
776.351	75.18691
776.77	51.12571
777.189	67.16045
777.607	55.14133
778.026	41.1031
778.445	-13.03312
778.864	105.26867
779.282	75.18125
779.701	9.02302
780.119	15.0384
780.537	35.0882
780.955	61.15603
781.373	34.08499
781.791	53.12026
782.209	71.1647
782.627	46.12191
783.045	28.06532
783.462	45.11579
783.88	42.10941
784.297	25.06359
784.715	7.01821
785.132	52.12683
785.549	32.08083
785.966	54.1366
786.383	28.06964
786.8	41.09627
787.217	24.05764
787.633	14.03538
788.05	66.15773
788.466	48.11427
788.883	18.04641
789.299	37.08999
789.715	53.12968
790.131	53.13256
790.547	48.12068
790.963	52.12985
791.379	38.09681
791.795	56.1288
792.21	64.15043
792.626	32.07677
793.041	21.05243
793.457	47.11696
793.872	0
794.287	11.02661
794.702	58.14362
795.117	25.06273
795.532	22.05569
795.947	67.16192
796.362	76.18197
796.776	103.24082
797.191	41.10114
797.605	-17.04068
798.02	4.00988
798.434	36.08111
798.848	2.005
799.262	30.07508
799.676	84.20495
800.09	49.12127
800.504	35.0857
800.918	36.08422
801.331	69.18112
801.745	16.03727
802.158	22.05555
802.572	35.08567
802.985	57.13848
803.398	36.08662
803.811	56.14452
804.224	53.13256
804.637	-2.00484
805.05	53.12363
805.462	93.22797
805.875	23.06011
806.288	-13.03189
806.7	60.15123
807.112	39.09122
807.525	28.06974
807.937	38.09458
808.349	44.11087
808.761	47.11628
809.173	21.05144
809.584	2.00501
809.996	46.11324
810.408	100.25673
810.819	112.26171
811.231	155.39451
811.642	124.29281
812.053	119.28063
812.464	111.26217
812.875	73.18653
813.286	67.17258
813.697	55.1293
814.108	50.12277
814.519	27.06087
814.929	64.16351
815.34	-12.02958
815.75	35.0895
816.16	39.09783
816.571	44.11481
816.981	47.11165
817.391	30.07306
817.801	10.02512
818.211	57.1364
818.62	20.04864
819.03	48.11821
819.44	75.19574
819.849	46.11644
820.259	69.17668
820.668	-19.04751
821.077	-16.04036
821.486	73.17589
821.895	58.14373
822.304	24.06405
822.713	43.10227
823.122	30.07543
823.531	0
823.939	-5.01236
824.348	66.16068
824.756	28.07068
825.164	37.09368
825.573	49.1234
825.981	55.13682
826.389	56.14105
826.797	42.10571
827.205	6.01395
827.612	56.13857
828.02	22.05215
828.428	51.13027
828.835	-13.03467
829.243	51.12204
829.65	10.02512
830.057	29.07093
830.464	27.06631
830.871	46.11069
831.278	29.07064
831.685	46.10326
832.092	29.07154
832.499	-42.09412
832.905	68.17213
833.312	20.04611
833.718	56.13984
834.124	11.02545
834.531	27.06855
834.937	31.08005
835.343	37.08982
835.749	63.14741
836.155	27.07114
836.561	44.10868
836.966	41.10076
837.372	28.07174
837.777	4.01008
838.183	22.04942
838.588	44.10967
838.993	42.10275
839.399	11.02716
839.804	-31.07689
840.209	40.10223
840.613	-3.00677
841.018	28.07136
841.423	35.09022
841.828	19.04843
842.232	68.16839
842.637	16.03812
843.041	2.00518
843.445	27.06817
843.849	7.01751
844.253	33.07894
844.657	12.03048
845.061	-5.01151
845.465	-3.00734
845.869	40.09343
846.272	-14.03458
846.676	62.15003
847.079	-1.00257
847.483	25.0628
847.886	54.13166
848.289	-23.0622
848.692	56.14196
849.095	-5.01217
849.498	59.14964
849.901	20.04629
850.304	49.11744
850.707	22.05648
851.109	52.13182
851.512	42.10358
851.914	-17.04342
852.316	24.0611
852.718	-16.04184
853.121	37.09107
853.523	23.05418
853.925	13.03417
854.326	-17.04309
854.728	8.02075
855.13	-18.04703
855.531	-8.01937
855.933	57.13697
856.334	-9.02271
856.736	-17.0387
857.137	0
857.538	11.02789
857.939	-8.02001
858.34	55.13417
858.741	28.07356
859.142	54.12989
859.542	-8.02134
859.943	42.10469
860.343	-24.06032
860.744	11.02708
861.144	17.0418
861.544	-10.02434
861.945	-10.02579
862.345	33.0811
862.745	4.01004
863.145	32.07691
863.544	50.12652
863.944	47.11131
864.344	12.03006
864.743	27.06739
865.143	10.0259
865.542	2.00469
865.941	10.02497
866.34	45.1081
866.74	47.12633
867.139	-10.02425
867.537	25.06406
867.936	-11.02682
868.335	29.07415
868.734	32.08213
869.132	11.0258
869.531	58.1403
869.929	3.00692
870.327	-19.04621
870.726	34.08515
871.124	30.07051
871.522	1.00257
871.92	51.12594
872.318	8.01974
872.715	33.08206
873.113	36.08807
873.511	38.09499
873.908	-6.01531
874.306	9.02258
874.703	22.05539
875.1	14.03608
875.497	22.0531
875.894	-45.11231
876.291	69.16895
876.688	-10.02609
877.085	13.03145
877.482	23.05792
877.878	-11.02681
878.275	32.08164
878.671	69.15332
879.068	37.08965
879.464	11.02681
879.86	-7.01676
880.256	56.13821
880.652	22.05628
881.048	46.1142
881.444	24.05749
881.84	-5.01284
882.236	13.03294
882.631	5.01239
883.027	40.09716
883.422	5.0129
883.817	-37.09451
884.213	24.06192
884.608	-27.06721
885.003	-9.02196
885.398	-6.01518
885.793	17.04296
886.188	-13.03271
886.582	66.16897
886.977	26.06206
887.371	31.07874
887.766	-12.0302
888.16	36.09016
888.554	0
888.949	32.08069
889.343	55.13437
889.737	15.04023
890.131	42.1056
890.525	31.0796
890.918	10.02537
891.312	13.03136
891.706	23.06066
892.099	24.0614
892.492	49.10589
892.886	8.01974
893.279	32.08184
893.672	9.02309
894.065	20.05039
894.458	33.08331
894.851	42.10316
895.244	5.01288
895.637	37.08942
896.029	25.06146
896.422	23.05653
896.814	-7.0176
897.206	-7.01687
897.599	92.22598
897.991	-27.06628
898.383	-11.02632
898.775	68.15308
899.167	-31.0735
899.559	26.06614
899.951	-7.0167
900.342	31.07916
900.734	-9.02258
901.125	57.14947
901.517	8.0198
901.908	69.16499
902.299	6.0148
902.69	32.07583
903.082	52.12598
903.473	3.00725
903.863	25.06411
904.254	-8.0188
904.645	72.17849
905.036	4.00977
905.426	46.1055
905.817	13.03214
906.207	-40.09702
906.597	-2.00473
906.987	48.12452
907.378	23.05848
907.768	16.04256
908.158	22.05396
908.547	12.03122
908.937	62.15884
909.327	10.02448
909.717	31.07902
910.106	-2.00485
910.495	41.10258
910.885	14.0357
911.274	17.04277
911.663	36.09165
912.052	45.11121
912.441	40.10194
912.83	24.05542
913.219	33.08665
913.608	23.05665
913.997	-21.05334
914.385	-2.00483
914.774	48.11699
915.162	20.04796
915.55	25.06081
915.939	27.06846
916.327	41.10255
916.715	-1.00257
917.103	57.14019
917.491	55.13602
917.878	59.1449
918.266	20.05215
918.654	56.14297
919.041	-39.10338
919.429	-3.00716
919.816	19.04845
920.203	23.05609
920.591	1.0025
920.978	43.10548
921.365	40.10516
921.752	32.07659
922.139	22.04808
922.525	-10.0243
922.912	6.01476
923.299	-7.01758
923.685	31.08115
924.072	34.0787
924.458	47.11653
924.844	11.02742
925.231	32.07477
925.617	3.0077
926.003	23.05908
926.389	7.0178
926.774	30.07632
927.16	23.05742
927.546	-17.04391
927.931	28.07017
928.317	23.05329
928.702	18.04287
929.088	-14.03353
929.473	35.08931
929.858	-47.11572
930.243	34.08187
930.628	-28.06913
931.013	-15.03763
931.398	34.07848
931.783	41.10813
932.167	9.02218
932.552	31.07796
932.937	48.11921
933.321	-12.03045
933.705	-28.07158
934.09	92.23081
934.474	18.04303
934.858	14.03654
935.242	0
935.626	16.04121
936.009	27.0721
936.393	20.05117
936.777	39.10007
937.16	5.01311
937.544	77.18052
937.927	-35.09016
938.311	72.17509
938.694	70.18452
939.077	13.03135
939.46	51.12525
939.843	12.02526
940.226	26.06698
940.609	0
940.991	19.04863
941.374	0
941.757	56.13806
942.139	8.01813
942.522	59.13924
942.904	42.10114
943.286	28.07143
943.668	25.06505
944.05	28.06926
944.432	62.15268
944.814	26.06434
945.196	-31.07669
945.578	-41.09916
945.959	37.08695
946.341	63.15432
946.722	32.07539
947.104	10.02409
947.485	-6.01412
947.866	20.05066
948.247	33.08352
948.628	23.0564
949.009	18.04636
949.39	9.02258
949.771	1.00235
950.152	3.00743
950.532	-65.16328
950.913	12.02916
951.293	-11.03001
951.674	8.01951
952.054	-8.02003
952.434	-16.0402
952.814	34.08116
953.194	35.09184
953.574	79.19358
953.954	14.03348
954.334	8.02009
954.714	-44.10912
955.093	27.06668
955.473	23.0578
955.853	4.01044
956.232	43.11799
956.611	12.029
956.99	20.05054
957.37	9.0231
957.749	24.05755
958.128	-12.03057
958.506	37.0962
958.885	5.01272
959.264	12.02962
959.643	-23.05312
960.021	6.01499
960.4	10.02285
960.778	84.20564
961.156	9.02273
961.535	20.0469
961.913	34.07982
962.291	-10.02592
962.669	-6.01535
963.047	15.03852
963.424	4.01029
963.802	33.0814
964.18	47.119
964.557	37.08546
964.935	36.08554
965.312	11.02884
965.69	42.10533
966.067	33.08062
966.444	42.10366
966.821	24.06215
967.198	-9.02208
967.575	11.02724
967.952	40.09446
968.329	22.05382
968.705	40.08598
969.082	17.04385
969.458	-10.02426
969.835	30.07331
970.211	14.03616
970.587	45.11215
970.963	45.11555
971.339	5.01316
971.715	28.0702
972.091	40.09869
972.467	31.07759
972.843	36.08957
973.219	47.11294
973.594	4.01054
973.97	-8.01926
974.345	10.02412
974.721	64.15458
975.096	11.02681
975.471	12.02868
975.846	-2.00485
976.221	40.10176
976.596	8.01933
976.971	15.03727
977.346	20.04684
977.72	28.07161
978.095	35.09069
978.469	50.11935
978.844	44.11075
979.218	-8.01939
979.593	32.07694
979.967	9.02209
980.341	6.01394
980.715	23.05823
981.089	21.05285
981.463	-14.03256
981.837	-27.06692
982.21	49.11407
982.584	-5.0122
982.957	-5.01261
983.331	31.07356
983.704	27.06663
984.078	-6.01494
984.451	55.13727
984.824	25.06117
985.197	27.06587
985.57	4.01011
985.943	39.09652
986.316	32.07889
986.688	40.09665
987.061	22.05185
987.434	21.05499
987.806	30.07303
988.179	-37.08878
988.551	56.14191
988.923	-2.00497
989.295	66.16445
989.667	-30.07276
990.039	20.04969
990.411	-2.00465
990.783	38.08771
991.155	-33.08053
991.527	74.18143
991.898	6.01507
992.27	8.01994
992.641	42.10552
993.012	25.05912
993.384	6.01443
993.755	17.04359
994.126	53.12741
994.497	-19.04723
994.868	51.11713
995.239	-19.04664
995.61	-14.03563
995.98	8.01959
996.351	-39.09814
996.722	-33.07779
997.092	-22.05282
997.462	-62.148
997.833	38.09029
998.203	51.12362
998.573	-14.03526
998.943	-23.0547
999.313	-27.06565
999.683	2.00484
1000.053	15.03475
1000.423	30.07317
1000.792	31.0806
1001.162	24.05934
1001.531	40.0988
1001.901	13.03262
1002.27	-20.04535
1002.639	35.08965
1003.009	-14.0337
1003.378	22.05652
1003.747	-24.05751
1004.116	-19.04606
1004.485	7.01687
1004.853	26.06614
1005.222	50.12607
1005.591	22.05252
1005.959	-4.00911
1006.328	-36.08243
1006.696	-16.03907
1007.064	1.00254
1007.433	46.11503
1007.801	57.13972
1008.169	12.03051
1008.537	0
1008.905	0
1009.273	36.08915
1009.64	-25.06049
1010.008	30.07178
1010.375	72.1741
1010.743	43.09943
1011.11	1.00239
1011.478	-4.01
1011.845	18.04259
1012.212	-32.07363
1012.579	34.0837
1012.946	37.08827
1013.313	63.14955
1013.68	28.06321
1014.047	-36.08718
1014.414	-42.10095
1014.78	2.00501
1015.147	16.03894
1015.513	32.07735
1015.88	33.08462
1016.246	6.01493
1016.612	11.02538
1016.978	15.03699
1017.344	0
1017.71	64.15563
1018.076	32.07571
1018.442	27.06972
1018.808	9.02266
1019.174	5.01264
1019.539	88.20102
1019.905	-34.08147
1020.27	-7.01745
1020.636	17.04101
1021.001	23.05533
1021.366	16.03866
1021.731	23.05941
1022.096	32.08095
1022.461	-4.00956
1022.826	11.02633
1023.191	55.14413
1023.556	6.01418
1023.92	47.1156
1024.285	27.06616
1024.649	27.06643
1025.014	23.05724
1025.378	-2.00507
1025.742	9.02251
1026.107	41.09288
1026.471	34.0796
1026.835	17.04238
1027.199	-40.09789
1027.562	2.00469
1027.926	22.05406
1028.29	9.02293
1028.654	5.0116
1029.017	36.08869
1029.381	-17.04112
1029.744	5.01285
1030.107	11.02621
1030.471	26.06251
1030.834	57.12944
1031.197	18.04361
1031.56	-21.05021
1031.923	-6.01566
1032.286	40.09409
1032.648	45.10768
1033.011	-39.09108
1033.374	26.06137
1033.736	-12.03187
1034.099	-23.0568
1034.461	-34.08714
1034.823	-6.01509
1035.185	23.05815
1035.548	17.04161
1035.91	18.04336
1036.272	76.172
1036.634	30.07363
1036.995	1.00237
1037.357	-9.02213
1037.719	21.05132
1038.08	50.11867
1038.442	5.01197
1038.803	-20.04864
1039.165	13.03301
1039.526	4.00975
1039.887	0
1040.248	-12.02989
1040.609	47.11615
1040.97	11.02706
1041.331	32.08124
1041.692	6.01412
1042.053	23.05263
1042.413	45.10492
1042.774	22.05376
1043.134	42.1001
1043.495	26.06561
1043.855	2.00489
1044.215	28.06974
1044.576	-11.02659
1044.936	14.03232
1045.296	-4.01008
1045.656	33.08119
1046.016	26.06301
1046.375	-10.02452
1046.735	-41.09462
1047.095	31.07279
1047.454	16.03414
1047.814	30.07235
1048.173	80.18994
1048.533	21.04837
1048.892	6.01451
1049.251	49.12296
1049.61	13.03221
1049.969	-2.00476
1050.328	-36.07945
1050.687	9.02205
1051.046	-9.02214
1051.405	18.04501
1051.763	-13.03025
1052.122	12.03012
1052.48	-23.05713
1052.839	-25.05964
1053.197	12.02844
1053.555	42.09586
1053.914	16.03936
1054.272	37.08962
1054.63	13.03199
1054.988	-13.03124
1055.345	17.03685
1055.703	22.0532
1056.061	0
1056.419	30.07788
1056.776	41.09953
1057.134	23.0535
1057.491	2.00505
1057.848	23.05751
1058.206	42.09887
1058.563	-18.04022
1058.92	43.09919
1059.277	31.07669
1059.634	31.07316
1059.991	11.02653
1060.348	-8.01828
1060.704	-7.01685
1061.061	42.09768
1061.418	-2.00489
1061.774	12.02981
1062.131	3.00799
1062.487	2.00472
1062.843	4.01005
1063.199	7.01753
1063.555	-15.03518
1063.911	8.02034
1064.267	31.0649
1064.623	-36.08879
1064.979	46.10901
1065.335	26.0624
1065.691	41.09838
1066.046	-5.01111
1066.402	-20.04605
1066.757	59.14858
1067.112	7.01731
1067.468	-19.04543
1067.823	63.15099
1068.178	33.08002
1068.533	36.08744
1068.888	62.14771
1069.243	1.00249
1069.598	26.06342
1069.952	-27.06171
1070.307	-8.02
1070.662	-5.01199
1071.016	-75.17225
1071.371	-31.07163
1071.725	62.14788
1072.079	40.09632
1072.434	-13.03194
1072.788	6.0144
1073.142	21.0519
1073.496	2.00479
1073.85	-11.0258
1074.203	16.03904
1074.557	16.04276
1074.911	45.10744
1075.265	10.02341
1075.618	39.09535
1075.971	25.05971
1076.325	5.0128
1076.678	-27.06266
1077.031	-36.08283
1077.385	-28.06264
1077.738	-32.07339
1078.091	-47.1089
1078.444	-11.02583
1078.796	-4.00991
1079.149	50.12427
1079.502	-57.13734
1079.855	21.04922
1080.207	43.10599
1080.56	11.0286
1080.912	36.08781
1081.264	10.02424
1081.617	14.03432
1081.969	-15.03825
1082.321	23.0564
1082.673	-40.09288
1083.025	-13.03119
1083.377	-182.40986
1083.728	36.08415
1084.08	-14.03533
1084.432	7.01701
1084.783	22.05179
1085.135	16.04031
1085.486	-28.06502
1085.838	22.05442
1086.189	-29.07138
1086.54	13.03124
1086.891	-22.0563
1087.242	19.04649
1087.593	25.0611
1087.944	43.09737
1088.295	0
1088.646	59.14264
1088.996	-44.1078
1089.347	19.04685
1089.698	-28.06712
1090.048	34.08848
1090.398	-20.04699
1090.749	-11.0266
1091.099	-10.0254
1091.449	30.07494
1091.799	53.13251
1092.149	-29.07169
1092.499	-4.00985
1092.849	33.08406
1093.199	48.12025
1093.548	-37.09029
1093.898	-17.04301
1094.248	33.08497
1094.597	-33.08539
1094.947	13.03486
1095.296	40.09887
1095.645	22.05745
1095.994	-3.00727
1096.343	-3.00761
1096.692	-24.06378
1097.041	-26.0712
1097.39	54.13523
1097.739	23.06001
1098.088	56.14975
1098.437	-29.07713
1098.785	13.03523
1099.134	33.0878
1099.482	17.04696
1099.83	5.01323
1100.179	-4.01052
1100.527	37.09844
1100.875	-9.02401
1101.223	26.06925
1101.571	14.03887
1101.919	-25.06609
1102.267	-1.00283
1102.615	-3.00965
1102.962	5.01611
1103.31	0
1103.658	11.03543
