Data from N2 R5 sample 5_Subt2__1__11-59-49-369.txt Node

Date: Fri Aug 29 11:59:49 PDT 2025
User: uwsun
Spectrometer: HDX01956
Trigger mode: 0
Integration Time (sec): 5.000000E-1
Scans to average: 1
Nonlinearity correction enabled: true
Boxcar width: 0
Storing dark spectrum: false
XAxis mode: Wavelengths
Number of Pixels in Spectrum: 2068
>>>>>Begin Spectral Data<<<<<
194.03	219.59378
194.578	203.62568
195.127	211.63963
195.676	224.68003
196.225	266.674
196.773	274.71805
197.321	416.03659
197.87	548.21622
198.418	471.04659
198.966	465.04136
199.513	353.769
200.061	443.9642
200.609	469.07787
201.156	403.75064
201.704	416.90487
202.251	433.99431
202.798	450.00626
203.345	525.10001
203.892	486.04215
204.438	522.05151
204.985	458.91651
205.532	510.14114
206.078	529.09277
206.624	463.96833
207.17	523.01751
207.716	448.92804
208.262	521.8468
208.808	478.99284
209.354	471.97285
209.899	546.16953
210.445	513.07056
210.99	443.90968
211.535	484.9663
212.08	491.9664
212.625	513.08903
213.17	496.07187
213.715	396.74878
214.259	469.93048
214.804	515.07997
215.348	473.91914
215.892	457.93843
216.436	522.01918
216.98	439.83233
217.524	405.82678
218.068	489.05288
218.612	483.04261
219.155	484.96764
219.698	515.03619
220.242	452.9769
220.785	431.86907
221.328	397.86557
221.871	446.98494
222.414	460.99206
222.956	382.80053
223.499	391.76377
224.041	473.94718
224.583	453.84085
225.126	399.76128
225.668	404.85411
226.21	392.86209
226.751	382.72089
227.293	409.81144
227.835	382.81468
228.376	492.97042
228.918	466.0168
229.459	361.78809
230	407.84067
230.541	431.85709
231.082	456.94968
231.622	491.96276
232.163	437.91153
232.704	449.95775
233.244	406.87562
233.784	468.9894
234.324	406.76017
234.864	389.76383
235.404	423.87175
235.944	440.89965
236.484	483.03325
237.023	441.89291
237.563	449.88456
238.102	446.90365
238.641	462.00337
239.18	421.84227
239.719	437.94792
240.258	453.8681
240.797	430.88239
241.335	476.99662
241.874	452.72487
242.412	440.90536
242.95	402.82531
243.488	432.84326
244.026	413.81517
244.564	453.78442
245.102	424.81115
245.64	450.93135
246.177	480.90675
246.715	532.07267
247.252	488.94716
247.789	520.80701
248.326	381.78732
248.863	432.80127
249.4	460.88557
249.936	497.84603
250.473	444.87821
251.009	413.8056
251.546	478.8813
252.082	462.85094
252.618	486.9028
253.154	432.88329
253.69	447.8504
254.226	452.91455
254.761	482.90562
255.297	426.78698
255.832	462.92237
256.367	521.02035
256.903	499.90782
257.438	474.9393
257.972	478.88926
258.507	451.86511
259.042	490.88262
259.576	457.81451
260.111	467.90921
260.645	488.87766
261.179	498.96565
261.713	465.86227
262.247	513.98215
262.781	446.77579
263.315	496.01233
263.849	490.02587
264.382	524.99715
264.915	450.88257
265.449	448.91144
265.982	486.92123
266.515	500.01404
267.048	376.67202
267.58	470.857
268.113	513.90349
268.646	473.97742
269.178	502.91861
269.71	517.92483
270.243	555.03325
270.775	493.04741
271.307	546.08379
271.838	527.03748
272.37	534.08214
272.902	513.96032
273.433	490.879
273.965	543.0841
274.496	475.9921
275.027	503.03338
275.558	529.05218
276.089	436.89268
276.62	554.16369
277.15	494.01463
277.681	516.91424
278.211	553.11177
278.741	506.90258
279.272	485.90699
279.802	571.1628
280.332	514.98906
280.861	537.05373
281.391	514.94532
281.921	544.06976
282.45	568.15746
282.98	544.16674
283.509	514.93678
284.038	483.89968
284.567	512.97953
285.096	550.0765
285.625	550.99987
286.153	458.88129
286.682	553.00912
287.21	495.97198
287.739	561.06049
288.267	522.02062
288.795	564.21075
289.323	524.98067
289.851	594.10135
290.378	512.92226
290.906	470.92441
291.433	505.02396
291.961	527.94856
292.488	546.09338
293.015	538.00476
293.542	598.1977
294.069	551.0782
294.596	599.17674
295.122	581.09194
295.649	607.03645
296.175	573.1028
296.702	596.14028
297.228	622.18609
297.754	553.97244
298.28	562.99475
298.806	621.15581
299.332	580.98555
299.857	636.09163
300.383	627.24574
300.908	526.00076
301.433	623.16414
301.958	593.0637
302.483	591.14516
303.008	629.20556
303.533	648.31597
304.058	658.18329
304.582	564.02586
305.107	582.18443
305.631	644.11367
306.155	683.18096
306.679	646.12959
307.203	620.08402
307.727	642.14855
308.251	665.24217
308.775	621.10147
309.298	727.26791
309.822	729.368
310.345	658.15969
310.868	689.21287
311.391	760.36924
311.914	677.25963
312.437	713.1827
312.96	736.2462
313.482	724.2371
314.005	734.34324
314.527	708.37196
315.049	809.46999
315.571	747.14822
316.093	790.38712
316.615	784.32554
317.137	833.21784
317.659	821.39767
318.18	808.36402
318.702	796.27111
319.223	836.11894
319.744	831.24182
320.265	770.28351
320.786	798.34709
321.307	881.47193
321.828	824.23392
322.348	851.32257
322.869	887.35228
323.389	869.8101
323.909	882.30527
324.43	949.48584
324.95	923.32278
325.47	881.39574
325.989	917.35278
326.509	968.26088
327.029	919.2523
327.548	921.24197
328.067	959.40215
328.587	956.47998
329.106	957.28659
329.625	1031.70185
330.144	968.30705
330.662	983.31483
331.181	1013.3642
331.7	1042.38375
332.218	1099.26047
332.736	1118.43048
333.255	1064.35798
333.773	1052.37673
334.291	1144.58923
334.808	1076.24999
335.326	1168.3361
335.844	1147.34285
336.361	1128.51187
336.879	1146.3313
337.396	1164.4108
337.913	1201.31948
338.43	1245.28546
338.947	1249.40712
339.464	1214.13522
339.981	1273.37395
340.497	1276.48887
341.014	1229.39897
341.53	1219.19801
342.046	1261.40471
342.562	1343.50795
343.078	1394.35373
343.594	1319.34898
344.11	1417.36902
344.626	1378.4819
345.141	1423.2285
345.657	1374.21776
346.172	1377.33283
346.687	1428.20937
347.202	1456.14448
347.717	1438.28788
348.232	1479.41838
348.747	1481.17369
349.261	1403.97695
349.776	1538.21526
350.29	1547.29466
350.805	1644.37996
351.319	1626.17352
351.833	1544.04003
352.347	1527.13957
352.861	1652.1108
353.374	1623.10688
353.888	1615.20596
354.401	1640.04748
354.915	1688.92349
355.428	1709.2204
355.941	1744.01195
356.454	1683.96317
356.967	1700.06669
357.48	1723.98286
357.993	1744.15558
358.505	1761.094
359.018	1807.09256
359.53	1796.00648
360.042	1883.79258
360.554	1823.02906
361.066	1787.00687
361.578	1790.71169
362.09	1832.93156
362.602	1902.67283
363.113	1868.80024
363.625	1944.67879
364.136	1950.62051
364.647	1904.6571
365.158	2119.66747
365.669	2006.77237
366.18	2016.70776
366.691	2040.50463
367.201	2010.70254
367.712	2058.51051
368.222	2102.48941
368.733	2131.28502
369.243	2213.26772
369.753	2211.39392
370.263	2169.46984
370.773	2172.53365
371.282	2205.34484
371.792	2352.03967
372.301	2467.13845
372.811	2382.39927
373.32	2416.71741
373.829	2538.83439
374.338	2660.57752
374.847	2572.62135
375.356	2781.50111
375.865	2874.1145
376.373	3075.06365
376.882	3176.24522
377.39	3139.08353
377.898	3358.85106
378.407	3482.64393
378.915	3658.55359
379.423	3640.57024
379.93	3862.51897
380.438	3952.52899
380.946	4050.60538
381.453	4249.76047
381.96	4694.36465
382.468	4947.30849
382.975	5130.6261
383.482	5350.83924
383.989	5149.99007
384.495	5461.99793
385.002	5836.37399
385.509	6020.15315
386.015	6731.31907
386.521	6882.20944
387.028	7111.87003
387.534	7300.45562
388.04	7625.2691
388.546	7750.36286
389.051	8358.7713
389.557	9049.00334
390.063	9455.97819
390.568	9589.93194
391.073	9872.07943
391.578	10338.23888
392.084	10404.36693
392.589	11122.24237
393.093	12223.63331
393.598	13012.74336
394.103	14226.91996
394.607	15556.1221
395.112	16532.44118
395.616	17537.96715
396.12	18651.14083
396.624	20471.22733
397.128	22228.64086
397.632	25077.79404
398.136	26821.64182
398.639	28794.79336
399.143	31116.31754
399.646	28456.21188
400.15	25083.82847
400.653	20124.16724
401.156	13866.23708
401.659	5169.95759
402.162	1054.15589
402.664	0
403.167	0
403.67	0
404.172	0
404.674	0
405.176	0
405.678	0
406.18	0
406.682	0
407.184	0
407.686	0
408.187	0
408.688	0
409.19	0
409.691	0
410.192	0
410.693	0
411.194	435.30976
411.694	4082.94878
412.195	8864.71461
412.696	12089.80453
413.196	12760.96929
413.696	12863.67595
414.196	13703.56671
414.696	17261.84252
415.196	21764.24417
415.696	29583.19008
416.196	36460.31858
416.695	30867.66574
417.195	28869.72906
417.694	27257.6711
418.194	25446.4732
418.693	24022.27432
419.192	23829.90371
419.691	23042.78039
420.19	22754.40924
420.688	22191.20094
421.187	21000.21723
421.685	18926.91913
422.184	16911.50806
422.682	14512.47167
423.18	12717.71339
423.678	11664.13726
424.176	10552.41064
424.674	10187.49474
425.172	9659.40559
425.669	8800.53252
426.167	8119.63759
426.664	7528.61184
427.161	6871.15668
427.659	6462.82631
428.156	5924.81408
428.652	5740.29053
429.149	5545.49333
429.646	5144.38954
430.143	4941.03232
430.639	4724.49745
431.135	4385.844
431.632	4161.71723
432.128	3827.5293
432.624	3720.53397
433.12	3543.53907
433.616	3544.53866
434.111	3243.63804
434.607	3359.66337
435.103	3336.64564
435.598	3033.78757
436.093	2864.13473
436.588	2718.25003
437.083	2652.38887
437.578	2510.58818
438.073	2239.89734
438.568	2289.02982
439.062	2160.80406
439.557	2169.1267
440.051	2035.0981
440.546	1930.17349
441.04	1906.35157
441.534	1896.56368
442.028	1944.46648
442.522	1777.51358
443.015	1807.32741
443.509	1796.6423
444.002	1689.66573
444.496	1732.42261
444.989	1695.71767
445.482	1777.75801
445.975	1602.53646
446.468	1583.46768
446.961	1582.48038
447.454	1605.62318
447.947	1467.71489
448.439	1536.83759
448.931	1472.64054
449.424	1502.9669
449.916	1474.87248
450.408	1390.68933
450.9	1301.84626
451.392	1262.94665
451.884	1307.7958
452.375	1230.91324
452.867	1352.81786
453.358	1216.7589
453.849	1212.66823
454.341	1199.78033
454.832	1201.70618
455.323	1194.94528
455.814	1163.85348
456.304	1191.87646
456.795	1103.84402
457.285	1190.86498
457.776	1195.93421
458.266	1068.92251
458.756	1025.95658
459.247	931.87009
459.737	913.86897
460.226	967.81943
460.716	898.89463
461.206	893.91852
461.695	954.05533
462.185	921.93131
462.674	954.92868
463.163	929.85975
463.653	882.76188
464.142	859.95119
464.63	875.01265
465.119	761.8316
465.608	778.84929
466.096	863.85619
466.585	830.93274
467.073	804.97433
467.561	729.91781
468.05	836.97051
468.538	724.96037
469.026	761.96228
469.513	714.75591
470.001	732.8663
470.489	658.85509
470.976	659.84157
471.463	670.96389
471.951	636.94294
472.438	536.74437
472.925	600.81147
473.412	603.90292
473.899	615.83645
474.385	617.92615
474.872	552.78294
475.359	527.80951
475.845	497.62115
476.331	480.6592
476.817	542.85155
477.303	459.69373
477.789	489.77377
478.275	428.71535
478.761	474.76408
479.247	443.6623
479.732	419.71319
480.218	457.8259
480.703	406.70469
481.188	371.54252
481.673	361.57705
482.158	325.47229
482.643	411.75338
483.128	287.4687
483.612	357.59681
484.097	354.63465
484.581	351.59322
485.066	361.63804
485.55	265.42477
486.034	314.49087
486.518	230.40489
487.002	232.42964
487.486	298.54581
487.969	245.45564
488.453	319.61366
488.936	220.37877
489.42	246.41539
489.903	258.50791
490.386	279.33113
490.869	253.42431
491.352	227.44151
491.835	256.40601
492.318	205.36192
492.8	210.33765
493.283	265.52993
493.765	192.37762
494.247	228.42603
494.73	192.33746
495.212	176.3473
495.694	207.38458
496.175	108.2079
496.657	214.40919
497.139	171.23769
497.62	111.21486
498.102	134.27337
498.583	173.35686
499.064	97.17761
499.545	145.2714
500.026	58.10859
500.507	116.22352
500.988	140.28964
501.469	73.15377
501.949	161.33136
502.43	56.11175
502.91	89.15236
503.39	114.24145
503.87	125.24405
504.35	81.16265
504.83	69.12711
505.31	86.17601
505.79	50.10168
506.269	64.12771
506.749	21.041
507.228	43.08603
507.707	97.18084
508.187	67.13752
508.666	27.057
509.145	46.09184
509.623	28.05663
510.102	66.13728
510.581	112.23119
511.059	28.0606
511.538	53.11914
512.016	31.06426
512.494	55.11565
512.972	44.09087
513.45	-49.09908
513.928	65.13553
514.406	-24.05023
514.884	47.10491
515.361	26.05418
515.839	8.01588
516.316	14.02942
516.793	34.07547
517.27	37.07862
517.747	-1.00226
518.224	3.00611
518.701	-10.01961
519.178	-18.03924
519.654	10.02103
520.131	-37.08136
520.607	17.03727
521.083	11.02207
521.56	-7.01461
522.036	-39.07636
522.512	38.08273
522.987	9.01873
523.463	0
523.939	26.05637
524.414	17.03477
524.89	39.08139
525.365	-10.02009
525.84	-61.12917
526.315	-40.08609
526.79	26.05169
527.265	14.02824
527.74	-42.09172
528.215	-7.01469
528.689	-52.10329
529.164	-3.0058
529.638	-20.04616
530.112	-52.10994
530.587	-67.12833
531.061	-60.13008
531.534	9.01948
532.008	7.01495
532.482	47.09543
532.956	-69.15866
533.429	-4.00867
533.903	8.01581
534.376	33.06458
534.849	-36.07525
535.322	-11.02328
535.795	0
536.268	-27.05835
536.741	23.04932
537.213	-23.04791
537.686	-10.02179
538.158	-59.11913
538.631	24.05225
539.103	-54.10916
539.575	1.00187
540.047	12.02357
540.519	15.03215
540.991	39.08529
541.463	-10.0218
541.934	-10.02056
542.406	-54.11652
542.877	-9.01824
543.348	8.01736
543.82	56.12229
544.291	47.09782
544.762	6.0127
545.233	47.10444
545.703	8.01575
546.174	61.12527
546.645	23.04849
547.115	52.11052
547.585	66.13354
548.056	-8.01708
548.526	91.18535
548.996	107.2238
549.466	136.28804
549.935	54.11117
550.405	144.268
550.875	106.21605
551.344	123.25395
551.814	184.35762
552.283	236.42831
552.752	157.30828
553.221	198.35678
553.69	210.38811
554.159	206.42197
554.628	178.33144
555.096	203.43154
555.565	218.40411
556.033	228.45181
556.502	246.50117
556.97	151.28753
557.438	227.45752
557.906	260.52415
558.374	197.38919
558.842	205.42211
559.31	230.44149
559.777	196.40894
560.245	327.64966
560.712	271.53715
561.18	229.43415
561.647	264.50406
562.114	307.59114
562.581	367.76247
563.048	393.75712
563.514	384.788
563.981	463.87056
564.448	489.89233
564.914	465.89239
565.381	545.00001
565.847	617.14836
566.313	600.11361
566.779	563.01703
567.245	688.25573
567.711	659.2431
568.176	705.21651
568.642	781.50465
569.108	764.44542
569.573	839.49147
570.038	881.34787
570.504	873.43463
570.969	926.72607
571.434	997.53789
571.899	1048.77157
572.363	1087.72166
572.828	1115.77128
573.293	1132.78664
573.757	1169.82793
574.222	1149.73022
574.686	1205.79241
575.15	1218.954
575.614	1282.93024
576.078	1295.99941
576.542	1242.87961
577.006	1298.90223
577.469	1353.22657
577.933	1224.80827
578.396	1253.00206
578.86	1296.02156
579.323	1212.95529
579.786	1243.75393
580.249	1190.82287
580.712	1167.98257
581.175	1190.02551
581.637	1181.86281
582.1	1187.758
582.563	1086.61479
583.025	1045.80991
583.487	990.38974
583.95	1012.51962
584.412	1044.52481
584.874	990.74655
585.336	932.62175
585.797	944.4673
586.259	883.55772
586.721	878.53157
587.182	893.5623
587.643	859.45704
588.105	840.50135
588.566	779.23785
589.027	713.33463
589.488	711.25953
589.949	748.40751
590.41	614.92803
590.87	681.22255
591.331	670.13233
591.791	610.11983
592.252	565.03523
592.712	596.15294
593.172	599.07504
593.632	626.08936
594.092	579.03534
594.552	584.0027
595.011	527.98166
595.471	518.9455
595.931	506.92172
596.39	489.96427
596.849	532.00778
597.308	548.96289
597.768	445.94593
598.227	534.05154
598.685	502.95156
599.144	487.93913
599.603	496.96912
600.062	443.76628
600.52	453.83415
600.978	511.99535
601.437	506.95166
601.895	505.87079
602.353	495.90237
602.811	564.00612
603.269	533.04045
603.727	552.07226
604.184	472.87329
604.642	591.16591
605.099	597.1083
605.557	596.17001
606.014	603.02407
606.471	611.21672
606.928	592.99836
607.385	686.29761
607.842	729.28278
608.299	739.33031
608.755	718.345
609.212	756.27531
609.668	698.18425
610.125	777.44464
610.581	792.45544
611.037	781.37737
611.493	738.36621
611.949	738.3839
612.405	665.03384
612.861	759.39782
613.316	732.3679
613.772	706.275
614.227	742.3668
614.683	826.34398
615.138	823.47354
615.593	754.36534
616.048	754.35078
616.503	807.54961
616.958	772.52041
617.412	746.38861
617.867	712.23352
618.321	772.23406
618.776	765.32241
619.23	742.37774
619.684	747.33443
620.138	799.4584
620.592	752.45529
621.046	766.42874
621.5	716.40137
621.954	716.29639
622.407	695.24902
622.861	699.37934
623.314	659.2279
623.768	681.29222
624.221	607.98007
624.674	575.10879
625.127	598.16841
625.58	667.25514
626.033	614.13228
626.485	563.13815
626.938	603.2069
627.39	587.15149
627.843	550.08412
628.295	525.0413
628.747	593.19397
629.199	526.027
629.651	465.92211
630.103	464.9298
630.555	482.88824
631.006	534.08263
631.458	476.9856
631.909	516.0351
632.361	447.92494
632.812	387.80259
633.263	466.88676
633.714	409.78567
634.165	365.80458
634.616	411.87975
635.067	382.77009
635.518	356.77636
635.968	386.70273
636.419	343.68431
636.869	317.69703
637.319	338.71804
637.769	363.74171
638.219	339.74821
638.669	295.65411
639.119	365.81872
639.569	330.73642
640.019	321.6898
640.468	272.57053
640.918	338.75552
641.367	310.64851
641.816	310.64707
642.265	303.65533
642.714	309.66802
643.163	284.61384
643.612	214.48803
644.061	273.54339
644.51	269.57781
644.958	282.58314
645.406	269.60713
645.855	284.65627
646.303	315.69089
646.751	229.49635
647.199	301.64348
647.647	246.53808
648.095	276.59783
648.543	276.53695
648.99	302.6784
649.438	299.6638
649.885	276.64741
650.333	239.44404
650.78	236.54428
651.227	213.4972
651.674	278.60062
652.121	242.56256
652.568	194.45419
653.015	252.60885
653.461	223.50887
653.908	276.6116
654.354	234.53644
654.801	169.38487
655.247	244.51451
655.693	222.55632
656.139	203.47032
656.585	274.62661
657.031	153.34773
657.477	202.42258
657.922	189.42223
658.368	254.60116
658.813	220.49564
659.259	201.46717
659.704	170.38644
660.149	181.41086
660.594	204.46973
661.039	169.37661
661.484	249.57346
661.929	221.50084
662.373	175.43008
662.818	199.47964
663.262	195.45662
663.707	192.47351
664.151	214.50767
664.595	186.43768
665.039	170.41447
665.483	187.46431
665.927	174.40226
666.371	136.31029
666.814	194.45312
667.258	139.32409
667.701	220.46432
668.145	229.55381
668.588	178.42846
669.031	114.26596
669.474	169.40023
669.917	217.47014
670.36	193.46834
670.803	183.43405
671.245	165.34465
671.688	203.48483
672.13	119.26585
672.573	203.50458
673.015	174.41151
673.457	196.41984
673.899	194.46147
674.341	173.41144
674.783	150.35572
675.225	155.37656
675.666	117.27966
676.108	158.34107
676.549	170.39816
676.991	134.29497
677.432	109.21878
677.873	160.3671
678.314	174.41024
678.755	183.4384
679.196	102.23431
679.637	181.43642
680.078	167.38753
680.518	181.41753
680.959	134.31961
681.399	160.39242
681.839	176.423
682.28	156.3809
682.72	138.31485
683.16	164.40357
683.6	177.40032
684.039	122.25579
684.479	141.3437
684.919	124.28519
685.358	181.45302
685.798	156.40412
686.237	159.38178
686.676	201.46052
687.115	154.35984
687.554	164.38621
687.993	175.38449
688.432	96.22097
688.871	160.36076
689.309	106.2538
689.748	164.34248
690.186	222.52075
690.625	133.3112
691.063	176.41753
691.501	190.46322
691.939	167.41193
692.377	133.32336
692.815	170.40252
693.253	179.4262
693.69	179.39046
694.128	183.43757
694.565	164.38832
695.003	163.40959
695.44	181.42085
695.877	185.42692
696.314	204.43414
696.751	160.36386
697.188	172.39194
697.625	207.4695
698.061	150.35791
698.498	164.39416
698.934	165.39438
699.371	95.2249
699.807	170.39894
700.243	118.28415
700.679	166.37414
701.115	193.44964
701.551	190.44256
701.987	182.40634
702.422	142.3361
702.858	150.35572
703.294	186.41767
703.729	166.4029
704.164	186.44245
704.599	169.37443
705.035	154.3434
705.47	172.41402
705.904	145.33675
706.339	225.51488
706.774	137.32044
707.209	180.411
707.643	195.46216
708.078	203.48668
708.512	130.32379
708.946	223.52504
709.38	131.31036
709.814	168.3819
710.248	218.52194
710.682	172.40537
711.116	141.3347
711.549	203.51521
711.983	185.42301
712.416	198.46228
712.85	217.53111
713.283	144.33978
713.716	205.50714
714.149	217.50893
714.582	184.40945
715.015	231.56684
715.448	183.45571
715.881	207.44771
716.313	192.4444
716.746	182.42376
717.178	178.42342
717.61	199.49698
718.043	188.46262
718.475	186.4455
718.907	248.61339
719.339	142.3211
719.77	167.39228
720.202	183.45686
720.634	191.45809
721.065	171.40184
721.497	214.5153
721.928	148.3611
722.359	157.3754
722.79	142.33844
723.221	148.37036
723.652	212.53757
724.083	173.38696
724.514	166.37888
724.945	153.35772
725.375	103.23987
725.806	186.45871
726.236	210.52872
726.666	148.34894
727.096	193.46711
727.526	148.37317
727.956	145.32848
728.386	183.44524
728.816	151.37903
729.246	184.44122
729.675	144.35226
730.105	182.44273
730.534	168.38993
730.964	194.48353
731.393	223.54377
731.822	175.44179
732.251	155.39019
732.68	201.46717
733.109	194.47103
733.537	181.43179
733.966	180.44146
734.395	143.32922
734.823	214.47521
735.251	169.40317
735.68	227.55723
736.108	178.44495
736.536	180.4201
736.964	207.47255
737.392	168.41615
737.82	200.47282
738.247	201.47417
738.675	228.5342
739.102	163.4031
739.53	150.37875
739.957	205.51789
740.384	205.49783
740.811	173.43362
741.238	201.48262
741.665	187.42793
742.092	210.49319
742.519	152.37307
742.945	214.50434
743.372	187.4565
743.798	205.5177
744.225	165.3888
744.651	186.46023
745.077	206.50466
745.503	177.42694
745.929	179.4244
746.355	223.54397
746.781	211.51336
747.207	114.26743
747.632	178.42813
748.058	220.53795
748.483	157.35913
748.908	165.4058
749.334	197.47625
749.759	178.41477
750.184	153.36164
750.609	190.46028
751.033	204.47479
751.458	203.44863
751.883	198.48291
752.307	189.43858
752.732	160.39532
753.156	180.43868
753.58	231.53689
754.005	217.53997
754.429	166.38636
754.853	170.41617
755.277	184.42977
755.7	215.52289
756.124	172.42153
756.548	205.47721
756.971	234.55832
757.394	227.57182
757.818	199.50309
758.241	194.48406
758.664	199.49374
759.087	148.32825
759.51	202.49395
759.933	168.39963
760.356	172.43538
760.778	169.41072
761.201	215.5129
761.623	175.41972
762.046	211.49176
762.468	218.51357
762.89	204.49475
763.312	165.39875
763.734	184.43668
764.156	172.4195
764.578	189.42885
765	203.4865
765.421	108.27358
765.843	175.45248
766.264	239.56358
766.686	208.51258
767.107	142.34181
767.528	149.37239
767.949	163.40974
768.37	129.31516
768.791	155.37175
769.212	118.29508
769.632	152.35098
770.053	151.39353
770.473	170.40843
770.894	149.36997
771.314	171.40387
771.734	140.3243
772.154	179.45286
772.575	141.325
772.994	99.22537
773.414	155.36892
773.834	146.36179
774.254	114.27836
774.673	178.42748
775.093	115.28357
775.512	96.2365
775.931	167.41783
776.351	84.20899
776.77	114.27773
777.189	123.29141
777.607	142.35932
778.026	137.33856
778.445	68.17078
778.864	162.41036
779.282	102.24525
779.701	96.2418
780.119	81.20493
780.537	104.25885
780.955	109.27646
781.373	108.26636
781.791	93.20931
782.209	124.28462
782.627	61.16126
783.045	104.239
783.462	107.27235
783.88	58.15067
784.297	68.17164
784.715	42.10858
785.132	105.25356
785.549	60.1508
785.966	125.31219
786.383	56.13857
786.8	60.14037
787.217	73.17369
787.633	38.09561
788.05	120.28381
788.466	96.22643
788.883	48.1231
789.299	67.16204
789.715	105.25442
790.131	44.11023
790.547	80.19998
790.963	70.17423
791.379	30.07654
791.795	47.10829
792.21	23.05449
792.626	86.20418
793.041	63.15609
793.457	76.18813
793.872	41.09729
794.287	32.07712
794.702	54.13382
795.117	42.10507
795.532	23.05821
795.947	38.09234
796.362	102.24301
796.776	50.11812
797.191	67.16448
797.605	-22.0527
798.02	39.09567
798.434	67.14999
798.848	4.00999
799.262	-2.00503
799.676	84.20495
800.09	57.14086
800.504	41.10028
800.918	18.04226
801.331	65.17074
801.745	-4.00935
802.158	32.08066
802.572	82.19895
802.985	46.11199
803.398	51.12237
803.811	93.23847
804.224	56.13999
804.637	-7.01696
805.05	47.10976
805.462	63.15529
805.875	-25.06587
806.288	15.03661
806.7	9.02289
807.112	46.10745
807.525	-10.02508
807.937	20.04994
808.349	19.04809
808.761	31.07692
809.173	-6.01477
809.584	53.1316
809.996	26.06424
810.408	69.1781
810.819	36.08537
811.231	94.24183
811.642	82.19521
812.053	85.20177
812.464	59.14076
812.875	45.11555
813.286	50.12917
813.697	83.19406
814.108	44.10816
814.519	39.0877
814.929	39.10007
815.34	37.0904
815.75	16.04105
816.16	49.12269
816.571	44.11481
816.981	48.11401
817.391	-2.0049
817.801	-14.03531
818.211	36.08649
818.62	17.04136
819.03	-4.00994
819.44	82.21375
819.849	25.06352
820.259	28.07221
820.668	-17.04249
821.077	6.01507
821.486	32.0777
821.895	46.11424
822.304	-21.05646
822.713	28.06679
823.122	-5.01265
823.531	24.05744
823.939	-7.01731
824.348	19.04666
824.756	30.0757
825.164	29.07353
825.573	60.1508
825.981	34.0849
826.389	80.20063
826.797	29.07316
827.205	-25.0585
827.612	66.16301
828.02	-33.07906
828.428	7.01802
828.835	18.04775
829.243	47.11256
829.65	-10.02521
830.057	29.07093
830.464	-14.03464
830.871	85.20302
831.278	-18.04423
831.685	35.07874
832.092	0
832.499	-24.05358
832.905	9.02302
833.312	28.06445
833.718	42.10514
834.124	34.07829
834.531	19.04831
834.937	9.02333
835.343	16.039
835.749	32.07533
836.155	65.17016
836.561	20.04962
836.966	20.04934
837.372	14.03596
837.777	25.06273
838.183	17.03823
838.588	-4.01006
838.993	18.04423
839.399	4.00989
839.804	-32.07939
840.209	20.05129
840.613	22.04942
841.018	27.06882
841.423	-2.00519
841.828	4.01022
842.232	21.05245
842.637	15.03574
843.041	-59.1544
843.445	9.02279
843.849	13.03248
844.253	13.03122
844.657	19.04821
845.061	12.02753
845.465	-2.00489
845.869	-4.00942
846.272	-11.02715
846.676	43.10443
847.079	-7.01801
847.483	28.0703
847.886	53.12924
848.289	22.05906
848.692	27.0688
849.095	-6.0146
849.498	79.19966
849.901	13.03013
850.304	-7.01696
850.707	17.04368
851.109	58.14687
851.512	44.10848
851.914	-31.07938
852.316	16.04079
852.718	-32.0839
853.121	27.06658
853.523	14.03303
853.925	-9.02374
854.326	20.05036
854.728	16.04145
855.13	-8.02087
855.531	-27.0656
855.933	23.05563
856.334	-24.06073
856.736	-3.00681
857.137	18.04221
857.538	-36.09204
857.939	-1.0025
858.34	16.03932
858.741	62.16195
859.142	-28.0684
859.542	29.07687
859.943	14.03507
860.343	-41.10336
860.744	19.04671
861.144	3.00739
861.544	-63.15489
861.945	-3.00773
862.345	16.03945
862.745	0
863.145	47.11264
863.544	34.08628
863.944	-31.07452
864.344	8.02006
864.743	53.13165
865.143	33.08512
865.542	-20.04712
865.941	-1.0025
866.34	27.06508
866.74	51.13699
867.139	-10.02425
867.537	9.02313
867.936	18.04366
868.335	13.03333
868.734	25.06424
869.132	20.04683
869.531	-9.02205
869.929	-43.10002
870.327	-27.06577
870.726	35.08764
871.124	19.04475
871.522	-16.04128
871.92	22.05462
872.318	-12.02972
872.715	10.02497
873.113	-26.06434
873.511	4.01006
873.908	-51.13119
874.306	-5.01257
874.703	-1.00253
875.1	7.01806
875.497	11.0266
875.894	-1.00248
876.291	3.00744
876.688	9.0234
877.085	37.08912
877.482	-1.00253
877.878	3.00729
878.275	11.02817
878.671	30.0672
879.068	55.13282
879.464	-22.05396
879.86	-41.09879
880.256	31.07686
880.652	47.11972
881.048	11.02748
881.444	-21.05073
881.84	19.0486
882.236	6.01522
882.631	-24.05978
883.027	35.0851
883.422	12.03092
883.817	-19.04838
884.213	5.01294
884.608	10.02473
885.003	15.03644
885.398	-25.06348
885.793	29.07314
886.188	-33.08334
886.582	37.09521
886.977	26.06206
887.371	19.04836
887.766	-10.02516
888.16	16.04021
888.554	68.16777
888.949	50.12567
889.343	29.07119
889.737	-17.04583
890.131	6.01518
890.525	23.05914
890.918	0
891.312	58.13871
891.706	43.11303
892.099	28.07158
892.492	35.07586
892.886	2.00494
893.279	17.04359
893.672	-12.03091
894.065	24.06043
894.458	7.01775
894.851	27.0665
895.244	0
895.637	11.02671
896.029	32.07857
896.422	60.14645
896.814	-7.0176
897.206	-38.0921
897.599	72.17751
897.991	9.02195
898.383	-12.02872
898.775	4.00912
899.167	-24.05683
899.559	56.14171
899.951	11.02615
900.342	37.09438
900.734	-24.06039
901.125	56.14687
901.517	-31.07728
901.908	48.11524
902.299	1.00247
902.69	9.02142
903.082	51.12358
903.473	32.07694
903.863	14.03597
904.254	10.02341
904.645	40.09974
905.036	-22.05402
905.426	37.08501
905.817	52.12763
906.207	-35.08481
906.597	6.01416
906.987	36.09358
907.378	-11.02814
907.768	29.07697
908.158	-22.0544
908.547	-14.03658
908.937	45.11563
909.327	68.16468
909.717	38.09674
910.106	2.00485
910.495	63.157
910.885	32.08135
911.274	6.01512
911.663	40.10176
912.052	30.07434
912.441	70.17745
912.83	2.00464
913.219	19.05001
913.608	16.03946
913.997	-16.0406
914.385	68.16201
914.774	10.02454
915.162	-16.03863
915.55	21.05111
915.939	-8.02041
916.327	22.05521
916.715	-5.01287
917.103	28.06923
917.491	38.09427
917.878	39.09613
918.266	-9.02358
918.654	28.07184
919.041	2.00527
919.429	-3.00716
919.816	17.04336
920.203	-3.00735
920.591	4.01001
920.978	-1.00247
921.365	13.03433
921.752	4.00962
922.139	-8.0176
922.525	-31.07562
922.912	31.07591
923.299	28.06989
923.685	22.05768
924.072	42.09706
924.458	8.01998
924.844	0
925.231	-12.02828
925.617	-16.04118
926.003	22.05652
926.389	-15.03829
926.774	21.05351
927.16	10.02503
927.546	-12.03097
927.931	27.06768
928.317	5.01163
928.702	47.11131
929.088	-15.03594
929.473	-10.02572
929.858	-71.17559
930.243	-8.01942
930.628	7.01717
931.013	-7.01753
931.398	30.0693
931.783	24.06348
932.167	-12.02968
932.552	47.11785
932.937	33.08218
933.321	0
933.705	17.04312
934.09	60.1514
934.474	35.0834
934.858	-3.00785
935.242	-29.06828
935.626	37.09494
936.009	-6.01611
936.393	-23.05929
936.777	23.05918
937.16	0
937.544	50.11784
937.927	-24.0617
938.311	66.16068
938.694	26.06905
939.077	-24.05827
939.46	24.05923
939.843	8.01685
940.226	-26.06759
940.609	-17.03956
940.991	-30.07745
941.374	0
941.757	30.07432
942.139	-21.04786
942.522	1.00239
942.904	19.04595
943.286	40.10183
943.668	21.05468
944.05	23.05694
944.432	19.04716
944.814	18.04461
945.196	-38.09413
945.578	-47.1138
945.959	18.04246
946.341	66.16158
946.722	15.03546
947.104	-17.04116
947.485	-18.04246
947.866	-22.05615
948.247	13.03302
948.628	26.06372
949.009	-14.03626
949.39	28.06999
949.771	7.01642
950.152	26.0641
950.532	-38.09499
950.913	42.10148
951.293	4.01089
951.674	5.0122
952.054	14.03492
952.434	-1.00251
952.814	-1.0024
953.194	45.11788
953.574	23.05694
953.954	-29.06993
954.334	-7.01763
954.714	-43.10662
955.093	45.11076
955.473	4.01009
955.853	-1.00261
956.232	49.13433
956.611	29.06985
956.99	14.03541
957.37	24.06144
957.749	8.01924
958.128	4.01016
958.506	29.0755
958.885	15.0381
959.264	-53.13237
959.643	27.06174
960.021	21.05232
960.4	-6.01376
960.778	37.09137
961.156	-12.03042
961.535	22.05157
961.913	-4.00946
962.291	-22.05715
962.669	-17.04358
963.047	29.07428
963.424	-12.03096
963.802	9.0223
964.18	12.03057
964.557	34.07857
964.935	-1.00239
965.312	5.01312
965.69	26.06539
966.067	-5.0123
966.444	29.07175
966.821	29.07504
967.198	53.12852
967.575	30.07404
967.952	46.1085
968.329	31.07571
968.705	22.04747
969.082	-15.03891
969.458	-20.04862
969.835	-14.03449
970.211	2.00518
970.587	-21.05296
970.963	14.03614
971.339	20.05249
971.715	17.0427
972.091	17.04212
972.467	31.07759
972.843	4.01001
973.219	19.0459
973.594	10.02633
973.97	64.15195
974.345	-28.06801
974.721	44.10668
975.096	1.00244
975.471	50.11862
975.846	0
976.221	-9.02309
976.596	-16.03884
976.971	17.04223
977.346	33.0771
977.72	10.02566
978.095	1.00261
978.469	28.06712
978.844	57.14313
979.218	-18.04371
979.593	27.06498
979.967	24.05876
980.341	-35.08196
980.715	49.12349
981.089	4.0101
981.463	6.0139
981.837	-53.13199
982.21	49.11407
982.584	3.00731
982.957	-11.02777
983.331	-5.01195
983.704	9.02228
984.078	-4.00996
984.451	33.08269
984.824	-47.11653
985.197	32.07799
985.57	33.08302
985.943	71.17469
986.316	14.03463
986.688	15.03641
987.061	24.05654
987.434	-10.02633
987.806	9.022
988.179	10.02378
988.551	56.14191
988.923	10.02481
989.295	43.10759
989.667	-19.04599
990.039	-6.01498
990.411	7.01625
990.783	54.12425
991.155	-2.00485
991.527	30.07415
991.898	14.03511
992.27	48.11877
992.641	42.10552
993.012	26.06147
993.384	-15.03622
993.755	7.01798
994.126	-4.00972
994.497	13.03213
994.868	13.03008
995.239	14.03416
995.61	2.00508
995.98	-29.07148
996.351	19.04732
996.722	-45.10633
997.092	-34.08181
997.462	-32.07595
997.833	-1.00239
998.203	20.04876
998.573	-5.01257
998.943	-22.05231
999.313	16.03859
999.683	-40.09763
1000.053	40.09222
1000.423	10.02448
1000.792	22.05729
1001.162	-9.02239
1001.531	-23.05746
1001.901	46.11474
1002.27	-39.08878
1002.639	11.0283
1003.009	3.0072
1003.378	27.06931
1003.747	14.0333
1004.116	-70.1713
1004.485	9.02168
1004.853	26.06614
1005.222	12.03046
1005.591	-11.02642
1005.959	-41.09409
1006.328	-13.02963
1006.696	-1.00243
1007.064	16.04049
1007.433	56.13979
1007.801	52.12759
1008.169	45.11373
1008.537	40.08875
1008.905	-2.00471
1009.273	-13.03248
1009.64	-19.04592
1010.008	-2.00481
1010.375	70.16933
1010.743	56.12916
1011.11	-32.07691
1011.478	13.03239
1011.845	-33.07885
1012.212	-9.02061
1012.579	-8.01985
1012.946	46.10955
1013.313	32.07642
1013.68	7.01587
1014.047	2.00481
1014.414	-5.01193
1014.78	4.01002
1015.147	5.01219
1015.513	-5.01217
1015.88	39.0999
1016.246	26.06445
1016.612	47.10764
1016.978	27.06643
1017.344	30.0744
1017.71	69.16763
1018.076	7.01664
1018.442	1.00259
1018.808	43.10759
1019.174	-4.01013
1019.539	51.11737
1019.905	-3.00715
1020.27	-23.05751
1020.636	22.05302
1021.001	21.05054
1021.366	-25.06087
1021.731	1.00259
1022.096	-11.02804
1022.461	4.00955
1022.826	2.0048
1023.191	-11.02915
1023.556	1.00237
1023.92	29.07156
1024.285	10.02458
1024.649	17.0419
1025.014	16.03987
1025.378	4.01014
1025.742	4.01001
1026.107	39.08839
1026.471	30.07029
1026.835	4.01
1027.199	-38.09296
1027.562	11.02576
1027.926	-7.01729
1028.29	-23.05894
1028.654	-3.00697
1029.017	20.04942
1029.381	1.00241
1029.744	12.0308
1030.107	25.05941
1030.471	21.05054
1030.834	17.03892
1031.197	57.13708
1031.56	11.02614
1031.923	-2.00522
1032.286	38.08942
1032.648	52.12427
1033.011	-1.00232
1033.374	42.09883
1033.736	-1.00265
1034.099	23.05632
1034.461	-33.08456
1034.823	-9.02264
1035.185	-12.03053
1035.548	7.01717
1035.91	41.09834
1036.272	-34.07867
1036.634	29.07119
1036.995	16.03784
1037.357	-9.02213
1037.719	9.02205
1038.08	-4.00959
1038.442	4.00957
1038.803	-4.0097
1039.165	-14.03572
1039.526	-1.00244
1039.887	11.0265
1040.248	-33.08251
1040.609	24.05956
1040.97	8.01969
1041.331	60.15156
1041.692	-40.09497
1042.053	15.03438
1042.413	2.0047
1042.774	30.0732
1043.134	42.1001
1043.495	10.02531
1043.855	57.13801
1044.215	29.07222
1044.576	-22.0533
1044.936	4.00925
1045.296	58.14446
1045.656	16.03949
1046.016	15.03643
1046.375	-33.08125
1046.735	-24.0552
1047.095	-7.01656
1047.454	9.01923
1047.814	18.04351
1048.173	45.10756
1048.533	-20.04644
1048.892	-40.0976
1049.251	19.04793
1049.61	-15.03735
1049.969	-8.01906
1050.328	19.04145
1050.687	38.09261
1051.046	12.02941
1051.405	41.1021
1051.763	-15.03492
1052.122	4.01005
1052.48	-13.03223
1052.839	-32.07644
1053.197	5.01186
1053.555	64.14543
1053.914	19.04671
1054.272	17.04133
1054.63	8.0197
1054.988	-20.04812
1055.345	-14.03055
1055.703	36.08682
1056.061	30.0774
1056.419	32.08304
1056.776	13.03173
1057.134	6.014
1057.491	47.11768
1057.848	30.07491
1058.206	11.02605
1058.563	12.02665
1058.92	13.03017
1059.277	6.01491
1059.634	50.11757
1059.991	48.11497
1060.348	7.01595
1060.704	-2.00481
1061.061	33.07688
1061.418	30.07298
1061.774	28.06936
1062.131	-26.06957
1062.487	-3.00708
1062.843	10.0251
1063.199	1.00251
1063.555	-45.10616
1063.911	34.08607
1064.267	25.0524
1064.623	-2.0049
1064.979	40.0949
1065.335	27.06478
1065.691	20.04818
1066.046	-30.06704
1066.402	9.0206
1066.757	26.06586
1067.112	15.03703
1067.468	-34.08153
1067.823	21.05073
1068.178	-17.04161
1068.533	41.0995
1068.888	30.07191
1069.243	-11.02743
1069.598	-4.00981
1069.952	-65.14971
1070.307	-28.07025
1070.662	-10.024
1071.016	-47.10734
1071.371	14.03206
1071.725	32.07677
1072.079	-29.07075
1072.434	-7.01718
1072.788	22.05264
1073.142	-13.03233
1073.496	-4.00958
1073.85	-7.01641
1074.203	43.10439
1074.557	14.03743
1074.911	65.15459
1075.265	24.05604
1075.618	29.07104
1075.971	48.11414
1076.325	23.05869
1076.678	-1.00231
1077.031	-28.06432
1077.385	14.03105
1077.738	35.07919
1078.091	-43.09955
1078.444	1.00234
1078.796	18.04439
1079.149	49.1218
1079.502	-2.00477
1079.855	4.00941
1080.207	12.02975
1080.56	-44.11548
1080.912	38.09265
1081.264	-11.02677
1081.617	14.03432
1081.969	4.01017
1082.321	33.08077
1082.673	-61.14223
1083.025	-4.00958
1083.377	-263.60207
1083.728	-16.03778
1084.08	2.00503
1084.432	4.00972
1084.783	-12.02844
1085.135	-18.04563
1085.486	-23.05335
1085.838	11.02726
1086.189	7.01711
1086.54	-2.00482
1086.891	-4.0102
1087.242	6.01472
1087.593	47.1144
1087.944	1.00228
1088.295	48.10907
1088.646	8.01953
1088.996	-31.07577
1089.347	-7.01734
1089.698	-32.07677
1090.048	48.12461
1090.398	8.01869
1090.749	7.01687
1091.099	-32.08158
1091.449	2.00502
1091.799	16.04027
1092.149	-48.11908
1092.499	15.0368
1092.849	-19.04884
1093.199	16.04031
1093.548	-18.04377
1093.898	11.02769
1094.248	26.06703
1094.597	-33.08539
1094.947	13.03486
1095.296	-7.01745
1095.645	19.04964
1095.994	-1.00242
1096.343	32.08072
1096.692	-27.07178
1097.041	-3.00818
1097.39	-6.01519
1097.739	9.02354
1098.088	51.13649
1098.437	3.00794
1098.785	7.01899
1099.134	36.09573
1099.482	15.04145
1099.83	9.02379
1100.179	26.06803
1100.527	24.06399
1100.875	-29.07762
1101.223	36.09573
1101.571	1.00278
1101.919	-30.07938
1102.267	-9.02554
1102.615	1.00322
1102.962	7.02255
1103.31	3.00964
1103.658	12.03865
