Data from N2 R5 sample 5_Subt2__4__11-59-52-371.txt Node

Date: Fri Aug 29 11:59:52 PDT 2025
User: uwsun
Spectrometer: HDX01956
Trigger mode: 0
Integration Time (sec): 5.000000E-1
Scans to average: 1
Nonlinearity correction enabled: true
Boxcar width: 0
Storing dark spectrum: false
XAxis mode: Wavelengths
Number of Pixels in Spectrum: 2068
>>>>>Begin Spectral Data<<<<<
194.03	247.66664
194.578	218.6706
195.127	230.69544
195.676	209.63577
196.225	251.63769
196.773	242.63765
197.321	397.99488
197.87	500.12057
198.418	474.05262
198.966	453.01693
199.513	427.91557
200.061	425.92857
200.609	501.14419
201.156	396.73888
201.704	461.99315
202.251	461.05058
202.798	485.07686
203.345	518.08699
203.892	513.09376
204.438	520.04795
204.985	480.95564
205.532	480.08052
206.078	539.11097
206.624	501.03714
207.17	531.03114
207.716	454.93921
208.262	521.8468
208.808	463.9649
209.354	433.90198
209.899	548.17331
210.445	490.02768
210.99	512.03322
211.535	524.03471
212.08	485.95594
212.625	485.03575
213.17	497.0738
213.715	405.76411
214.259	461.91632
214.804	500.05192
215.348	432.84767
215.892	484.98782
216.436	498.97948
216.98	460.86768
217.524	452.91288
218.068	496.06638
218.612	510.09465
219.155	439.88683
219.698	462.94249
220.242	503.07333
220.785	417.84354
221.328	424.91914
221.871	457.00491
222.414	471.01145
222.956	399.83301
223.499	421.81652
224.041	456.91673
224.583	446.8293
225.126	384.73533
225.668	385.81733
226.21	421.92022
226.751	395.74305
227.293	435.85779
227.835	419.8864
228.376	459.91234
228.918	507.09685
229.459	414.89364
230	422.86871
230.541	425.84634
231.082	434.90829
231.622	434.86245
232.163	441.91906
232.704	425.91128
233.244	420.90309
233.784	424.90502
234.324	384.72288
234.864	399.78162
235.404	444.91071
235.944	444.90701
236.484	447.96547
237.023	445.90018
237.563	455.89512
238.102	424.8634
238.641	484.04633
239.18	420.84047
239.719	483.03548
240.258	452.8664
240.797	425.87312
241.335	440.92858
241.874	382.62478
242.412	456.9349
242.95	426.86984
243.488	478.92288
244.026	443.86822
244.564	456.78899
245.102	394.75923
245.64	426.88642
246.177	441.84102
246.715	514.04059
247.252	461.90052
247.789	521.80833
248.326	455.92463
248.863	456.84073
249.4	521.98831
249.936	514.87097
250.473	466.91697
251.009	435.84408
251.546	453.84044
252.082	429.79669
252.618	441.82837
253.154	432.88329
253.69	469.88748
254.226	495.9917
254.761	446.8454
255.297	426.78698
255.832	434.8721
256.367	471.93489
256.903	451.83047
257.438	500.98481
257.972	476.88598
258.507	420.81167
259.042	495.89048
259.576	438.78448
260.111	550.04804
260.645	463.83803
261.179	458.89656
261.713	501.92071
262.247	487.93823
262.781	470.81236
263.315	525.0646
263.849	485.0165
264.382	511.97548
264.915	460.90005
265.449	467.94598
265.982	520.97751
266.515	505.02303
267.048	467.81512
267.58	494.8953
268.113	460.82135
268.646	497.01966
269.178	391.73552
269.71	485.87473
270.243	497.94002
270.775	473.0092
271.307	502.0065
271.838	582.13118
272.37	553.11586
272.902	476.89919
273.433	462.83472
273.965	478.97026
274.496	494.02559
275.027	505.03703
275.558	553.09388
276.089	451.92026
276.62	517.09467
277.15	536.09066
277.681	526.92954
278.211	553.11177
278.741	465.83821
279.272	465.87389
279.802	565.15212
280.332	496.95855
280.861	551.07769
281.391	532.97402
281.921	511.01254
282.45	545.11631
282.98	580.23444
283.509	505.92247
284.038	449.8434
284.567	543.02941
285.096	561.09522
285.625	516.94614
286.153	481.92043
286.682	488.90651
287.21	551.06598
287.739	507.97254
288.267	523.02234
288.795	588.25583
289.323	527.98556
289.851	601.11242
290.378	535.95803
290.906	526.01922
291.433	562.12496
291.961	572.01621
292.488	590.16966
293.015	552.0274
293.542	586.17688
294.069	606.17064
294.596	578.14102
295.122	602.12566
295.649	546.94882
296.175	608.16047
296.702	579.11224
297.228	637.21034
297.754	574.00236
298.28	601.05155
298.806	593.11126
299.332	611.02818
299.857	585.01758
300.383	656.29467
300.908	494.94874
301.433	558.05919
301.958	632.12248
302.483	592.14683
303.008	635.21533
303.533	622.27056
304.058	664.19227
304.582	581.0523
305.107	615.24232
305.631	656.13086
306.155	615.08232
306.679	654.14121
307.203	657.13771
307.727	652.16348
308.251	595.13039
308.775	640.12966
309.298	658.16816
309.822	690.3071
310.345	651.14942
310.868	676.19397
311.391	707.2908
311.914	683.26893
312.437	759.24329
312.96	684.17423
313.482	712.22046
314.005	704.29796
314.527	689.34113
315.049	738.36485
315.571	715.10923
316.093	779.37169
316.615	772.30944
317.137	755.12986
317.659	811.38431
318.18	815.37326
318.702	772.24109
319.223	769.05169
319.744	813.22141
320.265	782.29928
320.786	828.38653
321.307	841.42027
321.828	860.27412
322.348	836.30485
322.869	824.27934
323.389	846.79651
323.909	924.3503
324.43	944.48012
324.95	881.27886
325.47	944.46901
325.989	947.38451
326.509	877.17685
327.029	946.27799
327.548	902.22379
328.067	936.37801
328.587	962.4867
329.106	969.29769
329.625	1060.73593
330.144	1000.3364
330.662	971.30382
331.181	1012.36329
331.7	999.34522
332.218	1056.23015
332.736	1054.37751
333.255	1053.3489
333.773	1030.35769
334.291	1136.58207
334.808	1084.25565
335.326	1118.30224
335.844	1137.3359
336.361	1116.50157
336.879	1133.32236
337.396	1168.41368
337.913	1178.30538
338.43	1293.30996
338.947	1279.42509
339.464	1161.11012
339.981	1251.36147
340.497	1252.47339
341.014	1279.42945
341.53	1257.21627
342.046	1283.4176
342.562	1324.49698
343.078	1326.32362
343.594	1386.38027
344.11	1359.34429
344.626	1372.47879
345.141	1453.23768
345.657	1541.26728
346.172	1367.32857
346.687	1399.20037
347.202	1455.14424
347.717	1402.27527
348.232	1458.41031
348.747	1465.16982
349.261	1456.98579
349.776	1576.22298
350.29	1468.27278
350.805	1624.37544
351.319	1536.15921
351.833	1558.04164
352.347	1593.15031
352.861	1560.10054
353.374	1576.10148
353.888	1675.21412
354.401	1620.04613
354.915	1619.92381
355.428	1739.22308
355.941	1740.01201
356.454	1741.96205
356.967	1669.06535
357.48	1732.98269
357.993	1776.1568
358.505	1725.09325
359.018	1846.09153
359.53	1813.00564
360.042	1880.79308
360.554	1792.03035
361.066	1785.00695
361.578	1791.71153
362.09	1852.92959
362.602	1875.67858
363.113	1867.8004
363.625	1899.68881
364.136	1968.61587
364.647	1957.64454
365.158	1972.70636
365.669	1935.78714
366.18	1983.71573
366.691	2009.51431
367.201	2029.69775
367.712	2033.51844
368.222	2088.49414
368.733	2090.30119
369.243	2092.31654
369.753	2299.35823
370.263	2261.43504
370.773	2180.53086
371.282	2293.30826
371.792	2285.07203
372.301	2382.17922
372.811	2398.3924
373.32	2375.73955
373.829	2468.87173
374.338	2680.56623
374.847	2628.58994
375.356	2809.48521
375.865	2918.09066
376.373	2981.11374
376.882	3116.27813
377.39	3077.11638
377.898	3123.96255
378.407	3345.69087
378.915	3598.56546
379.423	3556.58991
379.93	3828.51969
380.438	3811.52257
380.946	4178.64672
381.453	4208.73991
381.96	4517.18552
382.468	4929.27848
382.975	5180.72085
383.482	5226.54643
383.989	5185.06206
384.495	5372.74559
385.002	5746.01664
385.509	6121.59223
386.015	6473.803
386.521	6798.69099
387.028	7147.11759
387.534	7467.75458
388.04	7601.07667
388.546	7648.46179
389.051	8308.25408
389.557	8821.42684
390.063	9560.23062
390.568	9516.01514
391.073	10003.81411
391.578	10356.48618
392.084	10649.79784
392.589	11040.05697
393.093	12094.76414
393.598	13129.3834
394.103	14478.17907
394.607	15581.40917
395.112	16383.92965
395.616	17437.06483
396.12	18568.48115
396.624	20293.68901
397.128	22404.56207
397.632	24723.5146
398.136	26255.2232
398.639	28332.09478
399.143	30984.99593
399.646	28417.3458
400.15	25083.82847
400.653	20124.16724
401.156	13866.23708
401.659	5169.95759
402.162	1054.15589
402.664	0
403.167	0
403.67	0
404.172	0
404.674	0
405.176	0
405.678	0
406.18	0
406.682	0
407.184	0
407.686	0
408.187	0
408.688	0
409.19	0
409.691	0
410.192	0
410.693	0
411.194	435.30976
411.694	4082.94878
412.195	8864.71461
412.696	12089.80453
413.196	12760.96929
413.696	12863.67595
414.196	13703.56671
414.696	17261.84252
415.196	21764.24417
415.696	29583.19008
416.196	36460.31858
416.695	31060.65362
417.195	28665.32959
417.694	27218.04277
418.194	25181.99222
418.693	23987.88824
419.192	23355.01413
419.691	22989.26376
420.19	22601.03231
420.688	21903.81502
421.187	20481.09108
421.685	18846.21163
422.184	16676.89101
422.682	14336.06241
423.18	12843.54112
423.678	11485.58132
424.176	10527.06639
424.674	10219.91654
425.172	9645.23699
425.669	8796.49116
426.167	8083.31833
426.664	7467.15224
427.161	6718.2484
427.659	6378.42871
428.156	5950.92295
428.652	5733.26925
429.149	5475.30571
429.646	5265.66504
430.143	4923.00488
430.639	4631.39143
431.135	4308.79788
431.632	4013.65872
432.128	3881.53273
432.624	3605.55192
433.12	3476.54617
433.616	3510.54278
434.111	3433.58317
434.607	3253.70195
435.103	3258.67259
435.598	2915.84189
436.093	2816.16114
436.588	2750.23204
437.083	2556.44338
437.578	2448.62268
438.073	2228.90285
438.568	2338.00585
439.062	2147.81068
439.557	2145.13732
440.051	2051.0912
440.546	1910.18119
441.04	1970.32982
441.534	1926.55584
442.028	1837.49651
442.522	1753.51902
443.015	1804.32834
443.509	1804.64076
444.002	1706.66334
444.496	1727.42386
444.989	1610.72577
445.482	1674.76945
445.975	1669.52494
446.468	1594.46568
446.961	1521.49005
447.454	1541.6297
447.947	1386.71335
448.439	1451.83378
448.931	1434.64188
449.424	1395.95178
449.916	1436.86915
450.408	1353.68798
450.9	1257.83774
451.392	1321.96181
451.884	1343.80056
452.375	1169.89484
452.867	1227.79731
453.358	1148.74477
453.849	1179.66371
454.341	1213.78326
454.832	1191.70455
455.323	1151.93019
455.814	1188.8607
456.304	1191.87646
456.795	1096.84158
457.285	1155.85471
457.776	1208.9384
458.266	1115.94263
458.756	1032.96022
459.247	906.85584
459.737	917.87129
460.226	904.78849
460.716	929.91378
461.206	920.93609
461.695	923.03296
462.185	922.93194
462.674	888.8883
463.163	856.81739
463.653	881.76137
464.142	809.91282
464.63	846.99024
465.119	813.87075
465.608	798.86444
466.096	819.82731
466.585	827.93041
467.073	770.94435
467.561	750.93745
468.05	794.93591
468.538	734.97043
469.026	715.91837
469.513	678.728
470.001	640.78268
470.489	697.89394
470.976	673.85535
471.463	618.90339
471.951	591.88814
472.438	595.81079
472.925	569.77732
473.412	606.9066
473.899	553.76727
474.385	591.89402
474.872	538.76643
475.359	502.77677
475.845	516.64063
476.331	480.6592
476.817	515.81542
477.303	493.73758
477.789	450.72002
478.275	446.74177
478.761	468.75568
479.247	483.71343
479.732	399.68281
480.218	448.81149
480.703	436.75076
481.188	407.5886
481.673	414.65181
482.158	342.49438
482.643	461.83441
483.128	334.5383
483.612	323.54499
484.097	355.63628
484.581	326.5547
485.066	269.48684
485.55	293.46592
486.034	265.42017
486.518	275.47841
487.002	264.48499
487.486	310.56607
487.969	212.3975
488.453	283.54913
488.936	213.3674
489.42	267.44828
489.903	230.45578
490.386	211.25666
490.869	250.41962
491.352	279.53593
491.835	281.44247
492.318	217.3819
492.8	166.27024
493.283	177.36117
493.765	187.36822
494.247	208.39058
494.73	146.2597
495.212	174.34351
495.694	177.3313
496.175	113.21727
496.657	191.36724
497.139	203.27927
497.62	62.12142
498.102	108.22163
498.583	91.19117
499.064	96.17582
499.545	149.27862
500.026	118.21764
500.507	129.24779
500.988	123.25544
501.469	77.16205
501.949	110.229
502.43	29.05823
502.91	72.12382
503.39	129.27232
503.87	71.1404
504.35	117.23299
504.83	59.10896
505.31	102.20799
505.79	52.1057
506.269	126.24781
506.749	23.04488
507.228	-8.01619
507.707	77.14427
508.187	65.13348
508.666	66.13813
509.145	26.05215
509.623	-8.01631
510.102	9.01896
510.581	119.24525
511.059	39.08421
511.538	66.14797
512.016	58.11951
512.494	47.099
512.972	-4.00835
513.45	-11.02205
513.928	5.01056
514.406	-21.04392
514.884	-11.02485
515.361	41.08515
515.839	34.06706
516.316	60.1248
516.793	30.06665
517.27	16.03415
517.747	-17.0385
518.224	-16.03273
518.701	-9.01765
519.178	52.11168
519.654	42.08771
520.131	-19.04162
520.607	19.04164
521.083	-3.00604
521.56	-42.08837
522.036	30.05778
522.512	5.01096
522.987	-26.05454
523.463	-8.01684
523.939	-7.01528
524.414	-6.01234
524.89	10.021
525.365	-10.02009
525.84	-65.13776
526.315	-11.02353
526.79	-27.05434
527.265	-52.10647
527.74	11.02375
528.215	-14.02942
528.689	32.06231
529.164	-5.00968
529.638	-22.0508
530.112	-40.08435
530.587	-39.07419
531.061	-33.07113
531.534	13.02812
532.008	-52.11245
532.482	5.01025
532.956	-65.14935
533.429	-42.09179
533.903	-28.0558
534.376	-47.09373
534.849	-32.06683
535.322	-25.05308
535.795	-16.03516
536.268	-5.01075
536.741	-8.01727
537.213	1.00207
537.686	-64.14106
538.158	-76.15406
538.631	12.02619
539.103	-102.20847
539.575	0
540.047	-3.00591
540.519	-1.00215
540.991	-3.00662
541.463	-43.0944
541.934	-58.12053
542.406	-16.03424
542.877	0
543.348	8.01736
543.82	52.11365
544.291	34.07097
544.762	-9.01912
545.233	15.03355
545.703	11.02164
546.174	65.13336
546.645	-24.05112
547.115	41.08735
547.585	89.17913
548.056	55.11585
548.526	57.117
548.996	95.19923
549.466	141.29831
549.935	89.18177
550.405	110.20645
550.875	122.24776
551.344	104.21564
551.814	95.18856
552.283	125.23327
552.752	176.34403
553.221	85.1576
553.69	220.40558
554.159	173.35702
554.628	157.29387
555.096	172.36811
555.565	160.30089
556.033	191.38177
556.502	160.33235
556.97	129.24696
557.438	206.4172
557.906	199.4068
558.374	129.25892
558.842	203.41818
559.31	188.36452
559.777	121.25667
560.245	260.52463
560.712	268.53157
561.18	228.43236
561.647	245.46994
562.114	222.43622
562.581	322.6757
563.048	373.72204
563.514	345.71421
563.981	344.66574
564.448	430.79636
564.914	416.80779
565.381	477.89159
565.847	496.95213
566.313	551.03494
566.779	512.93833
567.245	533.01041
567.711	605.15613
568.176	649.13634
568.642	646.28445
569.108	681.31422
569.573	827.47464
570.038	748.18878
570.504	815.3606
570.969	851.61542
571.434	831.34344
571.899	928.61902
572.363	934.54331
572.828	993.63166
573.293	968.59881
573.757	1031.6756
574.222	980.54924
574.686	1016.59628
575.15	1040.75136
575.614	1145.7933
576.078	1162.86264
576.542	1173.81094
577.006	1146.7561
577.469	1196.05211
577.933	1128.71413
578.396	1159.90144
578.86	1140.85822
579.323	1037.75433
579.786	1110.63078
580.249	1044.66696
580.712	1072.86711
581.175	1001.79032
581.637	1033.69765
582.1	1012.57715
582.563	931.44827
583.025	974.71824
583.487	862.2585
583.95	828.3111
584.412	929.40402
584.874	873.58654
585.336	826.47703
585.797	784.27472
586.259	794.43282
586.721	709.2912
587.182	756.36967
587.643	728.27801
588.105	694.28652
588.566	692.12661
589.027	657.24659
589.488	598.09004
589.949	638.23257
590.41	559.85872
590.87	608.11167
591.331	591.0199
591.791	523.98243
592.252	493.92105
592.712	531.04292
593.172	476.88246
593.632	487.87968
594.092	461.85059
594.552	505.8866
595.011	459.86941
595.471	494.90716
595.931	442.81818
596.39	433.86508
596.849	415.80988
597.308	499.88802
597.768	364.78741
598.227	453.91049
598.685	445.85524
599.144	416.81588
599.603	436.864
600.062	369.65082
600.52	428.79306
600.978	465.91565
601.437	473.8968
601.895	447.78267
602.353	433.80172
602.811	446.82105
603.269	475.94151
603.727	418.83918
604.184	418.7838
604.642	463.94217
605.099	438.84645
605.557	511.02293
606.014	515.89658
606.471	533.08036
606.928	612.02511
607.385	624.19798
607.842	614.11248
608.299	626.15908
608.755	597.15129
609.212	630.09865
609.668	625.08102
610.125	695.31819
610.581	648.23337
611.037	611.12477
611.493	632.20053
611.949	612.18281
612.405	568.909
612.861	617.17626
613.316	581.12575
613.772	637.17038
614.227	630.19265
614.683	677.14698
615.138	651.21657
615.593	643.19684
616.048	661.21213
616.503	650.29482
616.958	589.20931
617.412	648.23517
617.867	605.07748
618.321	656.08281
618.776	632.13062
619.23	616.17918
619.684	647.18522
620.138	674.26865
620.592	583.17327
621.046	596.15789
621.5	594.19571
621.954	558.05043
622.407	577.06791
622.861	574.16547
623.314	577.09666
623.768	519.02314
624.221	554.90783
624.674	478.94457
625.127	565.11244
625.58	561.08278
626.033	505.95795
626.485	437.91032
626.938	508.03875
627.39	482.97034
627.843	436.8838
628.295	428.86956
628.747	441.92028
629.199	399.80381
629.651	375.75928
630.103	398.80972
630.555	432.80606
631.006	355.75037
631.458	386.81535
631.909	411.84588
632.361	338.71647
632.812	365.76068
633.263	335.65779
633.714	305.60058
634.165	369.81271
634.616	319.69642
635.067	321.6562
635.518	321.70523
635.968	327.60422
636.419	278.56301
636.869	233.52138
637.319	282.60639
637.769	225.47414
638.219	286.63825
638.669	271.6039
639.119	265.60664
639.569	205.4693
640.019	270.58658
640.468	216.45868
640.918	261.59268
641.367	285.59951
641.816	233.49467
642.265	226.49685
642.714	228.50145
643.163	253.55047
643.612	179.4111
644.061	160.32686
644.51	253.54532
644.958	174.36852
645.406	193.44237
645.855	237.55279
646.303	262.58107
646.751	172.37734
647.199	202.4411
647.647	162.36064
648.095	187.41275
648.543	232.45608
648.99	199.45648
649.438	213.48134
649.885	217.51489
650.333	206.38587
650.78	192.44669
651.227	173.40701
651.674	164.36297
652.121	195.45751
652.568	161.37937
653.015	194.47386
653.461	175.4032
653.908	189.42641
654.354	181.41936
654.801	151.34513
655.247	188.40131
655.693	131.33367
656.139	134.31471
656.585	155.36296
657.031	94.21619
657.477	117.24937
657.922	109.24753
658.368	188.45064
658.813	147.33613
659.259	153.35898
659.704	120.27555
660.149	133.30485
660.594	164.38065
661.039	136.30515
661.484	166.38864
661.929	175.40031
662.373	111.27602
662.818	175.42371
663.262	115.27351
663.707	176.43533
664.151	163.39049
664.595	116.27668
665.039	126.30972
665.483	116.29175
665.927	173.40003
666.371	70.16183
666.814	149.3511
667.258	94.22111
667.701	140.30066
668.145	139.34186
668.588	131.31814
669.031	86.20174
669.474	114.27285
669.917	161.35299
670.36	136.33356
670.803	154.36732
671.245	110.23257
671.688	138.33369
672.13	71.16019
672.573	194.48301
673.015	145.34486
673.457	89.19505
673.899	146.3505
674.341	78.18889
674.783	73.17569
675.225	161.39069
675.666	113.2703
676.108	106.23137
676.549	142.33441
676.991	100.2217
677.432	51.10374
677.873	114.26397
678.314	92.22036
678.755	113.27432
679.196	133.30362
679.637	143.34728
680.078	135.31526
680.518	111.25962
680.959	78.18804
681.399	118.29166
681.839	112.27245
682.28	112.27571
682.72	86.19827
683.16	113.28068
683.6	126.28793
684.039	129.27005
684.479	103.25286
684.919	84.19474
685.358	143.36037
685.798	110.28722
686.237	146.35144
686.676	106.24749
687.115	107.25233
687.554	142.33584
687.993	70.15719
688.432	106.2435
688.871	124.28165
689.309	108.25849
689.748	136.28577
690.186	190.44848
690.625	107.25164
691.063	103.24779
691.501	127.31327
691.939	103.25706
692.377	122.29722
692.815	90.2164
693.253	115.27719
693.69	107.23697
694.128	123.29748
694.565	98.235
695.003	117.29643
695.44	112.26397
695.877	85.20006
696.314	135.29161
696.751	181.40986
697.188	112.25831
697.625	167.38185
698.061	82.19821
698.498	157.37784
698.934	151.36188
699.371	97.22955
699.807	140.33047
700.243	155.37062
700.679	93.21274
701.115	179.41817
701.551	139.32702
701.987	147.33057
702.422	113.26896
702.858	123.29321
703.294	120.27312
703.729	152.36989
704.164	139.33363
704.599	102.22914
705.035	119.26728
705.47	102.24878
705.904	98.22971
706.339	163.37765
706.774	113.26555
707.209	104.2411
707.643	168.40025
708.078	112.27317
708.512	88.22086
708.946	128.30694
709.38	118.28027
709.814	130.29779
710.248	110.26879
710.682	112.26704
711.116	97.23221
711.549	173.44141
711.983	123.28476
712.416	161.37863
712.85	158.39095
713.283	163.38319
713.716	169.42085
714.149	151.35871
714.582	122.27497
715.015	147.36633
715.448	133.33421
715.881	155.33897
716.313	130.3046
716.746	153.35828
717.178	155.37034
717.61	134.33859
718.043	149.36929
718.475	105.25538
718.907	199.49662
719.339	105.23922
719.77	91.21693
720.202	121.30547
720.634	93.22721
721.065	90.21483
721.497	101.24841
721.928	79.19523
722.359	86.20842
722.79	52.12607
723.221	170.42372
723.652	174.4442
724.083	105.23816
724.514	135.31005
724.945	80.18972
725.375	119.27626
725.806	107.26772
726.236	165.41878
726.666	139.3283
727.096	88.21719
727.526	81.20668
727.956	103.23533
728.386	118.29059
728.816	92.23338
729.246	115.27939
729.675	103.25389
730.105	164.40029
730.534	123.28803
730.964	124.31299
731.393	152.37555
731.822	164.41484
732.251	116.29405
732.68	168.39302
733.109	82.20328
733.537	97.23513
733.966	109.27085
734.395	164.37598
734.823	102.23178
735.251	86.20842
735.68	149.37105
736.108	107.2709
736.536	130.30639
736.964	78.18269
737.392	124.30963
737.82	128.30682
738.247	111.26643
738.675	151.35913
739.102	81.20332
739.53	112.28472
739.957	147.37521
740.384	138.33934
740.811	137.34562
741.238	121.29495
741.665	86.2008
742.092	106.25399
742.519	62.15471
742.945	102.24562
743.372	122.30144
743.798	103.26485
744.225	119.28291
744.651	74.18686
745.077	106.2645
745.503	102.24952
745.929	116.27838
746.355	151.37329
746.781	116.28724
747.207	89.2098
747.632	36.08892
748.058	166.40999
748.483	125.28778
748.908	124.30728
749.334	110.27029
749.759	115.2713
750.184	89.21298
750.609	157.3827
751.033	170.39832
751.458	125.28075
751.883	148.36433
752.307	84.19898
752.732	70.17581
753.156	108.26675
753.58	106.25244
754.005	158.39738
754.429	134.31385
754.853	118.29166
755.277	98.23276
755.7	142.35008
756.124	76.18957
756.548	120.28403
756.971	156.37778
757.394	114.29298
757.818	135.34519
758.241	115.29105
758.664	99.25011
759.087	66.14888
759.51	143.35351
759.933	77.18637
760.356	109.27901
760.778	116.28472
761.201	136.32935
761.623	120.29082
762.046	160.37665
762.468	168.39963
762.89	155.37938
763.312	149.36117
763.734	98.23643
764.156	113.27864
764.578	138.31637
765	119.28975
765.421	69.176
765.843	149.38699
766.264	142.34116
766.686	99.24886
767.107	99.24025
767.528	81.20493
767.949	106.26918
768.37	94.23115
768.791	112.27082
769.212	44.1115
769.632	95.22185
770.053	98.25772
770.473	108.26253
770.894	88.22094
771.314	125.29786
771.734	48.11322
772.154	75.19326
772.575	136.31379
772.994	59.1354
773.414	108.25938
773.834	112.27926
774.254	55.13577
774.673	100.24372
775.093	79.19609
775.512	42.1045
775.931	68.17317
776.351	72.17953
776.77	59.14522
777.189	87.20755
777.607	87.2223
778.026	62.15532
778.445	27.06831
778.864	83.2132
779.282	45.10937
779.701	63.15962
780.119	58.14734
780.537	54.13562
780.955	61.15603
781.373	70.17385
781.791	21.04796
782.209	112.25769
782.627	23.06119
783.045	30.06996
783.462	79.20207
783.88	70.18147
784.297	66.16666
784.715	44.11371
785.132	51.12441
785.549	38.09588
785.966	85.21383
786.383	35.08694
786.8	63.1473
787.217	16.03849
787.633	30.07559
788.05	72.17187
788.466	105.24723
788.883	43.11038
789.299	33.08032
789.715	39.09567
790.131	68.16962
790.547	85.21229
790.963	21.05273
791.379	25.06384
791.795	34.07854
792.21	78.18283
792.626	52.12427
793.041	104.25574
793.457	52.12928
793.872	15.03577
794.287	2.00485
794.702	75.18514
795.117	26.06523
795.532	14.03549
795.947	69.16669
796.362	76.18197
796.776	100.23394
797.191	12.02976
797.605	-9.0215
798.02	11.02712
798.434	62.13894
798.848	7.01747
799.262	21.05264
799.676	75.1833
800.09	-5.0125
800.504	62.15105
800.918	7.01647
801.331	68.17853
801.745	31.072
802.158	28.07063
802.572	73.17742
802.985	38.09265
803.398	41.09856
803.811	61.15729
804.224	30.07535
804.637	-48.11716
805.05	18.04228
805.462	33.08179
805.875	15.03925
806.288	4.00978
806.7	13.03304
807.112	60.13976
807.525	52.12895
807.937	-2.00501
808.349	49.12335
808.761	34.08432
809.173	6.01474
809.584	54.13406
809.996	12.02973
810.408	85.21879
810.819	170.3927
811.231	122.31233
811.642	66.15761
812.053	69.1643
812.464	19.04568
812.875	74.18905
813.286	30.07777
813.697	46.10833
814.108	25.06167
814.519	25.05638
814.929	36.09242
815.34	17.04169
815.75	-18.04645
816.16	52.13013
816.571	38.09926
816.981	46.1093
817.391	13.03176
817.801	7.01759
818.211	43.10317
818.62	40.09691
819.03	14.03469
819.44	25.0658
819.849	24.06099
820.259	47.12081
820.668	0
821.077	30.07505
821.486	30.07287
821.895	12.02999
822.304	9.02408
822.713	5.01198
823.122	22.05539
823.531	11.02639
823.939	22.0541
824.348	11.02705
824.756	41.10325
825.164	48.12129
825.573	20.05063
825.981	39.0973
826.389	27.06836
826.797	6.0152
827.205	19.04407
827.612	32.07953
828.02	-27.06461
828.428	18.04624
828.835	28.07416
829.243	65.15513
829.65	-11.02774
830.057	16.03923
830.464	6.01479
830.871	44.10591
831.278	32.0779
831.685	40.0899
832.092	7.01734
832.499	2.00444
832.905	-6.01539
833.312	23.05299
833.718	57.14231
834.124	17.03928
834.531	30.07613
834.937	20.05174
835.343	33.08017
835.749	86.20032
836.155	29.07638
836.561	21.05209
836.966	24.05917
837.372	31.07938
837.777	22.05523
838.183	13.02926
838.588	28.06999
838.993	24.05891
839.399	-24.05965
839.804	-27.06692
840.209	3.00772
840.613	-2.00452
841.018	16.04086
841.423	29.07483
841.828	4.01022
842.232	63.15615
842.637	12.02861
843.041	4.01036
843.445	-2.00508
843.849	6.01501
844.253	41.09793
844.657	-27.06906
845.061	26.05949
845.465	7.01709
845.869	-10.02359
846.272	-14.03458
846.676	38.09237
847.079	10.02566
847.483	46.11512
847.886	66.16056
848.289	-2.00539
848.692	-23.05912
849.095	48.11563
849.498	75.18968
849.901	9.02088
850.304	33.07933
850.707	17.04368
851.109	34.08647
851.512	-29.07246
851.914	1.00255
852.316	42.10658
852.718	-56.14742
853.121	4.00991
853.523	-18.04274
853.925	-16.04226
854.326	45.1128
854.728	13.0337
855.13	-22.05752
855.531	3.00725
855.933	9.02182
856.334	-18.0455
856.736	10.02264
857.137	-1.00235
857.538	-19.04843
857.939	-4.01
858.34	23.05644
858.741	55.14383
859.142	2.00486
859.542	4.01065
859.943	21.05254
860.343	-52.13135
860.744	33.08092
861.144	22.05404
861.544	-30.07331
861.945	-2.00515
862.345	26.06398
862.745	15.03757
863.145	35.08407
863.544	44.11146
863.944	25.05946
864.344	44.10959
864.743	43.10701
865.143	-2.00519
865.542	-38.08984
865.941	19.04737
866.34	17.04105
866.74	22.05937
867.139	1.00242
867.537	45.1149
867.936	12.02914
868.335	29.07415
868.734	26.0668
869.132	29.06778
869.531	33.0802
869.929	-13.03006
870.327	-6.01456
870.726	29.07269
871.124	28.06584
871.522	-24.062
871.92	21.05214
872.318	3.00741
872.715	70.17289
873.113	-19.04695
873.511	12.03014
873.908	-6.01531
874.306	-15.03779
874.703	41.10288
875.1	31.07966
875.497	37.08905
875.894	-47.11734
876.291	36.08869
876.688	18.04673
877.085	-9.02187
877.482	2.00506
877.878	-15.03659
878.275	22.05623
878.671	36.08054
879.068	42.10167
879.464	1.00244
879.86	-37.08908
880.256	40.09901
880.652	-8.02057
881.048	52.12895
881.444	-4.00963
881.84	43.10953
882.236	30.07578
882.631	19.04695
883.027	20.04876
883.422	8.02062
883.817	-22.05605
884.213	1.00259
884.608	2.00495
885.003	-4.00975
885.398	-35.08902
885.793	35.08817
886.188	-12.03019
886.582	38.09776
886.977	23.05493
887.371	27.06863
887.766	-4.01005
888.16	49.12242
888.554	32.07947
888.949	40.10071
889.343	27.06631
889.737	-8.02153
890.131	33.0831
890.525	23.05914
890.918	25.06325
891.312	17.04098
891.706	53.13908
892.099	20.0512
892.492	29.06294
892.886	-11.02724
893.279	-9.02318
893.672	-20.05158
894.065	35.08795
894.458	16.04052
894.851	54.13235
895.244	-1.00258
895.637	0
896.029	-19.04709
896.422	9.02218
896.814	32.07988
897.206	-10.02411
897.599	50.12377
897.991	-13.03183
898.383	2.00477
898.775	-22.05044
899.167	-48.11418
899.559	22.05601
899.951	42.09926
900.342	69.17501
900.734	-30.07556
901.125	50.13127
901.517	21.05186
901.908	65.15554
902.299	13.03202
902.69	25.05932
903.082	6.01466
903.473	4.00967
903.863	-16.04132
904.254	46.10694
904.645	56.13923
905.036	-19.04663
905.426	47.10777
905.817	17.042
906.207	-52.1264
906.597	4.00945
906.987	44.11422
907.378	-21.05381
907.768	-1.00267
908.158	32.07834
908.547	-36.09442
908.937	11.02843
909.327	1.00245
909.717	33.08409
910.106	4.0097
910.495	32.0802
910.885	20.05095
911.274	3.00757
911.663	10.02557
912.052	72.17705
912.441	7.01794
912.83	17.03931
913.219	75.19554
913.608	1.00247
913.997	-35.08912
914.385	38.09106
914.774	-6.01477
915.162	-33.07993
915.55	39.09461
915.939	-8.02041
916.327	38.0951
916.715	4.01028
917.103	54.13289
917.491	26.06464
917.878	39.09613
918.266	20.05215
918.654	13.03344
919.041	25.06556
919.429	9.02142
919.816	25.06368
920.203	-20.04916
920.591	26.06478
920.978	9.02222
921.365	24.06327
921.752	-1.00241
922.139	14.03065
922.525	-33.08053
922.912	43.10505
923.299	26.06492
923.685	0
924.072	19.04411
924.458	-4.01001
924.844	20.04978
925.231	-1.00235
925.617	-27.06962
926.003	36.09226
926.389	-13.03317
926.774	35.08896
927.16	-30.07562
927.546	-14.03614
927.931	35.0876
928.317	28.06481
928.702	14.03337
929.088	-21.05037
929.473	8.02051
929.858	-6.01466
930.243	-1.00242
930.628	-5.01229
931.013	-5.01252
931.398	40.09222
931.783	43.11337
932.167	16.03937
932.552	26.06544
932.937	45.11182
933.321	-2.00507
933.705	16.04059
934.09	63.15888
934.474	22.05256
934.858	-34.08948
935.242	-40.09438
935.626	3.00774
936.009	-19.05112
936.393	-2.00514
936.777	7.01806
937.16	10.0262
937.544	7.01664
937.927	-21.05396
938.311	50.12209
938.694	59.15582
939.077	-10.02422
939.46	18.04448
939.843	50.10437
940.226	11.02841
940.609	8.01852
940.991	-17.04379
941.374	-4.00988
941.757	44.10872
942.139	-25.05703
942.522	42.09945
942.904	19.04595
943.286	25.06381
943.668	-3.00784
944.05	-26.06495
944.432	33.0817
944.814	38.09382
945.196	-27.06675
945.578	4.00959
945.959	41.09627
946.341	59.14463
946.722	13.03074
947.104	20.04809
947.485	-21.04956
947.866	7.01777
948.247	12.03048
948.628	9.02213
949.009	0
949.39	-1.00251
949.771	14.0328
950.152	23.05674
950.532	-48.12021
950.913	23.05577
951.293	-8.02182
951.674	-12.02937
952.054	-15.03761
952.434	12.03
952.814	36.0859
953.194	53.13865
953.574	53.1305
953.954	24.05729
954.334	3.00754
954.714	-19.0469
955.093	34.08385
955.473	-17.04303
955.853	38.09858
956.232	5.0138
956.611	3.00726
956.99	-9.02286
957.37	21.05379
957.749	-9.02172
958.128	-8.02037
958.506	6.01568
958.885	18.04569
959.264	-68.17029
959.643	34.07764
960.021	-21.05271
960.4	-34.07839
960.778	59.14511
961.156	-15.03805
961.535	4.00941
961.913	6.01416
962.291	-31.08066
962.669	-17.04358
963.047	14.03596
963.424	20.05131
963.802	1.00248
964.18	49.12402
964.557	8.01858
964.935	6.01434
965.312	-32.0845
965.69	21.05287
966.067	2.00491
966.444	37.0914
966.821	-13.03388
967.198	31.07548
967.575	19.04699
967.952	38.08977
968.329	13.03186
968.705	-1.00217
969.082	12.03098
969.458	-42.10252
969.835	26.06358
970.211	23.05931
970.587	36.08986
970.963	24.06185
971.339	31.08121
971.715	23.05771
972.091	29.07169
972.467	3.00755
972.843	-39.09836
973.219	62.14856
973.594	-18.04763
973.97	3.00721
974.345	26.06251
974.721	23.05598
975.096	10.02438
975.471	38.09036
975.846	30.07235
976.221	-33.08503
976.596	-2.00484
976.971	51.1259
977.346	-8.01884
977.72	42.10715
978.095	25.06489
978.469	19.04562
978.844	58.14562
979.218	-31.07546
979.593	10.02414
979.967	10.02454
980.341	-1.00233
980.715	36.09094
981.089	-21.05324
981.463	-7.01626
981.837	2.00493
982.21	24.05615
982.584	-8.01953
982.957	-29.07345
983.331	24.05703
983.704	-5.01241
984.078	-32.08005
984.451	29.07272
984.824	-22.0543
985.197	-1.00245
985.57	18.0454
985.943	34.08422
986.316	36.08869
986.688	21.05092
987.061	30.0706
987.434	31.08104
987.806	31.07546
988.179	-7.0167
988.551	69.17445
988.923	30.07415
989.295	22.05525
989.667	-30.07276
990.039	6.01494
990.411	-9.02096
990.783	45.10373
991.155	-8.01943
991.527	85.20797
991.898	-9.02266
992.27	2.00499
992.641	33.08305
993.012	56.13162
993.384	41.09796
993.755	15.03848
994.126	-10.02433
994.497	-7.01736
994.868	-24.05595
995.239	-13.03188
995.61	33.08328
995.98	34.08283
996.351	-35.08802
996.722	16.03736
997.092	-18.04318
997.462	-54.1287
997.833	20.04769
998.203	14.03417
998.573	34.0849
998.943	1.00237
999.313	0
999.683	11.02659
1000.053	3.00697
1000.423	5.01225
1000.792	20.0521
1001.162	-10.02488
1001.531	3.00746
1001.901	25.0626
1002.27	25.05617
1002.639	24.0616
1003.009	5.01199
1003.378	12.03088
1003.747	-2.00477
1004.116	-14.0339
1004.485	-19.046
1004.853	-9.02304
1005.222	55.13856
1005.591	6.01437
1005.959	-49.11263
1006.328	-11.02506
1006.696	-7.01706
1007.064	7.01774
1007.433	37.09268
1007.801	45.11055
1008.169	-5.01275
1008.537	-10.02242
1008.905	-21.0496
1009.273	52.12839
1009.64	-11.02654
1010.008	15.03599
1010.375	14.03422
1010.743	80.18363
1011.11	-18.04315
1011.478	28.06956
1011.845	-2.00475
1012.212	-14.0321
1012.579	37.09103
1012.946	51.12134
1013.313	29.06929
1013.68	8.01813
1014.047	-6.01445
1014.414	-21.05027
1014.78	12.03002
1015.147	47.11371
1015.513	5.01215
1015.88	66.16826
1016.246	34.08416
1016.612	2.00462
1016.978	36.08843
1017.344	8.01992
1017.71	20.04904
1018.076	43.10152
1018.442	50.12859
1018.808	17.04273
1019.174	29.07301
1019.539	87.19877
1019.905	10.02376
1020.27	-24.06002
1020.636	9.02174
1021.001	33.07924
1021.366	-22.05354
1021.731	3.00778
1022.096	-26.06645
1022.461	-14.03353
1022.826	19.04541
1023.191	3.00793
1023.556	15.03539
1023.92	20.04943
1024.285	17.04173
1024.649	14.03453
1025.014	35.08691
1025.378	-17.04324
1025.742	11.0275
1026.107	37.08389
1026.471	40.09354
1026.835	-10.02505
1027.199	-9.0219
1027.562	-1.00235
1027.926	16.03936
1028.29	1.00255
1028.654	0
1029.017	60.14716
1029.381	-37.08982
1029.744	-8.0206
1030.107	50.11826
1030.471	-6.01451
1030.834	16.03664
1031.197	44.10608
1031.56	14.03325
1031.923	23.05972
1032.286	48.11273
1032.648	5.01206
1033.011	-33.07697
1033.374	-37.08841
1033.736	-22.05852
1034.099	3.00737
1034.461	0
1034.823	-10.02516
1035.185	10.02534
1035.548	10.02451
1035.91	-22.0534
1036.272	4.00919
1036.634	21.05163
1036.995	22.05197
1037.357	-1.00245
1037.719	7.01715
1038.08	29.06911
1038.442	4.00957
1038.803	13.03142
1039.165	4.01017
1039.526	48.11598
1039.887	6.01447
1040.248	-18.04488
1040.609	42.10389
1040.97	21.05157
1041.331	-1.00255
1041.692	-23.05443
1042.053	1.0023
1042.413	11.02582
1042.774	17.04158
1043.134	16.03832
1043.495	-1.00254
1043.855	29.07059
1044.215	8.02
1044.576	-33.08011
1044.936	43.09868
1045.296	-10.02521
1045.656	14.03457
1046.016	6.0146
1046.375	16.03904
1046.735	-19.04366
1047.095	12.02828
1047.454	49.1038
1047.814	-1.00243
1048.173	52.12413
1048.533	19.04378
1048.892	-85.20913
1049.251	56.14034
1049.61	10.02479
1049.969	4.00951
1050.328	-4.00877
1050.687	-1.00245
1051.046	16.03918
1051.405	28.06989
1051.763	-22.05129
1052.122	28.07007
1052.48	6.01483
1052.839	-13.03094
1053.197	-10.0238
1053.555	53.1207
1053.914	10.02463
1054.272	34.0824
1054.63	0
1054.988	-5.012
1055.345	35.07557
1055.703	42.10118
1056.061	-10.02598
1056.419	-19.04974
1056.776	13.03173
1057.134	11.02565
1057.491	-11.02783
1057.848	-8.02011
1058.206	-25.05962
1058.563	-47.10565
1058.92	22.05096
1059.277	25.06192
1059.634	35.08254
1059.991	65.15519
1060.348	-13.02974
1060.704	-7.01685
1061.061	44.10229
1061.418	-40.09858
1061.774	8.01989
1062.131	1.00266
1062.487	8.01885
1062.843	34.08496
1063.199	1.00251
1063.555	-30.07057
1063.911	-23.05881
1064.267	91.18797
1064.623	-38.09375
1064.979	59.13946
1065.335	18.04326
1065.691	0
1066.046	15.03321
1066.402	-34.07851
1066.757	16.0406
1067.112	30.07385
1067.468	-23.05504
1067.823	33.07954
1068.178	9.02192
1068.533	28.06811
1068.888	22.05282
1069.243	56.13796
1069.598	-7.01718
1069.952	-39.08936
1070.307	-5.01249
1070.662	-40.09654
1071.016	-31.07057
1071.371	20.04574
1071.725	34.08153
1072.079	20.04834
1072.434	-1.00245
1072.788	27.06454
1073.142	37.09117
1073.496	-24.05771
1073.85	-29.06826
1074.203	28.06817
1074.557	28.07468
1074.911	54.1287
1075.265	36.08386
1075.618	44.10748
1075.971	-15.0361
1076.325	1.00256
1076.678	8.01844
1077.031	-11.02518
1077.385	-5.01113
1077.738	-12.02741
1078.091	-27.06231
1078.444	29.06756
1078.796	8.01977
1079.149	18.045
1079.502	-24.05746
1079.855	0
1080.207	48.11821
1080.56	3.00781
1080.912	22.0538
1081.264	2.00486
1081.617	26.0636
1081.969	-8.02037
1082.321	5.0123
1082.673	-48.11163
1083.025	-22.05288
1083.377	-222.50403
1083.728	42.09806
1084.08	-13.0328
1084.432	22.0533
1084.783	46.10778
1085.135	7.01767
1085.486	-52.12132
1085.838	15.03715
1086.189	-2.0049
1086.54	1.00241
1086.891	-15.03834
1087.242	-16.0394
1087.593	15.03673
1087.944	-21.04817
1088.295	0
1088.646	-36.08859
1088.996	-43.10533
1089.347	32.07872
1089.698	-62.14958
1090.048	22.05737
1090.398	43.09979
1090.749	-24.05819
1091.099	-3.00761
1091.449	1.00251
1091.799	48.12012
1092.149	-86.21483
1092.499	-21.05186
1092.849	-9.02309
1093.199	41.10284
1093.548	-27.06577
1093.898	-1.00252
1094.248	30.07729
1094.597	-24.062
1094.947	17.04556
1095.296	0
1095.645	52.13508
1095.994	-2.00485
1096.343	16.04047
1096.692	-17.04512
1097.041	-34.09322
1097.39	10.02524
1097.739	9.02354
1098.088	37.09925
1098.437	-22.05844
1098.785	49.13201
1099.134	55.14579
1099.482	15.04145
1099.83	16.04225
1100.179	7.01837
1100.527	12.03206
1100.875	-5.01333
1101.223	22.05864
1101.571	3.00834
1101.919	-46.12204
1102.267	14.0396
1102.615	1.00322
1102.962	9.02898
1103.31	-4.01287
1103.658	15.04829
