Data from N2 R5 sample 9_Subt2__4__11-54-51-875.txt Node

Date: Fri Aug 29 11:54:51 PDT 2025
User: uwsun
Spectrometer: HDX01956
Trigger mode: 0
Integration Time (sec): 5.000000E-1
Scans to average: 1
Nonlinearity correction enabled: true
Boxcar width: 0
Storing dark spectrum: false
XAxis mode: Wavelengths
Number of Pixels in Spectrum: 2068
>>>>>Begin Spectral Data<<<<<
194.03	181.49378
194.578	173.5353
195.127	168.51223
195.676	198.6032
196.225	202.51767
196.773	212.56144
197.321	320.81308
197.87	436.99178
198.418	441.98793
198.966	361.82736
199.513	398.85874
200.061	344.76449
200.609	460.05905
201.156	399.74392
201.704	378.82887
202.251	397.91823
202.798	372.84692
203.345	435.93111
203.892	414.9032
204.438	460.94139
204.985	369.75363
205.532	387.88942
206.078	452.95139
206.624	376.80154
207.17	436.86723
207.716	416.86792
208.262	408.68416
208.808	415.8741
209.354	408.85464
209.899	452.98942
210.445	401.85909
210.99	393.81612
211.535	452.90911
212.08	362.73413
212.625	371.81335
213.17	420.92404
213.715	298.57699
214.259	389.78618
214.804	432.92409
215.348	403.79618
215.892	404.83952
216.436	381.77002
216.98	396.75868
217.524	369.75945
218.068	418.9154
218.612	443.96625
219.155	370.75927
219.698	370.77059
220.242	403.88014
220.785	364.74528
221.328	324.71735
221.871	411.9143
222.414	404.88176
222.956	324.6877
223.499	332.6576
224.041	381.7792
224.583	424.7927
225.126	344.6651
225.668	364.77629
226.21	334.7435
226.751	301.57931
227.293	351.70581
227.835	370.79114
228.376	322.66048
228.918	359.80262
229.459	356.778
230	366.76294
230.541	384.77199
231.082	343.73231
231.622	347.70355
232.163	391.82392
232.704	382.82669
233.244	349.7619
233.784	408.87389
234.324	348.66091
234.864	366.72257
235.404	405.83804
235.944	377.78185
236.484	378.82852
237.023	353.72913
237.563	342.69072
238.102	361.74566
238.641	385.8515
239.18	353.71736
239.719	354.78148
240.258	371.72504
240.797	353.73698
241.335	421.89219
241.874	347.57308
242.412	388.80771
242.95	391.80472
243.488	358.71109
244.026	325.65473
244.564	343.61128
245.102	356.69226
245.64	397.83141
246.177	337.65891
246.715	391.81523
247.252	401.79445
247.789	423.67506
248.326	364.75506
248.863	360.6797
249.4	390.76344
249.936	358.63224
250.473	429.85152
251.009	361.71286
251.546	379.7161
252.082	391.73299
252.618	382.72796
253.154	319.66896
253.69	397.76446
254.226	398.81525
254.761	376.72489
255.297	396.73705
255.832	321.66185
256.367	420.84358
256.903	420.77939
257.438	448.89318
257.972	407.77052
258.507	321.63506
259.042	379.70207
259.576	336.61759
260.111	387.76779
260.645	404.74223
261.179	365.73024
261.713	389.735
262.247	373.73829
262.781	405.71209
263.315	393.82231
263.849	418.89067
264.382	418.81593
264.915	362.72474
265.449	319.66807
265.982	422.8124
266.515	386.80462
267.048	309.56181
267.58	430.79199
268.113	414.74798
268.646	389.81898
269.178	364.68927
269.71	449.81724
270.243	421.81106
270.775	428.92385
271.307	461.93468
271.838	533.04784
272.37	436.9048
272.902	430.82143
273.433	459.82994
273.965	461.93938
274.496	466.97525
275.027	428.89573
275.558	473.95463
276.089	380.78789
276.62	432.93328
277.15	468.9686
277.681	470.84268
278.211	430.89036
278.741	371.68485
279.272	466.87555
279.802	436.91651
280.332	408.80511
280.861	449.90079
281.391	415.78221
281.921	421.8532
282.45	444.93168
282.98	471.02578
283.509	429.79868
284.038	502.93067
284.567	448.87035
285.096	441.88678
285.625	494.91081
286.153	369.72524
286.682	441.82878
287.21	412.82484
287.739	395.77817
288.267	500.98434
288.795	468.02505
289.323	445.84906
289.851	498.94675
290.378	485.87965
290.906	437.86618
291.433	455.93474
291.961	439.80796
292.488	470.95925
293.015	450.86006
293.542	471.97241
294.069	537.05423
294.596	432.88329
295.122	436.84986
295.649	501.88096
296.175	475.93711
296.702	496.97325
297.228	560.08369
297.754	518.91922
298.28	486.8772
298.806	538.02165
299.332	485.84522
299.857	489.87337
300.383	483.99316
300.908	426.83155
301.433	502.96736
301.958	555.0051
302.483	473.94368
303.008	525.03111
303.533	578.19229
304.058	538.99843
304.582	512.94496
305.107	489.01586
305.631	581.02128
306.155	506.91705
306.679	513.92951
307.203	480.87125
307.727	554.01324
308.251	546.04948
308.775	520.94772
309.298	510.94126
309.822	587.13956
310.345	587.05346
310.868	605.08806
311.391	587.10378
311.914	549.05348
312.437	600.02584
312.96	615.07498
313.482	596.05292
314.005	576.09556
314.527	629.24159
315.049	606.15721
315.571	547.8911
316.093	666.20691
316.615	587.04481
317.137	642.99428
317.659	640.14202
318.18	666.16709
318.702	683.12532
319.223	647.92057
319.744	713.10289
320.265	655.12582
320.786	620.09656
321.307	676.19211
321.828	718.10902
322.348	734.17915
322.869	720.15134
323.389	689.69288
323.909	719.11611
324.43	812.32113
324.95	755.13804
325.47	747.22835
325.989	792.21227
326.509	748.04584
327.029	773.10272
327.548	738.05424
328.067	788.21183
328.587	810.3068
329.106	819.15034
329.625	846.46708
330.144	866.2078
330.662	747.07619
331.181	833.18722
331.7	897.24768
332.218	879.08982
332.736	912.24797
333.255	904.2161
333.773	940.27567
334.291	924.37271
334.808	890.10395
335.326	971.19124
335.844	977.214
336.361	942.33878
336.879	910.14804
337.396	1023.30118
337.913	1010.18998
338.43	1058.17349
338.947	1043.26495
339.464	1026.03683
339.981	1052.23179
340.497	1028.30714
341.014	991.22721
341.53	1114.14203
342.046	1022.24057
342.562	1107.35202
343.078	1153.23174
343.594	1130.24281
344.11	1210.26957
344.626	1110.31676
345.141	1180.13107
345.657	1204.14754
346.172	1224.25979
346.687	1238.13981
347.202	1206.0634
347.717	1258.21569
348.232	1227.30065
348.747	1223.09019
349.261	1214.93069
349.776	1296.14367
350.29	1281.204
350.805	1383.3
351.319	1328.10616
351.833	1236.9735
352.347	1316.08638
352.861	1340.05445
353.374	1434.07684
353.888	1442.16969
354.401	1401.01551
354.915	1348.89822
355.428	1471.17946
355.941	1400.98289
356.454	1506.95478
356.967	1451.03975
357.48	1440.96452
357.993	1484.12293
358.505	1390.04908
359.018	1580.08136
359.53	1508.99621
360.042	1520.82046
360.554	1551.02192
361.066	1542.99994
361.578	1511.73691
362.09	1505.9331
362.602	1595.71779
363.113	1565.82539
363.625	1703.72146
364.136	1645.67695
364.647	1582.70524
365.158	1660.75649
365.669	1757.81372
366.18	1659.76714
366.691	1697.58961
367.201	1702.7573
367.712	1785.58336
368.222	1758.58295
368.733	1789.40196
369.243	1833.40427
369.753	1896.49991
370.263	1873.56085
370.773	1832.62902
371.282	1911.44841
371.792	1977.20586
372.301	2002.33766
372.811	1999.53907
373.32	2003.92758
373.829	2064.06971
374.338	2299.77563
374.847	2184.82978
375.356	2244.79682
375.865	2399.38123
376.373	2552.35327
376.882	2673.52789
377.39	2717.31564
377.898	2687.19639
378.407	2918.8753
378.915	2920.79897
379.423	3033.77391
379.93	3169.64724
380.438	3277.59487
380.946	3442.5533
381.453	3714.58745
381.96	3901.77082
382.468	4197.33238
382.975	4352.48581
383.482	4370.99053
383.989	4429.80008
384.495	4700.14403
385.002	4988.43137
385.509	5368.6542
386.015	5464.7367
386.521	5854.4978
387.028	6099.49172
387.534	6298.47872
388.04	6397.51329
388.546	6466.01888
389.051	7140.17584
389.557	7656.14805
390.063	8150.24201
390.568	7904.35853
391.073	8309.59217
391.578	8759.74844
392.084	9004.44707
392.589	9606.72008
393.093	10443.78812
393.598	11166.24849
394.103	12303.81536
394.607	13415.18618
395.112	13965.12375
395.616	14742.71509
396.12	15901.28517
396.624	17492.79171
397.128	18972.27858
397.632	20868.01055
398.136	22422.37499
398.639	24729.21466
399.143	28358.91463
399.646	27880.18616
400.15	24773.35706
400.653	20124.16724
401.156	13866.23708
401.659	5169.95759
402.162	1054.15589
402.664	0
403.167	0
403.67	0
404.172	0
404.674	0
405.176	0
405.678	0
406.18	0
406.682	0
407.184	0
407.686	0
408.187	0
408.688	0
409.19	0
409.691	0
410.192	0
410.693	0
411.194	435.30976
411.694	4082.94878
412.195	8864.71461
412.696	12089.80453
413.196	12760.96929
413.696	12863.67595
414.196	13703.56671
414.696	17261.84252
415.196	21764.24417
415.696	29583.19008
416.196	28888.81849
416.695	24774.35908
417.195	23773.84424
417.694	22577.57001
418.194	21134.48321
418.693	19989.12512
419.192	19873.6461
419.691	18898.14716
420.19	18813.796
420.688	18262.55684
421.187	16792.42406
421.685	15406.5094
422.184	13437.85882
422.682	11590.04878
423.18	10400.21423
423.678	9297.40766
424.176	8808.79945
424.674	8399.64872
425.172	7614.31435
425.669	6838.87798
426.167	6455.83045
426.664	5846.91197
427.161	5529.27699
427.659	5172.77246
428.156	4838.05967
428.652	4592.58013
429.149	4472.23504
429.646	4126.70012
430.143	3866.93045
430.639	3743.75702
431.135	3508.57303
431.632	3351.57544
432.128	3160.61588
432.624	3034.72518
433.12	2806.72842
433.616	2840.72861
434.111	2702.86218
434.607	2776.91667
435.103	2615.96339
435.598	2370.1283
436.093	2393.39974
436.588	2234.5233
437.083	2146.67026
437.578	2012.85127
438.073	1826.08455
438.568	1860.21292
439.062	1828.9614
439.557	1748.287
440.051	1651.23924
440.546	1555.29392
441.04	1553.44216
441.534	1562.62347
442.028	1480.55994
442.522	1538.55589
443.015	1438.41286
443.509	1431.67864
444.002	1481.68304
444.496	1407.48028
444.989	1477.73076
445.482	1345.76768
445.975	1251.55958
446.468	1333.49713
446.961	1248.51019
447.454	1193.62612
447.947	1192.69399
448.439	1253.80812
448.931	1092.61666
449.424	1200.90545
449.916	1194.82706
450.408	1113.65933
450.9	1019.76958
451.392	1035.86628
451.884	999.72115
452.375	919.79238
452.867	1032.74507
453.358	944.68404
453.849	968.6185
454.341	956.70869
454.832	947.64453
455.323	913.82297
455.814	903.75277
456.304	816.71893
456.795	913.76565
457.285	894.75132
457.776	945.83051
458.266	895.83459
458.756	822.83486
459.247	777.77478
459.737	712.73627
460.226	761.70732
460.716	652.71612
461.206	689.76729
461.695	718.86653
462.185	705.77612
462.674	681.73967
463.163	725.73113
463.653	647.62007
464.142	673.79825
464.63	701.86399
465.119	625.7189
465.608	582.68366
466.096	566.63155
466.585	586.71954
467.073	548.72494
467.561	538.7222
468.05	617.77421
468.538	543.76358
469.026	453.63403
469.513	531.60314
470.001	528.67135
470.489	529.71739
470.976	508.68231
471.463	474.72351
471.951	507.78106
472.438	467.66286
472.925	380.55106
473.412	477.74131
473.899	418.60508
474.385	469.73526
474.872	339.51318
475.359	389.62183
475.845	402.51909
476.331	413.57947
476.817	401.65569
477.303	348.54341
477.789	402.65199
478.275	297.51423
478.761	309.52137
479.247	313.48632
479.732	248.44161
480.218	253.48106
480.703	288.51551
481.188	279.41954
481.673	298.4849
482.158	214.32168
482.643	247.47149
483.128	178.29957
483.612	236.40762
484.097	256.47053
484.581	241.41948
485.066	178.32963
485.55	210.34188
486.034	159.25979
486.518	142.25574
487.002	167.31429
487.486	154.29232
487.969	138.26348
488.453	122.24583
488.936	120.21212
489.42	137.2382
489.903	163.32807
490.386	175.21562
490.869	150.25866
491.352	151.29902
491.835	166.27009
492.318	91.16544
492.8	117.19309
493.283	99.20559
493.765	52.10565
494.247	140.2673
494.73	150.26654
495.212	139.27667
495.694	-1.00195
496.175	14.02756
496.657	95.18689
497.139	83.11864
497.62	2.00397
498.102	38.07921
498.583	28.05964
499.064	41.07613
499.545	32.06157
500.026	1.0019
500.507	54.1056
500.988	33.06991
501.469	-39.08417
501.949	34.07198
502.43	-19.03858
502.91	-29.05122
503.39	10.02166
503.87	-30.06073
504.35	26.05287
504.83	-67.12764
505.31	32.06629
505.79	-3.00617
506.269	-26.05297
506.749	-44.08723
507.228	-33.06718
507.707	-47.09076
508.187	2.00417
508.666	-74.15968
509.145	-88.18116
509.623	-38.07802
510.102	-36.07658
510.581	30.06307
511.059	-84.18615
511.538	11.02494
512.016	-48.10126
512.494	-51.10974
512.972	-49.1033
513.45	-92.18786
513.928	29.06095
514.406	-61.12872
514.884	2.00451
515.361	-41.0867
515.839	-14.02792
516.316	-84.18032
516.793	-21.04715
517.27	-34.07337
517.747	-79.18115
518.224	-85.1766
518.701	-58.11504
519.178	-123.27411
519.654	-27.05725
520.131	-65.14377
520.607	-26.05752
521.083	-74.15138
521.56	-71.15034
522.036	-61.12006
522.512	-35.07738
522.987	-93.19796
523.463	-64.13638
523.939	-15.0328
524.414	-45.09333
524.89	-75.16048
525.365	-64.13015
525.84	-87.18527
526.315	-83.18029
526.79	-95.1942
527.265	-36.07344
527.74	-64.14041
528.215	-48.10162
528.689	-108.21732
529.164	-78.15363
529.638	-55.12784
530.112	-99.21147
530.587	-136.26483
531.061	-85.18526
531.534	-62.13625
532.008	-93.20287
532.482	-73.15228
532.956	-122.2835
533.429	-77.16953
533.903	-74.14904
534.376	-63.1261
534.849	-62.13034
535.322	-150.32714
535.795	-87.19404
536.268	-85.18597
536.741	-82.17982
537.213	-73.15377
537.686	-84.18592
538.158	-95.19341
538.631	-41.0905
539.103	-90.18344
539.575	-64.1216
540.047	-105.21192
540.519	-94.20622
540.991	-17.03762
541.463	-65.14335
541.934	-104.21834
542.406	-100.21791
542.877	-76.15639
543.348	-82.18134
543.82	-80.17972
544.291	-37.07845
544.762	-60.12886
545.233	-39.08821
545.703	-96.19362
546.174	-34.07132
546.645	-89.19225
547.115	-32.06926
547.585	-4.00822
548.056	-48.1034
548.526	-20.04177
548.996	25.05324
549.466	71.15251
549.935	37.07646
550.405	25.04791
550.875	-18.03772
551.344	27.05695
551.814	58.11612
552.283	78.14726
552.752	58.11655
553.221	52.09721
553.69	82.15641
554.159	83.17475
554.628	65.12443
555.096	104.22585
555.565	68.13078
556.033	68.1398
556.502	67.14206
556.97	57.11102
557.438	81.16874
557.906	57.12028
558.374	47.09612
558.842	35.07483
559.31	62.12384
559.777	33.07134
560.245	101.21125
560.712	108.22223
561.18	99.19366
561.647	86.1713
562.114	133.26683
562.581	183.3958
563.048	195.39356
563.514	175.37607
563.981	176.35432
564.448	218.42512
564.914	254.51229
565.381	309.60158
565.847	326.65146
566.313	284.56937
566.779	298.57561
567.245	335.6668
567.711	340.69236
568.176	304.58128
568.642	343.73104
569.108	427.87525
569.573	478.92996
570.038	491.83852
570.504	471.86121
570.969	532.08742
571.434	453.81114
571.899	554.06079
572.363	621.11404
572.828	679.21208
573.293	660.18204
573.757	587.07184
574.222	638.10678
574.686	627.09485
575.15	718.3139
575.614	732.28236
576.078	683.24249
576.542	704.23513
577.006	734.26028
577.469	804.52346
577.933	737.24891
578.396	728.33626
578.86	730.32515
579.323	705.29884
579.786	677.1253
580.249	629.12206
580.712	680.30569
581.175	662.28635
581.637	668.20808
582.1	648.11584
582.563	680.13434
583.025	582.13064
583.487	564.89951
583.95	461.80762
584.412	513.87234
584.874	577.12651
585.336	546.04595
585.797	498.87545
586.259	479.93479
586.721	419.82002
587.182	490.94877
587.643	453.85343
588.105	431.85229
588.566	427.74764
589.027	388.78542
589.488	413.78915
589.949	422.85855
590.41	275.45793
590.87	364.70748
591.331	331.61161
591.791	336.66022
592.252	234.46522
592.712	296.61456
593.172	255.49881
593.632	340.63721
594.092	279.53826
594.552	315.58059
595.011	247.4921
595.471	237.46338
595.931	260.50317
596.39	251.52264
596.849	207.42393
597.308	284.53357
597.768	227.50544
598.227	266.5577
598.685	303.60226
599.144	224.45926
599.603	239.49544
600.062	230.4204
600.52	192.37673
600.978	225.46809
601.437	253.50546
601.895	235.43443
602.353	242.46946
602.811	231.44822
603.269	229.48002
603.727	273.56643
604.184	192.38012
604.642	260.55355
605.099	242.48966
605.557	301.63289
606.014	267.49532
606.471	270.58109
606.928	342.61597
607.385	320.66023
607.842	353.683
608.299	353.69903
608.755	338.6933
609.212	440.80675
609.668	359.66568
610.125	334.69005
610.581	430.86287
611.037	378.7375
611.493	303.62249
611.949	308.63947
612.405	334.57016
612.861	365.73937
613.316	332.68253
613.772	387.75667
614.227	354.71627
614.683	379.69471
615.138	333.67208
615.593	343.68686
616.048	401.78442
616.503	380.80549
616.958	330.71814
617.412	359.73321
617.867	282.54496
618.321	414.73002
618.776	355.68127
619.23	327.67058
619.684	369.72421
620.138	360.73075
620.592	328.69983
621.046	369.75671
621.5	325.69569
621.954	369.72798
622.407	304.60185
622.861	336.72032
623.314	351.70483
623.768	263.55056
624.221	228.40768
624.674	261.54201
625.127	289.60686
625.58	312.6391
626.033	299.5957
626.485	250.54244
626.938	263.56858
627.39	260.55018
627.843	235.49826
628.295	213.45398
628.747	222.4858
629.199	190.40118
629.651	144.30699
630.103	211.44757
630.555	227.44509
631.006	218.47463
631.458	210.4607
631.909	251.5352
632.361	176.38628
632.812	180.39056
633.263	135.2776
633.714	178.36099
634.165	161.37006
634.616	106.24184
635.067	173.36552
635.518	126.28817
635.968	142.27454
636.419	155.32275
636.869	150.3414
637.319	138.30594
637.769	101.21864
638.219	144.33079
638.669	89.2058
639.119	108.25503
639.569	76.17849
640.019	168.37291
640.468	138.29803
640.918	120.28029
641.367	76.16723
641.816	151.32631
642.265	82.18573
642.714	132.29617
643.163	77.1738
643.612	90.21038
644.061	76.15822
644.51	100.22262
644.958	100.21522
645.406	75.17597
645.855	96.23012
646.303	97.22251
646.751	42.09466
647.199	88.1968
647.647	57.12965
648.095	60.13595
648.543	115.23231
648.99	105.2454
649.438	122.28081
649.885	122.29478
650.333	108.2072
650.78	68.16207
651.227	50.12045
651.674	72.16241
652.121	85.20371
652.568	63.15128
653.015	105.26072
653.461	71.16698
653.908	87.20037
654.354	58.13765
654.801	57.13275
655.247	84.18335
655.693	85.21826
656.139	51.12172
656.585	62.14783
657.031	54.12519
657.477	37.08023
657.922	71.16248
658.368	82.20052
658.813	82.18995
659.259	60.14333
659.704	29.0678
660.149	24.05621
660.594	63.14915
661.039	9.02072
661.484	90.21385
661.929	63.14736
662.373	39.09825
662.818	47.11653
663.262	40.0965
663.707	46.11649
664.151	95.23054
664.595	5.01218
665.039	45.11227
665.483	71.18002
665.927	114.26669
666.371	14.03273
666.814	79.18868
667.258	4.00957
667.701	128.2756
668.145	69.17189
668.588	10.02484
669.031	5.01191
669.474	66.15941
669.917	61.13656
670.36	81.20069
670.803	105.2528
671.245	42.09012
671.688	95.23158
672.13	11.02512
672.573	84.21332
673.015	91.21868
673.457	15.03339
673.899	50.12222
674.341	39.09514
674.783	9.02192
675.225	22.05478
675.666	9.02196
676.108	15.03337
676.549	73.17422
676.991	21.04732
677.432	-19.03926
677.873	24.05656
678.314	63.15174
678.755	57.13983
679.196	33.07685
679.637	89.21833
680.078	24.05727
680.518	58.13707
680.959	21.05117
681.399	46.1152
681.839	63.15466
682.28	45.11215
682.72	-13.03056
683.16	67.16782
683.6	67.15493
684.039	13.02791
684.479	-9.02255
684.919	-21.0497
685.358	41.10521
685.798	76.1996
686.237	57.13952
686.676	16.03802
687.115	34.08132
687.554	50.12036
687.993	55.12389
688.432	37.08617
688.871	27.06253
689.309	76.18301
689.748	19.04095
690.186	92.22129
690.625	67.1588
691.063	45.10945
691.501	37.09278
691.939	46.11599
692.377	75.18432
692.815	-3.00734
693.253	30.07347
693.69	28.06303
694.128	27.06648
694.565	5.0122
695.003	72.18388
695.44	11.02643
695.877	25.05953
696.314	38.08379
696.751	69.15981
697.188	1.00236
697.625	84.19528
698.061	8.01961
698.498	58.1422
698.934	62.15111
699.371	-1.00241
699.807	25.06033
700.243	30.07344
700.679	22.05104
701.115	53.12688
701.551	51.12204
701.987	53.12148
702.422	34.08215
702.858	59.14237
703.294	0
703.729	31.07714
704.164	6.01477
704.599	54.12251
705.035	10.02296
705.47	-5.01244
705.904	66.15567
706.339	68.16052
706.774	16.03831
707.209	11.02597
707.643	46.11215
708.078	11.02733
708.512	25.06345
708.946	33.08056
709.38	57.13697
709.814	15.03515
710.248	50.12354
710.682	15.03643
711.116	-17.04158
711.549	53.13808
711.983	21.0496
712.416	74.17698
712.85	50.12616
713.283	57.13676
713.716	84.21241
714.149	49.11869
714.582	16.03684
715.015	53.13433
715.448	74.18792
715.881	64.14266
716.313	52.1237
716.746	37.08861
717.178	3.00738
717.61	58.14854
718.043	49.12366
718.475	31.07644
718.907	75.19137
719.339	-5.01164
719.77	-21.05113
720.202	20.0514
720.634	9.02233
721.065	43.10357
721.497	52.12905
721.928	-8.02009
722.359	-8.01973
722.79	-3.00735
723.221	44.11217
723.652	104.26877
724.083	-11.02554
724.514	41.09594
724.945	2.00481
725.375	-1.00238
725.806	79.19866
726.236	49.12692
726.666	28.06755
727.096	53.13165
727.526	28.07211
727.956	3.00699
728.386	72.17881
728.816	4.01031
729.246	17.04206
729.675	-15.03777
730.105	70.17385
730.534	11.02632
730.964	75.19097
731.393	103.25678
731.822	33.08542
732.251	46.11806
732.68	48.11493
733.109	38.09496
733.537	41.10043
733.966	50.12558
734.395	21.04952
734.823	61.13976
735.251	24.05884
735.68	84.21165
736.108	68.17336
736.536	37.08878
736.964	3.00713
737.392	56.14156
737.82	52.12645
738.247	45.10937
738.675	42.10198
739.102	30.076
739.53	13.03363
739.957	45.11692
740.384	81.20127
740.811	95.24146
741.238	26.0645
741.665	9.02133
742.092	51.12349
742.519	1.00252
742.945	16.03916
743.372	65.16228
743.798	57.14774
744.225	27.06533
744.651	49.12428
745.077	84.21044
745.503	12.02985
745.929	40.09738
746.355	97.24217
746.781	60.1501
747.207	-6.0144
747.632	39.09627
748.058	39.09857
748.483	38.089
748.908	60.15042
749.334	42.1045
749.759	70.16658
750.184	-2.00487
750.609	84.20755
751.033	86.20481
751.458	30.06869
751.883	47.11785
752.307	-6.01446
752.732	27.06834
753.156	46.11491
753.58	50.12036
754.005	86.21909
754.429	51.12139
754.853	38.0953
755.277	20.04822
755.7	55.13776
756.124	34.08545
756.548	24.05786
756.971	34.08422
757.394	61.15822
757.818	32.0833
758.241	91.2313
758.664	43.10972
759.087	-1.00229
759.51	51.1282
759.933	-17.04187
760.356	64.16511
760.778	50.12422
761.201	46.11328
761.623	98.23849
762.046	74.17711
762.468	96.23152
762.89	88.21807
763.312	64.15761
763.734	18.04408
764.156	41.10244
764.578	70.16267
765	67.16472
765.421	15.03862
765.843	63.16604
766.264	41.10039
766.686	53.13433
767.107	19.0468
767.528	26.06642
767.949	52.13332
768.37	42.10427
768.791	59.14409
769.212	14.03567
769.632	35.0827
770.053	30.0798
770.473	51.12529
770.894	60.1514
771.314	47.11367
771.734	32.07571
772.154	49.12683
772.575	59.13822
772.994	-29.06772
773.414	74.17887
773.834	49.12357
774.254	42.10393
774.673	33.08143
775.093	-4.01008
775.512	40.09956
775.931	67.17066
776.351	44.11027
776.77	32.07915
777.189	48.11537
777.607	27.06972
778.026	30.07559
778.445	5.0127
778.864	59.15219
779.282	41.09972
779.701	11.02813
780.119	7.01794
780.537	27.06814
780.955	47.12052
781.373	8.02009
781.791	-10.02298
782.209	21.0492
782.627	37.09821
783.045	2.00469
783.462	49.126
783.88	-5.01313
784.297	20.05092
784.715	-6.01564
785.132	-8.01973
785.549	3.00762
785.966	27.06863
786.383	22.05478
786.8	42.0986
787.217	31.07435
787.633	-8.02029
788.05	98.23276
788.466	47.11191
788.883	35.08997
789.299	20.0488
789.715	48.11755
790.131	51.12761
790.547	63.15797
790.963	33.08269
791.379	28.07146
791.795	23.05325
792.21	24.05685
792.626	-14.03388
793.041	-24.06041
793.457	-5.01256
793.872	25.05951
794.287	14.03385
794.702	45.1117
795.117	18.04522
795.532	14.03549
795.947	62.14998
796.362	59.14173
796.776	94.22016
797.191	2.00497
797.605	-47.11311
798.02	-12.02972
798.434	-2.00454
798.848	16.03987
799.262	14.03514
799.676	82.20015
800.09	26.06462
800.504	25.06133
800.918	-15.03544
801.331	81.21219
801.745	28.06507
802.158	10.02531
802.572	70.17022
802.985	31.07568
803.398	27.06508
803.811	54.13941
804.224	28.07035
804.637	-62.15173
805.05	4.00942
805.462	38.0941
805.875	-5.01313
806.288	-2.0049
806.7	33.08358
807.112	37.08658
807.525	18.04492
807.937	-5.01254
808.349	41.10336
808.761	27.06704
809.173	-14.03452
809.584	26.06488
809.996	50.123
810.408	63.16279
810.819	120.27996
811.231	87.2241
811.642	61.14581
812.053	35.08388
812.464	-9.02175
812.875	4.01034
813.286	-5.01304
813.697	74.17332
814.108	11.0272
814.519	-8.01816
814.929	45.11535
815.34	21.05146
815.75	12.03081
816.16	10.02521
816.571	52.1355
816.981	33.07861
817.391	28.06822
817.801	-2.00503
818.211	38.09126
818.62	10.02436
819.03	30.07413
819.44	45.11804
819.849	31.07868
820.259	43.11061
820.668	13.03232
821.077	3.00754
821.486	41.09938
821.895	50.12409
822.304	23.06139
822.713	-1.0024
823.122	37.09291
823.531	10.024
823.939	31.0761
824.348	12.02951
824.756	23.05811
825.164	43.10875
825.573	25.06323
825.981	0
826.389	54.13606
826.797	15.03794
827.205	8.0186
827.612	26.06469
828.02	-16.03821
828.428	28.07181
828.835	6.01595
829.243	-5.01209
829.65	-2.00504
830.057	22.05388
830.464	2.00493
830.871	50.12022
831.278	58.14051
831.685	32.07204
832.092	31.07644
832.499	-25.05583
832.905	5.0128
833.312	24.05529
833.718	68.16943
834.124	3.00695
834.531	49.12393
834.937	26.06719
835.343	26.06325
835.749	47.11032
836.155	14.03697
836.561	-19.04747
836.966	4.0099
837.372	30.07683
837.777	-9.02272
838.183	33.07397
838.588	-27.06817
838.993	27.06623
839.399	4.00989
839.804	-10.02471
840.209	-17.04388
840.613	26.05836
841.018	38.09667
841.423	8.02072
841.828	1.00256
842.232	98.24134
842.637	14.03337
843.041	-39.10171
843.445	31.07821
843.849	-9.02258
844.253	24.05751
844.657	-16.04085
845.061	28.06404
845.465	-12.0294
845.869	20.0469
846.272	-23.0569
846.676	5.01223
847.079	6.0154
847.483	24.0603
847.886	38.09293
848.289	-23.0622
848.692	13.03321
849.095	-12.02924
849.498	40.1018
849.901	-18.04198
850.304	-13.03152
850.707	37.09474
851.109	25.06368
851.512	-14.03488
851.914	-60.15442
852.316	12.03061
852.718	-47.12354
853.121	3.00743
853.523	-21.04989
853.925	-8.0211
854.326	-33.08388
854.728	-13.03385
855.13	-24.06278
855.531	2.00483
855.933	-5.01216
856.334	-22.05565
856.736	-31.07077
857.137	-61.14525
857.538	2.00508
857.939	-19.04761
858.34	27.06621
858.741	17.04475
859.142	64.15365
859.542	8.02128
859.943	25.06251
860.343	-13.03261
860.744	20.04916
861.144	6.01478
861.544	-73.17981
861.945	37.09464
862.345	14.03453
862.745	3.00753
863.145	24.05777
863.544	21.05341
863.944	37.0878
864.344	31.0774
864.743	43.10701
865.143	0
865.542	-42.09937
865.941	-3.00751
866.34	27.06508
866.74	24.06475
867.139	-25.06081
867.537	44.11237
867.936	-12.02927
868.335	45.11474
868.734	30.07702
869.132	32.07474
869.531	24.05843
869.929	-50.11647
870.327	22.0531
870.726	40.10006
871.124	12.0283
871.522	0
871.92	38.09406
872.318	25.06149
872.715	32.07959
873.113	16.03929
873.511	15.03765
873.908	-20.05117
874.306	-2.00503
874.703	35.08792
875.1	21.05406
875.497	-5.01213
875.894	-35.08719
876.291	14.03463
876.688	19.04932
877.085	8.01937
877.482	-13.03295
877.878	-17.04149
878.275	19.04858
878.671	39.0872
879.068	-8.01955
879.464	6.01464
879.86	-14.03356
880.256	1.00249
880.652	2.00513
881.048	-23.05782
881.444	27.06464
881.84	38.09688
882.236	5.01269
882.631	33.08134
883.027	15.03661
883.422	0
883.817	-43.10995
884.213	16.04134
884.608	-27.06721
885.003	8.01946
885.398	-32.08135
885.793	0
886.188	-7.0176
886.582	52.13346
886.977	-7.01681
887.371	-1.00255
887.766	-12.0302
888.16	26.06523
888.554	21.05226
888.949	51.12816
889.343	44.10772
889.737	-40.10823
890.131	-4.01014
890.525	20.05145
890.918	6.01523
891.312	27.06496
891.706	24.06329
892.099	40.10205
892.492	-11.02408
892.886	2.00494
893.279	-25.06458
893.672	-10.02575
894.065	30.07546
894.458	4.01015
894.851	37.09097
895.244	-3.00774
895.637	10.02429
896.029	37.09077
896.422	-6.01483
896.814	32.07988
897.206	18.04316
897.599	17.04234
897.991	-12.02938
898.383	-34.08172
898.775	16.0364
899.167	-41.0974
899.559	13.03315
899.951	-23.05504
900.342	33.08423
900.734	-35.08824
901.125	33.08689
901.517	-6.01489
901.908	-3.00727
902.299	-15.03714
902.69	42.09933
903.082	37.08989
903.473	-21.051
903.863	20.05133
904.254	25.05836
904.645	58.14415
905.036	-54.13338
905.426	21.04841
905.817	-16.03977
906.207	-38.09213
906.597	-7.01657
906.987	32.08324
907.378	19.04834
907.768	-7.01869
908.158	5.0123
908.547	-23.06019
908.937	41.10543
909.327	15.03669
909.717	52.13205
910.106	-7.01701
910.495	19.04773
910.885	14.0357
911.274	15.03775
911.663	8.02047
912.052	11.02735
912.441	6.01538
912.83	34.07835
913.219	30.07882
913.608	12.02962
913.997	-42.10707
914.385	9.02168
914.774	-10.02464
915.162	5.01202
915.55	15.03655
915.939	9.02289
916.327	60.14955
916.715	-21.05421
917.103	65.15963
917.491	15.03737
917.878	-1.00248
918.266	21.05475
918.654	38.09732
919.041	-40.10605
919.429	-33.07918
919.816	0
920.203	-32.07883
920.591	-22.05529
920.978	10.02468
921.365	28.07376
921.752	-6.01446
922.139	-35.07742
922.525	-20.04869
922.912	10.02458
923.299	-10.02513
923.685	-15.03957
924.072	3.00699
924.458	-14.0351
924.844	-38.09558
925.231	-38.09001
925.617	-39.10077
926.003	10.02575
926.389	-19.04853
926.774	30.07632
927.16	1.00251
927.546	-35.09069
927.931	40.10003
928.317	27.06251
928.702	16.03812
929.088	-21.05037
929.473	-33.08521
929.858	-25.06131
930.243	-9.02185
930.628	-25.06169
931.013	-15.03763
931.398	30.0693
931.783	36.09503
932.167	20.04918
932.552	-10.02533
932.937	14.03498
933.321	-15.03809
933.705	-1.00254
934.09	39.09878
934.474	9.02155
934.858	-16.04198
935.242	-13.03051
935.626	-16.04144
936.009	0
936.393	8.02051
936.777	23.05918
937.16	22.05752
937.544	15.03559
937.927	-12.03079
938.311	47.11483
938.694	36.09544
939.077	18.04336
939.46	45.11064
939.843	32.06706
940.226	6.01551
940.609	1.00232
940.991	-13.03346
941.374	-22.0545
941.757	33.0817
942.139	-23.05244
942.522	18.04282
942.904	9.02181
943.286	49.12455
943.668	3.00783
944.05	-22.05492
944.432	3.00747
944.814	7.01738
945.196	-44.10912
945.578	-8.01923
945.959	34.07995
946.341	62.1519
946.722	33.07773
947.104	-2.00483
947.485	-4.00941
947.866	27.06831
948.247	9.02288
948.628	29.07104
949.009	-29.0753
949.39	-15.03779
949.771	14.0328
950.152	6.01485
950.532	-78.19639
950.913	8.01945
951.293	5.01361
951.674	8.01951
952.054	3.0075
952.434	-8.02007
952.814	7.0168
953.194	38.09966
953.574	12.02977
953.954	-14.03366
954.334	4.01005
954.714	1.00246
955.093	-4.00993
955.473	-18.04557
955.853	52.13457
956.232	43.11799
956.611	-17.0413
956.99	9.02279
957.37	10.02566
957.749	28.06709
958.128	4.01016
958.506	10.02612
958.885	10.02542
959.264	-14.03472
959.643	-1.0023
960.021	-28.07037
960.4	-2.00458
960.778	17.04214
961.156	-6.01519
961.535	8.0188
961.913	45.10542
962.291	-54.14105
962.669	0
963.047	1.00257
963.424	5.01286
963.802	-11.02735
964.18	21.05341
964.557	14.03248
964.935	14.03341
965.312	8.02098
965.69	46.11528
966.067	22.05386
966.444	29.07175
966.821	4.01039
967.198	43.10447
967.575	11.02724
967.952	49.11551
968.329	-13.03201
968.705	8.01731
969.082	32.08233
969.458	-37.09023
969.835	11.02697
970.211	0
970.587	37.09234
970.963	31.0798
971.339	28.07339
971.715	33.08266
972.091	2.00497
972.467	34.08506
972.843	7.01751
973.219	40.09625
973.594	5.01318
973.97	44.10487
974.345	25.06012
974.721	14.03413
975.096	9.02195
975.471	-5.01199
975.846	-15.03648
976.221	-5.01282
976.596	6.0145
976.971	-2.00499
977.346	37.08637
977.72	16.04101
978.095	-9.0235
978.469	-22.05324
978.844	27.06817
979.218	-24.05834
979.593	25.06019
979.967	9.02209
980.341	22.05094
980.715	-10.02547
981.089	20.05034
981.463	4.00927
981.837	-5.01234
982.21	18.04216
982.584	23.05584
982.957	2.00504
983.331	15.0357
983.704	0
984.078	25.0619
984.451	31.0777
984.824	-14.0345
985.197	-23.05663
985.57	34.08552
985.943	7.01743
986.316	30.07399
986.688	22.05334
987.061	14.03305
987.434	-13.03424
987.806	33.08029
988.179	11.02615
988.551	48.12181
988.923	1.00248
989.295	43.10759
989.667	35.08385
990.039	-3.00748
990.411	5.01161
990.783	9.02089
991.155	-64.15709
991.527	54.13289
991.898	-3.00755
992.27	-19.04759
992.641	17.0429
993.012	26.06147
993.384	-23.05563
993.755	-11.02834
994.126	-25.06099
994.497	-2.00496
994.868	15.0347
995.239	-22.05404
995.61	5.01268
995.98	-17.04181
996.351	-36.09055
996.722	-47.1111
997.092	-4.00957
997.462	-90.21598
997.833	13.03104
998.203	15.03661
998.573	-45.11397
998.943	11.02599
999.313	-22.05344
999.683	-17.04132
1000.053	1.00232
1000.423	0
1000.792	22.05729
1001.162	-5.01243
1001.531	4.00994
1001.901	18.04513
1002.27	33.07403
1002.639	-9.02323
1003.009	18.04307
1003.378	29.07441
1003.747	39.09233
1004.116	-6.01451
1004.485	1.00241
1004.853	36.09142
1005.222	14.03553
1005.591	-15.03606
1005.959	-49.11263
1006.328	0
1006.696	-14.03417
1007.064	5.01268
1007.433	33.08272
1007.801	66.16152
1008.169	-5.01275
1008.537	40.08875
1008.905	-34.08051
1009.273	32.0793
1009.64	0
1010.008	-40.09698
1010.375	26.06342
1010.743	55.12688
1011.11	8.01908
1011.478	31.07698
1011.845	-17.04049
1012.212	5.01142
1012.579	-6.01488
1012.946	14.03355
1013.313	58.13781
1013.68	-4.00909
1014.047	-36.08718
1014.414	-13.03107
1014.78	-17.04275
1015.147	-3.00733
1015.513	-8.01948
1015.88	47.12022
1016.246	50.12341
1016.612	6.01385
1016.978	1.00247
1017.344	13.03234
1017.71	61.14842
1018.076	36.08511
1018.442	23.05943
1018.808	20.05025
1019.174	-31.07888
1019.539	25.05783
1019.905	-50.12017
1020.27	-28.07007
1020.636	53.12697
1021.001	66.15749
1021.366	-14.03402
1021.731	19.04911
1022.096	-9.02293
1022.461	41.09718
1022.826	20.0478
1023.191	14.03694
1023.556	4.00946
1023.92	7.01734
1024.285	52.12683
1024.649	4.00988
1025.014	58.14341
1025.378	12.03037
1025.742	35.08713
1026.107	15.03416
1026.471	13.03056
1026.835	10.02496
1027.199	-36.08803
1027.562	-23.05422
1027.926	30.07361
1028.29	-5.01277
1028.654	-2.00465
1029.017	3.00744
1029.381	27.06476
1029.744	4.01028
1030.107	41.09714
1030.471	6.01448
1030.834	-29.06701
1031.197	15.03636
1031.56	49.1156
1031.923	-18.04707
1032.286	0
1032.648	14.0337
1033.011	2.00463
1033.374	34.08013
1033.736	-21.05585
1034.099	-8.0197
1034.461	-21.0537
1034.823	-14.03525
1035.185	12.0304
1035.548	-23.05671
1035.91	0
1036.272	-51.1184
1036.634	35.08583
1036.995	-10.02377
1037.357	40.09745
1037.719	-16.03937
1038.08	14.03346
1038.442	-8.01919
1038.803	9.02177
1039.165	-13.03316
1039.526	14.03404
1039.887	47.11247
1040.248	-38.0951
1040.609	52.12839
1040.97	-7.01728
1041.331	30.07619
1041.692	-26.06156
1042.053	4.00919
1042.413	-3.00706
1042.774	25.06106
1043.134	56.13311
1043.495	24.06058
1043.855	34.08268
1044.215	22.05486
1044.576	-28.06791
1044.936	34.07817
1045.296	10.02512
1045.656	25.0616
1046.016	14.03401
1046.375	-16.03927
1046.735	-15.03444
1047.095	11.02593
1047.454	39.0828
1047.814	8.01937
1048.173	37.08857
1048.533	-37.0862
1048.892	-43.10498
1049.251	36.09055
1049.61	-7.01741
1049.969	-12.02861
1050.328	-16.03516
1050.687	17.0416
1051.046	35.08541
1051.405	-22.05541
1051.763	-43.10066
1052.122	-25.06316
1052.48	20.04929
1052.839	-28.06684
1053.197	-18.0429
1053.555	23.0527
1053.914	22.05406
1054.272	51.12321
1054.63	-23.05696
1054.988	-16.03847
1055.345	-22.04808
1055.703	29.07003
1056.061	-18.04682
1056.419	22.05719
1056.776	19.04632
1057.134	-8.01872
1057.491	6.01513
1057.848	29.07243
1058.206	-18.04287
1058.563	-11.02454
1058.92	30.06938
1059.277	33.08161
1059.634	13.03079
1059.991	-1.00242
1060.348	-6.01371
1060.704	-16.03859
1061.061	18.04206
1061.418	0
1061.774	48.11847
1062.131	-6.016
1062.487	-32.07598
1062.843	48.11964
1063.199	4.01002
1063.555	-23.05403
1063.911	13.03303
1064.267	39.0815
1064.623	-19.04671
1064.979	74.17441
1065.335	20.04805
1065.691	31.07452
1066.046	-13.02895
1066.402	13.02974
1066.757	31.07846
1067.112	6.01484
1067.468	-17.04063
1067.823	3.00727
1068.178	25.06071
1068.533	11.02684
1068.888	25.05998
1069.243	13.03228
1069.598	-14.0344
1069.952	-42.09629
1070.307	2.00499
1070.662	-32.07712
1071.016	-33.07515
1071.371	-37.08559
1071.725	22.05288
1072.079	-8.01944
1072.434	-44.10872
1072.788	9.02159
1073.142	20.04943
1073.496	-25.06012
1073.85	-23.05407
1074.203	27.06574
1074.557	-15.04029
1074.911	20.04798
1075.265	-20.0471
1075.618	28.0686
1075.971	-6.01442
1076.325	11.02813
1076.678	-16.03705
1077.031	18.04097
1077.385	16.03547
1077.738	-11.02512
1078.091	-29.06695
1078.444	6.01404
1078.796	2.00495
1079.149	24.05993
1079.502	-31.07432
1079.855	2.0047
1080.207	26.06429
1080.56	35.09063
1080.912	-8.01967
1081.264	0
1081.617	-22.0543
1081.969	-45.11535
1082.321	-30.07429
1082.673	-57.1328
1083.025	-23.05529
1083.377	63.13475
1083.728	24.05623
1084.08	-14.03533
1084.432	-27.06601
1084.783	-2.00473
1085.135	21.05287
1085.486	-37.08607
1085.838	-9.02239
1086.189	0
1086.54	-8.0193
1086.891	-10.02554
1087.242	-10.0246
1087.593	3.00736
1087.944	5.01141
1088.295	8.01833
1088.646	-11.02694
1088.996	-72.17731
1089.347	-16.03971
1089.698	-19.04547
1090.048	34.08848
1090.398	-14.03285
1090.749	-4.00966
1091.099	-39.09955
1091.449	28.06997
1091.799	4.01009
1092.149	-52.1291
1092.499	22.0539
1092.849	-28.07209
1093.199	17.04283
1093.548	-32.07802
1093.898	15.03773
1094.248	-12.03114
1094.597	-57.1481
1094.947	17.04556
1095.296	8.01989
1095.645	41.10671
1095.994	-26.0633
1096.343	-8.02032
1096.692	-13.03448
1097.041	-12.03279
1097.39	13.0328
1097.739	-8.02098
1098.088	79.21045
1098.437	-30.0798
1098.785	23.06223
1099.134	11.02937
1099.482	19.05247
1099.83	25.06591
1100.179	1.00263
1100.527	14.03739
1100.875	-20.05345
1101.223	-41.11042
1101.571	12.03333
1101.919	-30.07938
1102.267	-20.05686
1102.615	3.00965
1102.962	9.02898
1103.31	2.00643
1103.658	9.02899
