Data from N2 R5 sample 8_Subt2__2__13-53-38-210.txt Node

Date: Fri Aug 29 13:53:38 PDT 2025
User: uwsun
Spectrometer: HDX01956
Trigger mode: 0
Integration Time (sec): 5.000000E-1
Scans to average: 1
Nonlinearity correction enabled: true
Boxcar width: 0
Storing dark spectrum: false
XAxis mode: Wavelengths
Number of Pixels in Spectrum: 2068
>>>>>Begin Spectral Data<<<<<
194.03	429.12064
194.578	436.29931
195.127	426.25049
195.676	447.31278
196.225	500.21146
196.773	523.30954
197.321	735.72622
197.87	970.96541
198.418	1005.98782
198.966	978.96092
199.513	900.73139
200.061	894.75773
200.609	984.02842
201.156	841.39646
201.704	914.77605
202.251	890.85402
202.798	940.89159
203.345	958.81757
203.892	957.84606
204.438	976.76386
204.985	904.62182
205.532	1012.03041
206.078	1031.8933
206.624	1009.85467
207.17	1049.79002
207.716	952.74925
208.262	1016.42557
208.808	938.74762
209.354	964.77045
209.899	1077.04382
210.445	957.8029
210.99	1038.84573
211.535	1062.83702
212.08	1067.81694
212.625	985.8784
213.17	1082.04688
213.715	927.52621
214.259	991.72699
214.804	1074.97787
215.348	1014.7176
215.892	1003.80587
216.436	1063.81399
216.98	1059.70687
217.524	961.7142
218.068	986.89891
218.612	984.89867
219.155	959.70622
219.698	992.7801
220.242	951.83447
220.785	898.61598
221.328	812.61278
221.871	892.78421
222.414	926.79598
222.956	855.60333
223.499	821.4398
224.041	914.64316
224.583	877.45642
225.126	927.54312
225.668	911.71106
226.21	776.56697
226.751	866.44086
227.293	932.62346
227.835	896.69645
228.376	844.52635
228.918	891.77112
229.459	891.72513
230	869.60803
230.541	862.54155
231.082	877.65435
231.622	907.6035
232.163	879.65247
232.704	893.71996
233.244	905.74144
233.784	864.66681
234.324	779.32384
234.864	811.43339
235.404	937.70742
235.944	853.57994
236.484	877.7182
237.023	886.61062
237.563	901.58625
238.102	901.63505
238.641	932.82395
239.18	851.53239
239.719	885.73471
240.258	898.53612
240.797	922.6813
241.335	936.75939
241.874	913.27494
242.412	847.58206
242.95	860.58224
243.488	933.60513
244.026	937.62233
244.564	924.40185
245.102	937.57093
245.64	937.72723
246.177	900.52556
246.715	966.75639
247.252	926.60959
247.789	987.32633
248.326	892.6314
248.863	910.48777
249.4	933.59233
249.936	944.41532
250.473	947.6527
251.009	964.63527
251.546	915.50306
252.082	1005.60123
252.618	939.54861
253.154	942.70314
253.69	894.51618
254.226	897.62943
254.761	926.55032
255.297	890.45415
255.832	884.59155
256.367	957.68423
256.903	983.57049
257.438	940.65983
257.972	922.52678
258.507	900.53955
259.042	1013.58284
259.576	927.45293
260.111	992.69108
260.645	968.52843
261.179	937.62662
261.713	967.57031
262.247	982.6677
262.781	963.44871
263.315	891.65784
263.849	982.83518
264.382	981.66017
264.915	1008.71753
265.449	1011.79342
265.982	1033.69859
266.515	1004.80537
267.048	983.48515
267.58	1032.61687
268.113	1011.55137
268.646	1027.85861
269.178	978.57624
269.71	992.5593
270.243	1027.69242
270.775	993.88271
271.307	1028.81471
271.838	1066.83714
272.37	1039.86608
272.902	1103.76711
273.433	999.55996
273.965	1029.82638
274.496	1071.94138
275.027	955.76486
275.558	1009.78617
276.089	962.73496
276.62	1033.94349
277.15	1015.84336
277.681	1057.61279
278.211	1093.9283
278.741	959.51199
279.272	1039.67921
279.802	1054.91387
280.332	1094.81374
280.861	1042.80517
281.391	1076.7027
281.921	1033.80134
282.45	1088.95881
282.98	1097.07382
283.509	1104.71528
284.038	1076.71244
284.567	1126.83734
285.096	1051.81745
285.625	1032.64865
286.153	1068.75589
286.682	1081.71505
287.21	1077.82617
287.739	1120.83361
288.267	1090.84979
288.795	1154.16441
289.323	1082.74853
289.851	1220.91752
290.378	1091.67775
290.906	1109.85537
291.433	1114.94967
291.961	1189.78338
292.488	1094.91756
293.015	1123.80033
293.542	1156.02008
294.069	1098.87543
294.596	1197.02496
295.122	1200.91953
295.649	1190.72255
296.175	1234.00444
296.702	1228.99794
297.228	1265.04309
297.754	1174.73493
298.28	1194.77219
298.806	1199.91847
299.332	1263.75998
299.857	1247.80072
300.383	1255.13386
300.908	1162.87633
301.433	1179.90659
301.958	1252.87575
302.483	1273.07222
303.008	1274.06867
303.533	1271.21906
304.058	1298.9615
304.582	1240.87879
305.107	1231.13993
305.631	1321.88618
306.155	1341.92575
306.679	1295.88912
307.203	1342.91467
307.727	1301.94332
308.251	1324.07869
308.775	1325.93327
309.298	1335.96587
309.822	1395.19796
310.345	1475.06329
310.868	1384.00637
311.391	1415.13323
311.914	1428.17411
312.437	1491.96339
312.96	1466.00849
313.482	1466.02271
314.005	1498.22822
314.527	1501.37048
315.049	1515.27339
315.571	1448.78548
316.093	1541.19094
316.615	1538.08826
317.137	1599.81551
317.659	1652.20799
318.18	1588.13493
318.702	1611.0016
319.223	1633.64378
319.744	1601.86424
320.265	1601.08483
320.786	1633.15718
321.307	1684.22067
321.828	1762.93643
322.348	1797.06457
322.869	1707.00193
323.389	1515.03747
323.909	1782.9576
324.43	1898.20122
324.95	1818.92226
325.47	1828.15176
325.989	1853.00133
326.509	1854.74314
327.029	1910.82321
327.548	1833.7817
328.067	1940.03825
328.587	1944.19229
329.106	1973.83264
329.625	2126.51163
330.144	2013.85879
330.662	2024.8491
331.181	2027.89047
331.7	2090.88782
332.218	2137.59121
332.736	2185.86539
333.255	2134.81111
333.773	2196.86768
334.291	2255.11317
334.808	2300.59252
335.326	2303.63399
335.844	2376.66394
336.361	2394.00175
336.879	2320.65003
337.396	2443.75817
337.913	2477.54414
338.43	2556.4231
338.947	2566.63016
339.464	2620.16652
339.981	2533.55497
340.497	2590.7395
341.014	2597.63121
341.53	2620.27439
342.046	2619.6016
342.562	2804.65106
343.078	2844.33079
343.594	2688.43178
344.11	2799.35631
344.626	2794.57634
345.141	2820.11611
345.657	2896.09475
346.172	2846.30689
346.687	2834.07715
347.202	2897.93405
347.717	3046.11075
348.232	3049.30194
348.747	2932.95543
349.261	3013.62697
349.776	3032.95499
350.29	3155.01917
350.805	3329.0317
351.319	3230.77016
351.833	3170.61299
352.347	3249.73176
352.861	3298.63597
353.374	3420.56786
353.888	3254.80957
354.401	3259.564
354.915	3288.36646
355.428	3441.71433
355.941	3565.33928
356.454	3630.23132
356.967	3560.42194
357.48	3509.32889
357.993	3567.54549
358.505	3632.41897
359.018	3796.32399
359.53	3746.23104
360.042	3831.90747
360.554	3764.25405
361.066	3738.23559
361.578	3770.81547
362.09	3813.09351
362.602	3834.75779
363.113	3799.93202
363.625	3862.76184
364.136	4025.60652
364.647	3913.69616
365.158	4140.6579
365.669	4048.79485
366.18	4234.62584
366.691	4152.43997
367.201	4057.70663
367.712	4178.44081
368.222	4218.41532
368.733	4268.19255
369.243	4512.12194
369.753	4514.23919
370.263	4619.26214
370.773	4528.3586
371.282	4595.1643
371.792	4705.93817
372.301	4988.01338
372.811	5068.17003
373.32	4902.75233
373.829	4949.8464
374.338	5348.84599
374.847	5450.88653
375.356	5547.93312
375.865	5742.17655
376.373	6117.54048
376.882	6414.7203
377.39	6314.74454
377.898	6369.99539
378.407	6756.20264
378.915	7034.23783
379.423	7272.78624
379.93	7528.20188
380.438	7838.68565
380.946	8379.05419
381.453	8659.25575
381.96	8919.25384
382.468	9393.94926
382.975	10095.44945
383.482	10467.33929
383.989	10654.63078
384.495	10814.42124
385.002	11461.17608
385.509	11992.38608
386.015	12875.50641
386.521	13718.75665
387.028	14231.22114
387.534	14722.40587
388.04	15137.06855
388.546	15461.33725
389.051	15850.93284
389.557	17294.53086
390.063	19255.45422
390.568	19439.33249
391.073	20169.3782
391.578	20874.02049
392.084	20964.44621
392.589	21481.31741
393.093	22933.75568
393.598	25280.64661
394.103	27761.68379
394.607	30344.62151
395.112	32711.38746
395.616	34419.32821
396.12	37284.71828
396.624	40634.0622
397.128	42319.19732
397.632	41008.40758
398.136	39172.79427
398.639	36273.96993
399.143	32503.66402
399.646	28888.45294
400.15	25083.82847
400.653	20124.16724
401.156	13866.23708
401.659	5169.95759
402.162	1054.15589
402.664	0
403.167	0
403.67	0
404.172	0
404.674	0
405.176	0
405.678	0
406.18	0
406.682	0
407.184	0
407.686	0
408.187	0
408.688	0
409.19	0
409.691	0
410.192	0
410.693	0
411.194	435.30976
411.694	4082.94878
412.195	8864.71461
412.696	12089.80453
413.196	12760.96929
413.696	12863.67595
414.196	13703.56671
414.696	17261.84252
415.196	21764.24417
415.696	29583.19008
416.196	36460.31858
416.695	40057.39798
417.195	41392.74103
417.694	42311.08144
418.194	43882.52025
418.693	44704.85811
419.192	45402.14938
419.691	45678.73777
420.19	46397.77183
420.688	47039.88721
421.187	46482.90346
421.685	44147.63789
422.184	40593.16392
422.682	35343.45396
423.18	29239.29661
423.678	25949.83328
424.176	24184.8824
424.674	22600.39203
425.172	21603.13188
425.669	20456.13495
426.167	19358.52486
426.664	17395.34969
427.161	15934.95587
427.659	14717.8974
428.156	13847.10051
428.652	13032.37398
429.149	12497.11983
429.646	12082.92732
430.143	11523.33421
430.639	10848.54051
431.135	10122.98383
431.632	9563.87828
432.128	8826.6615
432.624	8145.31561
433.12	7876.26075
433.616	7666.21104
434.111	7386.55099
434.607	7019.96888
435.103	7024.13973
435.598	6849.55916
436.093	6612.34727
436.588	6347.86473
437.083	5995.32864
437.578	5785.09037
438.073	5271.84529
438.568	5328.91821
439.062	5091.76082
439.557	4909.9146
440.051	4757.86692
440.546	4457.94915
441.04	4392.13082
441.534	4357.36905
442.028	4341.28298
442.522	4121.38086
443.015	4156.16156
443.509	4074.56649
444.002	3811.71167
444.496	3853.38684
444.989	3808.78485
445.482	3869.81987
445.975	3734.56127
446.468	3758.452
446.961	3628.53809
447.454	3673.71428
447.947	3465.95294
448.439	3360.19952
448.931	3406.87366
449.424	3362.40217
449.916	3479.19099
450.408	3283.01819
450.9	3149.3677
451.392	3117.57741
451.884	3132.28886
452.375	2951.61744
452.867	3049.36038
453.358	2952.34713
453.849	2897.21845
454.341	2850.44339
454.832	2809.33286
455.323	2780.77555
455.814	2781.62543
456.304	2825.63181
456.795	2666.69518
457.285	2709.6648
457.776	2664.80446
458.266	2576.90787
458.756	2543.02818
459.247	2423.99278
459.737	2392.02188
460.226	2365.86821
460.716	2343.11006
461.206	2271.18473
461.695	2293.3818
462.185	2194.18779
462.674	2358.10628
463.163	2204.03163
463.653	2157.89456
464.142	2112.32889
464.63	2128.43402
465.119	2070.23228
465.608	2000.24829
466.096	2062.12919
466.585	2022.34214
467.073	1981.4781
467.561	1879.49635
468.05	1920.41074
468.538	1863.60394
469.026	1851.5253
469.513	1774.15272
470.001	1791.36468
470.489	1723.4873
470.976	1853.47294
471.463	1572.65862
471.951	1677.74394
472.438	1575.50037
472.925	1547.47921
473.412	1544.68812
473.899	1526.49187
474.385	1480.67056
474.872	1479.51533
475.359	1408.62379
475.845	1450.2438
476.331	1365.36286
476.817	1312.61765
477.303	1267.46896
477.789	1218.53532
478.275	1186.58091
478.761	1248.58448
479.247	1205.40126
479.732	1186.61129
480.218	1202.76692
480.703	1192.64802
481.188	1146.29
481.673	1103.4
482.158	1033.18218
482.643	1046.61432
483.128	1012.32487
483.612	1043.42246
484.097	1034.53424
484.581	977.3753
485.066	909.3794
485.55	912.1979
486.034	827.1028
486.518	856.26278
487.002	870.35655
487.486	902.40256
487.969	809.29451
488.453	850.42658
488.936	815.18263
489.42	875.22862
489.903	817.39682
490.386	803.77604
490.869	768.10829
491.352	817.36619
491.835	771.04416
492.318	709.08769
492.8	767.04076
493.283	695.2503
493.765	650.13958
494.247	761.23478
494.73	596.93757
495.212	677.17802
495.694	613.02314
496.175	548.94373
496.657	670.13908
497.139	630.74899
497.62	505.88567
498.102	543.00335
498.583	566.06291
499.064	539.87756
499.545	607.00588
500.026	494.82573
500.507	485.85192
500.988	556.04153
501.469	502.9576
501.949	534.00516
502.43	430.78364
502.91	447.69221
503.39	496.96269
503.87	476.85212
504.35	488.88802
504.83	449.74862
505.31	440.82832
505.79	382.71806
506.269	515.9203
506.749	371.66428
507.228	431.78487
507.707	423.72506
508.187	479.89178
508.666	369.72045
509.145	338.62908
509.623	353.66076
510.102	379.7333
510.581	364.70883
511.059	342.6904
511.538	435.90091
512.016	362.69488
512.494	404.78411
512.972	371.70992
513.45	315.58379
513.928	324.63664
514.406	257.50439
514.884	358.74759
515.361	356.68732
515.839	316.58199
516.316	335.65407
516.793	331.68922
517.27	359.70925
517.747	344.72154
518.224	337.63424
518.701	311.56372
519.178	287.5851
519.654	348.67735
520.131	304.62046
520.607	351.71524
521.083	288.54081
521.56	345.664
522.036	359.63682
522.512	297.61099
522.987	256.5035
523.463	322.62853
523.939	300.6123
524.414	320.60951
524.89	301.59159
525.365	292.54562
525.84	233.46161
526.315	259.52153
526.79	309.57382
527.265	271.51429
527.74	280.56966
528.215	258.50959
528.689	240.44423
529.164	297.5334
529.638	295.63802
530.112	222.44116
530.587	189.3396
531.061	223.45421
531.534	237.488
532.008	268.53978
532.482	287.55077
532.956	208.4517
533.429	306.61943
533.903	266.49384
534.376	250.46413
534.849	298.57671
535.322	275.54559
535.795	246.51075
536.268	249.50624
536.741	223.45752
537.213	253.49467
537.686	211.43818
538.158	239.44957
538.631	251.52009
539.103	237.44713
539.575	237.41732
540.047	214.40026
540.519	303.60901
540.991	259.54002
541.463	293.5976
541.934	228.44357
542.406	256.51561
542.877	240.45868
543.348	282.57608
543.82	241.50562
544.291	317.6201
544.762	239.48015
545.233	290.61178
545.703	259.47976
546.174	296.57559
546.645	271.54016
547.115	363.71917
547.585	368.6931
548.056	296.59041
548.526	335.64444
548.996	415.80873
549.466	494.9643
549.935	394.74901
550.405	444.76495
550.875	450.84548
551.344	396.76748
551.814	403.74244
552.283	442.76028
552.752	471.85643
553.221	438.74092
553.69	523.89128
554.159	506.96617
554.628	492.84497
555.096	568.10969
555.565	434.7613
556.033	497.92301
556.502	454.88116
556.97	442.78226
557.438	430.82621
557.906	388.75917
558.374	332.63513
558.842	269.54591
559.31	302.56962
559.777	284.58096
560.245	279.56051
560.712	221.44317
561.18	262.49272
561.647	270.51477
562.114	237.46404
562.581	322.6757
563.048	270.53554
563.514	257.54252
563.981	275.541
564.448	296.56653
564.914	333.65942
565.381	313.60879
565.847	388.7642
566.313	322.63988
566.779	353.67286
567.245	307.61505
567.711	353.7167
568.176	303.57951
568.642	350.74482
569.108	426.8734
569.573	448.87782
570.038	400.6998
570.504	375.70229
570.969	417.876
571.434	411.74388
571.899	453.88992
572.363	479.89178
572.828	542.00125
573.293	538.99495
573.757	582.06403
574.222	501.90174
574.686	522.93787
575.15	535.0236
575.614	493.91877
576.078	599.11258
576.542	593.07025
577.006	571.02258
577.469	623.23203
577.933	588.03605
578.396	623.17334
578.86	612.14383
579.323	600.13409
579.786	618.04367
580.249	580.04754
580.712	601.17568
581.175	494.99953
581.637	568.05305
582.1	615.0682
582.563	588.00527
583.025	521.02661
583.487	522.84247
583.95	527.9073
584.412	563.94451
584.874	538.05993
585.336	512.99043
585.797	511.89525
586.259	540.03693
586.721	526.00173
587.182	560.06455
587.643	548.00679
588.105	478.93483
588.566	468.81062
589.027	468.93002
589.488	467.88067
589.949	482.96721
590.41	452.71621
590.87	518.96992
591.331	532.93378
591.791	478.90783
592.252	446.84292
592.712	515.01524
593.172	472.87591
593.632	508.91271
594.092	499.91197
594.552	470.83271
595.011	383.73891
595.471	475.87643
595.931	465.85583
596.39	481.95028
596.849	514.97955
597.308	538.94779
597.768	459.97271
598.227	500.99407
598.685	543.01738
599.144	465.90144
599.603	530.02552
600.062	497.8474
600.52	477.87307
600.978	504.98335
601.437	514.96481
601.895	519.89161
602.353	579.03161
602.811	560
603.269	590.1364
603.727	599.15073
604.184	509.93307
604.642	586.15738
605.099	638.17252
605.557	615.20197
606.014	611.03545
606.471	601.19955
606.928	634.05567
607.385	702.32274
607.842	899.51277
608.299	883.53182
608.755	803.47311
609.212	746.26181
609.668	773.28534
610.125	817.50411
610.581	901.61105
611.037	859.48456
611.493	753.38883
611.949	658.25791
612.405	658.02501
612.861	730.35407
613.316	666.26462
613.772	722.29864
614.227	719.33197
614.683	749.24464
615.138	678.25868
615.593	695.27717
616.048	692.25922
616.503	707.38993
616.958	701.40336
617.412	675.27832
617.867	609.0835
618.321	680.11508
618.776	694.22201
619.23	650.23419
619.684	670.22034
620.138	690.29373
620.592	614.22696
621.046	660.26296
621.5	588.18525
621.954	652.1995
622.407	676.22071
622.861	564.14774
623.314	567.08024
623.768	567.10538
624.221	529.87288
624.674	501.98469
625.127	549.08494
625.58	566.09114
626.033	513.97123
626.485	489.00502
626.938	551.11589
627.39	484.97392
627.843	471.9471
628.295	433.87872
628.747	447.93156
629.199	388.78362
629.651	408.81986
630.103	462.92623
630.555	432.80606
631.006	389.8161
631.458	411.86339
631.909	451.91984
632.361	358.75555
632.812	336.70476
633.263	398.76988
633.714	357.69437
634.165	389.85316
634.616	308.67397
635.067	386.77744
635.518	370.80449
635.968	381.6945
636.419	367.72811
636.869	423.90934
637.319	306.65459
637.769	304.62948
638.219	395.86157
638.669	311.68728
639.119	377.84355
639.569	367.81271
640.019	335.71771
640.468	309.64284
640.918	311.69905
641.367	296.62114
641.816	313.6529
642.265	320.68957
642.714	304.65791
643.163	288.62195
643.612	234.53149
644.061	197.39906
644.51	257.55347
644.958	285.58895
645.406	254.57504
645.855	293.67585
646.303	292.64355
646.751	266.57199
647.199	294.62947
647.647	256.55877
648.095	233.50933
648.543	283.54965
648.99	225.51343
649.438	299.6638
649.885	227.53758
650.333	254.47014
650.78	246.56621
651.227	243.56388
651.674	231.5041
652.121	247.57361
652.568	283.65097
653.015	276.66381
653.461	249.56521
653.908	228.51029
654.354	244.55824
654.801	194.43957
655.247	260.54632
655.693	215.53946
656.139	236.54319
656.585	182.42393
657.031	149.33891
657.477	179.37638
657.922	168.37694
658.368	202.4829
658.813	222.49994
659.259	234.54031
659.704	170.38644
660.149	215.48467
660.594	188.43428
661.039	174.38735
661.484	207.48073
661.929	232.52459
662.373	206.50335
662.818	152.36962
663.262	174.40912
663.707	184.45445
664.151	215.50995
664.595	192.45127
665.039	203.49187
665.483	195.48347
665.927	200.45997
666.371	138.31472
666.814	190.44413
667.258	156.36251
667.701	226.47635
668.145	209.50735
668.588	160.38645
669.031	178.41003
669.474	182.42993
669.917	155.34026
670.36	183.44491
670.803	213.50228
671.245	154.32245
671.688	229.5442
672.13	112.25058
672.573	186.46376
673.015	203.4774
673.457	148.32031
673.899	215.50936
674.341	182.4321
674.783	133.31644
675.225	171.41418
675.666	137.32621
676.108	160.34524
676.549	194.45223
676.991	168.36717
677.432	143.28477
677.873	152.34931
678.314	186.43751
678.755	161.38732
679.196	142.32358
679.637	202.48511
680.078	158.3673
680.518	210.48162
680.959	143.34049
681.399	172.42091
681.839	174.41835
682.28	160.39038
682.72	156.35462
683.16	130.32191
683.6	177.40032
684.039	151.31456
684.479	159.38628
684.919	119.27396
685.358	160.40198
685.798	147.3814
686.237	170.40734
686.676	200.45832
687.115	142.33259
687.554	203.47442
687.993	175.38449
688.432	151.34374
688.871	109.24833
689.309	124.29588
689.748	154.32231
690.186	196.46211
690.625	130.30436
691.063	183.43355
691.501	168.41127
691.939	132.3277
692.377	129.31387
692.815	103.24704
693.253	174.4147
693.69	157.34407
694.128	117.28329
694.565	190.44761
695.003	163.40959
695.44	153.35772
695.877	112.26222
696.314	111.241
696.751	136.31079
697.188	136.31216
697.625	188.42805
698.061	124.29735
698.498	173.41508
698.934	174.41517
699.371	122.28731
699.807	136.32127
700.243	149.35668
700.679	172.38719
701.115	122.2882
701.551	190.44256
701.987	156.35016
702.422	150.35448
702.858	165.39016
703.294	154.34809
703.729	161.39113
704.164	138.3313
704.599	147.32718
705.035	143.3196
705.47	104.25356
705.904	161.37272
706.339	142.33037
706.774	134.3136
707.209	105.24337
707.643	157.37483
708.078	147.35619
708.512	106.26517
708.946	131.31396
709.38	130.30805
709.814	164.37311
710.248	191.45966
710.682	140.332
711.116	138.32777
711.549	133.34175
711.983	99.23029
712.416	159.37408
712.85	110.27458
713.283	180.42175
713.716	206.50952
714.149	207.48643
714.582	122.27497
715.015	195.4817
715.448	182.4533
715.881	184.39992
716.313	176.40866
716.746	151.35373
717.178	163.38886
717.61	159.39997
718.043	139.34514
718.475	150.36175
718.907	184.46044
719.339	106.24145
719.77	105.24963
720.202	178.44478
720.634	171.41169
721.065	136.32177
721.497	168.40806
721.928	141.34447
722.359	85.20604
722.79	148.35233
723.221	165.41163
723.652	184.4689
724.083	102.23149
724.514	158.3612
724.945	115.27088
725.375	120.27853
725.806	177.43724
726.236	226.56736
726.666	198.46228
727.096	179.43437
727.526	150.37807
727.956	154.34823
728.386	176.42877
728.816	144.36191
729.246	176.42268
729.675	147.3594
730.105	156.38133
730.534	184.42571
730.964	185.46186
731.393	203.49685
731.822	162.40992
732.251	155.39019
732.68	189.44032
733.109	157.38385
733.537	171.40872
733.966	172.42247
734.395	143.32922
734.823	187.41759
735.251	120.28896
735.68	199.49104
736.108	186.46427
736.536	139.32702
736.964	147.33964
737.392	172.42575
737.82	192.45461
738.247	172.40804
738.675	211.49602
739.102	162.4007
739.53	151.38121
739.957	181.45922
740.384	222.53739
740.811	197.49163
741.238	155.37543
741.665	166.38148
742.092	208.48868
742.519	196.47714
742.945	174.41327
743.372	187.4565
743.798	202.5104
744.225	177.4161
744.651	190.46978
745.077	203.49759
745.503	205.49185
745.929	173.41065
746.355	265.64134
746.781	198.48291
747.207	165.3832
747.632	166.40018
748.058	222.54264
748.483	221.49901
748.908	236.57278
749.334	239.5732
749.759	172.40127
750.184	185.43456
750.609	221.53225
751.033	266.6115
751.458	243.53253
751.883	265.6382
752.307	183.42517
752.732	200.49051
753.156	236.56912
753.58	239.5546
754.005	271.66768
754.429	172.39985
754.853	202.49156
755.277	206.47907
755.7	240.58096
756.124	205.49932
756.548	208.48391
756.971	261.61951
757.394	205.51844
757.818	233.58546
758.241	218.54157
758.664	222.54849
759.087	208.45555
759.51	277.66785
759.933	186.44091
760.356	223.55933
760.778	249.59604
761.201	278.65515
761.623	292.68466
762.046	299.68474
762.468	303.70197
762.89	209.5064
763.312	264.62603
763.734	226.532
764.156	251.60312
764.578	232.52181
765	237.56429
765.421	187.46702
765.843	281.71313
766.264	280.65499
766.686	258.62992
767.107	212.50351
767.528	250.61334
767.949	226.56164
768.37	219.52604
768.791	261.6133
769.212	234.57282
769.632	236.53581
770.053	235.60359
770.473	239.56665
770.894	275.66704
771.314	275.63636
771.734	201.45996
772.154	222.55732
772.575	244.55083
772.994	204.45451
773.414	260.60631
773.834	176.43373
774.254	206.49434
774.673	224.53324
775.093	209.5064
775.512	178.43186
775.931	230.56888
776.351	221.53608
776.77	181.43543
777.189	196.45779
777.607	214.53454
778.026	185.45314
778.445	127.31557
778.864	215.53946
779.282	217.51032
779.701	193.47763
780.119	131.32847
780.537	173.42516
780.955	210.52303
781.373	170.41447
781.791	127.28384
782.209	210.47369
782.627	138.36008
783.045	127.29051
783.462	151.38134
783.88	179.45527
784.297	168.41645
784.715	131.33343
785.132	178.42391
785.549	139.34438
785.966	144.3584
786.383	111.27189
786.8	140.32237
787.217	178.41494
787.633	93.23168
788.05	161.37775
788.466	190.43994
788.883	116.29395
789.299	116.27795
789.715	95.23063
790.131	127.31339
790.547	105.26129
790.963	141.34639
791.379	134.33557
791.795	134.30338
792.21	95.22194
792.626	111.26227
793.041	119.29181
793.457	114.28022
793.872	103.24148
794.287	63.15093
794.702	108.26498
795.117	82.20365
795.532	64.1608
795.947	148.35219
796.362	179.42014
796.776	169.39
797.191	135.32724
797.605	58.1368
798.02	112.27103
798.434	83.1852
798.848	95.2333
799.262	52.12961
799.676	130.31446
800.09	74.1823
800.504	86.20858
800.918	78.18097
801.331	124.32245
801.745	61.14083
802.158	113.28068
802.572	119.28672
802.985	95.22915
803.398	104.24702
803.811	136.3461
804.224	98.24312
804.637	59.14113
805.05	88.20385
805.462	75.18446
805.875	59.15324
806.288	38.09234
806.7	86.21576
807.112	48.11207
807.525	90.22164
807.937	58.14383
808.349	77.19287
808.761	62.15297
809.173	78.18904
809.584	93.22924
809.996	77.18847
810.408	42.10892
810.819	79.18579
811.231	127.32485
811.642	150.35242
812.053	216.49975
812.464	337.76089
812.875	320.78184
813.286	178.4496
813.697	214.48744
814.108	105.25519
814.519	136.29975
814.929	97.24637
815.34	50.12186
815.75	70.17789
816.16	65.16228
816.571	64.16643
816.981	115.26961
817.391	98.23563
817.801	54.13455
818.211	41.09841
818.62	37.08969
819.03	69.16927
819.44	135.3487
819.849	28.07111
820.259	103.26217
820.668	29.07188
821.077	45.11227
821.486	95.22794
821.895	93.22898
822.304	93.24536
822.713	38.09047
823.122	60.15004
823.531	72.17075
823.939	62.15133
824.348	42.10271
824.756	89.2222
825.164	58.1463
825.573	53.13338
825.981	72.17855
826.389	96.24007
826.797	78.19505
827.205	52.11984
827.612	73.18007
828.02	27.06394
828.428	81.20581
828.835	62.16327
829.243	79.18803
829.65	49.12225
830.057	50.12182
830.464	68.16573
830.871	98.23348
831.278	33.08032
831.685	96.21327
832.092	70.17137
832.499	54.11862
832.905	93.23437
833.312	56.12818
833.718	76.18909
834.124	30.06914
834.531	89.22349
834.937	39.10056
835.343	45.10908
835.749	39.09169
836.155	54.14163
836.561	49.12092
836.966	73.17835
837.372	83.21059
837.777	54.13479
838.183	41.09175
838.588	80.1981
838.993	74.17995
839.399	80.19505
839.804	27.06626
840.209	24.06151
840.613	-7.01582
841.018	75.18955
841.423	45.11579
841.828	53.13428
842.232	67.16594
842.637	70.16504
843.041	1.00259
843.445	28.07068
843.849	24.05984
844.253	62.14749
844.657	62.15611
845.061	20.04582
845.465	55.13307
845.869	42.09806
846.272	19.04664
846.676	41.09961
847.079	21.05377
847.483	85.21121
847.886	100.24172
848.289	29.07777
848.692	77.19447
849.095	79.18919
849.498	118.29614
849.901	26.06011
850.304	52.12455
850.707	60.15302
851.109	95.23898
851.512	25.06185
851.914	20.05075
852.316	25.06363
852.718	-11.02874
853.121	59.14463
853.523	41.09624
853.925	-11.02903
854.326	17.04283
854.728	21.05436
855.13	7.01821
855.531	34.08166
855.933	88.21022
856.334	-16.04043
856.736	8.01812
857.137	23.05388
857.538	46.11591
857.939	45.11145
858.34	58.14141
858.741	42.11008
859.142	55.13227
859.542	54.14254
859.943	36.08983
860.343	-6.01503
860.744	71.17288
861.144	73.17762
861.544	17.04118
861.945	61.15538
862.345	36.08843
862.745	69.17114
863.145	88.20926
863.544	95.23847
863.944	77.1813
864.344	60.14901
864.743	49.1218
865.143	33.08512
865.542	44.10237
865.941	55.13622
866.34	119.28182
866.74	48.129
867.139	75.17899
867.537	51.13009
867.936	25.06055
868.335	30.0767
868.734	58.14818
869.132	33.07707
869.531	54.13072
869.929	4.00922
870.327	22.0531
870.726	86.21335
871.124	61.14251
871.522	49.12499
871.92	54.13328
872.318	63.15386
872.715	87.21421
873.113	62.15094
873.511	63.15677
873.908	-34.0872
874.306	39.0973
874.703	2.00505
875.1	68.1736
875.497	41.0986
875.894	-13.03226
876.291	30.07399
876.688	31.0803
877.085	77.18405
877.482	40.10043
877.878	22.0533
878.275	50.12715
878.671	96.21212
879.068	61.14714
879.464	32.0777
879.86	20.04763
880.256	71.17475
880.652	54.13738
881.048	40.09941
881.444	59.14038
881.84	66.16743
882.236	35.08833
882.631	14.03463
883.027	44.1068
883.422	26.06682
883.817	2.00507
884.213	24.06192
884.608	8.01979
885.003	14.03402
885.398	46.11532
885.793	19.048
886.188	23.05751
886.582	98.24949
886.977	73.17269
887.371	63.15911
887.766	16.04007
888.16	66.16439
888.554	77.18966
888.949	68.17036
889.343	73.17775
889.737	20.05359
890.131	27.06807
890.525	44.11273
890.918	55.13841
891.312	79.18818
891.706	34.08951
892.099	33.08429
892.492	79.16962
892.886	34.08351
893.279	54.13757
893.672	52.13243
894.065	32.08046
894.458	42.10586
894.851	66.1614
895.244	54.13791
895.637	31.075
896.029	48.11751
896.422	51.12469
896.814	7.01755
897.206	38.09078
897.599	107.26209
897.991	17.04139
898.383	17.04046
898.775	66.14864
899.167	10.02352
899.559	66.16671
899.951	50.11798
900.342	59.14991
900.734	0
901.125	30.07903
901.517	31.07641
901.908	74.17678
902.299	28.06878
902.69	84.19705
903.082	49.11878
903.473	5.01208
903.863	21.05389
904.254	0
904.645	63.15643
905.036	-10.0245
905.426	64.14625
905.817	30.07393
906.207	27.06466
906.597	10.02359
906.987	61.15789
907.378	44.11146
907.768	71.18713
908.158	12.02949
908.547	22.05713
908.937	57.14616
909.327	66.15989
909.717	114.28631
910.106	56.13444
910.495	69.17177
910.885	33.08388
911.274	42.10518
911.663	40.10176
912.052	62.15274
912.441	30.07659
912.83	26.06001
913.219	66.17234
913.608	40.09822
913.997	13.03282
914.385	41.09819
914.774	42.10248
915.162	-7.01687
915.55	21.05111
915.939	-8.02041
916.327	51.12733
916.715	21.05381
917.103	101.24639
917.491	78.19209
917.878	65.15945
918.266	9.02351
918.654	39.09986
919.041	32.08381
919.429	-9.0215
919.816	38.09657
920.203	23.05609
920.591	25.0623
920.978	99.24034
921.365	49.12862
921.752	13.03123
922.139	-19.04189
922.525	-21.05113
922.912	56.13648
923.299	22.05498
923.685	25.06551
924.072	45.10393
924.458	-6.01502
924.844	-5.0125
925.231	54.12564
925.617	4.01026
926.003	54.13796
926.389	24.06084
926.774	26.06619
927.16	8.02003
927.546	22.05644
927.931	76.18882
928.317	27.06251
928.702	81.19057
929.088	-1.00239
929.473	28.07153
929.858	-41.10084
930.243	45.10814
930.628	-19.04683
931.013	7.01749
931.398	50.11504
931.783	36.09503
932.167	46.11257
932.552	41.10292
932.937	81.19995
933.321	9.02275
933.705	-8.02038
934.09	54.1364
934.474	47.11174
934.858	27.07032
935.242	37.086
935.626	15.03864
936.009	30.08007
936.393	52.13229
936.777	27.06943
937.16	19.04971
937.544	56.13183
937.927	19.04848
938.311	63.15346
938.694	82.21572
939.077	23.05535
939.46	91.22183
939.843	85.17605
940.226	52.13336
940.609	25.05769
940.991	1.00257
941.374	9.02217
941.757	29.07185
942.139	13.02943
942.522	83.19497
942.904	9.02181
943.286	86.21716
943.668	40.1038
944.05	28.06926
944.432	18.04469
944.814	51.12562
945.196	-2.00492
945.578	-46.11136
945.959	20.04716
946.341	84.20495
946.722	34.08007
947.104	45.10768
947.485	32.07474
947.866	-12.03057
948.247	14.03555
948.628	84.20365
949.009	10.02579
949.39	38.09482
949.771	33.07704
950.152	39.09592
950.532	-33.08242
950.913	18.04369
951.293	9.02448
951.674	30.07284
952.054	23.05728
952.434	63.15603
952.814	73.17295
953.194	83.21602
953.574	61.14997
953.954	41.09755
954.334	43.10732
954.714	-5.01231
955.093	78.19081
955.473	14.03524
955.853	40.10373
956.232	57.15606
956.611	80.19082
956.99	-5.01269
957.37	57.14508
957.749	54.12875
958.128	-16.04079
958.506	19.04955
958.885	44.11118
959.264	-2.00495
959.643	29.06628
960.021	31.07709
960.4	18.04107
960.778	86.21046
961.156	23.05794
961.535	49.11425
961.913	64.14937
962.291	0
962.669	35.0889
963.047	14.03596
963.424	44.11241
963.802	28.06913
964.18	80.20136
964.557	78.17868
964.935	26.0619
965.312	37.09656
965.69	75.18698
966.067	22.05386
966.444	43.10611
966.821	75.19252
967.198	32.0779
967.575	66.16182
967.952	45.10616
968.329	45.10961
968.705	82.17466
969.082	27.06952
969.458	-16.03886
969.835	58.14099
970.211	37.09517
970.587	56.13928
970.963	51.13082
971.339	16.04202
971.715	27.0677
972.091	77.18868
972.467	24.06015
972.843	46.11424
973.219	88.20982
973.594	2.00527
973.97	84.19867
974.345	-16.03878
974.721	48.11629
975.096	70.16876
975.471	13.03106
975.846	28.06755
976.221	32.08152
976.596	26.06261
976.971	78.19159
977.346	42.09795
977.72	-2.00514
978.095	20.05196
978.469	22.0528
978.844	29.07319
979.218	-6.01454
979.593	13.03137
979.967	46.11215
980.341	22.05094
980.715	41.10347
981.089	28.07037
981.463	54.1239
981.837	47.11491
982.21	75.1737
982.584	-6.01465
982.957	-2.00504
983.331	48.11352
983.704	76.18585
984.078	-7.01743
984.451	58.14467
984.824	-2.00492
985.197	42.10217
985.57	51.12788
985.943	44.1088
986.316	87.21231
986.688	28.06781
987.061	51.11952
987.434	82.2125
987.806	-8.01961
988.179	24.05692
988.551	36.09155
988.923	35.08643
989.295	82.20372
989.667	6.01445
990.039	13.03234
990.411	39.08997
990.783	43.09915
991.155	-34.08299
991.527	87.21279
991.898	24.06008
992.27	30.07448
992.641	33.08305
993.012	34.08026
993.384	36.0861
993.755	35.08946
994.126	11.02665
994.497	28.06901
994.868	64.14661
995.239	-11.02696
995.61	20.05059
995.98	-20.04922
996.351	42.10416
996.722	9.02104
997.092	-13.03116
997.462	-14.03311
997.833	37.08793
998.203	64.15476
998.573	1.00251
998.943	34.07998
999.313	51.12218
999.683	32.07706
1000.053	26.06011
1000.423	40.09738
1000.792	27.07025
1001.162	26.06427
1001.531	59.14522
1001.901	40.09988
1002.27	67.14925
1002.639	27.06926
1003.009	14.03352
1003.378	23.05908
1003.747	45.10641
1004.116	6.01448
1004.485	52.12422
1004.853	59.14922
1005.222	82.20558
1005.591	5.01197
1005.959	5.01137
1006.328	13.02947
1006.696	-16.03907
1007.064	55.13821
1007.433	81.20127
1007.801	51.12516
1008.169	17.04318
1008.537	44.09755
1008.905	13.0305
1009.273	28.06944
1009.64	4.00962
1010.008	88.20821
1010.375	89.21452
1010.743	89.20392
1011.11	4.00955
1011.478	34.08438
1011.845	46.10825
1012.212	22.05007
1012.579	39.09592
1012.946	49.11663
1013.313	57.13546
1013.68	62.139
1014.047	21.05031
1014.414	19.04514
1014.78	20.04996
1015.147	80.19235
1015.513	52.12522
1015.88	86.21847
1016.246	73.17941
1016.612	53.12124
1016.978	54.1322
1017.344	41.10147
1017.71	93.22492
1018.076	94.21973
1018.442	55.14133
1018.808	54.13484
1019.174	28.0705
1019.539	97.22117
1019.905	25.05923
1020.27	17.0422
1020.636	37.08891
1021.001	42.10068
1021.366	-7.01699
1021.731	39.10046
1022.096	-18.04594
1022.461	49.11596
1022.826	29.06918
1023.191	23.0606
1023.556	43.10089
1023.92	28.06911
1024.285	50.122
1024.649	26.06398
1025.014	52.12872
1025.378	39.09821
1025.742	46.11428
1026.107	35.07939
1026.471	77.17876
1026.835	20.04983
1027.199	-22.05366
1027.562	38.08852
1027.926	21.05161
1028.29	37.09381
1028.654	50.115
1029.017	30.07399
1029.381	54.12885
1029.744	23.05892
1030.107	71.16724
1030.471	8.0193
1030.834	13.02979
1031.197	75.17975
1031.56	24.05689
1031.923	51.13178
1032.286	33.07773
1032.648	56.13373
1033.011	25.05765
1033.374	29.06842
1033.736	14.03702
1034.099	53.12905
1034.461	15.03811
1034.823	25.06251
1035.185	34.08579
1035.548	60.14569
1035.91	24.05775
1036.272	34.0776
1036.634	56.13679
1036.995	27.06372
1037.357	-10.02459
1037.719	-9.02212
1038.08	35.08331
1038.442	25.0596
1038.803	63.15082
1039.165	33.08349
1039.526	35.08478
1039.887	8.01929
1040.248	11.02728
1040.609	50.1235
1040.97	62.15111
1041.331	46.11649
1041.692	2.00471
1042.053	31.07083
1042.413	24.05619
1042.774	57.13838
1043.134	86.20324
1043.495	27.06812
1043.855	30.07301
1044.215	9.02249
1044.576	31.07435
1044.936	28.06445
1045.296	52.12966
1045.656	25.0616
1046.016	58.13972
1046.375	6.01467
1046.735	25.05694
1047.095	16.03768
1047.454	53.11218
1047.814	31.07475
1048.173	42.10045
1048.533	25.05753
1048.892	-36.08777
1049.251	39.09804
1049.61	-2.00497
1049.969	28.06625
1050.328	17.0371
1050.687	42.10229
1051.046	29.07085
1051.405	4.01003
1051.763	9.02085
1052.122	31.07754
1052.48	19.04683
1052.839	33.07785
1053.197	-13.03095
1053.555	116.26081
1053.914	67.16326
1054.272	74.17799
1054.63	27.06626
1054.988	-4.0096
1055.345	20.04332
1055.703	51.12265
1056.061	29.07483
1056.419	7.01824
1056.776	82.19753
1057.134	57.1317
1057.491	26.06535
1057.848	42.10465
1058.206	49.11519
1058.563	1.00223
1058.92	74.16965
1059.277	64.15738
1059.634	38.08956
1059.991	72.17167
1060.348	24.05449
1060.704	43.10255
1061.061	75.17329
1061.418	33.08023
1061.774	19.04714
1062.131	1.00266
1062.487	16.03764
1062.843	88.21775
1063.199	55.13657
1063.555	0
1063.911	49.12371
1064.267	109.22424
1064.623	-49.12114
1064.979	51.12074
1065.335	40.09574
1065.691	22.05298
1066.046	4.00888
1066.402	19.04341
1066.757	55.13861
1067.112	65.15898
1067.468	6.01428
1067.823	41.09867
1068.178	49.11846
1068.533	48.11633
1068.888	18.04325
1069.243	15.03723
1069.598	30.07312
1069.952	-17.03878
1070.307	-3.00749
1070.662	17.04059
1071.016	42.0942
1071.371	-11.02531
1071.725	38.09106
1072.079	8.01938
1072.434	-4.00981
1072.788	34.08116
1073.142	66.16176
1073.496	10.02389
1073.85	22.05127
1074.203	36.08751
1074.557	56.14866
1074.911	66.15694
1075.265	33.07691
1075.618	58.14131
1075.971	47.11178
1076.325	27.06885
1076.678	20.04598
1077.031	29.06586
1077.385	40.08824
1077.738	-31.07108
1078.091	-6.01379
1078.444	36.08376
1078.796	45.11043
1079.149	48.11934
1079.502	23.05458
1079.855	-21.04962
1080.207	71.17411
1080.56	10.026
1080.912	47.1144
1081.264	40.09643
1081.617	37.09033
1081.969	46.11603
1082.321	53.12924
1082.673	13.02987
1083.025	14.03342
1083.377	0
1083.728	52.12117
1084.08	22.05515
1084.432	51.12288
1084.783	45.10546
1085.135	33.0829
1085.486	2.00462
1085.838	16.03962
1086.189	47.11406
1086.54	45.10748
1086.891	21.05334
1087.242	55.13367
1087.593	27.06596
1087.944	32.07263
1088.295	22.05025
1088.646	85.20449
1088.996	18.04359
1089.347	-2.00495
1089.698	1.00238
1090.048	64.16569
1090.398	26.06054
1090.749	54.129
1091.099	-16.04068
1091.449	38.09479
1091.799	48.12012
1092.149	-1.00246
1092.499	47.11461
1092.849	5.0128
1093.199	66.16481
1093.548	8.01936
1093.898	23.05778
1094.248	50.12837
1094.597	-24.062
1094.947	23.06158
1095.296	4.00995
1095.645	45.11704
1095.994	14.03383
1096.343	31.07821
1096.692	18.0475
1097.041	-3.00818
1097.39	15.03783
1097.739	40.10405
1098.088	61.16299
1098.437	-23.06111
1098.785	50.13468
1099.134	76.20075
1099.482	26.07172
1099.83	32.08427
1100.179	34.08884
1100.527	40.10637
1100.875	32.08478
1101.223	22.05864
1101.571	32.0886
1101.919	-14.03694
1102.267	32.09026
1102.615	-3.00965
1102.962	27.08676
1103.31	7.02249
1103.658	18.05793
