Data from N2 R5 sample 9_Subt2__2__13-32-54-239.txt Node

Date: Fri Aug 29 13:32:54 PDT 2025
User: uwsun
Spectrometer: HDX01956
Trigger mode: 0
Integration Time (sec): 5.000000E-1
Scans to average: 1
Nonlinearity correction enabled: true
Boxcar width: 0
Storing dark spectrum: false
XAxis mode: Wavelengths
Number of Pixels in Spectrum: 2068
>>>>>Begin Spectral Data<<<<<
194.03	331.88102
194.578	345.0405
195.127	357.05781
195.676	300.90137
196.225	387.95934
196.773	406.0375
197.321	598.44159
197.87	852.77245
198.418	769.60425
198.966	735.55562
199.513	711.42932
200.061	723.47817
200.609	741.61133
201.156	695.19985
201.704	675.38553
202.251	721.55785
202.798	715.51259
203.345	806.58523
203.892	795.59254
204.438	730.40119
204.985	758.41029
205.532	811.70316
206.078	819.58327
206.624	801.54842
207.17	798.45253
207.716	793.51464
208.262	797.19512
208.808	787.52058
209.354	775.49021
209.899	840.68629
210.445	788.54542
210.99	768.46009
211.535	867.57641
212.08	844.52248
212.625	831.64329
213.17	928.8221
213.715	713.24278
214.259	791.45032
214.804	859.66625
215.348	804.43834
215.892	858.60146
216.436	815.48242
216.98	852.45254
217.524	779.45411
218.068	801.61049
218.612	803.616
219.155	802.48419
219.698	762.44725
220.242	773.55413
220.785	729.368
221.328	747.50593
221.871	708.47589
222.414	733.48646
222.956	703.36713
223.499	720.2957
224.041	748.40131
224.583	774.32134
225.126	718.26305
225.668	701.38394
226.21	690.4205
226.751	600.07049
227.293	720.32354
227.835	678.35131
228.376	777.42889
228.918	724.49459
229.459	706.42675
230	692.33644
230.541	706.31272
231.082	675.33565
231.622	764.40037
232.163	686.35017
232.704	689.3914
233.244	698.40927
233.784	758.49909
234.324	736.26508
234.864	695.26501
235.404	692.33835
235.944	748.42131
236.484	789.5776
237.023	685.30804
237.563	707.30709
238.102	716.35974
238.641	721.48073
239.18	622.18495
239.719	732.48612
240.258	712.278
240.797	716.37295
241.335	757.48489
241.874	738.08737
242.412	740.41837
242.95	673.29564
243.488	779.39459
244.026	690.2721
244.564	715.15146
245.102	712.26621
245.64	751.44815
246.177	695.24262
246.715	770.46887
247.252	778.4046
247.789	769.10664
248.326	722.37648
248.863	748.27753
249.4	750.34222
249.936	726.15899
250.473	725.33843
251.009	742.33333
251.546	816.37682
252.082	794.34032
252.618	763.31895
253.154	769.451
253.69	782.36586
254.226	693.32334
254.761	804.39037
255.297	731.24675
255.832	719.34854
256.367	744.38146
256.903	734.2549
257.438	790.44885
257.972	742.28902
258.507	776.37103
259.042	776.29495
259.576	756.24285
260.111	802.43623
260.645	813.34018
261.179	803.44282
261.713	798.35658
262.247	778.39316
262.781	766.21957
263.315	802.52484
263.849	870.67038
264.382	841.4765
264.915	813.45709
265.449	734.39466
265.982	834.44621
266.515	864.6087
267.048	820.29839
267.58	813.35354
268.113	752.24105
268.646	813.55066
269.178	836.40073
269.71	808.33671
270.243	824.43336
270.775	793.57609
271.307	856.57802
271.838	839.53234
272.37	843.58933
272.902	805.39764
273.433	809.33209
273.965	816.52744
274.496	829.59422
275.027	841.59795
275.558	816.51616
276.089	818.52893
276.62	909.76171
277.15	899.6802
277.681	805.31888
278.211	855.60097
278.741	787.3015
279.272	832.42216
279.802	857.63314
280.332	832.47785
280.861	843.53656
281.391	881.47113
281.921	859.56578
282.45	866.64673
282.98	862.72335
283.509	892.47043
284.038	838.42324
284.567	833.4693
285.096	897.61377
285.625	857.43641
286.153	849.47968
286.682	860.4497
287.21	875.56365
287.739	867.51829
288.267	862.55185
288.795	948.8684
289.323	895.52156
289.851	951.60924
290.378	917.48131
290.906	834.49903
291.433	862.60735
291.961	970.5492
292.488	910.67108
293.015	861.48172
293.542	907.6885
294.069	957.69563
294.596	918.66977
295.122	905.5676
295.649	959.48594
296.175	934.64407
296.702	956.67239
297.228	995.72851
297.754	934.47961
298.28	949.51165
298.806	943.61721
299.332	1009.51827
299.857	1003.55625
300.383	1073.91354
300.908	963.64105
301.433	1026.72957
301.958	1011.62276
302.483	1006.75919
303.008	1061.8251
303.533	1028.90903
304.058	1022.66974
304.582	963.57781
305.107	1017.86754
305.631	1042.61565
306.155	1060.65328
306.679	1107.70648
307.203	1079.66406
307.727	1030.66227
308.251	1077.81046
308.775	1032.6393
309.298	1045.67283
309.822	1069.84086
310.345	1153.77572
310.868	1100.7329
311.391	1150.86938
311.914	1160.90466
312.437	1191.72241
312.96	1184.76786
313.482	1145.74064
314.005	1186.92819
314.527	1131.97383
315.049	1185.95183
315.571	1184.59285
316.093	1312.99695
316.615	1266.86854
317.137	1231.58688
317.659	1318.95182
318.18	1257.87034
318.702	1320.8034
319.223	1315.49281
319.744	1295.67376
320.265	1321.87913
320.786	1342.94095
321.307	1325.9522
321.828	1359.71957
322.348	1400.84009
322.869	1435.84594
323.389	1461.02913
323.909	1436.78164
324.43	1474.96976
324.95	1490.77388
325.47	1491.96469
325.989	1491.83103
326.509	1420.57975
327.029	1528.6896
327.548	1472.64256
328.067	1464.82203
328.587	1631.04813
329.106	1567.70528
329.625	1646.27201
330.144	1567.72117
330.662	1609.7305
331.181	1690.79817
331.7	1618.75884
332.218	1669.53174
332.736	1746.78249
333.255	1742.73786
333.773	1754.78658
334.291	1820.01259
334.808	1755.5614
335.326	1909.62444
335.844	1842.64479
336.361	1860.92959
336.879	1839.62791
337.396	1909.74238
337.913	1952.57286
338.43	1936.48489
338.947	2025.66682
339.464	1956.28853
339.981	2029.5971
340.497	2076.76837
341.014	2094.67755
341.53	2063.37586
342.046	2119.65698
342.562	2166.74152
343.078	2157.48243
343.594	2219.52117
344.11	2271.48082
344.626	2269.67292
345.141	2290.27248
345.657	2261.2858
346.172	2323.44503
346.687	2303.24033
347.202	2389.11634
347.717	2379.3342
348.232	2439.49192
348.747	2437.13682
349.261	2410.88217
349.776	2531.15066
350.29	2540.25845
350.805	2628.32117
351.319	2581.05486
351.833	2549.89434
352.347	2653.00321
352.861	2681.92771
353.374	2678.92715
353.888	2683.06625
354.401	2749.8132
354.915	2632.69327
355.428	2760.04067
355.941	2770.75242
356.454	2912.61922
356.967	2861.78643
357.48	2835.68343
357.993	2863.90528
358.505	2880.81329
359.018	2982.7638
359.53	3066.60548
360.042	3011.36552
360.554	3081.63002
361.066	2992.64275
361.578	3006.24397
362.09	3082.50024
362.602	3000.22478
363.113	3124.31166
363.625	3112.183
364.136	3321.9945
364.647	3147.12497
365.158	3306.11729
365.669	3320.20156
366.18	3375.09322
366.691	3380.85126
367.201	3291.13235
367.712	3480.80846
368.222	3355.87162
368.733	3426.60861
369.243	3486.5935
369.753	3664.63453
370.263	3605.73514
370.773	3645.78744
371.282	3691.56265
371.792	3774.26738
372.301	3912.35485
372.811	4059.50948
373.32	3854.95785
373.829	4025.05062
374.338	4133.85309
374.847	4290.80521
375.356	4398.77992
375.865	4528.59854
376.373	4696.62917
376.882	4957.73882
377.39	5056.71577
377.898	5052.71664
378.407	5357.02673
378.915	5627.44499
379.423	5876.71622
379.93	6076.32995
380.438	6226.78304
380.946	6598.17208
381.453	6830.26529
381.96	6951.53813
382.468	7403.94625
382.975	7982.85883
383.482	8387.06993
383.989	8475.6204
384.495	8634.7247
385.002	9050.28876
385.509	9561.79109
386.015	10180.25123
386.521	10832.3211
387.028	11210.38096
387.534	11365.88227
388.04	12078.76067
388.546	11967.0479
389.051	12403.43988
389.557	13727.11945
390.063	15314.68631
390.568	15644.6224
391.073	15861.09381
391.578	16729.26201
392.084	17009.12352
392.589	17216.57003
393.093	18110.96857
393.598	20147.18436
394.103	22286.61614
394.607	24153.66388
395.112	26140.87477
395.616	27934.15489
396.12	29452.1409
396.624	32250.00515
397.128	35460.89458
397.632	39639.02229
398.136	38478.88139
398.639	36072.04171
399.143	32503.66402
399.646	28888.45294
400.15	25083.82847
400.653	20124.16724
401.156	13866.23708
401.659	5169.95759
402.162	1054.15589
402.664	0
403.167	0
403.67	0
404.172	0
404.674	0
405.176	0
405.678	0
406.18	0
406.682	0
407.184	0
407.686	0
408.187	0
408.688	0
409.19	0
409.691	0
410.192	0
410.693	0
411.194	435.30976
411.694	4082.94878
412.195	8864.71461
412.696	12089.80453
413.196	12760.96929
413.696	12863.67595
414.196	13703.56671
414.696	17261.84252
415.196	21764.24417
415.696	29583.19008
416.196	36460.31858
416.695	40057.39798
417.195	41392.74103
417.694	42311.08144
418.194	43882.52025
418.693	41698.26783
419.192	40521.928
419.691	39747.83781
420.19	39032.21515
420.688	38451.1999
421.187	36637.53915
421.685	35276.17106
422.184	32318.26183
422.682	28001.38578
423.18	23073.69538
423.678	20628.35521
424.176	19102.7266
424.674	17852.60276
425.172	17341.097
425.669	16470.15465
426.167	15371.53119
426.664	13927.42554
427.161	12738.6346
427.659	11752.79275
428.156	10829.43387
428.652	10182.904
429.149	9805.97963
429.646	9544.48602
430.143	8979.05248
430.639	8563.5203
431.135	7891.39272
431.632	7502.68518
432.128	6938.73329
432.624	6636.34834
433.12	6258.07333
433.616	6066.56818
434.111	5662.5933
434.607	5554.26336
435.103	5544.31576
435.598	5514.23083
436.093	5178.76759
436.588	4967.68354
437.083	4699.65897
437.578	4492.72358
438.073	4146.92407
438.568	4089.08585
439.062	4031.85037
439.557	3843.23505
440.051	3740.19413
440.546	3550.32574
441.04	3450.57699
441.534	3423.84847
442.028	3467.7203
442.522	3265.83771
443.015	3251.62116
443.509	3233.02894
444.002	3146.0857
444.496	2982.86679
444.989	2943.26802
445.482	3001.30494
445.975	2933.00998
446.468	2838.96369
446.961	2842.97848
447.454	2795.20321
447.947	2750.34384
448.439	2653.56618
448.931	2638.29164
449.424	2665.75035
449.916	2581.65179
450.408	2557.39997
450.9	2488.68325
451.392	2419.8824
451.884	2407.63468
452.375	2245.89591
452.867	2398.6623
453.358	2285.64522
453.849	2237.52146
454.341	2212.70853
454.832	2133.61771
455.323	2132.99058
455.814	2221.83784
456.304	2105.89059
456.795	2016.90167
457.285	2105.87325
457.776	2128.97355
458.266	2021.05229
458.756	1996.14829
459.247	1815.09646
459.737	1825.11253
460.226	1813.97784
460.716	1715.17097
461.206	1791.22372
461.695	1740.38571
462.185	1693.20699
462.674	1733.17217
463.163	1712.07991
463.653	1668.95576
464.142	1615.30251
464.63	1615.38888
465.119	1566.21117
465.608	1480.20049
466.096	1523.11981
466.585	1549.29392
467.073	1509.39228
467.561	1456.3939
468.05	1474.32834
468.538	1370.44308
469.026	1424.40721
469.513	1329.07989
470.001	1352.25514
470.489	1345.35927
470.976	1336.32714
471.463	1297.5143
471.951	1247.51646
472.438	1164.30157
472.925	1140.2773
473.412	1194.47871
473.899	1141.29357
474.385	1058.38185
474.872	1125.31582
475.359	1088.40129
475.845	1066.07602
476.331	1070.19702
476.817	1039.40223
477.303	997.26959
477.789	975.33083
478.275	891.30224
478.761	849.22458
479.247	917.17826
479.732	836.26402
480.218	902.44592
480.703	824.27262
481.188	823.03869
481.673	784.10341
482.158	732.93222
482.643	805.32916
483.128	744.06085
483.612	724.08886
484.097	738.19231
484.581	692.06121
485.066	589.97953
485.55	616.88993
486.034	621.88517
486.518	597.95084
487.002	615.0293
487.486	690.13846
487.969	545.93831
488.453	567.02427
488.936	543.85485
489.42	577.88746
489.903	576.04773
490.386	551.58998
490.869	495.77561
491.352	507.9205
491.835	495.73162
492.318	505.82216
492.8	516.75827
493.283	478.90872
493.765	454.83788
494.247	489.85489
494.73	485.78736
495.212	460.84726
495.694	403.71229
496.175	365.65926
496.657	490.87448
497.139	447.56682
497.62	291.53904
498.102	394.75631
498.583	380.74739
499.064	346.59383
499.545	359.63649
500.026	324.56681
500.507	378.68257
500.988	375.73495
501.469	315.62816
501.949	338.66791
502.43	269.51024
502.91	300.48459
503.39	353.70852
503.87	294.55099
504.35	331.62632
504.83	294.51106
505.31	291.56789
505.79	205.40215
506.269	280.53072
506.749	204.38099
507.228	216.41481
507.707	267.47681
508.187	265.5196
508.666	175.35742
509.145	235.44858
509.623	196.38113
510.102	242.4836
510.581	221.44501
511.059	197.41094
511.538	282.60404
512.016	295.57542
512.494	224.45344
512.972	210.41751
513.45	136.26332
513.928	211.42566
514.406	176.35203
514.884	183.39699
515.361	230.45748
515.839	196.37186
516.316	207.41644
516.793	214.4572
517.27	242.49123
517.747	185.40167
518.224	224.43329
518.701	241.44463
519.178	147.30923
519.654	158.32145
520.131	155.32706
520.607	173.36681
521.083	152.295
521.56	156.31391
522.036	204.37646
522.512	198.41642
522.987	153.30823
523.463	187.37672
523.939	181.37941
524.414	181.35641
524.89	158.32101
525.365	152.29388
525.84	112.22818
526.315	137.28362
526.79	129.2503
527.265	134.2628
527.74	128.26944
528.215	159.32135
528.689	158.29845
529.164	147.27419
529.638	184.40741
530.112	114.23225
530.587	155.28094
531.061	113.23593
531.534	192.39935
532.008	149.30832
532.482	109.21817
532.956	68.15207
533.429	159.3327
533.903	141.26993
534.376	159.30188
534.849	165.32949
535.322	154.31417
535.795	108.23114
536.268	134.27958
536.741	138.28857
537.213	172.34275
537.686	111.23566
538.158	114.22104
538.631	202.42314
539.103	81.15867
539.575	189.33698
540.047	168.3178
540.519	184.37998
540.991	182.38597
541.463	160.3362
541.934	173.34098
542.406	170.34918
542.877	163.31734
543.348	189.39425
543.82	220.4637
544.291	208.41739
544.762	157.32138
545.233	197.42408
545.703	214.40086
546.174	235.46361
546.645	179.36443
547.115	263.53324
547.585	247.47904
548.056	243.49066
548.526	287.55848
548.996	330.65608
549.466	346.69912
549.935	324.62643
550.405	348.6149
550.875	354.68083
551.344	342.67138
551.814	355.66188
552.283	480.81729
552.752	390.72371
553.221	358.61872
553.69	474.8184
554.159	458.88469
554.628	424.74141
555.096	418.84692
555.565	415.73159
556.033	526.96983
556.502	437.85161
556.97	373.67199
557.438	402.77762
557.906	385.75383
558.374	399.75094
558.842	368.72993
559.31	371.68794
559.777	287.58669
560.245	380.74563
560.712	397.76372
561.18	362.66405
561.647	412.75845
562.114	402.7564
562.581	421.86412
563.048	445.84659
563.514	422.85855
563.981	486.90864
564.448	406.75641
564.914	488.93135
565.381	498.92602
565.847	482.92837
566.313	548.03005
566.779	550.99835
567.245	572.0742
567.711	562.08497
568.176	585.04124
568.642	552.12123
569.108	609.19529
569.573	669.24102
570.038	648.05892
570.504	619.08824
570.969	662.31387
571.434	642.09254
571.899	738.35126
572.363	712.24789
572.828	823.4154
573.293	811.39694
573.757	836.43208
574.222	746.25771
574.686	767.29076
575.15	782.40824
575.614	800.37684
576.078	821.44206
576.542	791.3566
577.006	848.41237
577.469	820.54778
577.933	794.32508
578.396	851.51441
578.86	800.42676
579.323	803.44356
579.786	760.23489
580.249	722.25751
580.712	780.46209
581.175	761.4443
581.637	795.39191
582.1	678.15831
582.563	759.23914
583.025	706.3316
583.487	699.07103
583.95	677.11788
584.412	753.19709
584.874	643.23601
585.336	694.28269
585.797	695.15784
586.259	696.28703
586.721	628.16684
587.182	626.1712
587.643	643.1536
588.105	621.17186
588.566	669.09608
589.027	607.16557
589.488	590.0776
589.949	640.23585
590.41	590.89812
590.87	617.1256
591.331	653.10861
591.791	612.12295
592.252	546.00513
592.712	587.13794
593.172	592.06436
593.632	631.09664
594.092	636.12083
594.552	606.03446
595.011	635.14974
595.471	610.08613
595.931	630.11023
596.39	663.25249
596.849	675.23475
597.308	634.08761
597.768	620.2659
598.227	693.31439
598.685	748.33176
599.144	693.26902
599.603	733.35052
600.062	805.25885
600.52	749.27615
600.978	790.43576
601.437	777.36317
601.895	805.27712
602.353	778.31608
602.811	872.43418
603.269	862.55343
603.727	885.58481
604.184	934.5297
604.642	871.60693
605.099	943.60256
605.557	1004.78419
606.014	1000.52043
606.471	998.81104
606.928	978.478
607.385	1136.91676
607.842	1227.88489
608.299	1388.09401
608.755	1312.10468
609.212	1274.85539
609.668	1297.85506
610.125	1379.1887
610.581	1465.2487
611.037	1447.12125
611.493	1303.07897
611.949	1299.10541
612.405	1291.65384
612.861	1294.06977
613.316	1384.17862
613.772	1361.05717
614.227	1395.15908
614.683	1406.92848
615.138	1408.15095
615.593	1390.11947
616.048	1463.15669
616.503	1444.35584
616.958	1365.31945
617.412	1359.15304
617.867	1371.97292
618.321	1407.85743
618.776	1375.00237
619.23	1350.13563
619.684	1435.12138
620.138	1449.22131
620.592	1309.2012
621.046	1395.20549
621.5	1361.26447
621.954	1405.10921
622.407	1373.04967
622.861	1236.13571
623.314	1318.06326
623.768	1274.07443
624.221	1178.6024
624.674	1147.91399
625.127	1191.005
625.58	1172.93724
626.033	1243.93987
626.485	1136.99972
626.938	1146.00881
627.39	1098.89849
627.843	1119.91603
628.295	1028.80342
628.747	1040.88171
629.199	1002.73933
629.651	984.7152
630.103	927.65851
630.555	952.54889
631.006	985.79418
631.458	911.70183
631.909	912.6647
632.361	883.6478
632.812	792.49265
633.263	862.48226
633.714	795.38461
634.165	839.66377
634.616	859.65913
635.067	807.46709
635.518	788.55924
635.968	822.33146
636.419	773.38738
636.869	762.51686
637.319	778.49276
637.769	721.3523
638.219	806.60308
638.669	732.47328
639.119	778.5947
639.569	717.46986
640.019	774.49936
640.468	701.32959
640.918	767.56045
641.367	752.41783
641.816	763.43122
642.265	743.45396
642.714	773.50348
643.163	718.40596
643.612	721.47341
644.061	674.21523
644.51	716.38815
644.958	680.27933
645.406	697.43332
645.855	730.5346
646.303	816.59891
646.751	757.45415
647.199	744.43635
647.647	736.44126
648.095	756.46792
648.543	801.36353
648.99	773.56625
649.438	816.61471
649.885	761.6128
650.333	793.27099
650.78	812.65473
651.227	794.63852
651.674	799.53202
652.121	765.59167
652.568	796.64045
653.015	857.82982
653.461	784.58387
653.908	800.57711
654.354	787.60119
654.801	730.47127
655.247	751.4059
655.693	765.72467
656.139	734.51864
656.585	715.48753
657.031	694.40183
657.477	725.33976
657.922	681.36453
658.368	763.62478
658.813	748.5007
659.259	679.42634
659.704	642.3174
660.149	727.46489
660.594	704.4565
661.039	672.33933
661.484	674.418
661.929	712.45007
662.373	652.45751
662.818	660.44872
663.262	669.41826
663.707	603.37139
664.151	689.48167
664.595	623.33844
665.039	634.4085
665.483	645.46404
665.927	636.33267
666.371	549.14582
666.814	609.30384
667.258	595.2601
667.701	651.2424
668.145	625.39566
668.588	622.36808
669.031	578.22271
669.474	582.26553
669.917	609.20711
670.36	616.373
670.803	597.30012
671.245	569.08038
671.688	609.33862
672.13	546.11003
672.573	615.41054
673.015	581.26309
673.457	526.0445
673.899	550.21611
674.341	558.22612
674.783	494.0912
675.225	571.276
675.666	532.16793
676.108	483.96989
676.549	563.21457
676.991	497.00863
677.432	531.96213
677.873	595.24363
678.314	520.14107
678.755	517.15707
679.196	449.95941
679.637	550.23078
680.078	471.02491
680.518	485.04872
680.959	469.0443
681.399	476.09639
681.839	449.02071
682.28	493.12544
682.72	401.86614
683.16	449.04416
683.6	449.959
684.039	399.78531
684.479	440.0101
684.919	387.84306
685.358	461.09273
685.798	415.02418
686.237	435.98931
686.676	503.08029
687.115	416.92177
687.554	392.88198
687.993	407.85047
688.432	362.78877
688.871	344.74638
689.309	405.91402
689.748	410.80944
690.186	380.86373
690.625	404.89482
691.063	377.85951
691.501	399.93456
691.939	362.86068
692.377	372.86367
692.815	360.82093
693.253	413.93891
693.69	323.68303
694.128	344.7971
694.565	349.79666
695.003	362.87685
695.44	315.71297
695.877	329.73738
696.314	311.64642
696.751	338.74086
697.188	348.7647
697.625	361.7931
698.061	292.6777
698.498	344.79836
698.934	334.7724
699.371	292.66482
699.807	283.64941
700.243	333.76902
700.679	310.67806
701.115	351.79217
701.551	318.72196
701.987	325.7041
702.422	323.73761
702.858	285.65819
703.294	347.75336
703.729	264.62893
704.164	290.67599
704.599	301.64849
705.035	248.54223
705.47	277.65343
705.904	296.66684
706.339	301.67824
706.774	241.55215
707.209	275.61586
707.643	274.63945
708.078	302.71032
708.512	222.54365
708.946	275.6409
709.38	268.61807
709.814	282.6262
710.248	285.6736
710.682	264.61103
711.116	226.52765
711.549	284.71037
711.983	273.61314
712.416	320.72915
712.85	254.61738
713.283	266.61272
713.716	325.78622
714.149	276.63981
714.582	297.64537
715.015	308.74496
715.448	257.63133
715.881	317.66946
716.313	254.58065
716.746	197.45733
717.178	257.60202
717.61	264.65152
718.043	281.67954
718.475	234.55533
718.907	263.64869
719.339	180.40387
719.77	284.65183
720.202	248.61181
720.634	242.57475
721.065	248.574
721.497	247.59103
721.928	194.46927
722.359	213.50384
722.79	200.47135
723.221	271.66301
723.652	239.60312
724.083	219.4852
724.514	262.58638
724.945	228.5252
725.375	227.51569
725.806	268.65092
726.236	284.7055
726.666	241.55791
727.096	234.56195
727.526	226.56185
727.956	180.40486
728.386	226.54542
728.816	219.54296
729.246	201.48042
729.675	208.50275
730.105	242.58205
730.534	224.51413
730.964	265.65194
731.393	312.74809
731.822	242.60359
732.251	219.54494
732.68	237.54691
733.109	245.58915
733.537	241.5683
733.966	253.61207
734.395	262.5888
734.823	231.51115
735.251	250.58711
735.68	280.68057
736.108	270.66363
736.536	239.55131
736.964	221.50308
737.392	256.62387
737.82	264.61636
738.247	262.61073
738.675	274.63618
739.102	226.55242
739.53	252.62465
739.957	284.70729
740.384	296.7065
740.811	284.69752
741.238	245.58333
741.665	233.52825
742.092	328.7525
742.519	245.59094
742.945	250.58505
743.372	209.50811
743.798	248.62146
744.225	247.57271
744.651	241.59028
745.077	263.63746
745.503	297.70006
745.929	286.66404
746.355	324.77538
746.781	274.65875
747.207	234.53601
747.632	216.51577
748.058	309.74302
748.483	262.58663
748.908	295.70802
749.334	258.61652
749.759	257.58951
750.184	248.57537
750.609	282.67128
751.033	315.71703
751.458	333.71589
751.883	315.7514
752.307	261.59701
752.732	227.55393
753.156	271.64919
753.58	316.72207
754.005	284.69803
754.429	274.62409
754.853	265.63724
755.277	315.71674
755.7	280.67266
756.124	295.7064
756.548	269.61827
756.971	323.75748
757.394	281.70097
757.818	258.64535
758.241	313.76403
758.664	265.64954
759.087	222.48477
759.51	261.63119
759.933	256.59862
760.356	255.63589
760.778	310.73339
761.201	310.72601
761.623	309.72211
762.046	296.67828
762.468	311.71936
762.89	294.70092
763.312	255.60574
763.734	239.56118
764.156	239.5756
764.578	316.69848
765	259.61406
765.421	249.61485
765.843	285.72277
766.264	329.7622
766.686	251.61363
767.107	242.57143
767.528	165.41118
767.949	267.65856
768.37	227.54442
768.791	267.62667
769.212	222.54466
769.632	177.40667
770.053	216.55663
770.473	241.57117
770.894	221.5415
771.314	270.62541
771.734	182.41808
772.154	247.61729
772.575	185.42267
772.994	150.33794
773.414	245.57302
773.834	172.42419
774.254	208.49895
774.673	239.5673
775.093	190.46201
775.512	184.44592
775.931	162.40569
776.351	169.41395
776.77	161.38879
777.189	137.3237
777.607	159.40112
778.026	129.31926
778.445	122.30343
778.864	163.41282
779.282	177.4195
779.701	182.45132
780.119	137.34315
780.537	106.26373
780.955	161.40456
781.373	97.23971
781.791	104.23354
782.209	167.38001
782.627	148.38551
783.045	96.22097
783.462	119.30225
783.88	113.29076
784.297	143.3561
784.715	90.23074
785.132	111.26775
785.549	125.31049
785.966	128.31951
786.383	95.23339
786.8	113.26161
787.217	95.22507
787.633	74.18498
788.05	135.31836
788.466	152.35461
788.883	60.15356
789.299	82.19776
789.715	71.17314
790.131	115.2844
790.547	127.31477
790.963	98.24267
791.379	103.25938
791.795	100.22797
792.21	118.27443
792.626	113.26689
793.041	113.2774
793.457	130.3186
793.872	74.17447
794.287	55.13197
794.702	106.26017
795.117	85.21098
795.532	49.12344
795.947	99.23781
796.362	131.31036
796.776	118.27508
797.191	80.19592
797.605	28.06643
798.02	48.11755
798.434	71.15881
798.848	81.19944
799.262	38.09496
799.676	93.22653
800.09	64.15796
800.504	60.14623
800.918	27.06328
801.331	101.26368
801.745	51.11798
802.158	85.21221
802.572	94.22756
802.985	71.17204
803.398	75.17913
803.811	102.26113
804.224	66.16469
804.637	53.12693
805.05	61.14206
805.462	51.12599
805.875	51.13265
806.288	19.04633
806.7	74.18605
807.112	24.0563
807.525	60.14858
807.937	-3.00752
808.349	54.13582
808.761	95.23296
809.173	65.15792
809.584	63.15615
809.996	2.00496
810.408	21.05466
810.819	69.16259
811.231	59.15272
811.642	114.26972
812.053	226.52184
812.464	285.65033
812.875	244.6046
813.286	183.46182
813.697	116.26946
814.108	68.16641
814.519	57.12771
814.929	62.15845
815.34	20.04902
815.75	41.10473
816.16	52.13013
816.571	35.09147
816.981	75.17721
817.391	49.11891
817.801	31.07756
818.211	50.11981
818.62	79.18998
819.03	72.17653
819.44	96.24964
819.849	50.12648
820.259	78.19941
820.668	33.08173
821.077	5.01256
821.486	40.09698
821.895	52.129
822.304	57.15129
822.713	32.07627
823.122	42.10537
823.531	21.05029
823.939	32.07854
824.348	69.16788
824.756	66.16546
825.164	38.09619
825.573	35.08836
825.981	49.12203
826.389	36.091
826.797	69.17283
827.205	28.06484
827.612	67.16545
828.02	-46.11048
828.428	64.1631
828.835	63.16588
829.243	73.17395
829.65	26.06514
830.057	53.12905
830.464	42.10286
830.871	46.11069
831.278	72.17397
831.685	82.1827
832.092	59.14473
832.499	56.12296
832.905	45.11438
833.312	34.07817
833.718	75.18664
834.124	29.06685
834.531	57.14396
834.937	59.15161
835.343	25.06083
835.749	67.15665
836.155	14.03697
836.561	43.10623
836.966	43.10564
837.372	90.22807
837.777	1.00252
838.183	39.08731
838.588	52.12943
838.993	55.13422
839.399	21.05176
839.804	32.07846
840.209	7.01799
840.613	31.06951
841.018	85.21444
841.423	26.06712
841.828	54.13679
842.232	71.17572
842.637	14.03337
843.041	11.02844
843.445	60.15058
843.849	15.03746
844.253	77.18264
844.657	41.10362
845.061	31.07086
845.465	11.02683
845.869	-15.03541
846.272	-9.02221
846.676	35.08513
847.079	41.10462
847.483	36.09025
847.886	79.19171
848.289	8.02153
848.692	23.05865
849.095	35.08452
849.498	78.19717
849.901	43.09908
850.304	28.06737
850.707	18.04624
851.109	89.22413
851.512	3.00745
851.914	-6.0153
852.316	23.05856
852.718	-19.04971
853.121	23.05676
853.523	11.02597
853.925	-18.04756
854.326	27.0679
854.728	32.08267
855.13	10.026
855.531	37.08881
855.933	57.13697
856.334	1.00252
856.736	-11.02501
857.137	26.06087
857.538	14.03548
857.939	-15.03756
858.34	71.17269
858.741	-5.01321
859.142	-2.00486
859.542	43.11371
859.943	5.01255
860.343	-4.01002
860.744	47.11496
861.144	30.07358
861.544	-20.04878
861.945	64.16293
862.345	16.03945
862.745	26.065
863.145	71.16938
863.544	17.04327
863.944	32.07601
864.344	44.10959
864.743	103.25351
865.143	32.08256
865.542	28.06535
865.941	30.07464
866.34	29.06987
866.74	30.08086
867.139	-14.03398
867.537	41.10476
867.936	54.13008
868.335	34.08686
868.734	23.05912
869.132	45.10484
869.531	28.06811
869.929	-18.04166
870.327	31.07469
870.726	37.09261
871.124	73.17014
871.522	43.1098
871.92	75.18439
872.318	43.10541
872.715	87.21421
873.113	31.07591
873.511	47.1173
873.908	-19.0486
874.306	24.06004
874.703	24.06041
875.1	72.18368
875.497	16.03866
875.894	7.01731
876.291	52.12773
876.688	10.026
877.085	40.09629
877.482	45.11288
877.878	34.08218
878.275	13.03328
878.671	37.08276
879.068	26.06313
879.464	-12.02938
879.86	41.09725
880.256	36.08918
880.652	31.07918
881.048	31.07717
881.444	58.13802
881.84	29.07405
882.236	46.11586
882.631	28.06908
883.027	31.07543
883.422	17.04376
883.817	-39.09965
884.213	25.06449
884.608	26.0641
885.003	27.06545
885.398	30.07543
885.793	53.13309
886.188	2.00502
886.582	63.16138
886.977	96.22608
887.371	46.11653
887.766	5.01255
888.16	74.18405
888.554	60.14825
888.949	81.20245
889.343	68.16573
889.737	16.0429
890.131	21.053
890.525	49.12543
890.918	32.08086
891.312	40.09599
891.706	47.12346
892.099	60.15253
892.492	49.10589
892.886	30.07374
893.279	45.11482
893.672	21.05377
894.065	53.13275
894.458	25.06321
894.851	50.12263
895.244	28.07184
895.637	61.14675
896.029	-20.04958
896.422	47.115
896.814	15.03756
897.206	5.01202
897.599	64.15802
897.991	14.03411
898.383	-7.01674
898.775	8.01823
899.167	-15.03546
899.559	26.06614
899.951	60.1413
900.342	60.15242
900.734	-18.04524
901.125	57.14947
901.517	4.00991
901.908	51.12237
902.299	19.04675
902.69	20.0475
903.082	47.11397
903.473	-30.07298
903.863	15.03853
904.254	21.04906
904.645	56.13923
905.036	-13.03187
905.426	60.13722
905.817	53.13006
906.207	11.02642
906.597	-30.07131
906.987	42.10907
907.378	33.08376
907.768	52.13749
908.158	35.08564
908.547	3.00782
908.937	34.08753
909.327	9.02204
909.717	58.14713
910.106	2.00485
910.495	67.16685
910.885	36.09145
911.274	25.0628
911.663	63.15962
912.052	58.14299
912.441	58.14734
912.83	73.16692
913.219	45.11792
913.608	46.11282
913.997	-8.02027
914.385	49.11717
914.774	16.03923
915.162	-39.09457
915.55	84.20205
915.939	-5.01275
916.327	50.12485
916.715	28.07166
917.103	73.17901
917.491	54.13357
917.878	18.04454
918.266	27.07032
918.654	0
919.041	9.02366
919.429	44.10402
919.816	35.08899
920.203	-11.02699
920.591	31.07717
920.978	22.05418
921.365	50.13123
921.752	32.07659
922.139	31.06762
922.525	-12.02917
922.912	38.09293
923.299	8.02004
923.685	-3.0079
924.072	19.04411
924.458	32.07956
924.844	28.06959
925.231	-2.0047
925.617	-23.05927
926.003	64.16322
926.389	27.06841
926.774	65.16434
927.16	52.12914
927.546	-6.01547
927.931	53.13223
928.317	33.07631
928.702	42.09957
929.088	-16.03834
929.473	21.05372
929.858	-46.11324
930.243	-28.06822
930.628	-10.02461
931.013	8.01998
931.398	37.08535
931.783	19.0503
932.167	-20.04954
932.552	39.09793
932.937	32.0797
933.321	-8.02029
933.705	-23.05875
934.09	66.16636
934.474	45.10703
934.858	12.03133
935.242	19.04432
935.626	-1.00258
936.009	8.02143
936.393	12.03074
936.777	-6.01552
937.16	18.0471
937.544	58.13649
937.927	73.18449
938.311	19.04666
938.694	38.10071
939.077	22.05296
939.46	28.06906
939.843	23.0483
940.226	17.04387
940.609	-34.07939
940.991	28.07156
941.374	-9.02224
941.757	40.09891
942.139	-14.03186
942.522	49.11587
942.904	36.08679
943.286	37.09424
943.668	25.06505
944.05	1.00249
944.432	27.06692
944.814	9.02234
945.196	-19.0469
945.578	22.05258
945.959	9.02127
946.341	65.15916
946.722	49.11506
947.104	35.08391
947.485	-12.02827
947.866	30.07586
948.247	15.03809
948.628	54.13166
949.009	31.07966
949.39	12.03008
949.771	19.04448
950.152	0
950.532	4.00992
950.913	12.02916
951.293	-5.01363
951.674	31.07526
952.054	-20.0502
952.434	37.09207
952.814	6.0144
953.194	48.12568
953.574	46.11341
953.954	20.04778
954.334	2.00503
954.714	-46.11412
955.093	78.19081
955.473	23.0578
955.853	36.09342
956.232	43.11799
956.611	54.12944
956.99	-4.01015
957.37	31.07927
957.749	44.10511
958.128	-12.03057
958.506	22.05735
958.885	9.02288
959.264	-19.04716
959.643	-19.04385
960.021	-9.02254
960.4	3.00687
960.778	82.20082
961.156	8.02021
961.535	22.05157
961.913	69.16088
962.291	-20.05194
962.669	22.05601
963.047	30.07683
963.424	19.04875
963.802	30.07404
964.18	42.10643
964.557	48.11062
964.935	50.11848
965.312	43.11211
965.69	42.10533
966.067	44.10728
966.444	50.12322
966.821	28.07246
967.198	86.20725
967.575	60.14727
967.952	31.07333
968.329	36.08784
968.705	67.14318
969.082	17.04385
969.458	-30.07306
969.835	22.05384
970.211	14.03616
970.587	32.07994
970.963	35.09003
971.339	10.02629
971.715	28.0702
972.091	20.04953
972.467	33.08257
972.843	33.08215
973.219	44.10579
973.594	5.01318
973.97	77.18236
974.345	-15.03635
974.721	35.085
975.096	-8.01957
975.471	23.05485
975.846	56.13439
976.221	22.05615
976.596	36.08653
976.971	36.08911
977.346	20.04684
977.72	15.03845
978.095	12.03122
978.469	28.06712
978.844	27.06817
979.218	-29.07056
979.593	15.03618
979.967	64.15552
980.341	81.18536
980.715	10.02538
981.089	1.00253
981.463	-2.00464
981.837	-9.02223
982.21	47.10946
982.584	29.07032
982.957	5.01259
983.331	0
983.704	-10.02484
984.078	18.04462
984.451	65.16193
984.824	26.0636
985.197	22.05372
985.57	67.16752
985.943	61.15036
986.316	43.1058
986.688	35.08465
987.061	21.0495
987.434	3.00788
987.806	39.09479
988.179	39.09222
988.551	48.12181
988.923	-3.00746
989.295	61.15213
989.667	-10.02416
990.039	5.01246
990.411	30.06933
990.783	72.16507
991.155	-10.0243
991.527	68.1669
991.898	36.08993
992.27	26.0646
992.641	59.14778
993.012	76.17794
993.384	16.03841
993.755	-3.00772
994.126	50.12027
994.497	12.02966
994.868	11.02547
995.239	7.0171
995.61	15.03798
995.98	16.03911
996.351	39.09677
996.722	-22.05175
997.092	-8.01915
997.462	0
997.833	56.1326
998.203	20.04876
998.573	5.01255
998.943	34.07998
999.313	36.08649
999.683	14.03383
1000.053	32.07389
1000.423	-3.00736
1000.792	59.15266
1001.162	47.11572
1001.531	-17.04243
1001.901	35.08748
1002.27	-12.02717
1002.639	11.0283
1003.009	36.08584
1003.378	22.05652
1003.747	-3.00716
1004.116	-12.02905
1004.485	29.06958
1004.853	6.01532
1005.222	45.11357
1005.591	18.043
1005.959	-15.03424
1006.328	-2.00455
1006.696	12.02915
1007.064	54.13572
1007.433	26.06525
1007.801	62.15184
1008.169	-6.0153
1008.537	48.10633
1008.905	26.06085
1009.273	39.09652
1009.64	-8.01929
1010.008	54.1286
1010.375	59.14302
1010.743	76.17459
1011.11	9.02146
1011.478	20.04976
1011.845	63.14776
1012.212	2.00457
1012.579	-10.02482
1012.946	21.05025
1013.313	76.17996
1013.68	12.02718
1014.047	-42.10183
1014.414	18.04277
1014.78	24.05991
1015.147	46.11132
1015.513	6.01457
1015.88	52.1329
1016.246	52.12829
1016.612	-17.03944
1016.978	16.03945
1017.344	23.05711
1017.71	67.16284
1018.076	41.09684
1018.442	30.07742
1018.808	0
1019.174	-1.00253
1019.539	71.16274
1019.905	32.07571
1020.27	26.06443
1020.636	53.12697
1021.001	39.09354
1021.366	-9.02185
1021.731	49.126
1022.096	5.01271
1022.461	26.0618
1022.826	13.03111
1023.191	19.05009
1023.556	11.02597
1023.92	66.16176
1024.285	1.00246
1024.649	48.11764
1025.014	26.06467
1025.378	-13.03304
1025.742	27.06731
1026.107	49.11083
1026.471	57.13285
1026.835	0
1027.199	-19.04632
1027.562	3.00704
1027.926	61.14881
1028.29	38.09633
1028.654	8.01855
1029.017	25.06171
1029.381	4.00964
1029.744	6.01541
1030.107	39.09244
1030.471	24.05773
1030.834	51.11596
1031.197	44.10608
1031.56	40.09453
1031.923	42.10869
1032.286	64.14984
1032.648	94.22283
1033.011	36.08283
1033.374	25.05902
1033.736	4.01059
1034.099	14.03434
1034.461	7.01781
1034.823	-2.00502
1035.185	26.0657
1035.548	23.05623
1035.91	47.1126
1036.272	30.06853
1036.634	68.16573
1036.995	31.07311
1037.357	-24.05917
1037.719	39.095
1038.08	52.12337
1038.442	34.08091
1038.803	58.13898
1039.165	13.03301
1039.526	-14.03422
1039.887	-34.08262
1040.248	-40.10014
1040.609	35.08669
1040.97	29.07111
1041.331	57.14406
1041.692	-22.05205
1042.053	3.00689
1042.413	17.03986
1042.774	47.11431
1043.134	83.19626
1043.495	52.1306
1043.855	49.11882
1044.215	28.06974
1044.576	-18.04357
1044.936	46.1055
1045.296	80.19846
1045.656	37.09097
1046.016	30.07265
1046.375	22.05362
1046.735	-26.05982
1047.095	39.09144
1047.454	65.13722
1047.814	32.07715
1048.173	64.15242
1048.533	13.02999
1048.892	-33.08041
1049.251	67.16758
1049.61	7.01736
1049.969	48.11313
1050.328	41.08902
1050.687	66.16001
1051.046	2.00491
1051.405	20.05
1051.763	-7.01627
1052.122	-13.03277
1052.48	2.00495
1052.839	-4.0095
1053.197	-15.03573
1053.555	64.14543
1053.914	54.1319
1054.272	99.23699
1054.63	-3.0074
1054.988	-32.07717
1055.345	-2.00435
1055.703	59.14167
1056.061	-21.05466
1056.419	9.02345
1056.776	22.0536
1057.134	27.06276
1057.491	35.08783
1057.848	54.13426
1058.206	33.07782
1058.563	10.02222
1058.92	24.05557
1059.277	49.12083
1059.634	45.10591
1059.991	75.17872
1060.348	-4.00913
1060.704	28.06697
1061.061	67.15505
1061.418	32.07782
1061.774	15.03725
1062.131	-18.0481
1062.487	25.0587
1062.843	27.06756
1063.199	26.0649
1063.555	33.07667
1063.911	15.0381
1064.267	87.17987
1064.623	3.00735
1064.979	76.17905
1065.335	11.02647
1065.691	0
1066.046	16.03541
1066.402	29.06612
1066.757	35.08852
1067.112	53.12992
1067.468	19.0451
1067.823	8.01937
1068.178	11.02678
1068.533	51.12353
1068.888	55.13121
1069.243	16.03971
1069.598	15.03666
1069.952	-28.06401
1070.307	18.04478
1070.662	-8.01919
1071.016	2.00452
1071.371	13.02977
1071.725	26.06244
1072.079	4.0097
1072.434	1.00245
1072.788	40.09537
1073.142	75.18351
1073.496	37.08793
1073.85	45.10439
1074.203	25.0609
1074.557	46.12232
1074.911	67.15929
1075.265	32.0746
1075.618	24.05884
1075.971	64.15172
1076.325	31.07899
1076.678	-25.05799
1077.031	-19.04357
1077.385	37.08167
1077.738	-4.00912
1078.091	-7.01609
1078.444	67.15493
1078.796	4.00989
1079.149	34.08475
1079.502	20.04749
1079.855	-9.02122
1080.207	29.07167
1080.56	-24.06278
1080.912	68.16486
1081.264	28.06766
1081.617	23.0563
1081.969	8.02032
1082.321	13.03194
1082.673	-42.09756
1083.025	5.01196
1083.377	45.09662
1083.728	68.15796
1084.08	48.11977
1084.432	25.06053
1084.783	8.01888
1085.135	40.10035
1085.486	-15.03474
1085.838	1.00248
1086.189	37.08996
1086.54	23.05517
1086.891	10.02545
1087.242	23.05623
1087.593	14.03429
1087.944	3.00685
1088.295	54.12256
1088.646	54.13068
1088.996	27.06528
1089.347	-8.01982
1089.698	-4.00954
1090.048	31.08071
1090.398	-13.0305
1090.749	42.10056
1091.099	-17.04323
1091.449	30.07494
1091.799	5.01261
1092.149	-15.03699
1092.499	25.06121
1092.849	51.12949
1093.199	45.1128
1093.548	-18.04377
1093.898	13.03271
1094.248	42.10798
1094.597	22.05638
1094.947	38.10148
1095.296	-4.00997
1095.645	45.11704
1095.994	19.04587
1096.343	31.07821
1096.692	-6.0159
1097.041	24.06519
1097.39	11.02776
1097.739	30.07817
1098.088	68.18148
1098.437	8.02115
1098.785	40.10792
1099.134	47.12475
1099.482	25.06897
1099.83	57.14947
1100.179	-7.01842
1100.527	31.08256
1100.875	8.02128
1101.223	34.09044
1101.571	5.0139
1101.919	-26.06875
1102.267	30.08464
1102.615	0
1102.962	15.04827
1103.31	10.03211
1103.658	11.03543
