Data from N2 R5 sample 7_Subt2__0__13-54-37-709.txt Node

Date: Fri Aug 29 13:54:37 PDT 2025
User: uwsun
Spectrometer: HDX01956
Trigger mode: 0
Integration Time (sec): 5.000000E-1
Scans to average: 1
Nonlinearity correction enabled: true
Boxcar width: 0
Storing dark spectrum: false
XAxis mode: Wavelengths
Number of Pixels in Spectrum: 2068
>>>>>Begin Spectral Data<<<<<
194.03	311.83055
194.578	315.95654
195.127	328.97845
195.676	333.99596
196.225	360.89683
196.773	371.95609
197.321	540.31584
197.87	757.60781
198.418	734.54301
198.966	686.46731
199.513	649.3231
200.061	648.34708
200.609	792.70372
201.156	670.16427
201.704	675.38553
202.251	696.5118
202.798	691.46942
203.345	767.52223
203.892	775.55958
204.438	829.55372
204.985	739.38135
205.532	757.60851
206.078	819.58327
206.624	771.50101
207.17	768.40842
207.716	721.40086
208.262	781.17667
208.808	714.40339
209.354	772.4855
209.899	821.65529
210.445	764.50675
210.99	796.50314
211.535	793.4686
212.08	782.43271
212.625	782.56395
213.17	772.57099
213.715	720.2527
214.259	771.42068
214.804	829.61945
215.348	846.49734
215.892	834.5658
216.436	753.39091
216.98	874.48136
217.524	751.41144
218.068	761.54402
218.612	800.61106
219.155	753.41034
219.698	765.4519
220.242	732.48545
220.785	690.3071
221.328	723.46549
221.871	731.51614
222.414	744.50502
222.956	628.2428
223.499	662.20879
224.041	692.31408
224.583	710.23265
225.126	650.16349
225.668	636.27452
226.21	647.3447
226.751	607.08105
227.293	738.35058
227.835	662.32426
228.376	710.32737
228.918	681.41923
229.459	654.33723
230	674.30722
230.541	705.31118
231.082	682.34732
231.622	710.31886
232.163	678.3369
232.704	719.44211
233.244	658.34056
233.784	707.41474
234.324	597.06375
234.864	658.20874
235.404	659.28447
235.944	698.34225
236.484	731.48105
237.023	682.30324
237.563	644.2091
238.102	704.34081
238.641	726.48934
239.18	669.26014
239.719	722.46913
240.258	722.29267
240.797	724.38565
241.335	746.46707
241.874	665.00133
242.412	713.37542
242.95	720.37067
243.488	659.21575
244.026	665.23358
244.564	677.10181
245.102	743.31089
245.64	733.41947
246.177	670.20553
246.715	727.40113
247.252	717.31438
247.789	766.10333
248.326	711.35908
248.863	732.2555
249.4	741.32914
249.936	744.18172
250.473	713.32017
251.009	736.32456
251.546	737.26984
252.082	746.27547
252.618	739.28549
253.154	740.40608
253.69	698.24575
254.226	723.37072
254.761	702.24645
255.297	707.21349
255.832	680.28749
256.367	762.40862
256.903	730.24938
257.438	768.4162
257.972	767.32377
258.507	712.27865
259.042	749.25902
259.576	739.22055
260.111	794.42479
260.645	757.26696
261.179	744.35679
261.713	678.18941
262.247	760.36714
262.781	725.16761
263.315	740.42793
263.849	780.52971
264.382	795.41234
264.915	784.41546
265.449	715.36476
265.982	853.47182
266.515	769.46518
267.048	702.1487
267.58	796.33133
268.113	733.21597
268.646	810.54605
269.178	775.31986
269.71	822.35469
270.243	804.40586
270.775	795.57934
271.307	779.46344
271.838	891.60622
272.37	861.61619
272.902	840.4451
273.433	792.31016
273.965	814.52444
274.496	783.52224
275.027	770.48804
275.558	837.54716
276.089	768.453
276.62	845.66243
277.15	821.56367
277.681	821.33919
278.211	826.5576
278.741	762.26874
279.272	781.35301
279.802	775.50594
280.332	816.45536
280.861	824.50906
281.391	861.44549
281.921	779.44836
282.45	846.61643
282.98	861.72174
283.509	869.44151
284.038	851.44032
284.567	861.50776
285.096	848.54452
285.625	853.43124
286.153	818.43715
286.682	827.4064
287.21	833.5045
287.739	828.46464
288.267	872.56589
288.795	902.79676
289.323	788.37781
289.851	880.51733
290.378	896.45583
290.906	845.51458
291.433	821.54627
291.961	846.39822
292.488	824.54547
293.015	880.50686
293.542	933.72584
294.069	886.59841
294.596	947.71002
295.122	933.60428
295.649	920.4415
296.175	939.65074
296.702	946.65918
297.228	972.69868
297.754	910.45136
298.28	906.4606
298.806	955.63262
299.332	929.43086
299.857	917.45799
300.383	962.76412
300.908	912.57516
301.433	953.6379
301.958	997.60653
302.483	991.73969
303.008	1023.7773
303.533	992.85846
304.058	982.62202
304.582	991.61123
305.107	942.76202
305.631	1101.67832
306.155	1032.62247
306.679	996.58457
307.203	991.56715
307.727	1060.69647
308.251	1038.76313
308.775	928.5173
309.298	983.60086
309.822	1052.81966
310.345	1035.6483
310.868	1093.72528
311.391	1116.83109
311.914	1081.81327
312.437	1089.62368
312.96	1146.73031
313.482	1059.65028
314.005	1108.84007
314.527	1163.01167
315.049	1156.91908
315.571	1127.54393
316.093	1203.88901
316.615	1160.76619
317.137	1254.60424
317.659	1298.93358
318.18	1165.78067
318.702	1196.69824
319.223	1164.39466
319.744	1193.59402
320.265	1211.78079
320.786	1282.88775
321.307	1276.90741
321.828	1316.68915
322.348	1331.78866
322.869	1295.74317
323.389	1300.99347
323.909	1378.74335
324.43	1416.92737
324.95	1375.70303
325.47	1364.87142
325.989	1427.79075
326.509	1391.56403
327.029	1430.63862
327.548	1491.6522
328.067	1428.79885
328.587	1496.96418
329.106	1465.65515
329.625	1471.14111
330.144	1526.70158
330.662	1541.69975
331.181	1590.75581
331.7	1604.75269
332.218	1632.52112
332.736	1717.77258
333.255	1590.68213
333.773	1709.77117
334.291	1710.96739
334.808	1726.55469
335.326	1778.60075
335.844	1770.62909
336.361	1777.90195
336.879	1775.61445
337.396	1820.72311
337.913	1952.57286
338.43	1915.48336
338.947	1901.65214
339.464	1847.28738
339.981	1985.59422
340.497	1972.75613
341.014	1926.66201
341.53	2005.37759
342.046	2023.65231
342.562	2093.73833
343.078	2036.48553
343.594	2120.52623
344.11	2154.49075
344.626	2132.67543
345.141	2151.29342
345.657	2265.28512
346.172	2196.45996
346.687	2207.25722
347.202	2233.15222
347.717	2273.35314
348.232	2323.51033
348.747	2253.18024
349.261	2194.94381
349.776	2300.20973
350.29	2352.30395
350.805	2399.37838
351.319	2408.10793
351.833	2407.94249
352.347	2478.06256
352.861	2474.0019
353.374	2581.96357
353.888	2498.12783
354.401	2552.89158
354.915	2471.75745
355.428	2606.09692
355.941	2693.78565
356.454	2769.68645
356.967	2659.87268
357.48	2704.74214
357.993	2716.96646
358.505	2700.89067
359.018	2750.86837
359.53	2868.70259
360.042	2851.44779
360.554	2807.76182
361.066	2855.70866
361.578	2832.33532
362.09	2877.6036
362.602	2895.28062
363.113	2919.41998
363.625	2908.29283
364.136	2987.18114
364.647	2951.23202
365.158	3075.24552
365.669	3129.30727
366.18	3112.24008
366.691	3211.94717
367.201	3140.21649
367.712	3200.96724
368.222	3168.9776
368.733	3246.71021
369.243	3367.66018
369.753	3440.75946
370.263	3488.80085
370.773	3436.90534
371.282	3541.64494
371.792	3403.46259
372.301	3679.47428
372.811	3716.68907
373.32	3689.02985
373.829	3715.18981
374.338	3943.91888
374.847	3976.90189
375.356	4118.85167
375.865	4287.60247
376.373	4630.6229
376.882	4764.72539
377.39	4777.65437
377.898	4769.62673
378.407	5012.77452
378.915	5294.08057
379.423	5466.20527
379.93	5769.81703
380.438	5875.11739
380.946	6207.19123
381.453	6424.07507
381.96	6586.29784
382.468	6989.1244
382.975	7643.08516
383.482	7948.39467
383.989	7974.62772
384.495	8197.74571
385.002	8489.7974
385.509	9051.33335
386.015	9610.41298
386.521	10277.21574
387.028	10632.61665
387.534	11018.62907
388.04	11344.48991
388.546	11426.98397
389.051	11816.41466
389.557	12812.01222
390.063	14307.03727
390.568	14856.21817
391.073	14800.90765
391.578	15774.9486
392.084	15602.94302
392.589	15803.02966
393.093	16709.10854
393.598	18605.64579
394.103	20429.78844
394.607	22520.63417
395.112	24304.77523
395.616	25591.60588
396.12	27610.00082
396.624	30251.07531
397.128	32929.66342
397.632	36957.27599
398.136	38069.70035
398.639	35784.45556
399.143	32394.97882
399.646	28888.45294
400.15	25083.82847
400.653	20124.16724
401.156	13866.23708
401.659	5169.95759
402.162	1054.15589
402.664	0
403.167	0
403.67	0
404.172	0
404.674	0
405.176	0
405.678	0
406.18	0
406.682	0
407.184	0
407.686	0
408.187	0
408.688	0
409.19	0
409.691	0
410.192	0
410.693	0
411.194	435.30976
411.694	4082.94878
412.195	8864.71461
412.696	12089.80453
413.196	12760.96929
413.696	12863.67595
414.196	13703.56671
414.696	17261.84252
415.196	21764.24417
415.696	29583.19008
416.196	36460.31858
416.695	40057.39798
417.195	41392.74103
417.694	42311.08144
418.194	43642.69596
418.693	41017.07179
419.192	39711.41438
419.691	38967.31956
420.19	38492.43154
420.688	37354.0513
421.187	36572.46652
421.685	34173.47689
422.184	31518.17449
422.682	27328.73249
423.18	22531.82693
423.678	19881.99456
424.176	18210.37919
424.674	16975.57395
425.172	16651.31122
425.669	15857.25686
426.167	14995.08286
426.664	13629.28872
427.161	12428.66239
427.659	11509.00477
428.156	10447.45596
428.652	9856.03422
429.149	9475.27297
429.646	9229.02922
430.143	8682.13917
430.639	8163.27648
431.135	7759.80376
431.632	7234.64978
432.128	6765.2339
432.624	6257.53048
433.12	5977.49148
433.616	5746.99485
434.111	5528.41949
434.607	5298.0117
435.103	5355.11551
435.598	5341.05887
436.093	5070.71997
436.588	4745.63349
437.083	4618.65615
437.578	4435.73122
438.073	4037.96296
438.568	4041.10554
439.062	3931.8856
439.557	3858.22789
440.051	3531.29996
440.546	3429.39055
441.04	3431.58759
441.534	3333.89958
442.028	3189.87786
442.522	3156.89953
443.015	3143.68242
443.509	3113.09618
444.002	2959.18842
444.496	3010.85105
444.989	2942.26855
445.482	2790.41356
445.975	2790.08751
446.468	2779.9958
446.961	2710.0501
447.454	2786.20789
447.947	2707.36508
448.439	2600.58963
448.931	2490.36162
449.424	2547.79784
449.916	2493.68756
450.408	2467.4403
450.9	2357.7318
451.392	2300.91902
451.884	2287.67819
452.375	2186.91123
452.867	2314.69257
453.358	2206.67166
453.849	2153.55104
454.341	2146.72826
454.832	2124.62051
455.323	2075.0016
455.814	2115.86516
456.304	2083.8954
456.795	2088.88713
457.285	2003.89426
457.776	2151.96867
458.266	1939.0618
458.756	1918.15383
459.247	1787.09676
459.737	1779.11273
460.226	1782.97963
460.716	1763.17375
461.206	1704.21728
461.695	1733.38463
462.185	1657.20291
462.674	1693.16925
463.163	1654.07703
463.653	1602.95442
464.142	1499.27463
464.63	1495.35456
465.119	1448.18397
465.608	1495.2042
466.096	1500.1156
466.585	1546.29317
467.073	1523.3969
467.561	1388.36617
468.05	1481.33063
468.538	1387.45145
469.026	1400.39688
469.513	1358.0885
470.001	1352.25514
470.489	1255.31391
470.976	1339.32852
471.463	1281.50415
471.951	1218.49608
472.438	1119.27216
472.925	1107.2555
473.412	1175.46464
473.899	1117.27752
474.385	1112.42663
474.872	1089.29016
475.359	1025.34789
475.845	949.00331
476.331	1043.17853
476.817	1024.38865
477.303	1038.30361
477.789	866.22326
478.275	937.3505
478.761	925.30334
479.247	921.18182
479.732	860.29116
480.218	868.40465
480.703	905.36514
481.188	830.04503
481.673	792.11189
482.158	750.9493
482.643	855.39249
483.128	752.06961
483.612	766.13776
484.097	759.21909
484.581	713.08675
485.066	685.108
485.55	603.87464
486.034	619.88287
486.518	595.94819
487.002	622.03905
487.486	626.05091
487.969	600.01649
488.453	609.08854
488.936	546.85883
489.42	578.88874
489.903	582.05706
490.386	575.60989
490.869	532.82469
491.352	537.96756
491.835	568.82098
492.318	479.7855
492.8	501.7396
493.283	494.93548
493.765	465.85583
494.247	516.89571
494.73	502.81108
495.212	438.81118
495.694	400.70754
496.175	411.73364
496.657	466.83679
497.139	435.55389
497.62	314.57831
498.102	375.72313
498.583	404.7901
499.064	362.61864
499.545	370.65412
500.026	362.62696
500.507	356.64646
500.988	414.80391
501.469	293.58728
501.949	373.73103
502.43	296.55776
502.91	290.46976
503.39	354.71036
503.87	308.57524
504.35	369.69174
504.83	304.52705
505.31	290.56607
505.79	257.49796
506.269	293.5536
506.749	203.37922
507.228	277.52413
507.707	299.52954
508.187	305.59238
508.666	283.56382
509.145	213.40875
509.623	240.46179
510.102	221.44378
510.581	270.53755
511.059	236.48802
511.538	256.55143
512.016	247.48729
512.494	258.5182
512.972	223.44201
513.45	197.37586
513.928	193.39096
514.406	178.35587
514.884	227.48781
515.361	237.47064
515.839	240.45045
516.316	207.41644
516.793	234.49776
517.27	237.48163
517.747	200.43285
518.224	217.42045
518.701	228.42202
519.178	190.39589
519.654	225.45077
520.131	156.3291
520.607	220.46167
521.083	173.33408
521.56	214.42486
522.036	218.40088
522.512	201.42245
522.987	153.30823
523.463	170.34382
523.939	267.54903
524.414	226.4403
524.89	175.35417
525.365	175.33648
525.84	155.31269
526.315	170.34934
526.79	161.31001
527.265	204.39347
527.74	176.36656
528.215	167.3369
528.689	153.28936
529.164	158.29391
529.638	169.37537
530.112	166.33419
530.587	139.25297
531.061	115.24
531.534	202.41921
532.008	144.29831
532.482	209.40864
532.956	134.29559
533.429	157.32866
533.903	203.38279
534.376	200.37593
534.849	159.31796
535.322	157.32007
535.795	168.35488
536.268	147.30582
536.741	122.25602
537.213	160.31973
537.686	108.22944
538.158	135.26044
538.631	196.41112
539.103	96.18739
539.575	141.25452
540.047	159.30144
540.519	216.44286
540.991	138.29547
541.463	179.37455
541.934	143.28384
542.406	127.26339
542.877	161.31359
543.348	171.35813
543.82	166.35404
544.291	164.33244
544.762	193.39185
545.233	179.38682
545.703	180.34
546.174	218.43179
546.645	148.30344
547.115	209.42899
547.585	209.40902
548.056	192.39223
548.526	242.47596
548.996	269.54241
549.466	319.64856
549.935	241.47523
550.405	271.48846
550.875	296.57723
551.344	334.65691
551.814	340.63627
552.283	287.51412
552.752	249.4783
553.221	310.5426
553.69	337.60308
554.159	284.57148
554.628	328.58803
555.096	296.61648
555.565	368.6567
556.033	341.65788
556.502	312.62608
556.97	281.51817
557.438	241.48417
557.906	252.50895
558.374	244.47673
558.842	202.41622
559.31	227.43604
559.777	137.28959
560.245	236.47883
560.712	185.37407
561.18	143.27681
561.647	217.41905
562.114	177.35149
562.581	182.39372
563.048	259.51504
563.514	157.3387
563.981	219.43652
564.448	225.43804
564.914	256.51608
565.381	199.39757
565.847	244.49687
566.313	210.42822
566.779	221.43476
567.245	244.49597
567.711	273.5644
568.176	252.48792
568.642	263.57028
569.108	277.58705
569.573	341.68507
570.038	389.68252
570.504	311.59164
570.969	326.69858
571.434	339.62483
571.899	344.69317
572.363	384.73177
572.828	420.80077
573.293	476.8939
573.757	446.84457
574.222	424.77819
574.686	435.79899
575.15	439.86079
575.614	445.83918
576.078	470.90221
576.542	507.93643
577.006	521.94641
577.469	525.06168
577.933	433.79492
578.396	510.98845
578.86	483.93276
579.323	482.93864
579.786	495.86493
580.249	474.8805
580.712	439.89293
581.175	492.99594
581.637	451.86177
582.1	445.80873
582.563	487.85633
583.025	456.91377
583.487	452.74389
583.95	424.75001
584.412	485.83094
584.874	463.92973
585.336	451.88516
585.797	376.68209
586.259	444.87368
586.721	406.79702
587.182	516.99291
587.643	472.88508
588.105	406.80756
588.566	406.71479
589.027	360.73342
589.488	385.74063
589.949	431.87506
590.41	374.60588
590.87	432.82606
591.331	445.79887
591.791	364.71052
592.252	381.73153
592.712	366.74801
593.172	404.76241
593.632	395.73025
594.092	371.69995
594.552	364.66267
595.011	340.66273
595.471	374.70752
595.931	344.65235
596.39	356.72395
596.849	376.74057
597.308	420.7627
597.768	360.77942
598.227	372.76165
598.685	401.77885
599.144	307.61761
599.603	372.74821
600.062	365.64444
600.52	368.69208
600.978	397.79426
601.437	487.9202
601.895	440.77183
602.353	432.80007
602.811	435.80301
603.269	407.81954
603.727	413.83009
604.184	386.72951
604.642	453.92392
605.099	471.90304
605.557	463.93874
606.014	425.75746
606.471	460.94949
606.928	414.73193
607.385	521.02468
607.842	653.17158
608.299	650.19641
608.755	604.16286
609.212	587.03509
609.668	557.98204
610.125	676.28801
610.581	673.27328
611.037	628.15121
611.493	563.08716
611.949	438.88298
612.405	443.73414
612.861	522.01773
613.316	477.94856
613.772	518.98142
614.227	492.96404
614.683	521.92094
615.138	537.0314
615.593	504.97168
616.048	528.00018
616.503	566.1492
616.958	479.00744
617.412	483.95871
617.867	477.8788
618.321	538.91809
618.776	464.86707
619.23	437.87388
619.684	500.95101
620.138	534.0392
620.592	393.82668
621.046	478.95609
621.5	402.84616
621.954	461.88984
622.407	414.79854
622.861	430.9031
623.314	424.83708
623.768	410.83034
624.221	348.60303
624.674	347.70677
625.127	368.75926
625.58	392.78843
626.033	434.83752
626.485	321.68594
626.938	354.75038
627.39	351.72793
627.843	353.72913
628.295	338.70082
628.747	348.74121
629.199	333.68103
629.651	283.58508
630.103	273.57124
630.555	302.58165
631.006	276.59349
631.458	328.70165
631.909	303.63878
632.361	286.61314
632.812	280.59457
633.263	303.59945
633.714	254.50616
634.165	306.68287
634.616	196.43904
635.067	270.55833
635.518	264.58696
635.968	281.5252
636.419	277.56112
636.869	236.52776
637.319	267.57599
637.769	216.45607
638.219	274.61299
638.669	189.42833
639.119	246.5653
639.569	215.49121
640.019	203.44732
640.468	218.46272
640.918	262.59483
641.367	236.5018
641.816	257.54276
642.265	236.51774
642.714	202.4467
643.163	231.50496
643.612	190.4354
644.061	157.32095
644.51	194.42345
644.958	230.48116
645.406	195.44677
645.855	172.40631
646.303	209.46864
646.751	159.34978
647.199	186.40754
647.647	183.40562
648.095	180.39789
648.543	233.45794
648.99	163.37661
649.438	227.51151
649.885	215.51034
650.333	218.40714
650.78	164.38366
651.227	179.42063
651.674	178.39281
652.121	194.45526
652.568	159.3748
653.015	214.52076
653.461	201.4607
653.908	193.43508
654.354	206.47491
654.801	138.31625
655.247	147.31658
655.693	173.43737
656.139	209.48365
656.585	171.39917
657.031	113.2589
657.477	114.24314
657.922	177.3964
658.368	171.41122
658.813	158.36048
659.259	106.25099
659.704	105.24183
660.149	149.34042
660.594	150.34912
661.039	145.32474
661.484	155.36367
661.929	151.34708
662.373	151.37274
662.818	143.34832
663.262	138.32676
663.707	183.45206
664.151	147.35324
664.595	136.32314
665.039	154.37658
665.483	154.38468
665.927	194.44671
666.371	91.2095
666.814	179.41932
667.258	126.29453
667.701	171.36478
668.145	164.40148
668.588	147.35592
669.031	103.24082
669.474	134.31949
669.917	178.38886
670.36	121.29759
670.803	166.39503
671.245	116.24493
671.688	158.38061
672.13	91.20447
672.573	196.48781
673.015	162.38403
673.457	107.23361
673.899	137.32946
674.341	158.37686
674.783	95.22768
675.225	150.36475
675.666	101.24215
676.108	130.28232
676.549	153.35954
676.991	97.21518
677.432	134.2674
677.873	119.27528
678.314	95.22742
678.755	128.30986
679.196	124.28359
679.637	165.39905
680.078	134.31299
680.518	154.35716
680.959	100.24007
681.399	117.28924
681.839	108.26292
682.28	103.25398
682.72	127.2904
683.16	125.30981
683.6	130.29684
684.039	119.24967
684.479	115.28169
684.919	93.21522
685.358	129.3259
685.798	108.2821
686.237	132.31858
686.676	149.34495
687.115	112.26386
687.554	121.28734
687.993	116.25803
688.432	107.24575
688.871	117.26613
689.309	107.25615
689.748	114.24071
690.186	150.35682
690.625	90.21236
691.063	120.28776
691.501	147.36127
691.939	132.3277
692.377	104.25422
692.815	104.24939
693.253	147.35216
693.69	119.26288
694.128	83.20225
694.565	126.30053
695.003	118.29891
695.44	85.20138
695.877	118.27594
696.314	131.28322
696.751	105.24144
697.188	93.2153
697.625	161.36858
698.061	66.16001
698.498	78.19053
698.934	79.19193
699.371	93.22025
699.807	121.28667
700.243	109.26292
700.679	127.28852
701.115	148.34786
701.551	145.34074
701.987	117.26473
702.422	120.28524
702.858	88.21118
703.294	112.25532
703.729	150.36516
704.164	99.23943
704.599	146.32502
705.035	60.1364
705.47	77.18868
705.904	103.2412
706.339	134.31225
706.774	98.23097
707.209	108.25018
707.643	133.31899
708.078	95.23244
708.512	83.20849
708.946	109.26233
709.38	128.30343
709.814	115.26423
710.248	108.264
710.682	121.288
711.116	33.07996
711.549	102.26351
711.983	87.20285
712.416	173.4059
712.85	104.25988
713.283	127.30065
713.716	122.3064
714.149	138.32865
714.582	123.27717
715.015	154.38329
715.448	140.35136
715.881	156.34109
716.313	118.27713
716.746	102.24124
717.178	101.24381
717.61	156.39263
718.043	135.33545
718.475	99.24106
718.907	189.47253
719.339	63.14475
719.77	99.23564
720.202	136.34242
720.634	103.25117
721.065	162.38136
721.497	97.23874
721.928	63.15615
722.359	69.16776
722.79	97.23318
723.221	137.34352
723.652	166.42437
724.083	87.19805
724.514	100.23128
724.945	109.25704
725.375	105.24443
725.806	118.29465
726.236	153.38915
726.666	149.35123
727.096	83.20504
727.526	112.28422
727.956	88.20167
728.386	157.38385
728.816	76.19334
729.246	123.29837
729.675	81.20047
730.105	155.37896
730.534	113.26513
730.964	137.345
731.393	187.45905
731.822	154.39024
732.251	142.3583
732.68	164.38396
733.109	150.36721
733.537	121.29198
733.966	130.32179
734.395	150.34485
734.823	175.39176
735.251	102.24646
735.68	164.40728
736.108	164.41099
736.536	149.34987
736.964	151.3486
737.392	160.39691
737.82	164.39042
738.247	193.456
738.675	199.4689
739.102	146.36219
739.53	145.36645
739.957	183.46413
740.384	226.54666
740.811	164.41173
741.238	152.36837
741.665	126.29187
742.092	173.40923
742.519	148.36352
742.945	184.43617
743.372	129.31832
743.798	159.40484
744.225	179.42063
744.651	187.46262
745.077	165.4073
745.503	191.45948
745.929	169.40147
746.355	247.59981
746.781	186.45466
747.207	155.36069
747.632	188.45132
748.058	171.42195
748.483	225.50763
748.908	167.41057
749.334	199.48091
749.759	174.40577
750.184	189.44361
750.609	215.51839
751.033	241.5568
751.458	280.60882
751.883	208.50635
752.307	162.37794
752.732	187.45973
753.156	222.53678
753.58	240.55681
754.005	228.5662
754.429	238.54605
754.853	193.47045
755.277	216.50133
755.7	263.63387
756.124	219.53202
756.548	196.45707
756.971	272.64425
757.394	224.56457
757.818	236.59268
758.241	247.61036
758.664	201.49852
759.087	188.41348
759.51	200.48924
759.933	249.58305
760.356	278.69034
760.778	244.58463
761.201	293.68848
761.623	240.56847
762.046	299.68474
762.468	299.69326
762.89	288.68741
763.312	252.59896
763.734	274.63895
764.156	230.55487
764.578	235.52824
765	248.58923
765.421	208.51748
765.843	258.65744
766.264	308.71652
766.686	263.64153
767.107	232.54888
767.528	247.60632
767.949	239.59254
768.37	220.52834
768.791	261.6133
769.212	197.48557
769.632	194.44421
770.053	260.66487
770.473	224.53262
770.894	246.59996
771.314	252.5858
771.734	208.47531
772.154	250.62444
772.575	199.45337
772.994	212.47155
773.414	245.57302
773.834	179.44088
774.254	208.49895
774.673	225.53551
775.093	200.48542
775.512	166.40366
775.931	230.56888
776.351	202.49174
776.77	180.43311
777.189	192.4488
777.607	185.46453
778.026	196.4791
778.445	151.37356
778.864	190.47888
779.282	200.4719
779.701	152.379
780.119	156.38939
780.537	151.3726
780.955	197.49181
781.373	167.40738
781.791	151.33581
782.209	174.39538
782.627	153.3982
783.045	147.33491
783.462	142.35919
783.88	100.2579
784.297	139.3464
784.715	123.31351
785.132	138.33117
785.549	126.31292
785.966	116.29018
786.383	140.34108
786.8	150.34471
787.217	137.32194
787.633	99.24636
788.05	206.47907
788.466	165.38395
788.883	114.28898
789.299	120.28732
789.715	137.32996
790.131	148.36379
790.547	134.33169
790.963	119.29354
791.379	92.23214
791.795	104.2369
792.21	137.31742
792.626	118.27843
793.041	83.20489
793.457	112.27541
793.872	89.20923
794.287	37.08908
794.702	124.30334
795.117	73.18159
795.532	76.19053
795.947	134.31974
796.362	136.3219
796.776	161.37213
797.191	83.20316
797.605	42.09937
798.02	64.15627
798.434	107.23756
798.848	74.18244
799.262	61.1518
799.676	92.22414
800.09	106.25959
800.504	74.17988
800.918	87.20149
801.331	152.39335
801.745	75.17267
802.158	64.16039
802.572	94.22756
802.985	107.25751
803.398	76.18148
803.811	95.24351
804.224	59.14741
804.637	57.1364
805.05	89.20613
805.462	65.16016
805.875	23.06011
806.288	66.15953
806.7	60.15123
807.112	54.12593
807.525	84.20709
807.937	33.08221
808.349	72.18051
808.761	76.18702
809.173	47.11457
809.584	83.20496
809.996	36.08879
810.408	22.05725
810.819	29.06887
811.231	69.17829
811.642	131.30892
812.053	203.47088
812.464	295.67178
812.875	229.56899
813.286	165.41774
813.697	147.33937
814.108	103.25042
814.519	90.20028
814.929	89.22637
815.34	64.15557
815.75	59.15023
816.16	82.20409
816.571	76.19723
816.981	91.21435
817.391	71.17159
817.801	26.06511
818.211	58.13877
818.62	49.11851
819.03	66.162
819.44	114.29553
819.849	57.14401
820.259	50.12846
820.668	25.06201
821.077	13.03262
821.486	50.121
821.895	103.25314
822.304	60.15918
822.713	-1.0024
823.122	31.07793
823.531	33.07885
823.939	41.10047
824.348	49.11967
824.756	58.14562
825.164	76.19108
825.573	29.07329
825.981	96.23702
826.389	69.17339
826.797	43.10821
827.205	36.08323
827.612	56.13857
828.02	14.03324
828.428	101.25571
828.835	71.18669
829.243	76.181
829.65	65.16169
830.057	60.14591
830.464	56.13679
830.871	75.17947
831.278	49.11891
831.685	54.12101
832.092	74.18103
832.499	75.16402
832.905	40.10176
833.312	36.08273
833.718	71.17681
834.124	30.06914
834.531	65.16392
834.937	66.16939
835.343	84.20212
835.749	103.23912
836.155	36.09471
836.561	65.15993
836.966	39.09588
837.372	54.13772
837.777	25.06273
838.183	97.21455
838.588	86.21272
838.993	42.10275
839.399	31.07627
839.804	38.09306
840.209	26.06661
840.613	32.07174
841.018	66.16707
841.423	76.1945
841.828	35.08896
842.232	94.23166
842.637	58.13707
843.041	25.06449
843.445	76.19019
843.849	35.0871
844.253	44.10503
844.657	47.11866
845.061	73.16544
845.465	31.07534
845.869	39.09111
846.272	55.13412
846.676	67.16198
847.079	44.11221
847.483	57.14236
847.886	83.20127
848.289	64.17064
848.692	38.09664
849.095	33.07972
849.498	133.33289
849.901	5.01161
850.304	68.16238
850.707	46.1176
851.109	59.14938
851.512	32.07907
851.914	24.06086
852.316	24.0611
852.718	0
853.121	71.17366
853.523	31.07291
853.925	7.01842
854.326	1.00253
854.728	41.10576
855.13	-2.00521
855.531	36.08643
855.933	51.12269
856.334	-3.00756
856.736	24.05418
857.137	31.07251
857.538	53.13338
857.939	36.08931
858.34	48.11725
858.741	63.16453
859.142	14.03393
859.542	29.07687
859.943	52.12938
860.343	2.005
860.744	56.13674
861.144	48.11734
861.544	-5.01216
861.945	53.13519
862.345	75.18289
862.745	37.09231
863.145	77.18349
863.544	45.11397
863.944	7.01671
864.344	70.17353
864.743	79.1953
865.143	30.07742
865.542	25.05838
865.941	41.10181
866.34	73.17442
866.74	37.09961
867.139	36.08656
867.537	41.10476
867.936	26.06297
868.335	38.09701
868.734	55.14059
869.132	43.10022
869.531	50.12113
869.929	-27.06261
870.327	-2.00485
870.726	45.11247
871.124	20.0471
871.522	72.18291
871.92	37.09161
872.318	60.14661
872.715	73.1802
873.113	-7.01726
873.511	17.04266
873.908	-6.01531
874.306	26.06502
874.703	23.0579
875.1	43.11026
875.497	30.0723
875.894	0
876.291	43.1058
876.688	27.06998
877.085	56.13439
877.482	62.15504
877.878	-2.00487
878.275	25.06386
878.671	56.12477
879.068	34.08243
879.464	10.02438
879.86	-7.01676
880.256	38.0941
880.652	23.05883
881.048	40.09941
881.444	16.03838
881.84	57.14483
882.236	35.08833
882.631	24.05926
883.027	52.12602
883.422	43.11018
883.817	10.02533
884.213	18.04649
884.608	25.06165
885.003	22.05338
885.398	26.06542
885.793	27.06812
886.188	22.05502
886.582	84.21437
886.977	78.18433
887.371	58.14661
887.766	-5.01257
888.16	67.16685
888.554	67.16533
888.949	32.08069
889.343	70.17054
889.737	19.05092
890.131	72.18005
890.525	1.00258
890.918	45.11345
891.312	37.08885
891.706	26.06854
892.099	58.1475
892.492	63.13574
892.886	44.10788
893.279	25.06402
893.672	11.02822
894.065	34.08545
894.458	38.09585
894.851	43.1056
895.244	53.13538
895.637	48.11576
896.029	29.07125
896.422	38.09313
896.814	29.07243
897.206	-13.03136
897.599	103.25248
897.991	1.00244
898.383	32.07595
898.775	19.0432
899.167	-16.03783
899.559	47.11912
899.951	39.09222
900.342	67.17
900.734	-2.00501
901.125	71.18574
901.517	31.07641
901.908	37.08901
902.299	20.0492
902.69	24.05696
903.082	56.13557
903.473	-21.051
903.863	37.09468
904.254	22.05139
904.645	98.24178
905.036	13.03171
905.426	40.09185
905.817	56.13735
906.207	-22.05318
906.597	-9.02131
906.987	58.1502
907.378	11.02803
907.768	30.07961
908.158	5.0123
908.547	2.00521
908.937	94.23947
909.327	21.05131
909.717	85.21459
910.106	15.03629
910.495	57.14221
910.885	60.15178
911.274	25.0628
911.663	55.13955
912.052	94.23021
912.441	53.13476
912.83	18.04161
913.219	35.09187
913.608	15.037
913.997	-19.04824
914.385	36.0863
914.774	67.16271
915.162	16.0384
915.55	53.12823
915.939	14.03558
916.327	65.16187
916.715	39.09962
917.103	77.18868
917.491	40.0992
917.878	64.15703
918.266	53.13742
918.654	18.04626
919.041	31.08121
919.429	8.01905
919.816	28.07128
920.203	0
920.591	34.08459
920.978	29.07133
921.365	23.06064
921.752	30.07183
922.139	-3.00659
922.525	37.08912
922.912	34.08321
923.299	-13.03269
923.685	48.12529
924.072	62.14271
924.458	26.06471
924.844	2.00499
925.231	11.02581
925.617	-1.00257
926.003	48.12276
926.389	16.04062
926.774	44.11166
927.16	12.03002
927.546	17.04365
927.931	24.06019
928.317	52.11979
928.702	22.05235
929.088	14.03335
929.473	-4.01028
929.858	-19.04654
930.243	29.0699
930.628	-8.01968
931.013	-2.00501
931.398	75.1717
931.783	43.11337
932.167	28.06875
932.552	54.13523
932.937	83.20481
933.321	-6.01521
933.705	15.03806
934.09	116.28976
934.474	30.07156
934.858	41.10653
935.242	-9.02111
935.626	21.05404
936.009	41.10922
936.393	29.07408
936.777	5.01291
937.16	54.14042
937.544	64.15043
937.927	31.07893
938.311	69.16788
938.694	69.18192
939.077	47.1126
939.46	25.06169
939.843	71.14751
940.226	19.04901
940.609	41.09432
940.991	-5.01285
941.374	11.02708
941.757	12.02982
942.139	22.04971
942.522	74.17414
942.904	50.12022
943.286	67.16975
943.668	45.11668
944.05	36.08892
944.432	14.03478
944.814	15.03719
945.196	1.00246
945.578	-20.04818
945.959	49.11488
946.341	43.10572
946.722	29.06836
947.104	53.12664
947.485	16.03749
947.866	-19.04846
948.247	20.05074
948.628	59.14371
949.009	30.0771
949.39	49.12203
949.771	50.11633
950.152	26.0641
950.532	-30.07489
950.913	31.07506
951.293	12.03262
951.674	25.06076
952.054	47.11653
952.434	31.07723
952.814	75.17762
953.194	48.12568
953.574	46.11341
953.954	16.03825
954.334	58.14436
954.714	8.01965
955.093	70.1715
955.473	-5.01263
955.853	10.02607
956.232	41.11254
956.611	61.14603
956.99	26.06563
957.37	-3.00772
957.749	8.01924
958.128	7.01777
958.506	19.04955
958.885	30.076
959.264	-13.03223
959.643	21.04808
960.021	22.0548
960.4	-15.03445
960.778	97.23689
961.156	52.13032
961.535	-2.00471
961.913	37.08681
962.291	4.01034
962.669	21.05347
963.047	19.04875
963.424	53.13519
963.802	21.05192
964.18	60.15156
964.557	23.05327
964.935	64.15125
965.312	35.09138
965.69	98.24329
966.067	39.09518
966.444	38.09386
966.821	59.15187
967.198	23.05609
967.575	40.09854
967.952	36.08508
968.329	45.10961
968.705	35.07531
969.082	44.11296
969.458	1.00242
969.835	77.18651
970.211	22.05674
970.587	31.07745
970.963	42.1079
971.339	41.10722
971.715	31.07768
972.091	42.10358
972.467	59.14693
972.843	18.04493
973.219	78.18633
973.594	50.13078
973.97	66.15664
974.345	50.11967
974.721	83.19975
975.096	30.07287
975.471	63.14909
975.846	37.08912
976.221	38.09671
976.596	14.03379
976.971	68.16734
977.346	32.07477
977.72	29.07415
978.095	32.08296
978.469	30.07189
978.844	91.22711
979.218	42.10083
979.593	41.09841
979.967	19.04656
980.341	42.09687
980.715	33.0834
981.089	53.13261
981.463	43.09888
981.837	9.02216
982.21	60.13938
982.584	15.03647
982.957	8.02013
983.331	49.11587
983.704	56.13745
984.078	65.15975
984.451	98.24267
984.824	12.02943
985.197	27.06587
985.57	60.15021
985.943	64.15767
986.316	97.23628
986.688	58.13967
987.061	85.19788
987.434	58.15093
987.806	39.09479
988.179	35.08283
988.551	16.04083
988.923	41.10114
989.295	53.13237
989.667	4.00964
990.039	-2.00499
990.411	35.0808
990.783	65.14923
991.155	-8.01943
991.527	75.18385
991.898	9.02259
992.27	21.05222
992.641	33.08305
993.012	21.0497
993.384	25.05992
993.755	30.07675
994.126	0
994.497	4.0099
994.868	21.04852
995.239	30.07298
995.61	22.05563
995.98	24.05858
996.351	10.02494
996.722	45.10447
997.092	-11.02635
997.462	14.03293
997.833	-5.01198
998.203	52.12602
998.573	21.05256
998.943	58.13579
999.313	50.11981
999.683	26.06268
1000.053	29.06701
1000.423	33.08044
1000.792	42.10899
1001.162	39.09617
1001.531	31.07669
1001.901	39.0974
1002.27	16.03602
1002.639	31.07946
1003.009	38.09057
1003.378	14.03602
1003.747	46.10875
1004.116	4.00965
1004.485	27.06481
1004.853	47.11912
1005.222	63.15848
1005.591	81.19116
1005.959	2.00455
1006.328	22.04979
1006.696	-22.05378
1007.064	46.11578
1007.433	31.07773
1007.801	46.11299
1008.169	27.06846
1008.537	81.17819
1008.905	16.03752
1009.273	89.21825
1009.64	3.00722
1010.008	54.1286
1010.375	69.16694
1010.743	93.21291
1011.11	29.06889
1011.478	68.16771
1011.845	25.05907
1012.212	6.0137
1012.579	23.05674
1012.946	23.05502
1013.313	7.0168
1013.68	38.08561
1014.047	59.14032
1014.414	-11.02628
1014.78	23.05742
1015.147	76.18287
1015.513	9.02185
1015.88	62.15817
1016.246	102.24934
1016.612	100.22659
1016.978	54.1322
1017.344	37.09164
1017.71	55.13397
1018.076	51.12022
1018.442	73.18699
1018.808	6.01511
1019.174	23.05796
1019.539	126.28561
1019.905	15.03561
1020.27	30.07429
1020.636	52.1246
1021.001	34.08163
1021.366	-6.01456
1021.731	28.07226
1022.096	18.04565
1022.461	43.10188
1022.826	65.154
1023.191	37.09726
1023.556	18.04244
1023.92	62.15207
1024.285	45.1099
1024.649	28.06888
1025.014	41.10169
1025.378	11.02784
1025.742	56.13887
1026.107	13.02962
1026.471	20.04695
1026.835	17.04238
1027.199	9.02182
1027.562	38.08852
1027.926	42.10282
1028.29	31.07868
1028.654	50.115
1029.017	17.04203
1029.381	17.04085
1029.744	45.11482
1030.107	26.06178
1030.471	-2.00483
1030.834	43.09793
1031.197	63.15133
1031.56	57.13426
1031.923	33.08554
1032.286	69.16139
1032.648	49.11717
1033.011	44.10108
1033.374	47.11049
1033.736	4.01059
1034.099	33.08065
1034.461	37.09365
1034.823	13.03257
1035.185	30.07575
1035.548	-2.00491
1035.91	20.04816
1036.272	13.0298
1036.634	59.14404
1036.995	94.21896
1037.357	-5.01228
1037.719	29.07077
1038.08	44.10455
1038.442	-4.00959
1038.803	52.12474
1039.165	7.01779
1039.526	52.12555
1039.887	22.0529
1040.248	-5.01244
1040.609	60.14792
1040.97	14.03443
1041.331	27.0686
1041.692	8.01882
1042.053	55.12505
1042.413	19.04453
1042.774	86.20764
1043.134	58.13781
1043.495	49.12313
1043.855	30.07301
1044.215	31.07717
1044.576	16.03849
1044.936	14.03232
1045.296	64.15923
1045.656	43.1056
1046.016	25.0606
1046.375	65.15715
1046.735	8.01828
1047.095	46.1077
1047.454	54.11427
1047.814	58.13914
1048.173	37.08857
1048.533	12.02769
1048.892	-13.03156
1049.251	34.08555
1049.61	24.05934
1049.969	23.05447
1050.328	75.16166
1050.687	18.04403
1051.046	37.09026
1051.405	25.06244
1051.763	0
1052.122	-40.10133
1052.48	-1.00247
1052.839	32.07551
1053.197	-3.00713
1053.555	56.12746
1053.914	25.0614
1054.272	68.16375
1054.63	-11.02718
1054.988	-6.0144
1055.345	-5.01089
1055.703	56.13454
1056.061	25.06455
1056.419	45.11652
1056.776	52.12598
1057.134	37.08583
1057.491	57.14246
1057.848	43.10712
1058.206	9.02132
1058.563	6.01334
1058.92	68.15608
1059.277	30.07423
1059.634	31.07316
1059.991	47.1126
1060.348	36.08154
1060.704	-15.03617
1061.061	71.16418
1061.418	57.13796
1061.774	21.05209
1062.131	6.01597
1062.487	15.03529
1062.843	62.15415
1063.199	13.03253
1063.555	40.09281
1063.911	50.12621
1064.267	67.13914
1064.623	44.10692
1064.979	51.12074
1065.335	68.16188
1065.691	28.06735
1066.046	95.20679
1066.402	21.04796
1066.757	78.19576
1067.112	37.09097
1067.468	0
1067.823	28.06755
1068.178	46.11127
1068.533	46.11153
1068.888	53.12649
1069.243	8.01988
1069.598	5.01224
1069.952	35.079
1070.307	-5.01249
1070.662	7.01674
1071.016	-39.08893
1071.371	56.12715
1071.725	13.0313
1072.079	12.02905
1072.434	33.08038
1072.788	36.0859
1073.142	55.13507
1073.496	0
1073.85	49.11358
1074.203	39.09475
1074.557	9.02408
1074.911	65.15459
1075.265	14.03275
1075.618	17.04173
1075.971	57.13531
1076.325	18.04597
1076.678	-16.03705
1077.031	-7.01601
1077.385	52.11442
1077.738	8.0182
1078.091	-43.09955
1078.444	55.12748
1078.796	10.0247
1079.149	29.07235
1079.502	24.05694
1079.855	24.05621
1080.207	47.11577
1080.56	17.04415
1080.912	63.15288
1081.264	25.06044
1081.617	-7.01723
1081.969	2.00508
1082.321	31.07591
1082.673	-6.01384
1083.025	24.05718
1083.377	-184.41454
1083.728	61.14189
1084.08	25.06264
1084.432	48.11572
1084.783	49.11475
1085.135	18.04534
1085.486	-15.03474
1085.838	50.12304
1086.189	1.00245
1086.54	34.08138
1086.891	-5.01276
1087.242	10.02451
1087.593	35.08538
1087.944	33.07488
1088.295	53.12031
1088.646	25.06083
1088.996	-17.04144
1089.347	21.05176
1089.698	29.06876
1090.048	59.15287
1090.398	21.04895
1090.749	45.10768
1091.099	32.08066
1091.449	44.10963
1091.799	45.11267
1092.149	-4.00984
1092.499	8.01965
1092.849	20.05106
1093.199	53.13266
1093.548	0
1093.898	10.02518
1094.248	58.1487
1094.597	-17.04387
1094.947	23.06158
1095.296	42.10377
1095.645	43.11188
1095.994	7.01694
1096.343	25.06314
1096.692	-8.0212
1097.041	5.01362
1097.39	30.07546
1097.739	13.03397
1098.088	62.16563
1098.437	9.02378
1098.785	57.15336
1099.134	37.09837
1099.482	41.11282
1099.83	14.03698
1100.179	-6.01578
1100.527	18.04804
1100.875	12.0319
1101.223	37.09837
1101.571	13.0361
1101.919	5.01315
1102.267	5.01416
1102.615	-2.00643
1102.962	20.06432
1103.31	-3.00965
1103.658	7.02256
