Data from N2 R5 sample 2_Subt2__4__14-25-31-671.txt Node

Date: Fri Aug 29 14:25:31 PDT 2025
User: uwsun
Spectrometer: HDX01956
Trigger mode: 0
Integration Time (sec): 5.000000E-1
Scans to average: 1
Nonlinearity correction enabled: true
Boxcar width: 0
Storing dark spectrum: false
XAxis mode: Wavelengths
Number of Pixels in Spectrum: 2068
>>>>>Begin Spectral Data<<<<<
194.03	388.0204
194.578	336.01452
195.127	331.98698
195.676	355.05566
196.225	374.92933
196.773	431.09668
197.321	639.52859
197.87	829.73336
198.418	828.70493
198.966	767.6121
199.513	762.51405
200.061	707.45064
200.609	846.79892
201.156	804.34843
201.704	801.59793
202.251	769.64465
202.798	753.57987
203.345	809.59002
203.892	827.64452
204.438	841.57161
204.985	784.44937
205.532	842.75629
206.078	828.59725
206.624	833.59808
207.17	819.48293
207.716	827.56673
208.262	827.22911
208.808	774.50007
209.354	865.62769
209.899	938.84089
210.445	820.59617
210.99	829.55296
211.535	829.52167
212.08	871.56049
212.625	787.57214
213.17	866.72496
213.715	757.30439
214.259	877.57368
214.804	875.69088
215.348	850.50287
215.892	880.63369
216.436	919.62814
216.98	924.54527
217.524	850.55912
218.068	890.75313
218.612	841.67782
219.155	809.49456
219.698	821.53719
220.242	835.65506
220.785	754.40631
221.328	781.5623
221.871	781.60194
222.414	766.5418
222.956	716.38815
223.499	738.32205
224.041	790.46485
224.583	794.34831
225.126	760.32246
225.668	721.41683
226.21	785.58191
226.751	648.14202
227.293	739.35207
227.835	702.39143
228.376	771.41997
228.918	760.55636
229.459	723.45548
230	740.41291
230.541	729.34784
231.082	727.42126
231.622	714.32499
232.163	708.38634
232.704	739.47545
233.244	749.49475
233.784	749.48438
234.324	673.17599
234.864	691.25899
235.404	697.34643
235.944	726.3868
236.484	764.53636
237.023	737.38984
237.563	735.34948
238.102	767.43873
238.641	771.56575
239.18	718.3364
239.719	788.5796
240.258	761.34901
240.797	770.4575
241.335	768.5026
241.874	752.10335
242.412	768.46221
242.95	710.35488
243.488	763.3715
244.026	785.4133
244.564	814.27482
245.102	737.30231
245.64	783.4984
246.177	783.36869
246.715	845.58299
247.252	828.47605
247.789	753.08892
248.326	782.46945
248.863	752.283
249.4	808.42473
249.936	773.21776
250.473	792.43795
251.009	749.34352
251.546	800.3556
252.082	823.3785
252.618	819.395
253.154	761.43868
253.69	777.35889
254.226	795.4811
254.761	853.4562
255.297	773.30371
255.832	783.44572
256.367	840.52297
256.903	740.26315
257.438	806.47232
257.972	797.36473
258.507	778.37386
259.042	797.32246
259.576	736.21659
260.111	776.39884
260.645	883.4278
261.179	773.39947
261.713	771.32009
262.247	847.49017
262.781	805.26761
263.315	804.5279
263.849	840.62431
264.382	856.49702
264.915	848.50634
265.449	777.46111
265.982	867.49049
266.515	862.60577
267.048	799.27265
267.58	872.42861
268.113	802.30554
268.646	849.60535
269.178	814.37194
269.71	861.40386
270.243	844.4605
270.775	864.68911
271.307	887.62264
271.838	889.60343
272.37	813.54391
272.902	857.46776
273.433	837.36766
273.965	926.6869
274.496	878.66878
275.027	923.7192
275.558	859.57922
276.089	840.56161
276.62	873.70633
277.15	872.64049
277.681	875.40607
278.211	920.6954
278.741	853.38534
279.272	848.44337
279.802	955.77716
280.332	889.5561
280.861	895.61016
281.391	875.46347
281.921	911.63901
282.45	889.68112
282.98	927.82568
283.509	881.45666
284.038	901.50463
284.567	958.63557
285.096	932.66191
285.625	941.54163
286.153	927.58291
286.682	901.50216
287.21	889.58302
287.739	919.58771
288.267	848.53205
288.795	947.86687
289.323	917.54986
289.851	930.58252
290.378	958.52996
290.906	954.66276
291.433	947.72916
291.961	1001.58485
292.488	930.69933
293.015	951.59795
293.542	922.71012
294.069	995.74582
294.596	1027.81718
295.122	1008.69912
295.649	992.52252
296.175	974.69683
296.702	958.67502
297.228	1089.8456
297.754	1045.60381
298.28	991.55997
298.806	1076.78084
299.332	1065.57621
299.857	1074.63258
300.383	1073.91354
300.908	967.64612
301.433	979.67109
301.958	1077.69697
302.483	1014.76951
303.008	1125.90274
303.533	1126.03952
304.058	1082.73871
304.582	1052.6817
305.107	1052.91506
305.631	1118.69583
306.155	1088.68342
306.679	1105.70438
307.203	1040.62193
307.727	1171.81628
308.251	1113.85297
308.775	1066.67715
309.298	1129.76504
309.822	1142.92901
310.345	1202.82515
310.868	1188.82514
311.391	1164.88485
311.914	1157.90129
312.437	1202.73254
312.96	1242.82284
313.482	1214.80862
314.005	1186.92819
314.527	1228.08828
315.049	1272.04469
315.571	1203.60857
316.093	1305.99032
316.615	1271.87313
317.137	1321.65244
317.659	1370.99771
318.18	1414.00636
318.702	1352.82852
319.223	1337.50565
319.744	1378.73255
320.265	1348.90176
320.786	1405.99363
321.307	1409.02358
321.828	1475.79447
322.348	1467.88644
322.869	1439.84865
323.389	1399.01728
323.909	1495.81795
324.43	1472.96834
324.95	1502.7807
325.47	1442.93022
325.989	1580.88188
326.509	1552.64347
327.029	1617.72982
327.548	1605.7045
328.067	1662.93201
328.587	1664.06671
329.106	1628.73166
329.625	1766.34793
330.144	1620.7447
330.662	1624.73684
331.181	1741.81705
331.7	1713.79689
332.218	1795.56112
332.736	1832.80853
333.255	1843.76617
333.773	1846.81382
334.291	1924.04798
334.808	1841.57811
335.326	1972.63202
335.844	1881.65191
336.361	1982.9618
336.879	1869.63332
337.396	1928.74583
337.913	2033.57829
338.43	2092.48828
338.947	2031.66729
339.464	2085.28146
339.981	2040.59764
340.497	2039.76477
341.014	2149.67903
341.53	2177.36723
342.046	2199.65685
342.562	2250.74143
343.078	2231.47667
343.594	2190.52319
344.11	2335.47244
344.626	2226.67482
345.141	2354.25976
345.657	2374.26384
346.172	2402.43175
346.687	2313.23832
347.202	2388.11661
347.717	2452.31815
348.232	2543.47007
348.747	2471.12722
349.261	2448.86945
349.776	2500.15987
350.29	2565.25127
350.805	2707.29646
351.319	2747.99328
351.833	2555.89215
352.347	2683.99157
352.861	2798.87971
353.374	2813.87149
353.888	2716.05398
354.401	2777.80111
354.915	2790.62292
355.428	2789.02919
355.941	2905.69035
356.454	2961.5951
356.967	2945.74733
357.48	2943.63182
357.993	2897.89025
358.505	2915.79721
359.018	3051.73015
359.53	3059.60905
360.042	3157.28695
360.554	3065.63816
361.066	3067.60497
361.578	3064.21254
362.09	3072.50546
362.602	3160.13703
363.113	3225.25625
363.625	3094.1929
364.136	3271.02338
364.647	3290.0447
365.158	3346.0947
365.669	3517.09012
366.18	3370.09605
366.691	3348.86944
367.201	3445.04521
367.712	3368.87196
368.222	3496.79172
368.733	3501.56687
369.243	3575.5444
369.753	3785.56914
370.263	3787.63525
370.773	3801.70146
371.282	3777.51673
371.792	3901.20645
372.301	3906.3578
372.811	4095.49187
373.32	3983.90768
373.829	4162.99774
374.338	4397.7854
374.847	4485.7662
375.356	4601.7504
375.865	4822.64085
376.373	4992.69169
376.882	5076.75862
377.39	5283.80567
377.898	5129.75107
378.407	5483.14446
378.915	5667.49578
379.423	6033.95572
379.93	6190.54648
380.438	6442.25817
380.946	6798.74563
381.453	6954.67044
381.96	7172.37063
382.468	7653.15176
382.975	8297.64335
383.482	8796.80885
383.989	8832.96688
384.495	9075.99926
385.002	9367.01233
385.509	10045.32416
386.015	10613.94792
386.521	11074.08465
387.028	11481.67017
387.534	11804.4061
388.04	12525.61347
388.546	12502.24865
389.051	12921.67571
389.557	14111.68595
390.063	15664.75853
390.568	16120.44185
391.073	16310.42323
391.578	17026.32187
392.084	17245.24041
392.589	17486.97489
393.093	18477.14329
393.598	20535.86002
394.103	22418.6953
394.607	24639.61797
395.112	26627.46495
395.616	27951.35215
396.12	30521.02384
396.624	33182.49806
397.128	36325.25469
397.632	39727.50296
398.136	38518.72138
398.639	36205.26346
399.143	32503.66402
399.646	28888.45294
400.15	25083.82847
400.653	20124.16724
401.156	13866.23708
401.659	5169.95759
402.162	1054.15589
402.664	0
403.167	0
403.67	0
404.172	0
404.674	0
405.176	0
405.678	0
406.18	0
406.682	0
407.184	0
407.686	0
408.187	0
408.688	0
409.19	0
409.691	0
410.192	0
410.693	0
411.194	435.30976
411.694	4082.94878
412.195	8864.71461
412.696	12089.80453
413.196	12760.96929
413.696	12863.67595
414.196	13703.56671
414.696	17261.84252
415.196	21764.24417
415.696	29583.19008
416.196	36460.31858
416.695	40057.39798
417.195	41392.74103
417.694	42311.08144
418.194	43882.52025
418.693	43923.12201
419.192	42261.71149
419.691	41475.22837
420.19	41100.16183
420.688	40189.63594
421.187	38993.14685
421.685	36864.39286
422.184	34181.98251
422.682	29704.69625
423.18	24660.18448
423.678	21454.14279
424.176	20005.66304
424.674	18713.00509
425.172	18138.17411
425.669	17146.91327
426.167	16239.1415
426.664	14715.55281
427.161	13252.38059
427.659	12291.1639
428.156	11573.66026
428.652	10777.47703
429.149	10281.12242
429.646	9931.6848
430.143	9380.83531
430.639	8851.26991
431.135	8264.18779
431.632	7851.1724
432.128	7355.08301
432.624	6831.83438
433.12	6551.77774
433.616	6390.26241
434.111	6027.15613
434.607	5755.50336
435.103	5746.56688
435.598	5584.30818
436.093	5465.93789
436.588	5164.75653
437.083	4871.67812
437.578	4676.71049
438.073	4291.87921
438.568	4280.01499
439.062	4182.8043
439.557	4062.13622
440.051	3976.08644
440.546	3677.26019
441.04	3531.5322
441.534	3531.7874
442.028	3574.66045
442.522	3390.76677
443.015	3375.5514
443.509	3411.92747
444.002	3224.04195
444.496	3061.82227
444.989	3115.17488
445.482	3125.2379
445.975	3061.93821
446.468	2985.88213
446.961	2917.93717
447.454	2876.16048
447.947	2825.3059
448.439	2785.50465
448.931	2690.26588
449.424	2775.70238
449.916	2750.57685
450.408	2541.40729
450.9	2572.64918
451.392	2437.8764
451.884	2486.60341
452.375	2420.84223
452.867	2546.60332
453.358	2300.63995
453.849	2329.48629
454.341	2251.69607
454.832	2212.5918
455.323	2235.96726
455.814	2220.83812
456.304	2225.86064
456.795	2173.86699
457.285	2216.84519
457.776	2157.96736
458.266	2101.03982
458.756	2070.14012
459.247	2003.08355
459.737	1949.10623
460.226	1925.9672
460.716	1879.17501
461.206	1905.22554
461.695	1929.40371
462.185	1826.21537
462.674	1771.17408
463.163	1777.08085
463.653	1846.94743
464.142	1713.31932
464.63	1684.40431
465.119	1699.23121
465.608	1626.23047
466.096	1600.1315
466.585	1689.3224
467.073	1557.40759
467.561	1560.43008
468.05	1538.34806
468.538	1471.48975
469.026	1485.43164
469.513	1433.10817
470.001	1465.29558
470.489	1463.40984
470.976	1338.32806
471.463	1301.5168
471.951	1252.5199
472.438	1206.32762
472.925	1140.2773
473.412	1278.53752
473.899	1223.34507
474.385	1125.43706
474.872	1124.31512
475.359	1151.45148
475.845	1118.105
476.331	1094.21297
476.817	1056.41741
477.303	1054.31652
477.789	1004.35778
478.275	955.36889
478.761	1027.40139
479.247	985.23693
479.732	920.35682
480.218	964.5186
480.703	913.37397
481.188	913.11715
481.673	923.24305
482.158	795.99081
482.643	835.36742
483.128	776.09556
483.612	839.21912
484.097	820.29467
484.581	729.10595
485.066	706.13532
485.55	655.93491
486.034	638.90459
486.518	693.07248
487.002	665.09801
487.486	623.04671
487.969	589.00078
488.453	628.11709
488.936	585.90987
489.42	579.89001
489.903	636.13955
490.386	612.63966
490.869	601.91298
491.352	602.0652
491.835	592.84934
492.318	553.88825
492.8	514.75579
493.283	525.98667
493.765	519.9423
494.247	567.971
494.73	553.88069
495.212	500.91172
495.694	404.71387
496.175	418.74479
496.657	501.89158
497.139	444.5636
497.62	434.77531
498.102	380.73189
498.583	411.80246
499.064	350.60005
499.545	390.68589
500.026	351.60969
500.507	366.66293
500.988	425.8231
501.469	342.67772
501.949	357.70232
502.43	310.58213
502.91	336.53723
503.39	352.70668
503.87	307.57351
504.35	362.67979
504.83	365.62259
505.31	348.66993
505.79	291.55925
506.269	332.62129
506.749	238.44075
507.228	275.5206
507.707	302.53444
508.187	311.60317
508.666	275.5489
509.145	240.45757
509.623	229.44179
510.102	251.50053
510.581	268.53381
511.059	217.45064
511.538	264.56769
512.016	284.55541
512.494	309.61333
512.972	255.50165
513.45	136.26332
513.928	255.50922
514.406	199.39591
514.884	289.61274
515.361	276.54309
515.839	233.43807
516.316	231.46215
516.793	213.45517
517.27	193.39615
517.747	218.46999
518.224	207.40204
518.701	175.32821
519.178	185.38591
519.654	193.38953
520.131	182.38176
520.607	225.47164
521.083	223.42546
521.56	231.45679
522.036	187.34656
522.512	204.42847
522.987	123.2495
523.463	155.31456
523.939	201.41947
524.414	187.3677
524.89	214.42923
525.365	162.31246
525.84	120.24403
526.315	181.37102
526.79	181.34684
527.265	172.3343
527.74	116.24482
528.215	190.38127
528.689	175.32918
529.164	177.3277
529.638	172.38179
530.112	112.22828
530.587	124.22653
531.061	109.22778
531.534	154.32303
532.008	142.2943
532.482	188.36941
532.956	89.19817
533.429	185.38488
533.903	174.33044
534.376	141.26888
534.849	152.30445
535.322	176.35726
535.795	191.40143
536.268	130.27148
536.741	126.26418
537.213	200.39595
537.686	138.29126
538.158	88.17169
538.631	185.38899
539.103	136.26294
539.575	148.26668
540.047	172.32505
540.519	167.34619
540.991	184.39004
541.463	104.22123
541.934	151.29916
542.406	134.27747
542.877	145.2835
543.348	143.30134
543.82	175.37251
544.291	190.38285
544.762	104.21545
545.233	145.31563
545.703	131.25042
546.174	205.40728
546.645	112.2315
547.115	215.44071
547.585	269.51897
548.056	137.28337
548.526	252.49446
548.996	286.57444
549.466	312.63534
549.935	320.61929
550.405	295.52845
550.875	305.59351
551.344	327.64421
551.814	256.48902
552.283	339.59915
552.752	295.56038
553.221	299.52486
553.69	373.66132
554.159	343.68082
554.628	349.6223
555.096	333.68783
555.565	381.67761
556.033	348.67026
556.502	260.528
556.97	263.48717
557.438	232.46705
557.906	242.48988
558.374	173.3437
558.842	142.29654
559.31	167.32543
559.777	73.15647
560.245	115.23978
560.712	122.25025
561.18	87.17067
561.647	135.26583
562.114	74.15049
562.581	121.26518
563.048	155.31571
563.514	131.28419
563.981	123.25064
564.448	120.23947
564.914	115.23936
565.381	171.34386
565.847	176.36395
566.313	175.35969
566.779	133.26707
567.245	118.24675
567.711	142.3022
568.176	116.23191
568.642	122.2725
569.108	155.33725
569.573	165.34495
570.038	186.34376
570.504	127.25243
570.969	196.4318
571.434	172.33031
571.899	196.4084
572.363	234.46218
572.828	276.54463
573.293	216.43164
573.757	193.38809
574.222	237.45547
574.686	191.37238
575.15	243.49855
575.614	252.49774
576.078	245.49584
576.542	272.53194
577.006	272.52539
577.469	292.62303
577.933	228.44018
578.396	256.52629
578.86	254.51747
579.323	229.4728
579.786	247.45982
580.249	196.38931
580.712	278.5862
581.175	225.48331
581.637	266.53106
582.1	260.49474
582.563	259.48264
583.025	176.37553
583.487	179.317
583.95	225.41865
584.412	246.44851
584.874	245.51674
585.336	181.3779
585.797	269.50127
586.259	264.54151
586.721	254.51653
587.182	262.53498
587.643	242.47955
588.105	233.48214
588.566	281.5109
589.027	221.46448
589.488	217.43434
589.949	260.54849
590.41	216.36552
590.87	283.56067
591.331	287.53615
591.791	241.48417
592.252	203.40651
592.712	209.44236
593.172	181.36027
593.632	198.3841
594.092	231.45079
594.552	237.44537
595.011	241.48081
595.471	257.5001
595.931	213.41685
596.39	277.57344
596.849	253.51273
597.308	263.49667
597.768	235.52238
598.227	305.63395
598.685	315.62436
599.144	233.47674
599.603	271.55776
600.062	262.47502
600.52	223.43435
600.978	292.5984
601.437	330.64752
601.895	272.49818
602.353	319.60745
602.811	265.51002
603.269	297.61319
603.727	303.62446
604.184	277.53748
604.642	340.71126
605.099	371.72848
605.557	370.76613
606.014	415.74155
606.471	366.77141
606.928	416.73508
607.385	487.9671
607.842	576.05357
608.299	638.17781
608.755	603.16121
609.212	548.97753
609.668	516.91947
610.125	655.25428
610.581	704.32198
611.037	633.15894
611.493	585.12378
611.949	477.95298
612.405	493.80577
612.861	583.12047
613.316	520.02199
613.772	534.00615
614.227	523.01557
614.683	579.00659
615.138	576.09609
615.593	552.05033
616.048	569.06724
616.503	631.26245
616.958	538.11711
617.412	556.08312
617.867	476.87718
618.321	561.95144
618.776	531.97586
619.23	551.07107
619.684	578.07696
620.138	569.09825
620.592	515.05237
621.046	557.09202
621.5	475.98375
621.954	550.03737
622.407	515.9693
622.861	480.99699
623.314	458.89699
623.768	453.90839
624.221	456.76761
624.674	457.90752
625.127	432.87849
625.58	476.93886
626.033	447.85992
626.485	356.75495
626.938	439.91326
627.39	377.77731
627.843	441.89291
628.295	383.78613
628.747	371.78624
629.199	386.77994
629.651	316.64847
630.103	352.72364
630.555	351.66807
631.006	333.70726
631.458	296.63759
631.909	346.72253
632.361	330.70074
632.812	266.56657
633.263	306.60496
633.714	285.56384
634.165	283.63455
634.616	242.53694
635.067	276.56997
635.518	260.57855
635.968	354.6497
636.419	260.52873
636.869	237.52989
637.319	224.48769
637.769	198.41972
638.219	282.62984
638.669	205.46307
639.119	202.46828
639.569	222.50648
640.019	258.56194
640.468	203.43229
640.918	249.56681
641.367	202.43269
641.816	214.45621
642.265	213.46955
642.714	191.42335
643.163	250.54429
643.612	141.3263
644.061	170.3465
644.51	207.45058
644.958	208.43726
645.406	177.407
645.855	208.48792
646.303	223.49859
646.751	118.26182
647.199	229.4972
647.647	194.42901
648.095	213.46758
648.543	228.44864
648.99	166.38331
649.438	226.50936
649.885	245.57818
650.333	238.44229
650.78	192.44669
651.227	211.49273
651.674	153.33941
652.121	204.47779
652.568	185.43388
653.015	246.59503
653.461	188.43203
653.908	255.56754
654.354	242.55389
654.801	217.48938
655.247	234.49451
655.693	226.56594
656.139	196.45474
656.585	255.5854
657.031	225.50389
657.477	152.32151
657.922	224.4968
658.368	255.60341
658.813	257.5746
659.259	227.52488
659.704	200.45187
660.149	236.52972
660.594	225.51591
661.039	217.47877
661.484	278.63653
661.929	234.5289
662.373	240.5827
662.818	205.49353
663.262	205.4791
663.707	237.57963
664.151	240.56649
664.595	276.63804
665.039	305.72477
665.483	278.67874
665.927	289.6528
666.371	231.5169
666.814	318.72459
667.258	220.50475
667.701	307.63555
668.145	331.78502
668.588	273.64525
669.031	239.54383
669.474	289.66848
669.917	316.67013
670.36	316.74902
670.803	329.75827
671.245	311.62855
671.688	335.77978
672.13	266.57617
672.573	339.82162
673.015	324.74392
673.457	292.61248
673.899	334.77301
674.341	321.7416
674.783	352.80204
675.225	351.8212
675.666	331.75862
676.108	340.70528
676.549	343.77602
676.991	364.76248
677.432	317.6057
677.873	304.67729
678.314	359.81584
678.755	368.85033
679.196	319.70084
679.637	379.87939
680.078	368.81985
680.518	384.84982
680.959	359.81915
681.399	411.96078
681.839	347.80675
682.28	367.86064
682.72	375.81449
683.16	368.87124
683.6	421.90465
684.039	366.72596
684.479	351.82184
684.919	284.63221
685.358	412.98778
685.798	398.98749
686.237	450.01824
686.676	368.81476
687.115	398.8852
687.554	431.96196
687.993	392.82185
688.432	397.8586
688.871	367.79237
689.309	392.88703
689.748	448.87657
690.186	391.88675
690.625	395.87653
691.063	431.97188
691.501	402.94103
691.939	421.98954
692.377	367.8529
692.815	345.78911
693.253	407.92639
693.69	377.78779
694.128	355.82079
694.565	379.85989
695.003	371.89712
695.44	386.86101
695.877	366.81404
696.314	404.8223
696.751	427.91834
697.188	406.88125
697.625	482.03
698.061	370.84543
698.498	459.03886
698.934	398.90866
699.371	351.78959
699.807	379.85291
700.243	362.83115
700.679	410.8778
701.115	414.92231
701.551	369.82905
701.987	407.86629
702.422	366.82855
702.858	380.86093
703.294	421.89959
703.729	403.93432
704.164	430.97458
704.599	385.81448
705.035	363.77433
705.47	421.96522
705.904	411.90406
706.339	413.90922
706.774	424.93558
707.209	365.80222
707.643	384.87671
708.078	389.89938
708.512	399.94478
708.946	450.01039
709.38	384.86504
709.814	412.89008
710.248	424.97501
710.682	366.8299
711.116	393.8873
711.549	401.98167
711.983	426.92662
712.416	453.00235
712.85	448.04694
713.283	468.03238
713.716	456.07358
714.149	466.03739
714.582	430.90788
715.015	471.10186
715.448	454.07218
715.881	435.89487
716.313	416.91985
716.746	425.94191
717.178	435.9833
717.61	518.21601
718.043	441.03197
718.475	428.97752
718.907	521.2214
719.339	468.98766
719.77	435.96807
720.202	385.92571
720.634	400.92094
721.065	476.04962
721.497	501.13822
721.928	413.9575
722.359	374.85698
722.79	431.9699
723.221	430.01854
723.652	512.22616
724.083	463.97347
724.514	488.03924
724.945	467.02221
725.375	427.93057
725.806	474.10435
726.236	473.13199
726.666	494.08392
727.096	495.12729
727.526	479.13329
727.956	447.95018
728.386	518.17857
728.816	413.98735
729.246	455.03229
729.675	428.99128
730.105	489.11854
730.534	512.10509
730.964	517.21012
731.393	522.19916
731.822	506.19888
732.251	490.15645
732.68	531.1513
733.109	539.22122
733.537	478.07294
733.966	498.14669
734.395	510.08571
734.823	539.11396
735.251	519.15248
735.68	535.23568
736.108	525.22695
736.536	537.16285
736.964	499.06985
737.392	558.28044
737.82	491.09292
738.247	527.16203
738.675	587.27615
739.102	493.1426
739.53	532.24843
739.957	578.35967
740.384	588.3224
740.811	567.31694
741.238	596.3207
741.665	543.15132
742.092	544.19181
742.519	550.24744
742.945	553.21487
743.372	557.26308
743.798	530.25775
744.225	555.20598
744.651	563.29373
745.077	588.33535
745.503	579.28751
745.929	555.21773
746.355	590.33774
746.781	591.33268
747.207	533.14533
747.632	532.19093
748.058	571.3022
748.483	556.16738
748.908	565.28384
749.334	607.35096
749.759	583.24756
750.184	584.26236
750.609	596.33056
751.033	599.28295
751.458	611.2331
751.883	630.40944
752.307	608.29132
752.732	562.28294
753.156	587.3188
753.58	636.35732
754.005	606.39792
754.429	613.29828
754.853	569.28667
755.277	564.21647
755.7	592.33521
756.124	536.22204
756.548	601.28724
756.971	590.30902
757.394	585.37589
757.818	628.46249
758.241	619.42199
758.664	617.41061
759.087	523.0673
759.51	627.40877
759.933	586.2791
760.356	606.41177
760.778	573.28416
761.201	685.48378
761.623	590.30033
762.046	606.29992
762.468	597.30012
762.89	597.33801
763.312	606.33954
763.734	533.17724
764.156	538.21969
764.578	539.13387
765	566.25987
765.421	507.18992
765.843	568.36508
766.264	568.25126
766.686	562.29169
767.107	531.18112
767.528	496.15886
767.949	540.2623
768.37	519.17299
768.791	524.16577
769.212	486.13146
769.632	456.98891
770.053	476.16832
770.473	490.10307
770.894	492.1423
771.314	491.08524
771.734	471.01709
772.154	483.15288
772.575	477.02348
772.994	453.95706
773.414	532.17185
773.834	414.97518
774.254	484.09754
774.673	487.09832
775.093	442.02158
775.512	438.00831
775.931	474.11733
776.351	441.0231
776.77	416.95586
777.189	444.98626
777.607	441.05368
778.026	394.92736
778.445	373.88495
778.864	430.03458
779.282	411.92982
779.701	411.97619
780.119	355.85392
780.537	380.8979
780.955	412.98816
781.373	385.90072
781.791	329.70455
782.209	351.76886
782.627	360.90333
783.045	367.79882
783.462	310.76051
783.88	336.83068
784.297	304.73474
784.715	311.76621
785.132	321.74337
785.549	300.72124
785.966	326.78433
786.383	322.75764
786.8	333.73712
787.217	325.7356
787.633	251.60724
788.05	343.77602
788.466	326.73441
788.883	263.64893
789.299	262.61025
789.715	292.68252
790.131	309.73681
790.547	274.66075
790.963	262.62919
791.379	273.66641
791.795	263.57976
792.21	267.60262
792.626	244.56161
793.041	240.57527
793.457	247.59216
793.872	240.54754
794.287	196.45761
794.702	265.63119
795.117	178.43429
795.532	193.47361
795.947	221.51851
796.362	258.5962
796.776	243.55249
797.191	205.49035
797.605	129.30007
798.02	196.46677
798.434	229.4955
798.848	181.43741
799.262	198.48038
799.676	208.49572
800.09	149.36198
800.504	194.46094
800.918	147.3364
801.331	192.49342
801.745	136.30928
802.158	129.31949
802.572	199.47218
802.985	166.39503
803.398	153.35996
803.811	176.44471
804.224	166.40668
804.637	116.27445
805.05	117.26947
805.462	189.45502
805.875	112.28824
806.288	67.16192
806.7	134.33327
807.112	154.35206
807.525	137.33445
807.937	104.25574
808.349	103.25678
808.761	103.2522
809.173	86.20811
809.584	143.34923
809.996	79.19329
810.408	92.23652
810.819	148.34338
811.231	105.26961
811.642	169.39559
812.053	242.557
812.464	335.75669
812.875	360.87299
813.286	237.5923
813.697	189.43268
814.108	181.43361
814.519	134.29546
814.929	125.31591
815.34	130.31209
815.75	69.17538
816.16	81.20164
816.571	116.29895
816.981	155.36054
817.391	131.313
817.801	101.24951
818.211	93.22102
818.62	84.20182
819.03	87.21271
819.44	151.38894
819.849	112.28018
820.259	87.22207
820.668	69.16977
821.077	57.1419
821.486	95.22794
821.895	97.23866
822.304	64.16967
822.713	87.20517
823.122	109.27016
823.531	62.14732
823.939	100.24235
824.348	105.25375
824.756	61.15307
825.164	119.29688
825.573	44.11091
825.981	114.28053
826.389	98.24498
826.797	92.22948
827.205	65.14941
827.612	89.21889
828.02	91.21285
828.428	106.26813
828.835	86.22555
829.243	106.25099
829.65	87.21555
830.057	79.19142
830.464	87.21128
830.871	133.31474
831.278	88.21199
831.685	83.18489
832.092	82.2003
832.499	53.11645
832.905	98.24675
833.312	48.11004
833.718	74.18418
834.124	81.18477
834.531	72.18135
834.937	74.18965
835.343	85.20449
835.749	79.18427
836.155	82.21404
836.561	58.14289
836.966	87.212
837.372	64.16293
837.777	37.09264
838.183	72.16009
838.588	47.11709
838.993	71.17275
839.399	31.07627
839.804	-4.00987
840.209	24.06151
840.613	52.1161
841.018	42.10677
841.423	62.15906
841.828	-5.0128
842.232	100.24617
842.637	58.13707
843.041	12.03102
843.445	60.15058
843.849	47.1167
844.253	98.23151
844.657	64.16109
845.061	45.10257
845.465	54.13068
845.869	27.06323
846.272	14.0344
846.676	66.15959
847.079	35.0894
847.483	93.23075
847.886	56.13648
848.289	25.06709
848.692	45.1143
849.095	80.19155
849.498	88.22205
849.901	81.18521
850.304	54.1293
850.707	57.14544
851.109	96.24145
851.512	43.10603
851.914	6.01526
852.316	78.19667
852.718	-6.01566
853.121	26.06412
853.523	55.12874
853.925	14.03679
854.326	26.06539
854.728	61.1568
855.13	42.10862
855.531	10.02413
855.933	81.19376
856.334	31.07768
856.736	17.03843
857.137	58.13494
857.538	31.07832
857.939	52.12862
858.34	70.17029
858.741	67.17486
859.142	63.15128
859.542	59.15561
859.943	47.11704
860.343	19.04738
860.744	72.17528
861.144	79.192
861.544	7.01699
861.945	49.12507
862.345	57.13947
862.745	52.12938
863.145	85.20224
863.544	72.18148
863.944	59.13941
864.344	38.09475
864.743	66.16355
865.143	88.22482
865.542	25.05838
865.941	55.13622
866.34	86.20497
866.74	73.19537
867.139	49.11753
867.537	70.17795
867.936	42.10141
868.335	29.07415
868.734	65.16586
869.132	53.12329
869.531	60.14509
869.929	54.1232
870.327	27.0651
870.726	71.17662
871.124	69.16095
871.522	73.18542
871.92	76.18682
872.318	47.11513
872.715	85.20936
873.113	36.08807
873.511	40.09996
873.908	-5.01276
874.306	19.04757
874.703	46.11532
875.1	54.1382
875.497	35.08427
875.894	-9.02232
876.291	24.05926
876.688	49.12652
877.085	72.17226
877.482	63.15752
877.878	21.05089
878.275	21.05368
878.671	44.09828
879.068	74.17806
879.464	49.1186
879.86	28.06658
880.256	62.15285
880.652	56.14241
881.048	68.16814
881.444	23.0551
881.84	54.13728
882.236	62.15572
882.631	41.10091
883.027	60.14519
883.422	1.00258
883.817	3.00761
884.213	25.06449
884.608	16.03952
885.003	22.05338
885.398	44.11035
885.793	46.11566
886.188	-3.00754
886.582	91.23195
886.977	29.06918
887.371	65.1641
887.766	-11.02768
888.16	27.06773
888.554	49.12131
888.949	41.10321
889.343	74.18015
889.737	35.09355
890.131	2.00506
890.525	83.21119
890.918	23.05821
891.312	74.17644
891.706	66.17281
892.099	53.1349
892.492	75.16118
892.886	47.11517
893.279	24.06147
893.672	59.15007
894.065	39.09793
894.458	66.16564
894.851	43.1056
895.244	39.09986
895.637	24.05814
896.029	92.22338
896.422	43.10529
896.814	47.117
897.206	32.07653
897.599	79.19451
897.991	13.03168
898.383	24.05705
898.775	42.09505
899.167	22.05163
899.559	85.21398
899.951	30.07106
900.342	56.14236
900.734	-46.1162
901.125	27.07116
901.517	44.1082
901.908	91.21668
902.299	16.03939
902.69	72.1693
903.082	63.15231
903.473	27.06498
903.863	32.08195
904.254	13.03042
904.645	51.12691
905.036	-9.02205
905.426	103.23353
905.817	6.01485
906.207	23.05512
906.597	25.0588
906.987	23.05992
907.378	34.08628
907.768	19.05052
908.158	8.01967
908.547	51.13178
908.937	12.03101
909.327	52.12631
909.717	61.15466
910.106	23.05556
910.495	64.15947
910.885	56.14176
911.274	37.09274
911.663	51.12949
912.052	53.13079
912.441	16.04095
912.83	36.08293
913.219	49.12832
913.608	42.10309
913.997	6.01517
914.385	85.20185
914.774	36.08794
915.162	13.03122
915.55	41.09942
915.939	21.0533
916.327	42.10503
916.715	49.12494
917.103	77.18868
917.491	39.09673
917.878	32.07898
918.266	50.12971
918.654	18.04626
919.041	24.06295
919.429	34.08054
919.816	27.06875
920.203	36.08758
920.591	52.12895
920.978	54.1322
921.365	49.12862
921.752	33.07897
922.139	28.06112
922.525	16.03869
922.912	32.07834
923.299	44.10951
923.685	32.08376
924.072	85.19475
924.458	29.07214
924.844	18.04482
925.231	33.0771
925.617	22.05624
926.003	39.0999
926.389	40.10111
926.774	67.16933
927.16	34.08472
927.546	29.07431
927.931	61.15196
928.317	24.0556
928.702	76.17898
929.088	32.07598
929.473	56.14236
929.858	3.00732
930.243	-4.0097
930.628	11.02696
931.013	5.0125
931.398	72.16493
931.783	37.09765
932.167	33.08095
932.552	65.16246
932.937	34.08466
933.321	53.13294
933.705	15.03806
934.09	70.17631
934.474	111.26064
934.858	30.07809
935.242	-11.02581
935.626	42.10768
936.009	52.13828
936.393	17.04352
936.777	31.07966
937.16	50.13011
937.544	73.17128
937.927	44.11178
938.311	53.12934
938.694	62.16366
939.077	23.05535
939.46	59.14468
939.843	64.13318
940.226	35.09003
940.609	43.09888
940.991	20.05119
941.374	-9.02224
941.757	48.11851
942.139	33.07439
942.522	41.0971
942.904	77.18419
943.286	43.10941
943.668	37.09607
944.05	18.04461
944.432	25.06199
944.814	18.04461
945.196	5.01229
945.578	0
945.959	3.0071
946.341	83.20255
946.722	51.11971
947.104	11.02649
947.485	46.10715
947.866	44.11098
948.247	18.04568
948.628	46.11232
949.009	27.06943
949.39	59.14666
949.771	33.07704
950.152	45.11055
950.532	-10.02487
950.913	21.05094
951.293	42.11361
951.674	46.11136
952.054	-29.0729
952.434	35.08713
952.814	58.13781
953.194	61.15936
953.574	57.14024
953.954	31.0739
954.334	34.08499
954.714	32.07825
955.093	51.12539
955.473	22.05529
955.853	55.14226
956.232	52.14248
956.611	67.16021
956.99	33.08319
957.37	42.10719
957.749	40.09563
958.128	0
958.506	66.17074
958.885	10.02542
959.264	26.06401
959.643	18.04123
960.021	29.07214
960.4	12.02741
960.778	63.15483
961.156	12.03029
961.535	52.12117
961.913	0
962.291	-5.01295
962.669	41.10403
963.047	47.12001
963.424	31.07938
963.802	41.10099
964.18	54.13655
964.557	63.14475
964.935	69.16291
965.312	-9.02367
965.69	61.15246
966.067	55.13382
966.444	61.15003
966.821	30.07761
967.198	68.16443
967.575	36.08875
967.952	9.02138
968.329	34.08299
968.705	35.07531
969.082	41.10532
969.458	-3.00727
969.835	43.10482
970.211	25.06444
970.587	66.16385
970.963	28.07211
971.339	19.04987
971.715	43.10751
972.091	24.05939
972.467	55.13707
972.843	89.2193
973.219	82.19574
973.594	37.09699
973.97	83.19634
974.345	18.04335
974.721	75.18077
975.096	27.06562
975.471	44.10451
975.846	35.08433
976.221	9.02302
976.596	24.05782
976.971	51.1259
977.346	61.14173
977.72	25.06397
978.095	81.20821
978.469	34.08141
978.844	71.17784
979.218	9.02174
979.593	69.16474
979.967	60.14591
980.341	42.09687
980.715	42.10598
981.089	21.05285
981.463	-5.01161
981.837	9.02216
982.21	29.06778
982.584	-16.03913
982.957	27.0677
983.331	60.14158
983.704	-3.00744
984.078	-15.03741
984.451	64.15947
984.824	-29.07167
985.197	16.03911
985.57	33.08302
985.943	95.2327
986.316	75.18344
986.688	53.12775
987.061	49.11488
987.434	37.09663
987.806	33.08029
988.179	-7.0167
988.551	39.09913
988.923	26.06431
989.295	42.10511
989.667	13.03128
990.039	13.03234
990.411	10.0232
990.783	24.05555
991.155	-30.07317
991.527	76.18626
991.898	44.10975
992.27	27.06707
992.641	50.12544
993.012	47.11066
993.384	42.10033
993.755	32.08184
994.126	59.14167
994.497	-13.03228
994.868	24.05542
995.239	17.04146
995.61	16.0405
995.98	43.10459
996.351	27.06714
996.722	0
997.092	-19.04559
997.462	-16.03786
997.833	79.18623
998.203	44.1068
998.573	22.05506
998.943	50.11725
999.313	22.053
999.683	21.05067
1000.053	29.06701
1000.423	-1.00245
1000.792	23.05988
1001.162	36.08882
1001.531	13.03227
1001.901	5.01256
1002.27	51.11398
1002.639	19.04881
1003.009	46.10947
1003.378	5.01288
1003.747	28.06643
1004.116	11.02651
1004.485	26.06242
1004.853	10.02551
1005.222	49.12357
1005.591	30.0715
1005.959	-10.02281
1006.328	10.02269
1006.696	6.01459
1007.064	17.04301
1007.433	82.20372
1007.801	58.14215
1008.169	30.07602
1008.537	30.0667
1008.905	-5.01177
1009.273	48.1186
1009.64	25.05992
1010.008	34.08128
1010.375	71.17172
1010.743	96.21965
1011.11	5.01193
1011.478	18.0448
1011.845	-1.00237
1012.212	-9.02061
1012.579	18.04444
1012.946	62.1472
1013.313	61.14486
1013.68	63.14121
1014.047	26.06223
1014.414	9.02142
1014.78	35.08719
1015.147	48.11611
1015.513	56.13475
1015.88	76.19341
1016.246	49.12096
1016.612	74.16856
1016.978	58.14189
1017.344	-7.01748
1017.71	80.19396
1018.076	56.13188
1018.442	62.15912
1018.808	45.11255
1019.174	30.07551
1019.539	89.20326
1019.905	9.02139
1020.27	-27.06756
1020.636	46.11035
1021.001	44.10543
1021.366	8.01936
1021.731	57.14636
1022.096	-2.00509
1022.461	59.13935
1022.826	37.08814
1023.191	43.11291
1023.556	25.05886
1023.92	60.14721
1024.285	33.08077
1024.649	36.08843
1025.014	20.0498
1025.378	44.11071
1025.742	38.09455
1026.107	-23.05278
1026.471	83.19246
1026.835	-11.02756
1027.199	9.02182
1027.562	33.07694
1027.926	31.07605
1028.29	25.06352
1028.654	38.08761
1029.017	9.02228
1029.381	31.0743
1029.744	25.06402
1030.107	96.22502
1030.471	-5.01209
1030.834	39.08889
1031.197	57.13708
1031.56	42.09922
1031.923	32.08296
1032.286	66.15446
1032.648	66.1573
1033.011	2.00463
1033.374	48.11282
1033.736	17.04493
1034.099	-1.00246
1034.461	2.00509
1034.823	-20.05041
1035.185	20.05059
1035.548	43.10474
1035.91	23.05535
1036.272	47.10699
1036.634	62.15128
1036.995	18.04256
1037.357	8.01961
1037.719	-1.00245
1038.08	63.14915
1038.442	-13.03122
1038.803	10.02418
1039.165	10.0254
1039.526	13.03162
1039.887	-10.02419
1040.248	-9.0224
1040.609	28.06944
1040.97	10.02461
1041.331	55.13905
1041.692	-27.06394
1042.053	29.06628
1042.413	67.15554
1042.774	69.16713
1043.134	113.26565
1043.495	62.15544
1043.855	14.03417
1044.215	42.10435
1044.576	21.05046
1044.936	33.07588
1045.296	62.15431
1045.656	46.11291
1046.016	36.08708
1046.375	6.01467
1046.735	-16.03674
1047.095	-2.00473
1047.454	61.12889
1047.814	56.13439
1048.173	54.12885
1048.533	28.0644
1048.892	-16.03886
1049.251	47.11798
1049.61	3.00745
1049.969	40.09442
1050.328	10.02186
1050.687	54.13122
1051.046	85.2055
1051.405	51.12677
1051.763	2.00464
1052.122	-5.01259
1052.48	8.01976
1052.839	3.00712
1053.197	17.04025
1053.555	36.08227
1053.914	77.18728
1054.272	40.09683
1054.63	-2.00493
1054.988	-7.0168
1055.345	10.02171
1055.703	80.19133
1056.061	31.07996
1056.419	35.09078
1056.776	36.08748
1057.134	27.06276
1057.491	40.10028
1057.848	21.05252
1058.206	18.04257
1058.563	7.01556
1058.92	35.08087
1059.277	42.1037
1059.634	41.09657
1059.991	45.10785
1060.348	-10.02286
1060.704	7.01681
1061.061	71.16418
1061.418	47.11397
1061.774	54.13313
1062.131	25.06633
1062.487	21.04935
1062.843	82.20313
1063.199	19.04749
1063.555	55.12723
1063.911	88.22062
1064.267	88.18189
1064.623	0
1064.979	77.18137
1065.335	44.10523
1065.691	49.11739
1066.046	23.05083
1066.402	18.04113
1066.757	66.166
1067.112	49.1202
1067.468	22.05219
1067.823	52.12489
1068.178	52.12565
1068.533	42.1019
1068.888	42.10045
1069.243	19.04713
1069.598	49.119
1069.952	1.00227
1070.307	9.02243
1070.662	3.00718
1071.016	34.07638
1071.371	27.06166
1071.725	49.11717
1072.079	63.15105
1072.434	15.03666
1072.788	45.10719
1073.142	89.21719
1073.496	45.10678
1073.85	48.11128
1074.203	64.15476
1074.557	58.15392
1074.911	66.15694
1075.265	44.10233
1075.618	80.1941
1075.971	55.13061
1076.325	14.03578
1076.678	40.09159
1077.031	16.03643
1077.385	10.0222
1077.738	21.04765
1078.091	-22.05072
1078.444	67.15493
1078.796	26.06403
1079.149	70.17334
1079.502	34.08051
1079.855	31.07251
1080.207	51.12553
1080.56	21.05451
1080.912	12.0294
1081.264	13.0315
1081.617	9.02209
1081.969	18.04563
1082.321	42.10263
1082.673	0
1083.025	22.05243
1083.377	-151.3379
1083.728	30.07021
1084.08	42.10492
1084.432	49.11811
1084.783	68.15864
1085.135	31.0779
1085.486	-12.02778
1085.838	42.10351
1086.189	47.11406
1086.54	48.11458
1086.891	-9.02298
1087.242	15.03673
1087.593	76.18398
1087.944	-22.05048
1088.295	57.12929
1088.646	47.11389
1088.996	-19.04633
1089.347	14.03455
1089.698	13.03092
1090.048	29.07553
1090.398	36.08366
1090.749	7.01687
1091.099	7.01772
1091.449	32.07991
1091.799	11.02771
1092.149	-26.06424
1092.499	2.00492
1092.849	79.19959
1093.199	62.15493
1093.548	33.07948
1093.898	3.00756
1094.248	66.16897
1094.597	1.00257
1094.947	58.15438
1095.296	20.04962
1095.645	53.13766
1095.994	25.06028
1096.343	46.11574
1096.692	-22.05844
1097.041	-14.03826
1097.39	57.14267
1097.739	84.21686
1098.088	84.22359
1098.437	47.12342
1098.785	47.12666
1099.134	76.20075
1099.482	43.11829
1099.83	26.06854
1100.179	11.02886
1100.527	51.13537
1100.875	12.0319
1101.223	25.0666
1101.571	27.07482
1101.919	-7.01845
1102.267	30.08464
1102.615	4.01286
1102.962	23.07394
1103.31	10.03211
1103.658	20.06435
