Data from N2 R5 sample 1_Subt2__4__14-23-54-668.txt Node

Date: Fri Aug 29 14:23:54 PDT 2025
User: uwsun
Spectrometer: HDX01956
Trigger mode: 0
Integration Time (sec): 5.000000E-1
Scans to average: 1
Nonlinearity correction enabled: true
Boxcar width: 0
Storing dark spectrum: false
XAxis mode: Wavelengths
Number of Pixels in Spectrum: 2068
>>>>>Begin Spectral Data<<<<<
194.03	324.86339
194.578	314.95363
195.127	327.9756
195.676	317.95021
196.225	363.90381
196.773	369.95127
197.321	546.329
197.87	760.61313
198.418	730.53594
198.966	730.54671
199.513	709.42595
200.061	628.31125
200.609	716.56516
201.156	703.21112
201.704	683.39945
202.251	672.46704
202.798	718.51795
203.345	733.46616
203.892	717.46192
204.438	719.38369
204.985	742.38594
205.532	736.57097
206.078	771.50741
206.624	760.48342
207.17	756.39055
207.716	745.43931
208.262	759.15094
208.808	658.31017
209.354	738.43156
209.899	798.61734
210.445	741.46919
210.99	736.41001
211.535	796.47307
212.08	799.45767
212.625	787.57214
213.17	752.53719
213.715	691.21132
214.259	779.43258
214.804	782.54446
215.348	739.34391
215.892	738.41793
216.436	820.48965
216.98	807.39225
217.524	741.39603
218.068	816.63504
218.612	778.5746
219.155	718.35626
219.698	736.40662
220.242	771.55081
220.785	674.28171
221.328	686.40212
221.871	737.52655
222.414	743.50334
222.956	617.22413
223.499	646.18427
224.041	686.30457
224.583	679.18837
225.126	645.156
225.668	672.33561
226.21	677.39776
226.751	591.05684
227.293	681.26395
227.835	660.32086
228.376	680.28059
228.918	734.51187
229.459	681.38402
230	618.21441
230.541	661.24261
231.082	670.32729
231.622	659.23945
232.163	607.2166
232.704	703.41516
233.244	638.30565
233.784	670.35205
234.324	618.09529
234.864	626.15908
235.404	698.34804
235.944	697.34064
236.484	695.41957
237.023	660.26783
237.563	709.31014
238.102	696.32812
238.641	690.42687
239.18	687.28841
239.719	693.41932
240.258	734.31015
240.797	662.28574
241.335	739.45567
241.874	639.9708
242.412	727.39777
242.95	661.27616
243.488	738.33495
244.026	673.24597
244.564	769.21982
245.102	684.22512
245.64	716.39212
246.177	721.2806
246.715	740.42178
247.252	673.24721
247.789	764.10113
248.326	692.32877
248.863	662.15642
249.4	758.35378
249.936	728.16153
250.473	727.34146
251.009	700.27123
251.546	685.19638
252.082	761.29596
252.618	689.21414
253.154	708.35563
253.69	775.35609
254.226	716.35974
254.761	738.29832
255.297	655.13965
255.832	644.22991
256.367	748.38752
256.903	701.20895
257.438	707.32338
257.972	733.27638
258.507	705.26832
259.042	758.27107
259.576	724.20067
260.111	802.43623
260.645	702.19234
261.179	782.41256
261.713	729.26204
262.247	762.37005
262.781	737.18297
263.315	779.4893
263.849	734.45495
264.382	787.40099
264.915	802.44139
265.449	722.37582
265.982	837.45028
266.515	763.45584
267.048	740.19825
267.58	745.26318
268.113	723.20264
268.646	737.43131
269.178	802.35606
269.71	802.32895
270.243	801.4017
270.775	758.51869
271.307	749.41734
271.838	787.45602
272.37	815.54697
272.902	761.33643
273.433	815.33977
273.965	745.41869
274.496	783.52224
275.027	762.47537
275.558	749.41458
276.089	806.51091
276.62	878.71409
277.15	812.54987
277.681	786.29446
278.211	825.5561
278.741	764.27138
279.272	783.35576
279.802	844.61338
280.332	837.48483
280.861	809.48712
281.391	781.33941
281.921	824.51512
282.45	851.62404
282.98	884.75841
283.509	839.40308
284.038	806.38055
284.567	848.48999
285.096	842.53589
285.625	826.396
286.153	815.43299
286.682	858.44711
287.21	837.51021
287.739	790.41106
288.267	843.52493
288.795	912.81249
289.323	850.46235
289.851	894.53581
290.378	903.46437
290.906	818.47623
291.433	828.5568
291.961	892.4558
292.488	878.62512
293.015	841.45491
293.542	856.61349
294.069	849.54596
294.596	922.67537
295.122	902.56363
295.649	917.43803
296.175	913.6158
296.702	919.62308
297.228	963.68687
297.754	927.47142
298.28	928.48692
298.806	946.62108
299.332	924.42521
299.857	951.4976
300.383	969.77387
300.908	873.52322
301.433	965.65329
301.958	1002.61235
302.483	965.70542
303.008	1014.76579
303.533	992.85846
304.058	1007.65201
304.582	940.54983
305.107	929.74321
305.631	988.55567
306.155	1004.59098
306.679	986.57307
307.203	975.54881
307.727	984.60831
308.251	989.70177
308.775	973.57124
309.298	975.59133
309.822	1060.82967
310.345	1057.67297
310.868	1056.68429
311.391	1086.79647
311.914	1118.85675
312.437	1150.68377
312.96	1062.64298
313.482	1135.73046
314.005	1122.85627
314.527	1104.94019
315.049	1121.87859
315.571	1057.48019
316.093	1151.83398
316.615	1120.72512
317.137	1144.51736
317.659	1302.93725
318.18	1233.84763
318.702	1190.69283
319.223	1136.37451
319.744	1189.59072
320.265	1273.83745
320.786	1214.82386
321.307	1296.92593
321.828	1297.67524
322.348	1302.7659
322.869	1254.71011
323.389	1048.90238
323.909	1369.73717
324.43	1368.89027
324.95	1326.66974
325.47	1398.89765
325.989	1385.76259
326.509	1420.57975
327.029	1424.63527
327.548	1432.6214
328.067	1429.79951
328.587	1499.96621
329.106	1419.63003
329.625	1560.21073
330.144	1436.65423
330.662	1533.69591
331.181	1485.70355
331.7	1629.76357
332.218	1679.53445
332.736	1690.76282
333.255	1559.66877
333.773	1647.74762
334.291	1697.96143
334.808	1667.53933
335.326	1691.57891
335.844	1787.6331
336.361	1766.89793
336.879	1744.60697
337.396	1858.73196
337.913	1855.56118
338.43	1815.47245
338.947	1948.65881
339.464	1797.28457
339.981	1864.58031
340.497	2032.76399
341.014	1934.66314
341.53	1786.36692
342.046	1980.64846
342.562	1997.72936
343.078	2097.48497
343.594	2075.52677
344.11	2142.49137
344.626	2105.67469
345.141	2185.28917
345.657	2184.2973
346.172	2147.46351
346.687	2146.26564
347.202	2173.16309
347.717	2239.35808
348.232	2224.52077
348.747	2267.17747
349.261	2208.9404
349.776	2280.21376
350.29	2279.31736
350.805	2448.36805
351.319	2408.10793
351.833	2308.97152
352.347	2466.06621
352.861	2424.01738
353.374	2534.98005
353.888	2423.14904
354.401	2576.8827
354.915	2412.77885
355.428	2593.10128
355.941	2653.80223
356.454	2667.73118
356.967	2607.89288
357.48	2563.79985
357.993	2615.00491
358.505	2605.92756
359.018	2832.83304
359.53	2871.70119
360.042	2829.45872
360.554	2821.75552
361.066	2773.74595
361.578	2871.31528
362.09	2795.64245
362.602	2841.30865
363.113	2913.42304
363.625	2882.3064
364.136	2928.21286
364.647	2879.27009
365.158	3071.24769
365.669	3120.31215
366.18	3129.23076
366.691	3023.05308
367.201	3056.26236
367.712	3053.05021
368.222	3159.98267
368.733	3090.79877
369.243	3294.70146
369.753	3437.76116
370.263	3419.83992
370.773	3399.92636
371.282	3365.74385
371.792	3521.39829
372.301	3590.52221
372.811	3713.69072
373.32	3597.07289
373.829	3671.21148
374.338	3948.91699
374.847	3920.92297
375.356	4130.84793
375.865	4208.61063
376.373	4502.61817
376.882	4642.72809
377.39	4702.64643
377.898	4625.60178
378.407	4966.74812
378.915	5362.14671
379.423	5476.21584
379.93	5649.64218
380.438	5813.01351
380.946	6114.98559
381.453	6302.75805
381.96	6536.14057
382.468	6902.77382
382.975	7534.55174
383.482	7826.69957
383.989	7945.46417
384.495	8014.57543
385.002	8277.20528
385.509	8887.97959
386.015	9672.0254
386.521	9959.88279
387.028	10372.68656
387.534	10533.88485
388.04	11130.8821
388.546	10952.97408
389.051	11600.51612
389.557	12602.04381
390.063	13938.6902
390.568	14553.82366
391.073	14607.10392
391.578	15193.67285
392.084	15606.9997
392.589	15834.45435
393.093	16618.97829
393.598	18206.35445
394.103	20334.9387
394.607	22404.71173
395.112	23906.47824
395.616	25252.39729
396.12	27211.96938
396.624	29992.9167
397.128	32951.00963
397.632	36585.49445
398.136	37983.06478
398.639	35764.00535
399.143	32394.97882
399.646	28888.45294
400.15	25083.82847
400.653	20124.16724
401.156	13866.23708
401.659	5169.95759
402.162	1054.15589
402.664	0
403.167	0
403.67	0
404.172	0
404.674	0
405.176	0
405.678	0
406.18	0
406.682	0
407.184	0
407.686	0
408.187	0
408.688	0
409.19	0
409.691	0
410.192	0
410.693	0
411.194	435.30976
411.694	4082.94878
412.195	8864.71461
412.696	12089.80453
413.196	12760.96929
413.696	12863.67595
414.196	13703.56671
414.696	17261.84252
415.196	21764.24417
415.696	29583.19008
416.196	36460.31858
416.695	40057.39798
417.195	41392.74103
417.694	42311.08144
418.194	43034.43196
418.693	39641.27418
419.192	37981.81293
419.691	37664.80473
420.19	36921.56023
420.688	36049.86051
421.187	34424.82507
421.685	32379.27262
422.184	29937.95611
422.682	26242.90406
423.18	21970.6134
423.678	19208.10292
424.176	17897.27893
424.674	16680.44726
425.172	16089.2347
425.669	15471.648
426.167	14490.83122
426.664	13227.79402
427.161	12091.43222
427.659	11010.50396
428.156	10217.14162
428.652	9611.98351
429.149	9242.45593
429.646	8785.80686
430.143	8446.70865
430.639	7965.24752
431.135	7465.56999
431.632	7049.99033
432.128	6618.84065
432.624	6212.44371
433.12	5817.19758
433.616	5679.88805
434.111	5214.07866
434.607	5148.89173
435.103	5225.99731
435.598	5080.84975
436.093	4953.67799
436.588	4613.61882
437.083	4456.6617
437.578	4228.77204
438.073	3893.02084
438.568	3887.1732
439.062	3644.00518
439.557	3592.36175
440.051	3406.36677
440.546	3298.4627
441.04	3222.70548
441.534	3168.99301
442.028	3076.94166
442.522	3016.9782
443.015	2969.78107
443.509	3077.11614
444.002	2801.27168
444.496	2694.02515
444.989	2738.37308
445.482	2696.45913
445.975	2701.13432
446.468	2690.04392
446.961	2592.11141
447.454	2568.31661
447.947	2514.45517
448.439	2498.6325
448.931	2535.3409
449.424	2365.86194
449.916	2471.69612
450.408	2321.50082
450.9	2236.7712
451.392	2227.93868
451.884	2317.66778
452.375	2168.91561
452.867	2207.72741
453.358	2131.69457
453.849	2073.57681
454.341	2056.75233
454.832	2042.64458
455.323	2013.01162
455.814	1987.89158
456.304	1911.92529
456.795	1957.91179
457.285	1972.8997
457.776	2017.99368
458.266	1864.06747
458.756	1847.15605
459.247	1686.09414
459.737	1732.11171
460.226	1681.98183
460.716	1651.16515
461.206	1611.20534
461.695	1734.38478
462.185	1595.19402
462.674	1568.15388
463.163	1566.06885
463.653	1565.95257
464.142	1467.26537
464.63	1500.35619
465.119	1409.17297
465.608	1456.19423
466.096	1431.10093
466.585	1470.2722
467.073	1401.35201
467.561	1355.35152
468.05	1341.27832
468.538	1366.44108
469.026	1264.33042
469.513	1208.03775
470.001	1257.21418
470.489	1264.31872
470.976	1244.28179
471.463	1195.44623
471.951	1124.42544
472.438	1121.2735
472.925	1014.18948
473.412	1061.37414
473.899	1111.27344
474.385	1043.36899
474.872	982.20784
475.359	993.31952
475.845	912.97881
476.331	963.12038
476.817	896.26506
477.303	911.19377
477.789	872.22944
478.275	823.22759
478.761	830.20412
479.247	852.11862
479.732	845.27426
480.218	797.31518
480.703	797.24052
481.188	801.01849
481.673	757.07438
482.158	672.87334
482.643	750.25693
483.128	699.01054
483.612	601.93807
484.097	725.17554
484.581	632.98738
485.066	662.07763
485.55	537.79475
486.034	576.83256
486.518	514.838
487.002	558.94968
487.486	557.95386
487.969	541.93241
488.453	554.00405
488.936	559.876
489.42	558.86301
489.903	564.02898
490.386	529.57133
490.869	487.76484
491.352	585.03963
491.835	498.73539
492.318	475.77981
492.8	454.67979
493.283	497.94048
493.765	435.80663
494.247	469.82423
494.73	369.61857
495.212	499.91012
495.694	381.67726
496.175	347.62963
496.657	453.81616
497.139	394.50875
497.62	321.59016
498.102	328.63964
498.583	287.57685
499.064	235.41532
499.545	374.6605
500.026	292.51512
500.507	341.62158
500.988	331.65546
501.469	291.58354
501.949	297.59254
502.43	238.45486
502.91	237.38964
503.39	305.61896
503.87	275.5178
504.35	312.59311
504.83	288.50143
505.31	262.51481
505.79	255.49432
506.269	259.49343
506.749	199.37211
507.228	240.45823
507.707	234.42144
508.187	223.44159
508.666	189.38478
509.145	177.34262
509.623	142.27968
510.102	208.41893
510.581	256.51133
511.059	139.29369
511.538	228.49408
512.016	193.38559
512.494	209.42453
512.972	232.45888
513.45	122.237
513.928	201.40642
514.406	142.28627
514.884	181.39282
515.361	169.34093
515.839	213.40244
516.316	155.31556
516.793	213.45517
517.27	192.39419
517.747	121.2663
518.224	155.30478
518.701	178.33359
519.178	102.21669
519.654	130.26617
520.131	132.27994
520.607	212.44566
521.083	143.27813
521.56	104.21178
522.036	148.27695
522.512	167.35362
522.987	99.20192
523.463	136.2772
523.939	152.32066
524.414	182.35829
524.89	139.28363
525.365	109.21291
525.84	49.10126
526.315	123.25544
526.79	135.26157
527.265	134.2628
527.74	87.18479
528.215	146.29595
528.689	81.15589
529.164	138.25798
529.638	141.315
530.112	51.10539
530.587	85.15682
531.061	73.15377
531.534	128.27003
532.008	90.1887
532.482	154.30503
532.956	74.16529
533.429	116.24504
533.903	119.22902
534.376	108.2076
534.849	103.20865
535.322	77.15984
535.795	84.18071
536.268	164.3399
536.741	104.21911
537.213	98.19865
537.686	44.09478
538.158	10.01987
538.631	149.31578
539.103	100.19501
539.575	101.18418
540.047	93.17916
540.519	172.35616
540.991	95.2053
541.463	108.22954
541.934	116.2317
542.406	72.15116
542.877	132.25888
543.348	92.19605
543.82	109.23535
544.291	157.31876
544.762	69.14406
545.233	106.23265
545.703	112.21509
546.174	155.31154
546.645	127.26162
547.115	125.26144
547.585	170.33577
548.056	123.25521
548.526	167.33426
548.996	234.47564
549.466	244.50456
549.935	153.30794
550.405	234.42576
550.875	232.45931
551.344	248.49766
551.814	227.43667
552.283	296.52901
552.752	223.43105
553.221	256.45444
553.69	242.44368
554.159	260.52608
554.628	247.45204
555.096	269.56361
555.565	254.46662
556.033	232.45931
556.502	215.44111
556.97	212.3977
557.438	139.28583
557.906	159.32798
558.374	126.25308
558.842	69.14643
559.31	86.17082
559.777	33.07134
560.245	135.28023
560.712	91.18797
561.18	47.09307
561.647	79.15761
562.114	14.02886
562.581	99.21797
563.048	88.18198
563.514	47.10379
563.981	78.16057
564.448	71.1433
564.914	97.2027
565.381	84.1723
565.847	113.23697
566.313	110.22941
566.779	134.26902
567.245	95.19967
567.711	84.18102
568.176	40.08138
568.642	86.19352
569.108	88.1942
569.573	124.26159
570.038	126.23637
570.504	127.25243
570.969	144.3207
571.434	99.19347
571.899	163.34213
572.363	149.30017
572.828	201.40362
573.293	174.3511
573.757	206.41299
574.222	197.38225
574.686	194.37796
575.15	178.37056
575.614	162.32673
576.078	151.31218
576.542	227.44867
577.006	203.3986
577.469	306.65091
577.933	216.41822
578.396	217.45004
578.86	212.43603
579.323	215.44529
579.786	154.29332
580.249	162.32433
580.712	223.47591
581.175	146.31895
581.637	188.38214
582.1	215.41359
582.563	251.46866
583.025	212.44881
583.487	153.27279
583.95	133.25313
584.412	266.48252
584.874	188.40148
585.336	206.4277
585.797	190.361
586.259	198.4122
586.721	152.31629
587.182	247.50607
587.643	202.40404
588.105	222.46051
588.566	164.30704
589.027	225.47247
589.488	206.41338
589.949	229.48639
590.41	179.30595
590.87	259.51601
591.331	195.37258
591.791	231.46515
592.252	188.37778
592.712	228.48057
593.172	204.40387
593.632	273.52011
594.092	284.54725
594.552	251.47005
595.011	279.55171
595.471	275.53284
595.931	301.5768
596.39	272.56372
596.849	293.58836
597.308	289.54229
597.768	296.64963
598.227	339.69928
598.685	392.763
599.144	342.68248
599.603	374.75188
600.062	341.60583
600.52	389.7278
600.978	421.83759
601.437	422.81006
601.895	450.7873
602.353	457.8411
602.811	515.93171
603.269	525.02674
603.727	577.11425
604.184	548.99472
604.642	575.13854
605.099	641.17716
605.557	638.24023
606.014	627.05804
606.471	691.35077
606.928	763.22623
607.385	806.48048
607.842	877.48446
608.299	1010.69421
608.755	922.6415
609.212	910.47203
609.668	894.43793
610.125	1038.80676
610.581	1058.81654
611.037	1048.72192
611.493	1018.75509
611.949	972.71916
612.405	946.35296
612.861	1035.77645
613.316	1058.82041
613.772	1018.69469
614.227	1003.72869
614.683	1086.64115
615.138	1036.75499
615.593	1077.7928
616.048	1093.7907
616.503	1101.96664
616.958	1009.87785
617.412	1014.76394
617.867	965.56178
618.321	1011.50856
618.776	1054.68491
619.23	1046.79778
619.684	993.66333
620.138	1036.77959
620.592	967.77642
621.046	1010.77175
621.5	941.745
621.954	1004.68686
622.407	962.61255
622.861	922.72539
623.314	891.56615
623.768	896.61238
624.221	916.35089
624.674	846.52687
625.127	839.54701
625.58	883.57474
626.033	856.48446
626.485	778.49635
626.938	791.51519
627.39	789.47499
627.843	783.46014
628.295	794.4774
628.747	701.37682
629.199	756.39681
629.651	669.262
630.103	676.28677
630.555	664.16663
631.006	668.31345
631.458	632.26124
631.909	676.30673
632.361	637.26035
632.812	611.20205
633.263	594.09368
633.714	618.12601
634.165	628.30603
634.616	580.19428
635.067	633.20097
635.518	607.25137
635.968	620.06069
636.419	610.14008
636.869	579.20104
637.319	595.19141
637.769	536.05053
638.219	603.25536
638.669	530.11564
639.119	592.26384
639.569	548.16573
640.019	539.102
640.468	547.07592
640.918	621.30493
641.367	547.08249
641.816	576.12961
642.265	584.18527
642.714	613.23714
643.163	644.28285
643.612	538.14443
644.061	571.05625
644.51	578.15704
644.958	620.18342
645.406	592.24582
645.855	648.38654
646.303	690.39183
646.751	612.21617
647.199	677.32774
647.647	666.32551
648.095	660.3105
648.543	730.26612
648.99	720.47635
649.438	745.49845
649.885	747.58793
650.333	750.21654
650.78	786.61112
651.227	758.57674
651.674	779.50079
652.121	806.66182
652.568	820.68088
653.015	829.78069
653.461	863.71222
653.908	851.65777
654.354	891.7703
654.801	849.66483
655.247	934.67063
655.693	902.97692
656.139	946.86533
656.585	980.91982
657.031	936.78696
657.477	993.71413
657.922	984.8353
658.368	1065.11884
658.813	1082.00418
659.259	1104.10279
659.704	1120.05221
660.149	1157.10275
660.594	1175.17646
661.039	1219.12454
661.484	1217.25673
661.929	1305.30367
662.373	1256.45868
662.818	1314.48946
663.262	1386.4833
663.707	1417.69356
664.151	1432.59217
664.595	1458.57574
665.039	1564.80943
665.483	1597.9292
665.927	1606.65707
666.371	1564.54333
666.814	1709.80512
667.258	1708.75514
667.701	1818.52498
668.145	1827.08022
668.588	1884.06501
669.031	1913.89639
669.474	1939.02686
669.917	2053.7542
670.36	2000.20441
670.803	2098.15213
671.245	2115.58345
671.688	2191.25911
672.13	2147.84113
672.573	2283.52126
673.015	2306.23822
673.457	2388.8031
673.899	2398.32778
674.341	2478.33389
674.783	2474.29229
675.225	2550.4585
675.666	2507.31114
676.108	2618.8369
676.549	2672.29379
676.991	2685.9158
677.432	2648.43847
677.873	2811.18046
678.314	2805.35622
678.755	2862.47044
679.196	2805.12027
679.637	2838.50569
680.078	2867.25795
680.518	2937.24057
680.959	2896.38741
681.399	2938.60039
681.839	3050.49153
682.28	2935.56604
682.72	2956.12332
683.16	2934.62686
683.6	3053.11236
684.039	3051.62038
684.479	3055.54139
684.919	3073.14716
685.358	3128.77519
685.798	3143.99569
686.237	3153.46013
686.676	3177.20756
687.115	3162.27474
687.554	3090.34339
687.993	3123.93052
688.432	3062.11885
688.871	3055.0733
689.309	3121.37642
689.748	3213.61271
690.186	3161.38595
690.625	3090.26394
691.063	3144.40249
691.501	3147.6032
691.939	3095.65486
692.377	3090.5135
692.815	3015.38797
693.253	3078.43367
693.69	3065.9029
694.128	3116.46477
694.565	2994.38071
695.003	3086.77919
695.44	3065.2854
695.877	3012.24635
696.314	3022.80167
696.751	3057.12418
697.188	2979.15589
697.625	3028.16776
698.061	3006.41254
698.498	3017.47658
698.934	2898.43775
699.371	2945.2957
699.807	2902.33049
700.243	2862.42532
700.679	2940.08592
701.115	2915.31427
701.551	2878.30801
701.987	2857.05231
702.422	2859.347
702.858	2824.36519
703.294	2814.08848
703.729	2855.53154
704.164	2780.42057
704.599	2723.9913
705.035	2697.00713
705.47	2746.47074
705.904	2728.22556
706.339	2734.2331
706.774	2800.26518
707.209	2660.16029
707.643	2672.39043
708.078	2671.46696
708.512	2644.60917
708.946	2669.38306
709.38	2656.31318
709.814	2714.12923
710.248	2654.47199
710.682	2708.33834
711.116	2614.32651
711.549	2660.81665
711.983	2636.16976
712.416	2614.2956
712.85	2715.61885
713.283	2619.29669
713.716	2705.66936
714.149	2627.34496
714.582	2627.0216
715.015	2622.62509
715.448	2653.67074
715.881	2654.90259
716.313	2630.24371
716.746	2624.26461
717.178	2645.38687
717.61	2672.71292
718.043	2660.60465
718.475	2578.41869
718.907	2645.70005
719.339	2611.0585
719.77	2595.29132
720.202	2660.68877
720.634	2608.44017
721.065	2711.32068
721.497	2652.50077
721.928	2686.51351
722.359	2699.40484
722.79	2648.35847
723.221	2749.68725
723.652	2727.84254
724.083	2712.04621
724.514	2740.15212
724.945	2722.2724
725.375	2772.19829
725.806	2786.64603
726.236	2802.81276
726.666	2824.32776
727.096	2820.54108
727.526	2791.74619
727.956	2886.09179
728.386	2854.56716
728.816	2849.73151
729.246	2868.47819
729.675	2899.56038
730.105	2868.56654
730.534	2953.2621
730.964	2948.75092
731.393	2989.64356
731.822	3036.82439
732.251	3131.78295
732.68	3035.30898
733.109	3008.5802
733.537	3057.44916
733.966	3095.63205
734.395	3124.17153
734.823	3117.04164
735.251	3088.43332
735.68	3248.69395
736.108	3143.76245
736.536	3177.29831
736.964	3191.19057
737.392	3185.68422
737.82	3281.39529
738.247	3240.38783
738.675	3337.36295
739.102	3195.66566
739.53	3275.79515
739.957	3314.87006
740.384	3358.57637
740.811	3365.76319
741.238	3348.49286
741.665	3342.15364
742.092	3470.32773
742.519	3378.57874
742.945	3409.37049
743.372	3437.57699
743.798	3439.8549
744.225	3397.30672
744.651	3436.67484
745.077	3472.62221
745.503	3482.46785
745.929	3500.34473
746.355	3498.60896
746.781	3477.5776
747.207	3393.21022
747.632	3493.44644
748.058	3430.63509
748.483	3534.06216
748.908	3549.5788
749.334	3597.48418
749.759	3470.23156
750.184	3503.28743
750.609	3611.48604
751.033	3600.22261
751.458	3646.86191
751.883	3569.55757
752.307	3499.21073
752.732	3583.59862
753.156	3570.52692
753.58	3607.24776
754.005	3616.72523
754.429	3553.18503
754.853	3551.55075
755.277	3552.23386
755.7	3560.56246
756.124	3606.54847
756.548	3525.24669
756.971	3530.45691
757.394	3568.84515
757.818	3511.84416
758.241	3517.73479
758.664	3487.70442
759.087	3482.86744
759.51	3472.60311
759.933	3511.35012
760.356	3398.83261
760.778	3493.50893
761.201	3466.44427
761.623	3465.4283
762.046	3430.2863
762.468	3393.37633
762.89	3439.55229
763.312	3381.48482
763.734	3392.38183
764.156	3247.57627
764.578	3284.1141
765	3279.49193
765.421	3200.76692
765.843	3151.0065
766.264	3246.43355
766.686	3131.70078
767.107	3087.45838
767.528	2992.71817
767.949	2991.77531
768.37	2995.54017
768.791	3064.45151
769.212	2890.67283
769.632	2865.2109
770.053	2907.00282
770.473	2905.47665
770.894	2860.65891
771.314	2732.35357
771.734	2683.1993
772.154	2671.77215
772.575	2688.17316
772.994	2569.0408
773.414	2676.37096
773.834	2639.59418
774.254	2570.44931
774.673	2550.41705
775.093	2479.47706
775.512	2442.43721
775.931	2465.61262
776.351	2326.42903
776.77	2264.31368
777.189	2342.21125
777.607	2336.58932
778.026	2268.41498
778.445	2195.39263
778.864	2163.50885
779.282	2155.17606
779.701	2100.37255
780.119	2075.36411
780.537	2043.27881
780.955	2062.39325
781.373	2023.22288
781.791	1985.76969
782.209	2012.89719
782.627	1899.42484
783.045	1846.77789
783.462	1868.24823
783.88	1826.2652
784.297	1777.09281
784.715	1759.16294
785.132	1699.86045
785.549	1711.0034
785.966	1713.02861
786.383	1613.83716
786.8	1689.69162
787.217	1566.6512
787.633	1494.75793
788.05	1536.63206
788.466	1510.57902
788.883	1500.84561
789.299	1457.59053
789.715	1353.49864
790.131	1331.54428
790.547	1344.57595
790.963	1334.5421
791.379	1278.52525
791.795	1272.21096
792.21	1250.25239
792.626	1217.25227
793.041	1219.36879
793.457	1158.28667
793.872	1141.12584
794.287	1095.09918
794.702	1172.29824
795.117	1067.16302
795.532	1093.22585
795.947	1030.02871
796.362	1003.97093
796.776	1115.08339
797.191	994.01251
797.605	853.69707
798.02	895.84095
798.434	944.72931
798.848	846.78334
799.262	823.75795
799.676	891.84092
800.09	823.74203
800.504	840.7436
800.918	773.54343
801.331	788.80864
801.745	681.37522
802.158	693.53492
802.572	751.58882
802.985	743.56846
803.398	670.41452
803.811	677.55347
804.224	666.4766
804.637	625.33007
805.05	588.22436
805.462	622.37152
805.875	574.35444
806.288	491.08885
806.7	570.30174
807.112	501.06305
807.525	510.15566
807.937	516.16928
808.349	542.24021
808.761	502.1352
809.173	483.07863
809.584	461.0565
809.996	408.93673
810.408	379.92508
810.819	421.92372
811.231	426.02958
811.642	474.04084
812.053	503.09513
812.464	623.32236
812.875	563.31073
813.286	471.12462
813.697	461.99741
814.108	388.89261
814.519	338.71334
814.929	352.85328
815.34	327.75546
815.75	294.71726
816.16	336.79734
816.571	303.75529
816.981	256.58357
817.391	290.67173
817.801	258.61888
818.211	324.73557
818.62	239.55723
819.03	290.6821
819.44	300.75255
819.849	278.67444
820.259	260.6433
820.668	209.50087
821.077	240.57746
821.486	240.55989
821.895	276.6565
822.304	215.5555
822.713	228.5229
823.122	168.41188
823.531	215.49575
823.939	220.5211
824.348	197.4678
824.756	174.4277
825.164	222.54345
825.573	148.36608
825.981	217.52381
826.389	163.40266
826.797	176.43229
827.205	131.29713
827.612	179.4329
828.02	89.20825
828.428	165.41297
828.835	165.42692
829.243	165.38622
829.65	122.30033
830.057	124.29792
830.464	143.34363
830.871	154.36295
831.278	129.30834
831.685	108.23933
832.092	165.39679
832.499	162.34776
832.905	161.40078
833.312	123.27774
833.718	132.32506
834.124	121.27378
834.531	127.31672
834.937	184.46244
835.343	106.25399
835.749	156.35835
836.155	110.28575
836.561	99.24205
836.966	131.31658
837.372	160.40039
837.777	84.20854
838.183	104.2297
838.588	81.20054
838.993	109.26332
839.399	66.16134
839.804	40.09793
840.209	96.24292
840.613	90.19936
841.018	85.21444
841.423	85.21719
841.828	85.21413
842.232	132.32303
842.637	82.19289
843.041	82.20942
843.445	75.18772
843.849	66.16331
844.253	96.22687
844.657	61.15362
845.061	47.10708
845.465	75.18077
845.869	85.19678
846.272	46.11236
846.676	111.26613
847.079	66.16767
847.483	102.25267
847.886	99.23934
848.289	50.13362
848.692	39.09916
849.095	46.11085
849.498	169.42023
849.901	79.18071
850.304	70.16709
850.707	59.15049
851.109	117.29316
851.512	65.15963
851.914	26.06591
852.316	79.19916
852.718	10.02603
853.121	43.10572
853.523	26.06121
853.925	72.18736
854.326	28.0704
854.728	49.12622
855.13	47.12144
855.531	59.14102
855.933	75.17961
856.334	7.01762
856.736	34.0766
857.137	53.12343
857.538	67.16818
857.939	67.16527
858.34	59.14382
858.741	54.14124
859.142	54.12989
859.542	39.10321
859.943	41.10221
860.343	14.03495
860.744	49.1198
861.144	51.1246
861.544	29.07009
861.945	40.10226
862.345	61.14914
862.745	63.15643
863.145	79.18818
863.544	42.10643
863.944	41.09721
864.344	91.22472
864.743	65.1611
865.143	50.12859
865.542	73.16887
865.941	55.13622
866.34	64.15318
866.74	65.17419
867.139	35.08417
867.537	87.2205
867.936	17.04124
868.335	80.20273
868.734	57.14565
869.132	33.07707
869.531	63.15225
869.929	25.05737
870.327	37.08905
870.726	42.10503
871.124	53.12401
871.522	44.11233
871.92	76.18682
872.318	70.17073
872.715	96.23598
873.113	38.09293
873.511	52.12966
873.908	10.02545
874.306	4.01004
874.703	53.13271
875.1	35.08987
875.497	62.14851
875.894	7.01731
876.291	21.05188
876.688	44.11371
877.085	62.14862
877.482	77.19203
877.878	38.09178
878.275	27.06894
878.671	48.10712
879.068	51.12325
879.464	45.109
879.86	40.0949
880.256	73.17961
880.652	59.14996
881.048	68.16814
881.444	61.14508
881.84	54.13728
882.236	16.04052
882.631	71.17378
883.027	92.22129
883.422	32.08216
883.817	-11.02797
884.213	69.17662
884.608	0
885.003	-5.01219
885.398	34.08542
885.793	51.12811
886.188	-17.04281
886.582	105.26697
886.977	89.20988
887.371	64.16161
887.766	-2.00502
888.16	78.19385
888.554	77.18966
888.949	53.13314
889.343	53.12953
889.737	1.00269
890.131	18.04545
890.525	49.12543
890.918	62.15583
891.312	91.21626
891.706	57.14947
892.099	61.15505
892.492	73.15694
892.886	40.09814
893.279	48.12241
893.672	10.02566
894.065	79.19695
894.458	43.10837
894.851	82.19993
895.244	17.0437
895.637	82.19649
896.029	53.12963
896.422	22.05408
896.814	30.07491
897.206	52.12389
897.599	96.23563
897.991	36.08735
898.383	45.10653
898.775	59.13306
899.167	-20.04732
899.559	49.12415
899.951	49.11564
900.342	69.17501
900.734	-32.08063
901.125	77.20123
901.517	53.13011
901.908	78.18619
902.299	34.08342
902.69	48.11339
903.082	60.14514
903.473	-10.02424
903.863	14.03597
904.254	59.13681
904.645	64.15889
905.036	-6.01469
905.426	34.07817
905.817	48.1179
906.207	15.036
906.597	6.01416
906.987	96.24698
907.378	42.10643
907.768	45.11912
908.158	13.03194
908.547	6.01562
908.937	48.12328
909.327	16.03913
909.717	110.27647
910.106	54.12969
910.495	65.16193
910.885	50.1267
911.274	19.04778
911.663	78.1971
912.052	18.0447
912.441	29.07405
912.83	-27.06298
913.219	50.13091
913.608	84.20457
913.997	-2.00506
914.385	64.1526
914.774	59.1435
915.162	27.06466
915.55	56.13541
915.939	33.08358
916.327	52.1298
916.715	17.04359
917.103	42.10358
917.491	77.18966
917.878	27.0667
918.266	40.10395
918.654	33.08459
919.041	36.09423
919.429	7.01667
919.816	57.14437
920.203	12.02932
920.591	71.17546
920.978	71.17327
921.365	34.08948
921.752	54.1287
922.139	-2.00439
922.525	29.06995
922.912	44.10748
923.299	20.05
923.685	26.06812
924.072	68.15633
924.458	45.11162
924.844	41.10166
925.231	54.12564
925.617	7.01794
926.003	28.07186
926.389	9.02288
926.774	40.10158
927.16	40.09956
927.546	39.09976
927.931	62.15443
928.317	25.0579
928.702	59.13941
929.088	50.1183
929.473	25.0639
929.858	-8.01956
930.243	-1.00242
930.628	26.06356
931.013	38.09441
931.398	40.09222
931.783	28.07401
932.167	24.05897
932.552	64.15999
932.937	78.19265
933.321	44.11055
933.705	32.08095
934.09	43.10883
934.474	70.16568
934.858	43.11169
935.242	6.01403
935.626	-11.02846
936.009	45.1198
936.393	27.06899
936.777	35.08987
937.16	30.07834
937.544	98.22881
937.927	44.11178
938.311	48.11725
938.694	43.11387
939.077	-5.0121
939.46	85.20743
939.843	46.0961
940.226	68.17391
940.609	34.07832
940.991	43.1096
941.374	66.16086
941.757	31.07678
942.139	5.01134
942.522	57.13458
942.904	30.07241
943.286	39.0993
943.668	61.15773
944.05	1.00249
944.432	28.06939
944.814	41.10117
945.196	-16.03948
945.578	-26.0627
945.959	19.04481
946.341	88.21455
946.722	53.12435
947.104	41.09819
947.485	79.18282
947.866	21.05319
948.247	22.05579
948.628	23.0564
949.009	7.01806
949.39	42.10473
949.771	33.07704
950.152	63.15426
950.532	-33.08242
950.913	75.18009
951.293	33.0894
951.674	16.03895
952.054	48.11899
952.434	33.08218
952.814	44.10483
953.194	92.23908
953.574	34.08401
953.954	41.09755
954.334	36.08996
954.714	-10.02464
955.093	31.0765
955.473	6.01512
955.853	23.05982
956.232	67.18314
956.611	67.16021
956.99	30.07567
957.37	41.10465
957.749	66.157
958.128	13.03297
958.506	17.04435
958.885	0
959.264	-5.01238
959.643	24.05491
960.021	-5.01251
960.4	6.01372
960.778	58.14268
961.156	17.04287
961.535	54.12578
961.913	68.15858
962.291	10.02583
962.669	28.07121
963.047	22.05642
963.424	45.11495
963.802	20.04945
964.18	79.19887
964.557	58.1334
964.935	62.14658
965.312	43.11211
965.69	85.21152
966.067	41.10002
966.444	23.05696
966.821	45.11612
967.198	73.17635
967.575	72.17633
967.952	50.11784
968.329	64.15534
968.705	32.0689
969.082	21.05413
969.458	-7.01697
969.835	-1.00246
970.211	39.10028
970.587	50.12449
970.963	60.15366
971.339	38.09943
971.715	21.05271
972.091	44.10848
972.467	85.21067
972.843	25.06233
973.219	103.24488
973.594	17.04472
973.97	88.20797
974.345	61.14569
974.721	67.16174
975.096	29.07046
975.471	46.10922
975.846	41.09867
976.221	10.02557
976.596	20.04822
976.971	27.06695
977.346	66.15319
977.72	40.10208
978.095	68.17519
978.469	64.15236
978.844	86.21483
979.218	22.05302
979.593	32.07694
979.967	37.09036
980.341	54.12425
980.715	19.04814
981.089	41.10281
981.463	-18.0419
981.837	-5.01234
982.21	73.16914
982.584	60.14465
982.957	-1.00252
983.331	57.13458
983.704	37.09114
984.078	33.08158
984.451	93.2305
984.824	-12.02956
985.197	22.05372
985.57	76.18971
985.943	68.1674
986.316	78.19067
986.688	21.05092
987.061	71.16574
987.434	29.07584
987.806	16.03905
988.179	5.0119
988.551	68.17195
988.923	13.03223
989.295	52.1299
989.667	-15.03628
990.039	32.07933
990.411	7.01625
990.783	52.11969
991.155	10.02421
991.527	100.24399
991.898	36.08993
992.27	14.03486
992.641	56.14034
993.012	61.14324
993.384	-12.02896
993.755	13.03336
994.126	41.09879
994.497	20.04936
994.868	40.09207
995.239	19.04632
995.61	47.11832
995.98	6.01469
996.351	42.10416
996.722	10.02338
997.092	-30.07213
997.462	-17.04023
997.833	54.12791
998.203	33.08026
998.573	24.06004
998.943	38.08932
999.313	16.03859
999.683	10.02418
1000.053	59.13551
1000.423	68.16468
1000.792	24.06248
1001.162	31.07655
1001.531	54.13303
1001.901	34.08499
1002.27	69.15364
1002.639	49.12521
1003.009	40.0953
1003.378	43.11007
1003.747	22.05225
1004.116	-15.03633
1004.485	41.09815
1004.853	42.10655
1005.222	38.09602
1005.591	38.09043
1005.959	-8.01824
1006.328	0
1006.696	-31.07591
1007.064	42.10579
1007.433	11.02768
1007.801	69.16876
1008.169	56.14125
1008.537	36.07994
1008.905	29.06783
1009.273	69.16983
1009.64	53.12634
1010.008	47.11208
1010.375	114.27347
1010.743	114.25988
1011.11	11.02622
1011.478	29.07204
1011.845	60.14081
1012.212	27.06139
1012.579	61.14942
1012.946	59.14016
1013.313	55.13076
1013.68	63.14121
1014.047	-14.03376
1014.414	17.0404
1014.78	41.10203
1015.147	68.16387
1015.513	29.07014
1015.88	50.12783
1016.246	37.09154
1016.612	61.13931
1016.978	21.05173
1017.344	33.08179
1017.71	71.17243
1018.076	13.03087
1018.442	32.08256
1018.808	23.05776
1019.174	1.00253
1019.539	122.27677
1019.905	10.02376
1020.27	7.01741
1020.636	64.15301
1021.001	69.16455
1021.366	5.01211
1021.731	39.10046
1022.096	-9.02293
1022.461	18.04285
1022.826	35.0834
1023.191	28.07371
1023.556	42.09856
1023.92	36.08872
1024.285	81.19649
1024.649	70.17086
1025.014	33.08197
1025.378	44.11071
1025.742	53.13151
1026.107	40.09064
1026.471	55.12824
1026.835	24.05976
1027.199	5.01213
1027.562	46.10698
1027.926	60.1464
1028.29	30.07616
1028.654	-5.01163
1029.017	97.23628
1029.381	-17.04112
1029.744	48.12241
1030.107	32.07595
1030.471	53.12678
1030.834	34.07757
1031.197	58.13946
1031.56	56.13193
1031.923	55.14202
1032.286	47.11041
1032.648	19.04569
1033.011	-10.02322
1033.374	30.07076
1033.736	30.07911
1034.099	36.08794
1034.461	7.01781
1034.823	8.02006
1035.185	15.03798
1035.548	26.06353
1035.91	30.07211
1036.272	28.06399
1036.634	32.07851
1036.995	21.04962
1037.357	-10.02459
1037.719	50.12154
1038.08	56.13275
1038.442	35.08328
1038.803	37.08901
1039.165	19.04819
1039.526	74.17793
1039.887	34.08156
1040.248	10.02481
1040.609	56.13816
1040.97	33.08086
1041.331	17.04327
1041.692	17.03992
1042.053	66.14973
1042.413	8.01879
1042.774	91.21951
1043.134	71.16828
1043.495	19.048
1043.855	25.0609
1044.215	41.10188
1044.576	39.0934
1044.936	86.19566
1045.296	41.10244
1045.656	32.07875
1046.016	38.09189
1046.375	41.09957
1046.735	-33.07603
1047.095	18.04237
1047.454	82.17246
1047.814	77.18405
1048.173	63.15007
1048.533	28.0644
1048.892	-12.02913
1049.251	72.17992
1049.61	25.0618
1049.969	40.09442
1050.328	20.04362
1050.687	42.10229
1051.046	48.11686
1051.405	43.10704
1051.763	47.10808
1052.122	16.04013
1052.48	50.12254
1052.839	-13.03094
1053.197	42.09895
1053.555	63.14319
1053.914	49.1198
1054.272	34.0824
1054.63	0
1054.988	15.03585
1055.345	42.09055
1055.703	48.1155
1056.061	51.13109
1056.419	10.02605
1056.776	67.16186
1057.134	39.09043
1057.491	57.14246
1057.848	47.117
1058.206	31.07313
1058.563	-1.00223
1058.92	94.21464
1059.277	7.01739
1059.634	30.07082
1059.991	64.15283
1060.348	11.02504
1060.704	9.0216
1061.061	102.23441
1061.418	30.07298
1061.774	33.08167
1062.131	25.06633
1062.487	14.03294
1062.843	86.21288
1063.199	74.18311
1063.555	60.13866
1063.911	53.13371
1064.267	103.21218
1064.623	27.06582
1064.979	116.27116
1065.335	91.21568
1065.691	43.10313
1066.046	22.04863
1066.402	32.07292
1066.757	24.06082
1067.112	41.10073
1067.468	-11.02626
1067.823	31.07475
1068.178	55.13282
1068.533	27.06569
1068.888	44.10519
1069.243	29.0718
1069.598	75.18125
1069.952	4.00909
1070.307	-10.02501
1070.662	10.02391
1071.016	23.05179
1071.371	36.08207
1071.725	61.14553
1072.079	52.12493
1072.434	38.09248
1072.788	49.11663
1073.142	52.12778
1073.496	13.03104
1073.85	32.07442
1074.203	47.11401
1074.557	39.10383
1074.911	89.2107
1075.265	29.06764
1075.618	41.10021
1075.971	20.04781
1076.325	28.07138
1076.678	-47.1095
1077.031	52.11754
1077.385	0
1077.738	27.06119
1078.091	-29.06695
1078.444	21.049
1078.796	25.06158
1079.149	46.11441
1079.502	54.12737
1079.855	5.01175
1080.207	36.08885
1080.56	34.08805
1080.912	61.14809
1081.264	28.06766
1081.617	-14.0345
1081.969	17.0431
1082.321	62.15094
1082.673	-6.01384
1083.025	48.11383
1083.377	-218.49455
1083.728	16.03755
1084.08	22.05515
1084.432	46.11094
1084.783	57.13327
1085.135	17.04283
1085.486	-30.06969
1085.838	46.11328
1086.189	34.08271
1086.54	82.19446
1086.891	16.04068
1087.242	17.04161
1087.593	62.15049
1087.944	38.08614
1088.295	66.14943
1088.646	9.02196
1088.996	-13.03167
1089.347	25.06158
1089.698	18.04277
1090.048	44.1143
1090.398	-9.0211
1090.749	28.06722
1091.099	-22.05599
1091.449	58.14415
1091.799	64.1597
1092.149	12.02944
1092.499	5.01229
1092.849	37.09418
1093.199	80.19926
1093.548	16.03866
1093.898	16.04024
1094.248	41.10543
1094.597	-26.06719
1094.947	49.13062
1095.296	23.05703
1095.645	20.05224
1095.994	23.05548
1096.343	41.10325
1096.692	-3.00794
1097.041	14.03809
1097.39	50.12531
1097.739	47.12212
1098.088	58.15505
1098.437	-8.0212
1098.785	61.16401
1099.134	68.17986
1099.482	29.07995
1099.83	29.07641
1100.179	-4.01052
1100.527	49.1301
1100.875	14.0372
1101.223	24.06395
1101.571	40.11061
1101.919	-42.11135
1102.267	46.12947
1102.615	2.00643
1102.962	24.07715
1103.31	0
1103.658	17.05472
