Data from N2 R5 sample 10_Subt2__5__13-33-18-239.txt Node

Date: Fri Aug 29 13:33:18 PDT 2025
User: uwsun
Spectrometer: HDX01956
Trigger mode: 0
Integration Time (sec): 5.000000E-1
Scans to average: 1
Nonlinearity correction enabled: true
Boxcar width: 0
Storing dark spectrum: false
XAxis mode: Wavelengths
Number of Pixels in Spectrum: 2068
>>>>>Begin Spectral Data<<<<<
194.03	384.01054
194.578	394.18074
195.127	379.11969
195.676	378.12063
196.225	447.0936
196.773	494.24329
197.321	638.52649
197.87	934.9079
198.418	844.73168
198.966	865.77919
199.513	850.65465
200.061	819.63841
200.609	868.83694
201.156	810.3563
201.704	838.65753
202.251	822.73802
202.798	817.69017
203.345	934.78228
203.892	865.70502
204.438	900.65764
204.985	883.59258
205.532	900.85331
206.078	948.77675
206.624	896.69314
207.17	930.63701
207.716	915.69669
208.262	864.26997
208.808	911.70854
209.354	891.66604
209.899	1022.96646
210.445	931.76497
210.99	938.71054
211.535	960.70492
212.08	970.69428
212.625	961.84317
213.17	942.84355
213.715	908.50269
214.259	930.64639
214.804	924.76486
215.348	941.62497
215.892	951.73473
216.436	854.5382
216.98	898.51232
217.524	899.62894
218.068	937.82555
218.612	952.85087
219.155	880.59727
219.698	886.63262
220.242	848.67577
220.785	843.53811
221.328	848.6703
221.871	815.65897
222.414	801.59941
222.956	756.45188
223.499	834.45768
224.041	809.49307
224.583	803.36033
225.126	813.39518
225.668	783.51646
226.21	783.57859
226.751	753.29127
227.293	836.49265
227.835	739.45226
228.376	838.51779
228.918	859.72011
229.459	766.52696
230	800.50554
230.541	825.48927
231.082	768.48701
231.622	855.53176
232.163	773.49064
232.704	833.62727
233.244	827.62087
233.784	869.67447
234.324	737.26646
234.864	808.42918
235.404	832.55591
235.944	806.51017
236.484	830.64399
237.023	824.52119
237.563	837.4979
238.102	840.5477
238.641	893.76358
239.18	829.50108
239.719	835.65583
240.258	889.52434
240.797	770.4575
241.335	892.69461
241.874	840.19988
242.412	888.64203
242.95	807.50424
243.488	874.52698
244.026	829.47593
244.564	870.3408
245.102	844.45045
245.64	903.67855
246.177	867.48255
246.715	833.56507
247.252	883.55205
247.789	905.24839
248.326	814.51769
248.863	860.42536
249.4	859.4948
249.936	885.35001
250.473	844.51239
251.009	839.47068
251.546	873.45056
252.082	889.46263
252.618	912.51515
253.154	866.5957
253.69	878.49539
254.226	810.5035
254.761	856.46016
255.297	788.32368
255.832	862.56056
256.367	870.56548
256.903	941.52108
257.438	936.65447
257.972	890.48661
258.507	821.43377
259.042	858.40013
259.576	895.41556
260.111	890.55827
260.645	856.39452
261.179	888.56127
261.713	833.40292
262.247	866.51614
262.781	884.36087
263.315	877.63739
263.849	910.73054
264.382	944.61332
264.915	901.57881
265.449	864.59041
265.982	894.52599
266.515	938.71485
267.048	912.40663
267.58	936.50659
268.113	921.45017
268.646	920.70979
269.178	923.51036
269.71	893.44322
270.243	931.57444
270.775	948.81689
271.307	954.71612
271.838	952.68981
272.37	925.70931
272.902	948.58468
273.433	969.52607
273.965	1006.79606
274.496	955.78155
275.027	999.82616
275.558	980.74772
276.089	877.6156
276.62	975.86019
277.15	958.7647
277.681	997.5478
278.211	1001.80777
278.741	932.48066
279.272	991.62295
279.802	984.81812
280.332	964.65466
280.861	1038.80012
281.391	927.52875
281.921	1037.80644
282.45	974.80408
282.98	1008.94783
283.509	1003.60349
284.038	1012.63954
284.567	1007.69697
285.096	1028.78837
285.625	988.59781
286.153	933.59063
286.682	1036.66447
287.21	967.6877
287.739	1014.70834
288.267	1064.81813
288.795	1041.00593
289.323	1011.66595
289.851	1062.74405
290.378	1034.61627
290.906	986.70426
291.433	1058.87848
291.961	1033.62078
292.488	1078.89732
293.015	1025.68818
293.542	1019.84503
294.069	1088.86326
294.596	1081.8863
295.122	1064.76671
295.649	1082.61755
296.175	1127.8856
296.702	1183.94852
297.228	1092.84921
297.754	1142.70372
298.28	1077.65416
298.806	1111.82133
299.332	1161.66938
299.857	1185.74334
300.383	1191.05923
300.908	1056.7553
301.433	1137.86002
301.958	1201.82632
302.483	1143.9281
303.008	1190.97794
303.533	1203.13716
304.058	1192.85711
304.582	1131.76819
305.107	1195.0967
305.631	1224.7995
306.155	1222.81843
306.679	1186.78684
307.203	1216.80181
307.727	1273.91716
308.251	1260.01388
308.775	1235.85065
309.298	1140.77667
309.822	1271.07239
310.345	1327.94214
310.868	1264.89953
311.391	1316.04116
311.914	1357.10831
312.437	1338.84956
312.96	1326.89752
313.482	1332.91567
314.005	1353.0984
314.527	1362.2347
315.049	1439.20713
315.571	1373.73633
316.093	1391.0681
316.615	1443.01797
317.137	1467.74536
317.659	1517.11479
318.18	1443.02946
318.702	1463.90934
319.223	1490.58498
319.744	1549.83688
320.265	1566.06238
320.786	1510.07361
321.307	1595.16338
321.828	1630.87863
322.348	1638.98908
322.869	1549.91832
323.389	1595.04654
323.909	1690.91936
324.43	1660.08746
324.95	1669.86445
325.47	1669.07377
325.989	1691.93704
326.509	1738.71221
327.029	1800.79497
327.548	1763.76178
328.067	1812.9962
328.587	1865.16254
329.106	1753.77753
329.625	1883.41144
330.144	1831.81881
330.662	1982.84224
331.181	1881.85974
331.7	1958.86649
332.218	2010.58813
332.736	1884.82188
333.255	2030.80108
333.773	2047.85404
334.291	2139.09823
334.808	2043.59937
335.326	2191.64016
335.844	2154.67573
336.361	2209.99636
336.879	2143.65732
337.396	2211.77122
337.913	2247.57471
338.43	2338.46683
338.947	2289.6682
339.464	2357.23899
339.981	2363.58372
340.497	2457.76019
341.014	2337.67144
341.53	2389.33386
342.046	2409.64014
342.562	2562.70842
343.078	2520.42819
343.594	2570.46361
344.11	2516.43815
344.626	2611.62434
345.141	2674.16994
345.657	2758.14905
346.172	2716.35154
346.687	2661.142
347.202	2688.02003
347.717	2786.21673
348.232	2774.40506
348.747	2759.02842
349.261	2788.73411
349.776	2787.06095
350.29	2955.10982
350.805	3044.16657
351.319	2894.9317
351.833	2929.73356
352.347	2965.87212
352.861	3042.76749
353.374	3061.75632
353.888	3039.9158
354.401	3153.62004
354.915	3027.50625
355.428	3075.9025
355.941	3191.5457
356.454	3334.39791
356.967	3248.5938
357.48	3339.42392
357.993	3298.69268
358.505	3313.59607
359.018	3387.55394
359.53	3473.38564
360.042	3550.06627
360.554	3491.40865
361.066	3411.42031
361.578	3490.97292
362.09	3460.29348
362.602	3476.95804
363.113	3610.03902
363.625	3699.8517
364.136	3744.75618
364.647	3605.86561
365.158	3794.84137
365.669	3801.92921
366.18	3801.85231
366.691	3833.60009
367.201	3858.81275
367.712	3843.60833
368.222	3889.57659
368.733	3879.3671
369.243	4106.27719
369.753	4197.36572
370.263	4256.40258
370.773	4133.5299
371.282	4270.28147
371.792	4401.01121
372.301	4409.14399
372.811	4630.27162
373.32	4505.76959
373.829	4629.87282
374.338	4945.75398
374.847	5005.75882
375.356	5122.77867
375.865	5262.81464
376.373	5597.01612
376.882	5805.09873
377.39	5800.15957
377.898	5866.32208
378.407	6229.14728
378.915	6499.92095
379.423	6629.0984
379.93	7004.51539
380.438	7264.57189
380.946	7729.06372
381.453	7972.73413
381.96	8137.76685
382.468	8479.75785
382.975	9434.22482
383.482	9702.68163
383.989	9772.97717
384.495	10045.11241
385.002	10458.38461
385.509	11136.60506
386.015	11842.33355
386.521	12390.12953
387.028	13038.7534
387.534	13237.47021
388.04	14197.61766
388.546	13975.86797
389.051	14869.66951
389.557	15775.85669
390.063	17624.58002
390.568	18138.42628
391.073	18352.99587
391.578	19335.136
392.084	19560.90218
392.589	19624.10184
393.093	21258.79158
393.598	23359.2894
394.103	25707.05937
394.607	28325.11831
395.112	30258.64211
395.616	32129.12583
396.12	34302.19433
396.624	37925.50717
397.128	40967.39023
397.632	40596.5841
398.136	39153.30709
398.639	36273.96993
399.143	32503.66402
399.646	28888.45294
400.15	25083.82847
400.653	20124.16724
401.156	13866.23708
401.659	5169.95759
402.162	1054.15589
402.664	0
403.167	0
403.67	0
404.172	0
404.674	0
405.176	0
405.678	0
406.18	0
406.682	0
407.184	0
407.686	0
408.187	0
408.688	0
409.19	0
409.691	0
410.192	0
410.693	0
411.194	435.30976
411.694	4082.94878
412.195	8864.71461
412.696	12089.80453
413.196	12760.96929
413.696	12863.67595
414.196	13703.56671
414.696	17261.84252
415.196	21764.24417
415.696	29583.19008
416.196	36460.31858
416.695	40057.39798
417.195	41392.74103
417.694	42311.08144
418.194	43882.52025
418.693	44704.85811
419.192	45362.15217
419.691	45362.12459
420.19	45265.11627
420.688	44424.84695
421.187	42520.59689
421.685	40125.57651
422.184	36690.78615
422.682	32046.03999
423.18	26782.20836
423.678	23572.6143
424.176	21881.53191
424.674	20600.36692
425.172	19710.06314
425.669	18793.06589
426.167	17575.4816
426.664	15972.683
427.161	14636.38272
427.659	13531.84828
428.156	12595.8923
428.652	11934.55632
429.149	11471.76375
429.646	10833.90063
430.143	10565.31863
430.639	9753.4967
431.135	9070.721
431.632	8630.08724
432.128	8028.73646
432.624	7569.08117
433.12	7157.5546
433.616	7056.07252
434.111	6635.41034
434.607	6394.53259
435.103	6485.83676
435.598	6239.26207
436.093	6056.50781
436.588	5774.17311
437.083	5406.86512
437.578	5212.78645
438.073	4824.7951
438.568	4856.89075
439.062	4575.73117
439.557	4528.97663
440.051	4328.95693
440.546	4092.07117
441.04	4026.27955
441.534	4116.47734
442.028	3944.46357
442.522	3792.54493
443.015	3771.33908
443.509	3770.72617
444.002	3579.84028
444.496	3432.61231
444.989	3471.9739
445.482	3459.05057
445.975	3379.7581
446.468	3464.61143
446.961	3290.72665
447.454	3229.96477
447.947	3106.15571
448.439	3089.34907
448.931	3019.09207
449.424	3130.52785
449.916	3017.44467
450.408	2903.22772
450.9	2839.52782
451.392	2851.70879
451.884	2934.39415
452.375	2649.75538
452.867	2801.48713
453.358	2702.47206
453.849	2632.35274
454.341	2619.55284
454.832	2567.44948
455.323	2547.87017
455.814	2587.7104
456.304	2495.77234
456.795	2451.78063
457.285	2463.76517
457.776	2435.88993
458.266	2337.98566
458.756	2345.08676
459.247	2217.04731
459.737	2156.07813
460.226	2135.93064
460.716	2057.16269
461.206	2063.21627
461.695	2031.40476
462.185	2001.21112
462.674	2008.16774
463.163	2035.062
463.653	1998.92732
464.142	1820.3309
464.63	1940.43551
465.119	1863.24123
465.608	1867.25118
466.096	1751.14397
466.585	1859.34058
467.073	1735.45098
467.561	1739.4753
468.05	1771.39711
468.538	1719.5739
469.026	1674.49103
469.513	1607.13982
470.001	1592.33067
470.489	1549.44053
470.976	1516.39832
471.463	1559.65304
471.951	1535.68388
472.438	1398.42982
472.925	1341.39219
473.412	1422.62564
473.899	1341.41023
474.385	1301.56502
474.872	1289.41996
475.359	1272.539
475.845	1238.16425
476.331	1207.28216
476.817	1266.58552
477.303	1141.3831
477.789	1116.45533
478.275	1093.50086
478.761	1094.4611
479.247	1120.34232
479.732	993.43256
480.218	1027.58903
480.703	1015.48176
481.188	1011.1951
481.673	984.29922
482.158	931.10537
482.643	929.4822
483.128	949.26821
483.612	964.34787
484.097	942.43608
484.581	923.32112
485.066	827.28514
485.55	755.04321
486.034	741.01586
486.518	702.08359
487.002	733.18788
487.486	666.10606
487.969	692.14366
488.453	773.32423
488.936	685.03341
489.42	674.00611
489.903	728.274
490.386	696.70318
490.869	643.96467
491.352	666.15914
491.835	621.88294
492.318	594.94308
492.8	640.90513
493.283	607.11627
493.765	598.06251
494.247	617.04113
494.73	546.87127
495.212	551.99178
495.694	486.84047
496.175	464.81694
496.657	545.95887
497.139	526.64892
497.62	477.84269
498.102	474.89234
498.583	490.93879
499.064	421.70809
499.545	475.81685
500.026	444.7523
500.507	404.72468
500.988	436.84219
501.469	400.78191
501.949	442.85214
502.43	363.67276
502.91	336.53723
503.39	420.82996
503.87	395.72185
504.35	410.76083
504.83	358.6118
505.31	357.68577
505.79	329.6265
506.269	388.71605
506.749	347.62514
507.228	302.56795
507.707	339.59415
508.187	342.65838
508.666	284.56568
509.145	260.49329
509.623	296.56187
510.102	280.5546
510.581	365.71061
511.059	270.55407
511.538	332.70345
512.016	297.57904
512.494	299.59487
512.972	262.51457
513.45	236.446
513.928	276.54847
514.406	213.42238
514.884	276.58684
515.361	256.50611
515.839	273.50822
516.316	270.53529
516.793	254.53795
517.27	324.64536
517.747	219.47204
518.224	255.48959
518.701	222.41153
519.178	269.55065
519.654	222.44507
520.131	260.53596
520.607	266.55252
521.083	178.34332
521.56	224.44368
522.036	249.45432
522.512	257.53347
522.987	223.44201
523.463	243.48323
523.939	246.50824
524.414	254.49156
524.89	271.53639
525.365	196.37495
525.84	176.35334
526.315	139.28763
526.79	208.39598
527.265	249.47507
527.74	197.40838
528.215	250.49471
528.689	194.36321
529.164	248.45101
529.638	245.53556
530.112	181.36312
530.587	211.37699
531.061	182.37416
531.534	253.51907
532.008	182.37383
532.482	223.43456
532.956	170.37217
533.429	236.48539
533.903	213.40066
534.376	189.35622
534.849	187.37152
535.322	209.42104
535.795	159.33653
536.268	236.48124
536.741	193.39866
537.213	219.43164
537.686	201.41835
538.158	165.31603
538.631	208.43513
539.103	221.41858
539.575	212.37574
540.047	240.44601
540.519	266.5392
540.991	277.57524
541.463	234.48367
541.934	198.38795
542.406	225.45641
542.877	198.38226
543.348	236.48715
543.82	300.62119
544.291	284.55989
544.762	264.52731
545.233	301.63345
545.703	265.49014
546.174	325.62761
546.645	315.62144
547.115	356.70645
547.585	317.60452
548.056	316.62737
548.526	331.63736
548.996	416.81049
549.466	466.91568
549.935	384.73177
550.405	455.78161
550.875	512.94732
551.344	483.91666
551.814	503.90349
552.283	549.91748
552.752	529.94777
553.221	511.84737
553.69	563.94915
554.159	500.9561
554.628	547.92567
555.096	603.16845
555.565	546.92974
556.033	533.98102
556.502	543.02991
556.97	498.86857
557.438	513.96601
557.906	516.97906
558.374	476.87894
558.842	430.84055
559.31	458.83088
559.777	412.81835
560.245	462.88899
560.712	466.88159
561.18	467.83406
561.647	498.89703
562.114	482.88913
562.581	586.1563
563.048	557.02927
563.514	543.07256
563.981	545.00253
564.448	531.9587
564.914	628.15642
565.381	581.05658
565.847	677.24154
566.313	696.26139
566.779	673.18217
567.245	658.20996
567.711	689.29026
568.176	657.14796
568.642	737.43471
569.108	755.4315
569.573	815.45769
570.038	827.28514
570.504	801.34228
570.969	788.51852
571.434	865.38522
571.899	909.5937
572.363	934.54331
572.828	996.63525
573.293	970.60124
573.757	974.60787
574.222	945.50869
574.686	946.51587
575.15	998.69952
575.614	996.62619
576.078	993.66696
576.542	1059.68862
577.006	1003.60076
577.469	1051.87324
577.933	995.5708
578.396	967.67
578.86	983.67165
579.323	936.62616
579.786	928.43812
580.249	849.42994
580.712	920.66581
581.175	913.66947
581.637	920.55873
582.1	886.43066
582.563	887.39723
583.025	849.54596
583.487	830.22351
583.95	828.3111
584.412	865.33189
584.874	851.55508
585.336	828.47985
585.797	832.33485
586.259	863.53027
586.721	770.38092
587.182	823.46598
587.643	795.37149
588.105	771.40222
588.566	791.25268
589.027	719.3439
589.488	796.37942
589.949	778.45331
590.41	708.03919
590.87	786.37359
591.331	794.29754
591.791	668.20869
592.252	674.20159
592.712	776.43741
593.172	714.2442
593.632	831.36919
594.092	773.31432
594.552	759.24329
595.011	807.39816
595.471	812.37153
595.931	779.32028
596.39	820.4904
596.849	821.44733
597.308	916.45514
597.768	826.60862
598.227	872.58272
598.685	918.56372
599.144	829.4668
599.603	920.61683
600.062	902.37158
600.52	889.45858
600.978	928.62838
601.437	1000.65368
601.895	990.48909
602.353	1010.60328
602.811	1059.65315
603.269	1104.8686
603.727	1093.8544
604.184	1090.70918
604.642	1108.92495
605.099	1240.94243
605.557	1242.0727
606.014	1264.77541
606.471	1267.144
606.928	1353.82333
607.385	1402.19835
607.842	1627.21606
608.299	1604.26971
608.755	1600.36467
609.212	1539.06465
609.668	1503.01562
610.125	1655.42718
610.581	1741.46438
611.037	1717.31826
611.493	1645.37877
611.949	1606.38651
612.405	1544.81428
612.861	1682.40553
613.316	1607.373
613.772	1627.27187
614.227	1590.32569
614.683	1745.14334
615.138	1656.35171
615.593	1670.3439
616.048	1672.31437
616.503	1658.54898
616.958	1646.59217
617.412	1689.43287
617.867	1651.17706
618.321	1704.03693
618.776	1627.19323
619.23	1589.34751
619.684	1699.31882
620.138	1660.39269
620.592	1544.43555
621.046	1598.38443
621.5	1542.44206
621.954	1539.22079
622.407	1500.15651
622.861	1421.33796
623.314	1458.19283
623.768	1427.22698
624.221	1354.73974
624.674	1398.17569
625.127	1349.17603
625.58	1355.12835
626.033	1324.01798
626.485	1211.08955
626.938	1233.1131
627.39	1184.00016
627.843	1216.02797
628.295	1156.96117
628.747	1128.99591
629.199	1064.81716
629.651	1027.77018
630.103	1044.81247
630.555	1023.63189
631.006	1004.82011
631.458	1001.8289
631.909	1081.89025
632.361	900.67255
632.812	873.61304
633.263	939.58201
633.714	887.50792
634.165	849.67971
634.616	805.57472
635.067	844.52015
635.518	836.63584
635.968	798.30119
636.419	796.42034
636.869	755.50535
637.319	745.44069
637.769	689.30234
638.219	811.61117
638.669	652.33615
639.119	702.46337
639.569	667.38263
640.019	649.29432
640.468	673.28508
640.918	642.34289
641.367	660.2721
641.816	632.22329
642.265	625.25678
642.714	603.21971
643.163	653.29809
643.612	532.13311
644.061	571.05625
644.51	598.19162
644.958	549.06566
645.406	580.22374
645.855	615.3252
646.303	604.24211
646.751	511.03899
647.199	641.26768
647.647	548.12018
648.095	522.06936
648.543	575.0377
648.99	603.26872
649.438	601.24842
649.885	528.17517
650.333	605.02083
650.78	571.22658
651.227	512.12254
651.674	521.06514
652.121	557.21187
652.568	554.20304
653.015	529.20872
653.461	507.08843
653.908	602.24132
654.354	572.22003
654.801	531.11848
655.247	559.09544
655.693	532.25571
656.139	530.14596
656.585	509.10681
657.031	442.94548
657.477	468.92134
657.922	441.93375
658.368	479.08201
658.813	498.05598
659.259	441.97614
659.704	431.92773
660.149	424.91482
660.594	473.0284
661.039	397.84281
661.484	481.05424
661.929	479.02645
662.373	431.00655
662.818	416.96121
663.262	419.93788
663.707	444.04164
664.151	432.98149
664.595	411.92453
665.039	437.0098
665.483	415.98721
665.927	461.00268
666.371	344.75178
666.814	406.9086
667.258	407.89864
667.701	416.84017
668.145	407.95106
668.588	368.85371
669.031	385.85008
669.474	330.75709
669.917	399.8308
670.36	390.91117
670.803	438.98746
671.245	415.81873
671.688	420.96119
672.13	334.71294
672.573	407.97376
673.015	410.92511
673.457	335.69599
673.899	410.93454
674.341	362.82949
674.783	355.80839
675.225	365.8516
675.666	359.81816
676.108	357.73773
676.549	384.86151
676.991	370.77402
677.432	337.64079
677.873	307.68355
678.314	326.74581
678.755	365.8439
679.196	280.62021
679.637	361.84062
680.078	332.74517
680.518	336.75105
680.959	319.73376
681.399	283.67819
681.839	297.69734
682.28	272.64972
682.72	321.70523
683.16	310.74217
683.6	309.68001
684.039	292.5892
684.479	285.67595
684.919	235.52845
685.358	300.73462
685.798	269.68317
686.237	269.63234
686.676	299.67153
687.115	298.67656
687.554	229.53245
687.993	302.64576
688.432	284.62907
688.871	241.53438
689.309	254.59092
689.748	242.49661
690.186	317.72974
690.625	260.59317
691.063	250.58459
691.501	260.62557
691.939	248.60258
692.377	221.52842
692.815	309.7119
693.253	269.62939
693.69	224.48396
694.128	234.55404
694.565	238.55545
695.003	272.67002
695.44	267.61024
695.877	236.53907
696.314	188.40148
696.751	264.58769
697.188	194.4401
697.625	282.62984
698.061	218.51337
698.498	271.63804
698.934	215.50896
699.371	180.4191
699.807	228.52897
700.243	241.56675
700.679	222.49461
701.115	257.59117
701.551	199.4627
701.987	277.60627
702.422	168.39563
702.858	208.48773
703.294	235.52238
703.729	259.61761
704.164	205.48586
704.599	221.48432
705.035	192.42476
705.47	197.47194
705.904	215.49239
706.339	257.58431
706.774	211.48634
707.209	186.42418
707.643	172.40946
708.078	234.55768
708.512	196.4823
708.946	223.52504
709.38	179.42014
709.814	191.43216
710.248	203.48742
710.682	177.41675
711.116	127.30228
711.549	194.49316
711.983	174.39874
712.416	229.5314
712.85	161.39816
713.283	142.33519
713.716	249.611
714.149	204.47966
714.582	172.3837
715.015	203.50072
715.448	230.56783
715.881	227.48886
716.313	174.40418
716.746	202.46847
717.178	159.3796
717.61	166.41705
718.043	210.51465
718.475	209.49839
718.907	220.54693
719.339	139.31451
719.77	185.43304
720.202	167.41813
720.634	172.41402
721.065	190.44483
721.497	165.401
721.928	150.36585
722.359	153.36612
722.79	169.4007
723.221	190.47185
723.652	233.58861
724.083	135.30433
724.514	228.51387
724.945	139.32588
725.375	148.34161
725.806	148.36755
726.236	199.50201
726.666	174.40817
727.096	202.48806
727.526	143.36088
727.956	145.32848
728.386	204.49438
728.816	136.3423
729.246	113.27463
729.675	129.31645
730.105	167.40738
730.534	161.3742
730.964	216.53621
731.393	244.59264
731.822	195.49052
732.251	182.45593
732.68	192.44704
733.109	198.48038
733.537	132.31786
733.966	173.42485
734.395	149.34262
734.823	159.35712
735.251	148.35449
735.68	227.55723
736.108	182.45461
736.536	163.38169
736.964	151.3486
737.392	158.3921
737.82	194.45917
738.247	163.38737
738.675	197.46437
739.102	142.35252
739.53	171.43015
739.957	194.49106
740.384	198.48146
740.811	163.40929
741.238	153.37072
741.665	102.2374
742.092	167.3955
742.519	125.30834
742.945	161.38335
743.372	168.41158
743.798	192.486
744.225	146.3453
744.651	154.38329
745.077	157.38812
745.503	147.35659
745.929	174.41295
746.355	179.44023
746.781	183.44757
747.207	115.26972
747.632	137.33208
748.058	161.39801
748.483	152.34805
748.908	171.42009
749.334	135.33018
749.759	142.33324
750.184	100.23879
750.609	156.38034
751.033	185.43219
751.458	191.42317
751.883	176.43101
752.307	135.31662
752.732	114.28405
753.156	157.38427
753.58	207.48339
754.005	156.39249
754.429	112.26345
754.853	116.28682
755.277	140.32983
755.7	132.32602
756.124	98.24347
756.548	112.2655
756.971	146.35423
757.394	121.31059
757.818	129.3302
758.241	131.3306
758.664	105.26499
759.087	83.18658
759.51	135.33423
759.933	81.1959
760.356	190.4794
760.778	115.28231
761.201	166.39973
761.623	154.37083
762.046	160.37665
762.468	166.39503
762.89	147.36033
763.312	119.29008
763.734	125.30003
764.156	129.31715
764.578	127.2918
765	111.27068
765.421	93.23621
765.843	90.23612
766.264	186.44313
766.686	139.3469
767.107	79.19243
767.528	78.19745
767.949	103.2617
768.37	109.26729
768.791	58.14167
769.212	39.09892
769.632	48.11313
770.053	91.2396
770.473	92.22431
770.894	116.28976
771.314	141.33496
771.734	105.24492
772.154	94.24141
772.575	79.18434
772.994	23.05316
773.414	107.25702
773.834	44.11106
774.254	47.11619
774.673	108.26282
775.093	67.16667
775.512	44.10943
775.931	77.19578
776.351	79.19673
776.77	47.11594
777.189	52.12489
777.607	69.17687
778.026	67.1677
778.445	10.02538
778.864	127.32371
779.282	29.07069
779.701	62.15711
780.119	50.1272
780.537	65.16293
780.955	96.24405
781.373	69.17139
781.791	62.14043
782.209	91.21026
782.627	62.16388
783.045	34.07923
783.462	59.15145
783.88	36.09387
784.297	45.11405
784.715	34.08802
785.132	48.11716
785.549	41.1034
785.966	62.15661
786.383	17.04237
786.8	69.16114
787.217	72.17134
787.633	27.06807
788.05	122.28843
788.466	77.18229
788.883	17.04384
789.299	64.15487
789.715	59.1442
790.131	61.15235
790.547	86.21475
790.963	61.15207
791.379	62.15728
791.795	75.17184
792.21	79.18514
792.626	31.07438
793.041	41.10199
793.457	35.08729
793.872	43.10199
794.287	6.01453
794.702	53.13136
795.117	34.08518
795.532	53.13342
795.947	72.17384
796.362	95.22664
796.776	100.23394
797.191	61.14992
797.605	-14.03348
798.02	2.00494
798.434	30.06767
798.848	54.13362
799.262	48.11973
799.676	71.17366
800.09	45.11145
800.504	50.12209
800.918	33.07725
801.331	47.12383
801.745	57.1317
802.158	68.17029
802.572	31.07593
802.985	44.10716
803.398	63.15082
803.811	48.12405
804.224	71.177
804.637	-16.03882
805.05	34.0796
805.462	51.12599
805.875	-9.02365
806.288	12.0293
806.7	56.14125
807.112	20.04695
807.525	47.11666
807.937	7.01752
808.349	40.10086
808.761	48.11873
809.173	23.05632
809.584	55.13652
809.996	-1.00248
810.408	22.05725
810.819	60.14163
811.231	59.15272
811.642	130.30662
812.053	218.50417
812.464	286.65248
812.875	273.67286
813.286	166.42019
813.697	107.24899
814.108	57.13978
814.519	62.13877
814.929	109.27626
815.34	37.0904
815.75	39.09965
816.16	73.18199
816.571	40.10445
816.981	56.1328
817.391	54.13092
817.801	32.08005
818.211	74.17651
818.62	37.08969
819.03	41.1011
819.44	82.21375
819.849	36.09129
820.259	63.16149
820.668	29.07188
821.077	19.04763
821.486	61.14731
821.895	84.20717
822.304	43.1144
822.713	38.09047
823.122	42.10537
823.531	42.10018
823.939	68.16579
824.348	65.15827
824.756	43.10825
825.164	89.22324
825.573	17.04306
825.981	33.08242
826.389	55.13856
826.797	49.12318
827.205	25.05792
827.612	58.14347
828.02	-9.02146
828.428	72.18323
828.835	71.18669
829.243	64.15277
829.65	66.16415
830.057	-2.00492
830.464	51.12469
830.871	87.20771
831.278	63.15248
831.685	38.08544
832.092	46.11312
832.499	39.08594
832.905	36.09165
833.312	33.07588
833.718	72.17927
834.124	32.07372
834.531	50.12643
834.937	58.14906
835.343	50.12109
835.749	43.10101
836.155	45.1182
836.561	56.13801
836.966	57.13967
837.372	53.13519
837.777	35.08767
838.183	53.11831
838.588	45.11215
838.993	62.15111
839.399	34.08361
839.804	-30.0744
840.209	27.06916
840.613	72.16009
841.018	8.02046
841.423	63.1616
841.828	47.11921
842.232	109.26788
842.637	21.04998
843.041	46.11822
843.445	68.17042
843.849	13.03248
844.253	60.14278
844.657	8.02034
845.061	40.09126
845.465	42.10187
845.869	27.06323
846.272	28.06862
846.676	67.16198
847.079	55.13999
847.483	51.12751
847.886	96.23222
848.289	12.03227
848.692	64.16201
849.095	32.07732
849.498	118.29614
849.901	80.18296
850.304	53.12693
850.707	42.10745
851.109	79.1993
851.512	51.12557
851.914	-40.10259
852.316	64.16178
852.718	3.00782
853.121	26.06412
853.523	32.07524
853.925	30.07863
854.326	-4.01011
854.728	33.08524
855.13	-11.02871
855.531	19.04576
855.933	62.14885
856.334	10.02515
856.736	8.01812
857.137	30.07018
857.538	10.02536
857.939	32.07944
858.34	47.11483
858.741	58.1516
859.142	23.05565
859.542	47.12421
859.943	33.08239
860.343	16.03992
860.744	42.10282
861.144	43.10521
861.544	10.02425
861.945	39.09972
862.345	79.1925
862.745	27.06748
863.145	89.21159
863.544	51.12903
863.944	9.02147
864.344	83.20527
864.743	41.10207
865.143	30.07742
865.542	-2.0047
865.941	55.13622
866.34	60.14372
866.74	40.10764
867.139	1.00242
867.537	42.1073
867.936	14.03398
868.335	38.09701
868.734	14.03604
869.132	72.16685
869.531	60.14509
869.929	-7.01617
870.327	28.0675
870.726	46.11495
871.124	25.05882
871.522	55.14014
871.92	54.13328
872.318	-1.00247
872.715	71.17533
873.113	39.09535
873.511	41.10244
873.908	-33.08462
874.306	47.11709
874.703	27.06792
875.1	75.19124
875.497	31.07469
875.894	2.00495
876.291	46.11312
876.688	23.05966
877.085	67.16045
877.482	55.13771
877.878	11.0267
878.275	28.07148
878.671	59.13137
879.068	79.18991
879.464	33.08011
879.86	20.04763
880.256	30.0744
880.652	25.06393
881.048	47.11666
881.444	87.20588
881.84	33.0842
882.236	32.0808
882.631	44.10824
883.027	38.09234
883.422	52.13304
883.817	-21.05349
884.213	58.14875
884.608	-2.00496
885.003	15.03644
885.398	-11.02786
885.793	17.04296
886.188	29.07243
886.582	54.13854
886.977	39.09286
887.371	28.07116
887.766	-16.0403
888.16	42.10507
888.554	69.1702
888.949	63.15797
889.343	53.12953
889.737	1.00269
890.131	45.11308
890.525	25.06426
890.918	45.11345
891.312	73.17409
891.706	45.11824
892.099	59.15002
892.492	67.14423
892.886	-3.00742
893.279	32.08184
893.672	29.07415
894.065	29.07295
894.458	56.1408
894.851	89.21671
895.244	25.06417
895.637	43.1038
896.029	0
896.422	40.098
896.814	54.13426
897.206	1.00241
897.599	61.15069
897.991	5.0122
898.383	60.14163
898.775	43.09729
899.167	13.03056
899.559	61.15422
899.951	73.17148
900.342	16.04096
900.734	-25.06291
901.125	64.16763
901.517	9.02227
901.908	51.12237
902.299	-27.06699
902.69	25.05932
903.082	34.08265
903.473	11.02655
903.863	37.09468
904.254	65.15054
904.645	42.10469
905.036	1.00244
905.426	66.15076
905.817	26.06412
906.207	26.06228
906.597	19.04474
906.987	33.08583
907.378	19.04834
907.768	12.03194
908.158	53.12924
908.547	21.05454
908.937	37.09521
909.327	45.10945
909.717	63.15968
910.106	12.02905
910.495	20.05023
910.885	44.11162
911.274	52.12999
911.663	80.20208
912.052	96.23502
912.441	11.02818
912.83	60.13756
913.219	72.18781
913.608	77.18777
913.997	-3.0076
914.385	6.01446
914.774	30.07336
915.162	19.04557
915.55	27.06565
915.939	9.02289
916.327	48.1199
916.715	-9.02318
917.103	47.11581
917.491	48.11886
917.878	19.04701
918.266	18.04695
918.654	27.06928
919.041	41.10722
919.429	16.03803
919.816	43.10918
920.203	31.07548
920.591	31.07717
920.978	35.08599
921.365	41.10777
921.752	62.14754
922.139	43.09356
922.525	8.01937
922.912	34.08321
923.299	32.07982
923.685	29.07594
924.072	49.11308
924.458	61.15086
924.844	15.03737
925.231	11.02581
925.617	1.00257
926.003	61.15565
926.389	53.13366
926.774	31.07885
927.16	37.09214
927.546	-11.02838
927.931	13.03267
928.317	25.0579
928.702	65.1534
929.088	5.01193
929.473	41.10451
929.858	-16.03917
930.243	8.01936
930.628	15.03674
931.013	10.02497
931.398	71.16268
931.783	8.02122
932.167	13.03201
932.552	25.06294
932.937	36.0896
933.321	44.11055
933.705	39.09853
934.09	60.1514
934.474	28.06681
934.858	35.09103
935.242	7.01637
935.626	10.02578
936.009	22.05879
936.393	11.02819
936.777	31.07966
937.16	40.10427
937.544	30.07098
937.927	1.00256
938.311	62.15105
938.694	43.11387
939.077	-27.0656
939.46	47.11551
939.843	20.04203
940.226	42.1079
940.609	-30.06999
940.991	19.04863
941.374	32.07849
941.757	22.05458
942.139	7.01586
942.522	44.10415
942.904	51.1226
943.286	62.15723
943.668	45.11668
944.05	62.1524
944.432	23.05705
944.814	39.09627
945.196	-7.01724
945.578	-16.03851
945.959	26.06123
946.341	91.22174
946.722	25.05898
947.104	24.05766
947.485	-6.01412
947.866	21.05319
948.247	65.16357
948.628	29.07104
949.009	38.09753
949.39	34.0849
949.771	42.09787
950.152	35.08615
950.532	-32.07991
950.913	11.02673
951.293	44.11898
951.674	36.08731
952.054	26.06471
952.434	53.13151
952.814	29.06929
953.194	66.17228
953.574	80.19599
953.954	-7.01681
954.334	18.04513
954.714	8.01965
955.093	55.13512
955.473	-17.04303
955.853	50.12944
956.232	65.17773
956.611	50.11995
956.99	31.07818
957.37	13.03335
957.749	26.06232
958.128	19.04814
958.506	2.00523
958.885	39.09864
959.264	-12.02975
959.643	49.11155
960.021	31.07709
960.4	22.05015
960.778	48.11829
961.156	9.02273
961.535	58.135
961.913	25.0588
962.291	32.08236
962.669	28.07121
963.047	63.16041
963.424	51.13013
963.802	10.02477
964.18	73.18397
964.557	62.14248
964.935	39.09261
965.312	26.06798
965.69	87.21642
966.067	7.01718
966.444	72.17672
966.821	54.13912
967.198	53.12852
967.575	52.12782
967.952	73.17128
968.329	36.08784
968.705	-3.00651
969.082	28.07209
969.458	-8.0194
969.835	34.08302
970.211	43.11049
970.587	62.15403
970.963	43.11045
971.339	20.05249
971.715	46.11495
972.091	73.17901
972.467	45.11235
972.843	-8.02006
973.219	58.13908
973.594	6.01581
973.97	59.14022
974.345	-17.04121
974.721	16.039
975.096	36.08735
975.471	31.07381
975.846	34.08194
976.221	7.01791
976.596	-6.01454
976.971	80.19643
977.346	2.0047
977.72	39.09955
978.095	11.02862
978.469	51.12172
978.844	30.0757
979.218	-13.03154
979.593	19.0458
979.967	24.05876
980.341	6.01394
980.715	53.13347
981.089	19.04783
981.463	31.07146
981.837	9.02216
982.21	82.18965
982.584	9.02191
982.957	35.08764
983.331	37.0877
983.704	49.12043
984.078	32.07912
984.451	84.20854
984.824	-15.03697
985.197	71.17178
985.57	58.14525
985.943	71.17469
986.316	39.09603
986.688	39.09425
987.061	16.03775
987.434	33.08624
987.806	61.14764
988.179	1.00238
988.551	36.09155
988.923	15.03718
989.295	55.13732
989.667	-31.0752
990.039	-20.05005
990.411	7.01625
990.783	12.02784
991.155	-44.1076
991.527	70.17175
991.898	-3.00755
992.27	-38.09551
992.641	56.14034
993.012	47.11066
993.384	1.00241
993.755	22.05636
994.126	30.07243
994.497	-2.00496
994.868	23.05312
995.239	10.02442
995.61	-2.00508
995.98	32.07799
996.351	1.0025
996.722	-14.03288
997.092	-2.00478
997.462	-5.0118
997.833	62.14664
998.203	42.10198
998.573	16.04008
998.943	33.07764
999.313	10.02414
999.683	30.07227
1000.053	57.13097
1000.423	44.10704
1000.792	34.08836
1001.162	16.03962
1001.531	44.1086
1001.901	17.04263
1002.27	3.00677
1002.639	13.03343
1003.009	20.04783
1003.378	1.00258
1003.747	59.13914
1004.116	13.03132
1004.485	-2.00483
1004.853	20.05093
1005.222	56.14105
1005.591	29.06913
1005.959	-10.02281
1006.328	19.04303
1006.696	28.06781
1007.064	79.19766
1007.433	73.18166
1007.801	47.11543
1008.169	18.04571
1008.537	94.20622
1008.905	-7.01649
1009.273	52.12839
1009.64	-16.03865
1010.008	30.07178
1010.375	83.20028
1010.743	81.18589
1011.11	7.0167
1011.478	16.03984
1011.845	21.04966
1012.212	-1.00229
1012.579	2.00495
1012.946	57.13546
1013.313	72.17062
1013.68	35.0789
1014.047	52.12384
1014.414	12.02855
1014.78	27.06736
1015.147	13.03165
1015.513	2.00486
1015.88	49.12529
1016.246	96.23493
1016.612	42.09629
1016.978	49.12007
1017.344	68.16746
1017.71	100.24153
1018.076	31.07336
1018.442	60.15404
1018.808	43.10759
1019.174	59.14773
1019.539	83.18979
1019.905	14.03324
1020.27	25.06196
1020.636	44.10559
1021.001	10.02412
1021.366	-5.01213
1021.731	51.13109
1022.096	-14.0357
1022.461	41.09718
1022.826	28.06681
1023.191	36.09464
1023.556	37.08692
1023.92	48.11803
1024.285	28.0686
1024.649	13.03207
1025.014	52.12872
1025.378	12.03037
1025.742	34.08466
1026.107	49.11083
1026.471	69.16044
1026.835	56.13862
1027.199	5.01213
1027.562	36.08389
1027.926	30.07361
1028.29	48.12146
1028.654	54.1241
1029.017	51.12529
1029.381	-3.00724
1029.744	27.06911
1030.107	64.15096
1030.471	-4.00967
1030.834	16.03664
1031.197	83.19862
1031.56	16.03799
1031.923	2.00521
1032.286	39.09176
1032.648	50.11954
1033.011	2.00463
1033.374	33.07779
1033.736	7.01853
1034.099	6.01474
1034.461	12.03051
1034.823	12.03007
1035.185	39.09832
1035.548	-13.032
1035.91	22.05296
1036.272	5.01148
1036.634	17.04183
1036.995	39.09183
1037.357	-2.00491
1037.719	34.0829
1038.08	31.07384
1038.442	1.00239
1038.803	37.08901
1039.165	20.05072
1039.526	48.11598
1039.887	52.12432
1040.248	20.04953
1040.609	60.14792
1040.97	48.11729
1041.331	35.0888
1041.692	-31.07347
1042.053	28.06401
1042.413	64.14867
1042.774	73.17669
1043.134	53.12605
1043.495	28.07063
1043.855	42.10198
1044.215	46.1142
1044.576	40.09577
1044.936	56.12818
1045.296	61.15185
1045.656	47.11534
1046.016	41.09909
1046.375	8.01955
1046.735	-30.06908
1047.095	10.02358
1047.454	35.07437
1047.814	0
1048.173	31.0743
1048.533	-13.03014
1048.892	-26.06327
1049.251	68.17005
1049.61	-5.01243
1049.969	-21.05016
1050.328	32.06961
1050.687	14.03427
1051.046	35.08541
1051.405	12.03004
1051.763	-11.02559
1052.122	22.05512
1052.48	30.0738
1052.839	-4.0095
1053.197	32.07554
1053.555	83.18788
1053.914	22.05406
1054.272	35.08481
1054.63	23.05648
1054.988	-34.08203
1055.345	22.04763
1055.703	53.12741
1056.061	55.14128
1056.419	12.03125
1056.776	32.07782
1057.134	-3.00701
1057.491	31.07784
1057.848	48.11947
1058.206	42.09887
1058.563	5.01112
1058.92	56.12885
1059.277	3.00746
1059.634	46.10825
1059.991	72.17167
1060.348	-27.06194
1060.704	-29.07011
1061.061	59.13675
1061.418	-16.03926
1061.774	42.10377
1062.131	29.0769
1062.487	-5.01181
1062.843	12.03011
1063.199	6.01503
1063.555	18.04194
1063.911	22.05581
1064.267	107.22022
1064.623	24.05854
1064.979	52.12308
1065.335	54.1289
1065.691	27.06496
1066.046	28.06182
1066.402	-24.05531
1066.757	53.13361
1067.112	51.12506
1067.468	-19.04543
1067.823	29.06995
1068.178	49.11846
1068.533	36.08744
1068.888	72.17121
1069.243	16.03971
1069.598	39.09489
1069.952	-36.08243
1070.307	2.00499
1070.662	4.00957
1071.016	7.01581
1071.371	30.06847
1071.725	77.18313
1072.079	52.12493
1072.434	-9.02209
1072.788	31.07404
1073.142	82.20037
1073.496	22.05243
1073.85	61.14105
1074.203	21.05119
1074.557	0
1074.911	34.08135
1075.265	50.11615
1075.618	63.15334
1075.971	37.08817
1076.325	7.01791
1076.678	-12.02776
1077.031	-8.0183
1077.385	38.08386
1077.738	17.03861
1078.091	-40.09255
1078.444	44.10221
1078.796	-10.02479
1079.149	7.01753
1079.502	-4.00954
1079.855	22.05155
1080.207	38.09375
1080.56	13.03379
1080.912	28.0684
1081.264	58.13935
1081.617	8.01964
1081.969	24.06078
1082.321	27.06616
1082.673	9.0207
1083.025	8.01912
1083.377	3.0065
1083.728	49.11425
1084.08	50.12472
1084.432	17.04122
1084.783	69.16095
1085.135	45.1128
1085.486	-19.04404
1085.838	16.03962
1086.189	13.03175
1086.54	-1.00241
1086.891	-12.03066
1087.242	11.02695
1087.593	71.17204
1087.944	35.07939
1088.295	28.06388
1088.646	31.07534
1088.996	-8.01947
1089.347	28.06893
1089.698	-34.08159
1090.048	32.0833
1090.398	-10.02345
1090.749	39.09343
1091.099	9.02278
1091.449	42.10469
1091.799	32.08031
1092.149	9.02209
1092.499	46.1122
1092.849	15.03833
1093.199	66.16481
1093.548	18.04348
1093.898	36.09022
1094.248	46.11818
1094.597	-14.03611
1094.947	42.11209
1095.296	21.05209
1095.645	83.21446
1095.994	44.10571
1096.343	24.06062
1096.692	-15.0398
1097.041	16.04352
1097.39	67.1674
1097.739	-13.03412
1098.088	39.10459
1098.437	4.01058
1098.785	46.12398
1099.134	16.04269
1099.482	46.12648
1099.83	50.13127
1100.179	3.00788
1100.527	39.10372
1100.875	31.08215
1101.223	29.07721
1101.571	38.10511
1101.919	-3.0079
1102.267	55.15459
1102.615	4.01286
1102.962	25.08035
1103.31	-7.02252
1103.658	22.07077
