Data from N2 R5 sample 1_Subt2__1__14-23-51-669.txt Node

Date: Fri Aug 29 14:23:51 PDT 2025
User: uwsun
Spectrometer: HDX01956
Trigger mode: 0
Integration Time (sec): 5.000000E-1
Scans to average: 1
Nonlinearity correction enabled: true
Boxcar width: 0
Storing dark spectrum: false
XAxis mode: Wavelengths
Number of Pixels in Spectrum: 2068
>>>>>Begin Spectral Data<<<<<
194.03	326.86843
194.578	319.96816
195.127	332.98983
195.676	307.92151
196.225	344.85947
196.773	348.90042
197.321	577.39642
197.87	757.60781
198.418	791.64217
198.966	712.51445
199.513	650.32484
200.061	693.42636
200.609	742.61316
201.156	719.23348
201.704	646.33457
202.251	707.53213
202.798	668.42754
203.345	749.49268
203.892	725.47557
204.438	780.47934
204.985	723.35672
205.532	724.54933
206.078	796.54718
206.624	790.53113
207.17	793.44524
207.716	750.44726
208.262	727.11277
208.808	714.40339
209.354	753.45549
209.899	862.72176
210.445	765.50837
210.99	770.46318
211.535	793.4686
212.08	783.43418
212.625	774.55078
213.17	813.63915
213.715	680.19543
214.259	830.50709
214.804	784.54769
215.348	733.335
215.892	798.51133
216.436	796.45475
216.98	874.48136
217.524	704.33821
218.068	820.64155
218.612	803.616
219.155	748.40269
219.698	732.40031
220.242	767.54417
220.785	655.25126
221.328	659.35507
221.871	702.46531
222.414	697.42495
222.956	612.21561
223.499	659.20421
224.041	703.33144
224.583	736.26912
225.126	724.27164
225.668	674.33896
226.21	642.33578
226.751	655.15228
227.293	663.23598
227.835	644.29355
228.376	739.37181
228.918	709.46849
229.459	629.2933
230	665.2925
230.541	677.26775
231.082	655.30207
231.622	685.28023
232.163	731.42369
232.704	675.36745
233.244	696.40587
233.784	707.41474
234.324	606.07731
234.864	658.20874
235.404	631.23796
235.944	685.32132
236.484	702.43162
237.023	696.32555
237.563	697.29178
238.102	644.24418
238.641	702.44782
239.18	657.24114
239.719	703.43658
240.258	718.28681
240.797	703.3522
241.335	727.43602
241.874	736.08508
242.412	654.27924
242.95	703.34377
243.488	652.20491
244.026	682.25984
244.564	736.17835
245.102	692.23693
245.64	746.44021
246.177	742.31082
246.715	738.41862
247.252	755.37098
247.789	798.13819
248.326	702.34477
248.863	769.3061
249.4	753.34656
249.936	715.14495
250.473	721.33236
251.009	702.27422
251.546	763.30566
252.082	748.27821
252.618	720.25864
253.154	692.33005
253.69	729.29082
254.226	750.41267
254.761	746.30968
255.297	737.25498
255.832	689.3017
256.367	769.41911
256.903	700.20754
257.438	771.42068
257.972	718.25514
258.507	681.23258
259.042	684.16984
259.576	653.10383
260.111	756.36967
260.645	784.30261
261.179	750.36568
261.713	729.26204
262.247	745.34524
262.781	693.12603
263.315	715.38786
263.849	762.50069
264.382	825.4544
264.915	755.37306
265.449	694.33134
265.982	829.43942
266.515	793.50221
267.048	722.17494
267.58	803.34051
268.113	819.32696
268.646	732.42328
269.178	779.32527
269.71	805.33283
270.243	777.36816
270.775	746.49874
271.307	818.52215
271.838	828.5164
272.37	792.51163
272.902	833.4357
273.433	751.25621
273.965	771.45904
274.496	808.5616
275.027	823.57052
275.558	742.40373
276.089	716.37163
276.62	804.59687
277.15	838.58954
277.681	793.3035
278.211	795.51041
278.741	780.29239
279.272	801.3804
279.802	792.53282
280.332	773.39378
280.861	806.4827
281.391	799.36377
281.921	837.53407
282.45	879.66623
282.98	848.7008
283.509	827.38749
284.038	822.40201
284.567	872.52267
285.096	863.56595
285.625	832.40389
286.153	808.42325
286.682	850.43668
287.21	786.43643
287.739	864.51421
288.267	850.53489
288.795	869.74417
289.323	826.43003
289.851	869.50269
290.378	826.36808
290.906	859.5342
291.433	858.60146
291.961	890.45334
292.488	873.61786
293.015	825.43321
293.542	829.57282
294.069	915.63867
294.596	923.67676
295.122	925.59387
295.649	900.4182
296.175	906.60629
296.702	904.60274
297.228	957.67897
297.754	933.47845
298.28	953.51632
298.806	910.5742
299.332	905.40356
299.857	939.48373
300.383	1011.83144
300.908	895.55269
301.433	940.62108
301.958	1019.63195
302.483	956.69342
303.008	999.74645
303.533	1006.87826
304.058	976.61474
304.582	981.59937
305.107	921.73157
305.631	1019.59041
306.155	1017.60569
306.679	1012.6028
307.203	998.5751
307.727	1020.6507
308.251	989.70177
308.775	909.49399
309.298	1029.65458
309.822	1094.87157
310.345	1052.6674
310.868	1110.74371
311.391	1087.79764
311.914	1080.81208
312.437	1123.65756
312.96	1119.7029
313.482	1074.66649
314.005	1138.87458
314.527	1086.9174
315.049	1159.9225
315.571	1092.51257
316.093	1165.84902
316.615	1135.74068
317.137	1183.54928
317.659	1251.8894
318.18	1219.83416
318.702	1242.73871
319.223	1232.44104
319.744	1229.62311
320.265	1270.83478
320.786	1295.89953
321.307	1291.92133
321.828	1299.67672
322.348	1276.74493
322.869	1291.74001
323.389	1033.89555
323.909	1306.69215
324.43	1373.89422
324.95	1283.63898
325.47	1355.86433
325.989	1369.7515
326.509	1387.56181
327.029	1450.64961
327.548	1446.62894
328.067	1476.82954
328.587	1460.93926
329.106	1454.64929
329.625	1477.14601
330.144	1460.66744
330.662	1459.65818
331.181	1529.72643
331.7	1552.72861
332.218	1580.50464
332.736	1669.75489
333.255	1609.68998
333.773	1629.74028
334.291	1711.96784
334.808	1681.54319
335.326	1714.58517
335.844	1725.61755
336.361	1724.8818
336.879	1778.61514
337.396	1805.71935
337.913	1819.55537
338.43	1865.47866
338.947	1899.65183
339.464	1870.28818
339.981	1835.57563
340.497	1957.75381
341.014	1971.66784
341.53	1981.37776
342.046	2002.65057
342.562	2002.72996
343.078	2037.48553
343.594	2096.52665
344.11	2123.49218
344.626	2137.67553
345.141	2168.29137
345.657	2205.29445
346.172	2123.46479
346.687	2108.26995
347.202	2190.16018
347.717	2261.35495
348.232	2247.5188
348.747	2335.16272
349.261	2178.94761
349.776	2317.20617
350.29	2305.31287
350.805	2429.37218
351.319	2472.08966
351.833	2322.96765
352.347	2413.08165
352.861	2441.01222
353.374	2432.01332
353.888	2451.14139
354.401	2410.93994
354.915	2455.76337
355.428	2536.11968
355.941	2563.83771
356.454	2689.72178
356.967	2700.85614
357.48	2564.79946
357.993	2670.98423
358.505	2594.93164
359.018	2757.86543
359.53	2760.7517
360.042	2860.44329
360.554	2836.74871
361.066	2709.77379
361.578	2844.32918
362.09	2851.61609
362.602	2800.3296
363.113	2896.43169
363.625	2898.29807
364.136	2971.18979
364.647	2937.23949
365.158	3037.26609
365.669	3019.36628
366.18	3044.27701
366.691	3102.0091
367.201	3065.25748
367.712	3112.01731
368.222	3138.99448
368.733	3190.74201
369.243	3291.70316
369.753	3351.80988
370.263	3298.90863
370.773	3371.94226
371.282	3448.69698
371.792	3419.45378
372.301	3600.51677
372.811	3734.67922
373.32	3540.10056
373.829	3600.24727
374.338	3955.91435
374.847	4121.85248
375.356	4069.86753
375.865	4227.60837
376.373	4475.61838
376.882	4661.72712
377.39	4636.64228
377.898	4667.60768
378.407	4979.75541
378.915	5223.0159
379.423	5489.22972
379.93	5600.57491
380.438	5735.89006
380.946	6197.16841
381.453	6288.72249
381.96	6470.94077
382.468	6875.66577
382.975	7694.34265
383.482	7816.64304
383.989	7696.11349
384.495	7910.9338
385.002	8395.08043
385.509	8875.88075
386.015	9606.37298
386.521	9912.3942
387.028	10208.87776
387.534	10665.42044
388.04	11141.00472
388.546	11248.70159
389.051	11375.52909
389.557	12536.11545
390.063	14151.78183
390.568	14408.71316
391.073	14724.80746
391.578	15183.52751
392.084	15528.90736
392.589	15595.20801
393.093	16443.76573
393.598	18335.7576
394.103	20340.99308
394.607	22455.1129
395.112	23884.29611
395.616	25030.33766
396.12	27313.23569
396.624	30327.30909
397.128	32971.33917
397.632	36872.18116
398.136	38062.56444
398.639	35760.93802
399.143	32403.17872
399.646	28888.45294
400.15	25083.82847
400.653	20124.16724
401.156	13866.23708
401.659	5169.95759
402.162	1054.15589
402.664	0
403.167	0
403.67	0
404.172	0
404.674	0
405.176	0
405.678	0
406.18	0
406.682	0
407.184	0
407.686	0
408.187	0
408.688	0
409.19	0
409.691	0
410.192	0
410.693	0
411.194	435.30976
411.694	4082.94878
412.195	8864.71461
412.696	12089.80453
413.196	12760.96929
413.696	12863.67595
414.196	13703.56671
414.696	17261.84252
415.196	21764.24417
415.696	29583.19008
416.196	36460.31858
416.695	40057.39798
417.195	41392.74103
417.694	42311.08144
418.194	42994.63102
418.693	39720.29301
419.192	37868.18822
419.691	37531.84238
420.19	36670.59543
420.688	35975.6364
421.187	34647.5103
421.685	32857.29188
422.184	30013.78007
422.682	26391.09343
423.18	22012.00423
423.678	19175.71553
424.176	17770.60349
424.674	16829.53644
425.172	15998.93057
425.669	15350.89187
426.167	14722.14992
426.664	13115.27128
427.161	11736.08487
427.659	10955.91851
428.156	10135.33517
428.652	9684.58528
429.149	9228.34819
429.646	8822.0603
430.143	8583.53069
430.639	7974.29336
431.135	7474.60618
431.632	7062.03201
432.128	6746.18128
432.624	6165.35543
433.12	5793.15585
433.616	5752.003
434.111	5325.18878
434.607	5186.92054
435.103	5335.09622
435.598	5157.9057
436.093	4920.66791
436.588	4666.62341
437.083	4420.66487
437.578	4258.76491
438.073	3751.08354
438.568	3896.16907
439.062	3727.96778
439.557	3618.34809
440.051	3376.38312
440.546	3317.45214
441.04	3219.70719
441.534	3127.01661
442.028	3185.88013
442.522	3027.97207
443.015	2927.80472
443.509	2952.18439
444.002	2789.27784
444.496	2821.95613
444.989	2744.37012
445.482	2778.41949
445.975	2619.17625
446.468	2669.05497
446.961	2576.11953
447.454	2531.33404
447.947	2504.45958
448.439	2521.62311
448.931	2428.38931
449.424	2362.86289
449.916	2415.7172
450.408	2253.52673
450.9	2307.74875
451.392	2246.93378
451.884	2241.69351
452.375	2109.92897
452.867	2226.72154
453.358	2063.7134
453.849	2071.57743
454.341	1991.76756
454.832	1969.66369
455.323	2027.00952
455.814	1956.89683
456.304	1992.91296
456.795	1950.91288
457.285	2006.89371
457.776	1973.00016
458.266	1815.06955
458.756	1801.15599
459.247	1760.09663
459.737	1717.11111
460.226	1734.98137
460.716	1703.17007
461.206	1696.21646
461.695	1642.36772
462.185	1630.19933
462.674	1567.15372
463.163	1595.07206
463.653	1524.94958
464.142	1560.29039
464.63	1529.36527
465.119	1495.19589
465.608	1393.17599
466.096	1349.07944
466.585	1433.26059
467.073	1372.3398
467.561	1383.364
468.05	1343.27917
468.538	1350.43296
469.026	1239.31672
469.513	1211.03892
470.001	1265.21788
470.489	1263.31818
470.976	1184.24884
471.463	1181.43625
471.951	1173.46314
472.438	1059.23048
472.925	1055.21943
473.412	1112.41592
473.899	1048.22887
474.385	1033.36031
474.872	974.20131
475.359	993.31952
475.845	924.98709
476.331	986.13762
476.817	953.32179
477.303	913.1956
477.789	891.24882
478.275	798.19915
478.761	946.32424
479.247	815.0831
479.732	852.28217
480.218	729.22531
480.703	807.25248
481.188	767.98745
481.673	773.09166
482.158	661.86222
482.643	781.29797
483.128	714.0275
483.612	737.10416
484.097	710.156
484.581	688.0563
485.066	598.99204
485.55	622.89693
486.034	611.87363
486.518	553.89179
487.002	574.97272
487.486	586.99576
487.969	549.94419
488.453	587.05508
488.936	545.85751
489.42	555.85912
489.903	585.06171
490.386	480.52835
490.869	533.826
491.352	506.91892
491.835	448.67161
492.318	458.75544
492.8	476.70803
493.283	466.88849
493.765	420.78173
494.247	446.78852
494.73	420.69427
495.212	417.77633
495.694	391.69324
496.175	392.70315
496.657	422.76633
497.139	431.54955
497.62	304.56129
498.102	358.69317
498.583	331.65853
499.064	293.51
499.545	374.6605
500.026	310.54431
500.507	365.66129
500.988	365.71704
501.469	223.45421
501.949	328.64967
502.43	234.44765
502.91	260.42472
503.39	285.58102
503.87	257.48605
504.35	307.58432
504.83	259.45439
505.31	251.49448
505.79	302.57886
506.269	220.42311
506.749	225.41803
507.228	222.42572
507.707	274.48842
508.187	250.49193
508.666	238.47913
509.145	207.39782
509.623	224.43267
510.102	214.43042
510.581	279.5543
511.059	177.37086
511.538	205.44642
512.016	189.37795
512.494	228.46112
512.972	217.43072
513.45	139.26893
513.928	153.31277
514.406	112.22735
514.884	221.47553
515.361	198.39677
515.839	180.34284
516.316	177.35855
516.793	176.37912
517.27	225.45849
517.747	156.3408
518.224	107.21278
518.701	121.22996
519.178	139.29292
519.654	198.39916
520.131	181.37974
520.607	146.31139
521.083	132.25741
521.56	143.28861
522.036	158.29493
522.512	180.38006
522.987	102.2079
523.463	128.26137
523.939	108.23004
524.414	146.28986
524.89	140.28561
525.365	91.17851
525.84	120.24403
526.315	122.25342
526.79	147.284
527.265	125.24567
527.74	63.13451
528.215	129.26251
528.689	68.13128
529.164	145.2706
529.638	158.35174
530.112	119.24216
530.587	125.2283
531.061	75.15791
531.534	116.24536
532.008	53.11203
532.482	128.25507
532.956	60.1344
533.429	132.27786
533.903	156.29756
534.376	77.14912
534.849	111.22444
535.322	106.21861
535.795	86.18493
536.268	56.11887
536.741	109.22939
537.213	103.20855
537.686	95.2024
538.158	29.05737
538.631	111.2372
539.103	78.1529
539.575	121.21954
540.047	62.12033
540.519	143.29803
540.991	137.2934
541.463	104.22123
541.934	90.18085
542.406	99.2066
542.877	71.14126
543.348	114.24176
543.82	105.22691
544.291	135.27547
544.762	109.22555
545.233	82.18088
545.703	79.15292
546.174	178.35587
546.645	93.19305
547.115	159.33005
547.585	162.32057
548.056	130.26931
548.526	147.2956
548.996	248.50249
549.466	242.50065
549.935	199.39628
550.405	225.41032
550.875	226.44806
551.344	203.41159
551.814	250.47825
552.283	245.44363
552.752	251.48191
553.221	203.36532
553.69	238.43678
554.159	283.56959
554.628	295.53336
555.096	292.60869
555.565	260.47692
556.033	279.54628
556.502	236.48189
556.97	181.34214
557.438	175.35693
557.906	196.40094
558.374	155.30924
558.842	143.29856
559.31	83.16498
559.777	94.20057
560.245	122.25398
560.712	89.18392
561.18	54.10676
561.647	106.21015
562.114	103.20807
562.581	126.27584
563.048	131.26828
563.514	36.07968
563.981	101.20684
564.448	143.28384
564.914	131.27168
565.381	121.24612
565.847	126.26348
566.313	160.32997
566.779	75.15262
567.245	126.26301
567.711	124.26492
568.176	71.14343
568.642	115.25723
569.108	94.20718
569.573	147.30855
570.038	145.27073
570.504	157.30988
570.969	139.30989
571.434	99.19347
571.899	127.26869
572.363	162.32538
572.828	202.40554
573.293	194.38966
573.757	128.26125
574.222	177.34508
574.686	170.33309
575.15	195.40441
575.614	167.33643
576.078	199.40699
576.542	191.38071
577.006	199.39111
577.469	271.58086
577.933	180.35152
578.396	272.55717
578.86	180.37289
579.323	226.46692
579.786	221.41407
580.249	140.28171
580.712	213.45556
581.175	222.47717
581.637	217.43817
582.1	209.40263
582.563	170.32379
583.025	184.39192
583.487	170.30177
583.95	165.31159
584.412	251.45704
584.874	175.37477
585.336	239.49256
585.797	203.38448
586.259	230.4754
586.721	178.36825
587.182	254.51959
587.643	241.47768
588.105	196.40894
588.566	211.39045
589.027	137.29327
589.488	210.42101
589.949	230.4884
590.41	160.27487
590.87	267.53095
591.331	248.46776
591.791	176.35889
592.252	187.37586
592.712	244.51248
593.172	264.51532
593.632	293.5555
594.092	263.50934
594.552	317.58398
595.011	222.44486
595.471	269.52196
595.931	260.50317
596.39	354.72021
596.849	296.59398
597.308	361.66538
597.768	282.62073
598.227	292.60869
598.685	401.77885
599.144	361.71721
599.603	392.7848
600.062	345.6123
600.52	388.72611
600.978	382.7669
601.437	449.85628
601.895	475.8256
602.353	548.98562
602.811	509.92226
603.269	514.0078
603.727	546.06209
604.184	575.03505
604.642	638.24494
605.099	654.19716
605.557	719.37109
606.014	677.12716
606.471	676.32609
606.928	708.15532
607.385	835.52271
607.842	930.55195
608.299	977.65338
608.755	964.6979
609.212	954.52441
609.668	939.4914
610.125	1074.85195
610.581	1107.87622
611.037	1092.77269
611.493	1025.76391
611.949	994.74816
612.405	981.38797
612.861	1100.85579
613.316	1021.77382
613.772	1124.81774
614.227	1049.78619
614.683	1078.63287
615.138	1076.80338
615.593	1068.78213
616.048	1119.82028
616.503	1112.98075
616.958	1074.96703
617.412	1122.89714
617.867	994.59581
618.321	1148.64389
618.776	1026.65299
619.23	1058.81268
619.684	1073.75878
620.138	1029.77082
620.592	998.81928
621.046	962.70848
621.5	994.81928
621.954	996.67701
622.407	944.59003
622.861	932.73985
623.314	964.6626
623.768	934.66463
624.221	878.3096
624.674	839.51691
625.127	818.51612
625.58	908.60902
626.033	869.50189
626.485	796.52442
626.938	784.50429
627.39	783.46592
627.843	787.46617
628.295	734.38586
628.747	747.45145
629.199	693.30032
629.651	723.34605
630.103	613.18447
630.555	726.25517
631.006	730.41467
631.458	655.30025
631.909	710.36143
632.361	683.337
632.812	617.21216
633.263	622.13732
633.714	641.16121
634.165	632.3132
634.616	575.1853
635.067	599.14575
635.518	609.25493
635.968	666.12555
636.419	604.13052
636.869	624.28157
637.319	541.0966
637.769	536.05053
638.219	608.26438
638.669	534.12309
639.119	633.33952
639.569	590.24378
640.019	618.24125
640.468	579.13042
640.918	636.33209
641.367	590.15603
641.816	546.07824
642.265	623.25332
642.714	664.32459
643.163	687.35499
643.612	574.21159
644.061	599.10042
644.51	559.12385
644.958	595.14248
645.406	621.29862
645.855	648.38654
646.303	682.37819
646.751	627.24169
647.199	665.30785
647.647	689.36404
648.095	726.41963
648.543	744.28568
648.99	706.45217
649.438	819.61953
649.885	749.59149
650.333	797.27597
650.78	834.69115
651.227	804.65547
651.674	791.51957
652.121	814.67533
652.568	856.74054
653.015	860.83504
653.461	848.68829
653.908	922.76613
654.354	901.78604
654.801	880.71313
655.247	915.64455
655.693	884.94477
656.139	958.88372
656.585	1024.98539
657.031	989.8642
657.477	1047.78182
657.922	1054.93225
658.368	1084.14725
658.813	1154.09992
659.259	1186.21482
659.704	1088.00935
660.149	1212.17259
660.594	1193.20007
661.039	1227.13407
661.484	1342.41271
661.929	1320.32124
662.373	1347.5811
662.818	1363.55203
663.262	1403.50303
663.707	1455.74076
664.151	1514.6848
664.595	1539.66303
665.039	1641.89116
665.483	1635.97098
665.927	1727.7652
666.371	1669.63699
666.814	1763.85189
667.258	1740.78233
667.701	1923.58569
668.145	1923.16101
668.588	1967.12893
669.031	1955.92467
669.474	2026.08671
669.917	2113.78207
670.36	2126.29066
670.803	2201.21067
671.245	2235.62215
671.688	2263.29736
672.13	2264.88726
672.573	2347.55617
673.015	2407.27946
673.457	2426.81134
673.899	2552.38062
674.341	2585.36567
674.783	2577.32199
675.225	2664.49019
675.666	2594.335
676.108	2718.84247
676.549	2796.31113
676.991	2819.91939
677.432	2815.42459
677.873	2954.18303
678.314	2884.36287
678.755	2950.47705
679.196	2945.12132
679.637	3084.51864
680.078	3024.25803
680.518	3089.23433
680.959	3020.39038
681.399	3077.60672
681.839	3128.48946
682.28	3147.56997
682.72	3143.1072
683.16	3178.63281
683.6	3192.09505
684.039	3187.59035
684.479	3267.5299
684.919	3167.13626
685.358	3244.77308
685.798	3313.9967
686.237	3325.44102
686.676	3342.17954
687.115	3358.24388
687.554	3309.31816
687.993	3359.87989
688.432	3352.07138
688.871	3301.03414
689.309	3253.36295
689.748	3320.58289
690.186	3371.35677
690.625	3274.24137
691.063	3285.38692
691.501	3294.5925
691.939	3350.63884
692.377	3350.4899
692.815	3303.36337
693.253	3292.41453
693.69	3245.8701
694.128	3282.4498
694.565	3294.35698
695.003	3287.77576
695.44	3331.25181
695.877	3198.22998
696.314	3172.77524
696.751	3199.10645
697.188	3184.13633
697.625	3275.13624
698.061	3227.39968
698.498	3198.46942
698.934	3223.43099
699.371	3200.28037
699.807	3105.32748
700.243	3108.42992
700.679	3104.07275
701.115	3127.30827
701.551	3155.30065
701.987	3141.03086
702.422	3067.34956
702.858	3155.36622
703.294	3018.08382
703.729	3035.5437
704.164	3027.43712
704.599	2997.98726
705.035	2936.01058
705.47	2982.49547
705.904	2952.23812
706.339	3014.24384
706.774	2918.27141
707.209	2936.17858
707.643	2949.42363
708.078	2960.50676
708.512	2939.66645
708.946	2949.41637
709.38	2959.34404
709.814	2885.13862
710.248	2877.51012
710.682	2978.36117
711.116	2942.36783
711.549	2912.88097
711.983	2898.19284
712.416	2903.33291
712.85	2905.65294
713.283	2867.33102
713.716	2892.70701
714.149	2901.38292
714.582	2860.0361
715.015	2915.68818
715.448	2806.70907
715.881	2910.9045
716.313	2880.27265
716.746	2786.28928
717.178	2906.4239
717.61	2931.76847
718.043	2975.65986
718.475	2883.47483
718.907	2962.76733
719.339	2865.07785
719.77	2820.3274
720.202	2881.73928
720.634	2943.49368
721.065	2963.34166
721.497	2974.54906
721.928	2979.55423
722.359	2897.43049
722.79	2926.39375
723.221	3093.73104
723.652	3057.90469
724.083	2987.04775
724.514	2964.15885
724.945	3125.28094
725.375	2964.20436
725.806	3059.67692
726.236	3043.85022
726.666	3080.33154
727.096	3062.55893
727.526	3112.78514
727.956	3118.07591
728.386	3235.57473
728.816	3250.75432
729.246	3205.47907
729.675	3166.56654
730.105	3261.56972
730.534	3249.23776
730.964	3294.75662
731.393	3297.63704
731.822	3297.82568
732.251	3330.77487
732.68	3415.25792
733.109	3364.55949
733.537	3426.407
733.966	3480.59338
734.395	3472.10377
734.823	3517.95065
735.251	3459.38389
735.68	3487.6632
736.108	3595.71034
736.536	3527.23001
736.964	3478.13123
737.392	3530.64093
737.82	3618.32118
738.247	3613.30892
738.675	3757.25164
739.102	3708.57699
739.53	3669.73229
739.957	3623.82542
740.384	3792.47133
740.811	3807.66768
741.238	3806.37548
741.665	3796.01487
742.092	3748.24638
742.519	3773.48325
742.945	3838.24488
743.372	3893.45048
743.798	3823.77035
744.225	3767.20063
744.651	3736.60581
745.077	3868.51439
745.503	3922.33278
745.929	3908.21221
746.355	3922.48623
746.781	3960.43398
747.207	3923.03603
747.632	3843.3424
748.058	3907.50628
748.483	4037.8667
748.908	4044.41802
749.334	3989.35259
749.759	4052.02235
750.184	4029.10144
750.609	4079.3209
751.033	4160.00102
751.458	4098.66623
751.883	4054.39621
752.307	4013.02552
752.732	4054.4434
753.156	4094.34683
753.58	4202.00992
754.005	4053.5863
754.429	4114.96749
754.853	3960.42232
755.277	3982.07896
755.7	4054.39915
756.124	4076.38698
756.548	4024.06636
756.971	4039.28528
757.394	4049.70458
757.818	4081.68013
758.241	4061.57119
758.664	4017.54994
759.087	3959.67994
759.51	3970.45639
759.933	3957.20097
760.356	3998.6819
760.778	4041.33118
761.201	3927.30205
761.623	3951.27525
762.046	3950.11533
762.468	3932.21116
762.89	3995.38516
763.312	3849.35733
763.734	3817.26112
764.156	3738.47451
764.578	3808.95456
765	3760.37981
765.421	3608.713
765.843	3695.95544
766.264	3579.36783
766.686	3584.64572
767.107	3564.38552
767.528	3500.68826
767.949	3538.74465
768.37	3442.50313
768.791	3412.41248
769.212	3309.6782
769.632	3371.16029
770.053	3351.03567
770.473	3319.46032
770.894	3215.67505
771.314	3256.3548
771.734	3138.20477
772.154	3183.85069
772.575	3075.18131
772.994	3082.05337
773.414	3067.40167
773.834	3043.65878
774.254	2874.50981
774.673	2907.48401
775.093	2896.57694
775.512	2956.55292
775.931	2820.72373
776.351	2803.58557
776.77	2718.4724
777.189	2730.31675
777.607	2724.74616
778.026	2630.56458
778.445	2585.57314
778.864	2530.70954
779.282	2594.35259
779.701	2505.59261
780.119	2443.57737
780.537	2346.46129
780.955	2320.56014
781.373	2299.39127
781.791	2283.90359
782.209	2289.03078
782.627	2227.69524
783.045	2185.97415
783.462	2134.46207
783.88	2156.54233
784.297	2096.35487
784.715	2076.44249
785.132	1932.05444
785.549	1954.22042
785.966	1911.21123
786.383	1881.08447
786.8	1922.86854
787.217	1839.89235
787.633	1744.02315
788.05	1764.84482
788.466	1773.82219
788.883	1751.12314
789.299	1682.82175
789.715	1667.84377
790.131	1594.85779
790.547	1571.8499
790.963	1582.8376
791.379	1572.89674
791.795	1555.50687
792.21	1499.53364
792.626	1394.46849
793.041	1352.54558
793.457	1398.60819
793.872	1386.42903
794.287	1266.32877
794.702	1320.49965
795.117	1248.42698
795.532	1221.41523
795.947	1255.3435
796.362	1139.16597
796.776	1164.14909
797.191	1141.23366
797.605	1016.94555
798.02	1091.1446
798.434	1027.84259
798.848	1020.06712
799.262	961.99184
799.676	1007.02545
800.09	965.97971
800.504	912.86292
800.918	840.65142
801.331	892.00305
801.745	808.5847
802.158	852.82502
802.572	829.72419
802.985	839.73418
803.398	789.62273
803.811	759.71323
804.224	725.58785
804.637	693.45322
805.05	688.40113
805.462	690.50002
805.875	641.49308
806.288	572.24745
806.7	621.40382
807.112	637.31213
807.525	633.399
807.937	530.19764
808.349	574.3051
808.761	584.29891
809.173	574.25816
809.584	517.17178
809.996	478.07996
810.408	495.17977
810.819	492.06139
811.231	493.17679
811.642	541.17152
812.053	636.34617
812.464	654.37889
812.875	642.47164
813.286	550.29374
813.697	554.17289
814.108	422.96421
814.519	428.88543
814.929	428.02042
815.34	391.89178
815.75	347.83816
816.16	371.87443
816.571	356.87881
816.981	341.76395
817.391	309.71303
817.801	311.73845
818.211	335.75885
818.62	289.66716
819.03	328.76575
819.44	349.8677
819.849	322.77471
820.259	328.80138
820.668	226.53986
821.077	263.63003
821.486	282.65242
821.895	264.62941
822.304	240.6174
822.713	232.53164
823.122	250.60356
823.531	254.58112
823.939	244.57526
824.348	242.56966
824.756	251.60815
825.164	212.51994
825.573	219.53461
825.981	199.48199
826.389	228.55648
826.797	199.4867
827.205	167.37601
827.612	177.42823
828.02	163.37586
828.428	217.538
828.835	167.43194
829.243	194.45152
829.65	187.4548
830.057	191.45303
830.464	142.34129
830.871	162.38121
831.278	127.30367
831.685	204.44301
832.092	150.36175
832.499	160.34361
832.905	158.39353
833.312	128.28873
833.718	146.35861
834.124	130.2936
834.531	158.39181
834.937	135.34228
835.343	137.32633
835.749	150.34499
836.155	112.29085
836.561	135.32785
836.966	134.32365
837.372	125.31478
837.777	106.2621
838.183	128.28129
838.588	117.28776
838.993	135.32453
839.399	83.20225
839.804	80.19439
840.209	64.16287
840.613	66.14693
841.018	82.20698
841.423	100.25485
841.828	127.31753
842.232	117.28712
842.637	51.12069
843.041	62.1589
843.445	78.19512
843.849	98.24107
844.253	88.20829
844.657	66.16606
845.061	80.18105
845.465	89.21395
845.869	54.12578
846.272	46.11236
846.676	111.26613
847.079	59.15007
847.483	110.27209
847.886	91.22033
848.289	60.16008
848.692	80.20193
849.095	57.13708
849.498	113.28385
849.901	62.14231
850.304	78.1859
850.707	70.1782
851.109	104.2612
851.512	66.16206
851.914	8.02034
852.316	70.17676
852.718	32.08299
853.121	54.13249
853.523	26.06121
853.925	66.17192
854.326	60.14999
854.728	76.19484
855.13	21.05451
855.531	49.11735
855.933	87.20787
856.334	82.20357
856.736	45.10116
857.137	58.13494
857.538	52.13088
857.939	14.03487
858.34	50.12209
858.741	68.17744
859.142	102.2431
859.542	67.17647
859.943	58.14415
860.343	47.11662
860.744	40.09796
861.144	77.18721
861.544	17.04118
861.945	73.18555
862.345	85.20689
862.745	59.14661
863.145	106.25118
863.544	72.18148
863.944	17.04049
864.344	66.16373
864.743	100.24626
865.143	59.1515
865.542	55.12768
865.941	69.17046
866.34	63.15082
866.74	77.20594
867.139	40.0961
867.537	49.12503
867.936	35.08462
868.335	78.19773
868.734	73.18601
869.132	30.0701
869.531	93.22348
869.929	-5.01154
870.327	55.13192
870.726	71.17662
871.124	31.07285
871.522	26.06659
871.92	102.24952
872.318	67.16351
872.715	68.16802
873.113	56.13648
873.511	60.14939
873.908	5.01274
874.306	64.15894
874.703	47.11781
875.1	81.20632
875.497	64.15324
875.894	8.01977
876.291	63.15443
876.688	52.1342
877.085	46.1106
877.482	21.0529
877.878	14.03397
878.275	50.12715
878.671	82.18172
879.068	19.04619
879.464	53.12818
879.86	39.09254
880.256	79.19415
880.652	22.05628
881.048	51.1265
881.444	58.13802
881.84	45.11458
882.236	26.06572
882.631	22.05434
883.027	53.12842
883.422	34.08726
883.817	1.00254
884.213	76.1943
884.608	30.07391
885.003	37.08952
885.398	5.01263
885.793	2.00507
886.188	28.06994
886.582	49.12582
886.977	31.07393
887.371	45.11401
887.766	0
888.16	82.20365
888.554	64.15802
888.949	45.1132
889.343	60.14645
889.737	-14.03772
890.131	62.15532
890.525	55.14064
890.918	36.0909
891.312	31.07452
891.706	45.11824
892.099	53.1349
892.492	45.09733
892.886	56.13699
893.279	25.06402
893.672	43.10968
894.065	56.14019
894.458	36.09084
894.851	36.08853
895.244	13.03344
895.637	46.11098
896.029	31.07613
896.422	19.04673
896.814	20.05003
897.206	-13.03136
897.599	83.20421
897.991	32.0777
898.383	35.08302
898.775	0
899.167	-46.10938
899.559	71.17918
899.951	25.05928
900.342	81.20501
900.734	-13.03264
901.125	38.09997
901.517	45.11064
901.908	61.14608
902.299	-1.00247
902.69	2.00477
903.082	60.14514
903.473	2.00484
903.863	98.24807
904.254	49.11385
904.645	77.19071
905.036	26.06327
905.426	65.14851
905.817	28.06903
906.207	-23.05561
906.597	32.07516
906.987	63.16301
907.378	29.07366
907.768	38.10071
908.158	56.13648
908.547	35.09069
908.937	95.24198
909.327	40.09738
909.717	47.11946
910.106	28.06758
910.495	94.23294
910.885	81.20413
911.274	32.08028
911.663	82.20706
912.052	52.12834
912.441	33.0842
912.83	40.09207
913.219	67.17492
913.608	35.08602
913.997	19.04792
914.385	85.20185
914.774	49.1194
915.162	24.05751
915.55	72.17358
915.939	2.00509
916.327	57.14215
916.715	57.14514
917.103	102.24878
917.491	95.23322
917.878	58.14247
918.266	37.0962
918.654	23.05906
919.041	8.02104
919.429	-9.0215
919.816	46.11673
920.203	27.06579
920.591	36.08954
920.978	44.10792
921.365	55.14423
921.752	41.09796
922.139	82.17694
922.525	-10.0243
922.912	28.0686
923.299	40.09963
923.685	38.09936
924.072	47.10851
924.458	36.08944
924.844	19.0473
925.231	13.03049
925.617	-5.01284
926.003	59.1506
926.389	39.0986
926.774	49.12424
927.16	72.17816
927.546	38.09722
927.931	76.18882
928.317	79.181
928.702	53.12537
929.088	-27.06483
929.473	35.08931
929.858	-10.02445
930.243	33.07948
930.628	10.02452
931.013	17.0424
931.398	83.18971
931.783	70.18372
932.167	48.11742
932.552	44.11039
932.937	73.18047
933.321	35.08808
933.705	43.10856
934.09	98.2456
934.474	99.23301
934.858	38.09878
935.242	25.05825
935.626	10.02578
936.009	18.04814
936.393	34.08677
936.777	25.06431
937.16	40.10427
937.544	55.1295
937.927	20.05102
938.311	70.17029
938.694	77.20274
939.077	33.07927
939.46	74.18096
939.843	54.11262
940.226	50.12828
940.609	13.03007
940.991	12.03075
941.374	13.032
941.757	38.09399
942.139	-3.00681
942.522	51.12055
942.904	53.12736
943.286	63.15973
943.668	39.10123
944.05	38.09382
944.432	21.05211
944.814	77.18875
945.196	-3.00738
945.578	2.0048
945.959	44.10326
946.341	68.16641
946.722	47.11041
947.104	55.13136
947.485	38.08865
947.866	34.08591
948.247	13.03302
948.628	35.08564
949.009	15.03865
949.39	70.17366
949.771	20.04681
950.152	49.12029
950.532	4.00992
950.913	16.03885
951.293	2.00545
951.674	-1.00244
952.054	-1.0025
952.434	56.13887
952.814	29.06929
953.194	63.16453
953.574	53.1305
953.954	28.06679
954.334	61.15174
954.714	-30.07421
955.093	5.0124
955.473	9.02267
955.853	-4.01045
956.232	47.12888
956.611	24.05786
956.99	39.09821
957.37	45.11478
957.749	76.18044
958.128	-18.04591
958.506	34.08845
958.885	42.10617
959.264	28.0689
959.643	28.06401
960.021	14.03492
960.4	23.05242
960.778	66.16212
961.156	40.10046
961.535	55.12809
961.913	24.05645
962.291	3.00776
962.669	11.02806
963.047	57.14529
963.424	33.08447
963.802	48.11808
964.18	76.19143
964.557	83.18994
964.935	43.10203
965.312	22.05756
965.69	59.14752
966.067	38.09275
966.444	53.13055
966.821	64.1646
967.198	71.17159
967.575	49.12051
967.952	39.09211
968.329	26.06356
968.705	76.16209
969.082	20.05156
969.458	10.02417
969.835	43.10482
970.211	43.11049
970.587	41.10225
970.963	39.10025
971.339	22.05772
971.715	34.08515
972.091	49.12069
972.467	34.08506
972.843	31.0772
973.219	69.16512
973.594	53.13856
973.97	97.22884
974.345	22.05294
974.721	59.14264
975.096	6.01464
975.471	47.11157
975.846	52.12489
976.221	42.10681
976.596	-2.00484
976.971	52.12834
977.346	30.07013
977.72	69.17519
978.095	23.05972
978.469	25.05996
978.844	68.17042
979.218	34.08175
979.593	80.1906
979.967	47.11457
980.341	39.09
980.715	27.06831
981.089	33.08287
981.463	45.10344
981.837	42.10278
982.21	76.17598
982.584	42.1016
982.957	28.0702
983.331	47.11118
983.704	23.0568
984.078	49.12078
984.451	133.32723
984.824	7.01718
985.197	55.13347
985.57	74.18478
985.943	67.16497
986.316	79.19308
986.688	40.09665
987.061	77.17954
987.434	24.06282
987.806	51.12367
988.179	31.07342
988.551	56.14191
988.923	48.11825
989.295	77.19147
989.667	-25.06058
990.039	52.12844
990.411	38.08768
990.783	48.11057
991.155	9.02179
991.527	80.19592
991.898	17.04261
992.27	17.0423
992.641	41.10303
993.012	65.15251
993.384	57.13578
993.755	36.092
994.126	13.03149
994.497	-1.00248
994.868	40.09207
995.239	30.07298
995.61	-3.00762
995.98	24.05858
996.351	27.06714
996.722	3.00702
997.092	23.05474
997.462	-37.0879
997.833	63.14897
998.203	80.19286
998.573	57.14174
998.943	35.08231
999.313	24.05779
999.683	53.12712
1000.053	45.10364
1000.423	40.09738
1000.792	62.16034
1001.162	32.07901
1001.531	62.15252
1001.901	37.09244
1002.27	36.08071
1002.639	39.09983
1003.009	33.07873
1003.378	40.10244
1003.747	82.19251
1004.116	46.11014
1004.485	26.06242
1004.853	32.08132
1005.222	61.15351
1005.591	63.1492
1005.959	0
1006.328	-5.01138
1006.696	22.05334
1007.064	42.10579
1007.433	25.06276
1007.801	86.20968
1008.169	73.18357
1008.537	81.17819
1008.905	65.15096
1009.273	34.08422
1009.64	13.03123
1010.008	30.07178
1010.375	101.24289
1010.743	149.33727
1011.11	21.04997
1011.478	48.11882
1011.845	60.14081
1012.212	20.04554
1012.579	-1.00248
1012.946	50.11899
1013.313	49.11663
1013.68	40.09008
1014.047	-5.01204
1014.414	11.02617
1014.78	46.11437
1015.147	57.13765
1015.513	70.16799
1015.88	71.18085
1016.246	76.18668
1016.612	80.18201
1016.978	34.08355
1017.344	21.05216
1017.71	90.21779
1018.076	28.0663
1018.442	36.09281
1018.808	37.09268
1019.174	16.04037
1019.539	102.23234
1019.905	43.10152
1020.27	36.08905
1020.636	55.13172
1021.001	50.11967
1021.366	21.05069
1021.731	55.14128
1022.096	-6.01528
1022.461	31.07362
1022.826	51.12116
1023.191	14.03694
1023.556	30.07057
1023.92	63.15449
1024.285	67.16296
1024.649	36.08843
1025.014	38.0943
1025.378	40.10071
1025.742	71.17559
1026.107	72.16208
1026.471	62.14436
1026.835	50.1239
1027.199	9.02182
1027.562	57.13228
1027.926	38.0931
1028.29	57.14401
1028.654	40.09218
1029.017	29.07154
1029.381	14.03366
1029.744	33.08438
1030.107	62.1463
1030.471	49.1173
1030.834	17.03892
1031.197	85.20333
1031.56	54.12727
1031.923	12.03122
1032.286	53.12435
1032.648	50.11954
1033.011	18.04156
1033.374	44.1035
1033.736	-12.03187
1034.099	12.02944
1034.461	-15.03832
1034.823	28.06997
1035.185	60.15069
1035.548	42.10232
1035.91	5.01207
1036.272	41.09345
1036.634	82.19933
1036.995	64.14996
1037.357	11.02694
1037.719	45.10949
1038.08	53.12571
1038.442	37.088
1038.803	16.03865
1039.165	19.04819
1039.526	13.03162
1039.887	29.06964
1040.248	15.03718
1040.609	63.15523
1040.97	39.09546
1041.331	35.0888
1041.692	5.01177
1042.053	47.10704
1042.413	47.10954
1042.774	76.18384
1043.134	48.11427
1043.495	63.15791
1043.855	12.0293
1044.215	19.0474
1044.576	14.03369
1044.936	70.15977
1045.296	43.10739
1045.656	49.1202
1046.016	50.12063
1046.375	59.1428
1046.735	10.02284
1047.095	17.04003
1047.454	32.06804
1047.814	39.0939
1048.173	72.17121
1048.533	53.12129
1048.892	-7.01697
1049.251	44.11051
1049.61	24.05934
1049.969	8.019
1050.328	52.11264
1050.687	7.01716
1051.046	31.07571
1051.405	44.10951
1051.763	4.00928
1052.122	25.0626
1052.48	16.03946
1052.839	28.06612
1053.197	45.10596
1053.555	78.17674
1053.914	36.08823
1054.272	69.16612
1054.63	-9.02223
1054.988	54.12811
1055.345	-4.00871
1055.703	33.07963
1056.061	21.05426
1056.419	14.03644
1056.776	42.10194
1057.134	32.0743
1057.491	31.07784
1057.848	20.05003
1058.206	54.12682
1058.563	32.07077
1058.92	68.15608
1059.277	45.11104
1059.634	45.10591
1059.991	46.11022
1060.348	-12.02744
1060.704	2.00481
1061.061	105.24115
1061.418	12.02929
1061.774	56.13801
1062.131	37.09798
1062.487	23.05403
1062.843	17.04261
1063.199	35.08722
1063.555	11.02567
1063.911	17.04316
1064.267	65.13505
1064.623	12.02933
1064.979	105.24598
1065.335	44.10523
1065.691	49.11739
1066.046	33.07278
1066.402	-3.00688
1066.757	27.06838
1067.112	64.15656
1067.468	-1.00238
1067.823	63.15099
1068.178	61.14714
1068.533	65.15703
1068.888	42.10045
1069.243	23.05701
1069.598	43.10455
1069.952	8.01816
1070.307	24.05965
1070.662	38.09036
1071.016	26.05851
1071.371	-1.0023
1071.725	67.15966
1072.079	-8.01944
1072.434	21.05127
1072.788	59.14016
1073.142	83.20278
1073.496	22.05243
1073.85	54.12504
1074.203	39.09475
1074.557	42.11176
1074.911	51.12162
1075.265	25.05836
1075.618	83.20127
1075.971	30.07158
1076.325	21.0536
1076.678	21.04827
1077.031	29.06586
1077.385	10.0222
1077.738	11.02501
1078.091	-5.01149
1078.444	46.10681
1078.796	22.05422
1079.149	31.07731
1079.502	-6.01432
1079.855	17.03987
1080.207	51.12553
1080.56	24.06226
1080.912	10.02451
1081.264	45.10838
1081.617	26.0636
1081.969	39.0985
1082.321	12.02949
1082.673	-15.03466
1083.025	32.07612
1083.377	-191.43092
1083.728	22.05157
1084.08	36.09003
1084.432	62.14907
1084.783	51.11938
1085.135	27.0679
1085.486	31.07114
1085.838	31.07655
1086.189	13.03175
1086.54	49.11694
1086.891	32.08112
1087.242	35.08538
1087.593	32.07811
1087.944	27.06134
1088.295	55.1248
1088.646	9.02196
1088.996	-12.02922
1089.347	24.05913
1089.698	-9.0215
1090.048	60.15544
1090.398	21.04895
1090.749	40.09581
1091.099	28.07063
1091.449	6.01505
1091.799	33.08281
1092.149	-49.12158
1092.499	10.02455
1092.849	34.08659
1093.199	76.18943
1093.548	28.0675
1093.898	37.09271
1094.248	40.10287
1094.597	-19.04904
1094.947	38.10148
1095.296	50.12336
1095.645	51.13251
1095.994	5.0121
1096.343	73.18278
1096.692	20.05276
1097.041	21.05707
1097.39	43.1079
1097.739	23.06001
1098.088	45.12056
1098.437	1.00265
1098.785	33.08913
1099.134	52.13791
1099.482	42.11556
1099.83	26.06854
1100.179	29.07584
1100.527	10.02672
1100.875	30.07951
1101.223	46.12212
1101.571	54.149
1101.919	24.06292
1102.267	45.12667
1102.615	13.04175
1102.962	15.04827
1103.31	3.00964
1103.658	22.07077
