Data from N2 R5 sample 9_Subt2__0__13-32-52-245.txt Node

Date: Fri Aug 29 13:32:52 PDT 2025
User: uwsun
Spectrometer: HDX01956
Trigger mode: 0
Integration Time (sec): 5.000000E-1
Scans to average: 1
Nonlinearity correction enabled: true
Boxcar width: 0
Storing dark spectrum: false
XAxis mode: Wavelengths
Number of Pixels in Spectrum: 2068
>>>>>Begin Spectral Data<<<<<
194.03	323.86087
194.578	333.00584
195.127	332.98983
195.676	339.01021
196.225	361.89916
196.773	398.01844
197.321	594.43301
197.87	730.55949
198.418	801.65926
198.966	776.62781
199.513	691.39544
200.061	683.4089
200.609	779.6804
201.156	717.23069
201.704	696.42194
202.251	743.5979
202.798	740.557
203.345	790.55955
203.892	779.56621
204.438	794.50082
204.985	763.41786
205.532	773.63683
206.078	783.52657
206.624	812.56559
207.17	818.48149
207.716	763.46781
208.262	816.21674
208.808	753.4666
209.354	775.49021
209.899	839.68466
210.445	738.46426
210.99	747.42733
211.535	874.58635
212.08	823.49246
212.625	863.69392
213.17	865.72337
213.715	732.26959
214.259	850.53567
214.804	844.64295
215.348	777.39958
215.892	847.58518
216.436	781.43267
216.98	861.46438
217.524	793.47517
218.068	834.66423
218.612	835.66815
219.155	782.45431
219.698	756.43793
220.242	701.43249
220.785	704.32912
221.328	729.47565
221.871	730.5144
222.414	757.52681
222.956	601.19678
223.499	673.22551
224.041	725.36583
224.583	773.31999
225.126	704.24289
225.668	711.40043
226.21	705.44653
226.751	670.17412
227.293	697.28856
227.835	655.31236
228.376	775.42592
228.918	737.51703
229.459	678.37886
230	701.35094
230.541	683.27711
231.082	707.38863
231.622	688.2849
232.163	742.44138
232.704	685.38457
233.244	708.42622
233.784	729.45142
234.324	624.10422
234.864	651.19796
235.404	682.32213
235.944	680.31322
236.484	769.54466
237.023	754.41604
237.563	761.3882
238.102	727.37698
238.641	724.4859
239.18	694.29932
239.719	706.44175
240.258	705.26768
240.797	742.41399
241.335	729.43931
241.874	777.13145
242.412	687.33343
242.95	701.34058
243.488	768.37874
244.026	727.32806
244.564	752.19857
245.102	794.3825
245.64	763.4671
246.177	695.24262
246.715	787.49518
247.252	765.38566
247.789	751.08669
248.326	680.30946
248.863	748.27753
249.4	803.41774
249.936	787.23489
250.473	754.382
251.009	756.35368
251.546	764.30703
252.082	795.34165
252.618	725.26574
253.154	747.41699
253.69	745.31374
254.226	770.44331
254.761	760.32944
255.297	743.26318
255.832	747.39151
256.367	695.30601
256.903	765.29718
257.438	732.36183
257.972	825.40223
258.507	767.35826
259.042	806.33412
259.576	757.24415
260.111	797.42909
260.645	819.34786
261.179	733.3404
261.713	778.32962
262.247	777.39172
262.781	791.25052
263.315	745.43587
263.849	826.60253
264.382	830.46133
264.915	801.43996
265.449	775.45805
265.982	829.43942
266.515	827.55378
267.048	738.19567
267.58	802.3392
268.113	746.23317
268.646	787.51042
269.178	804.35872
269.71	776.29495
270.243	813.41828
270.775	868.69534
271.307	811.51171
271.838	901.62015
272.37	826.56369
272.902	801.39215
273.433	835.36514
273.965	811.51993
274.496	782.52065
275.027	802.53815
275.558	826.53097
276.089	805.5094
276.62	813.6114
277.15	839.59105
277.681	820.33792
278.211	891.65374
278.741	819.34263
279.272	843.43677
279.802	864.64372
280.332	847.49872
280.861	916.6392
281.391	818.38918
281.921	880.59565
282.45	879.66623
282.98	899.78207
283.509	912.4952
284.038	836.4206
284.567	914.57863
285.096	861.5631
285.625	918.51344
286.153	895.54122
286.682	899.49964
287.21	903.60221
287.739	904.56793
288.267	882.57984
288.795	943.86071
289.323	873.49284
289.851	914.5619
290.378	935.50285
290.906	909.60287
291.433	929.70391
291.961	854.40837
292.488	906.66539
293.015	943.58791
293.542	887.65937
294.069	916.64004
294.596	956.72236
295.122	923.59126
295.649	887.40286
296.175	953.66931
296.702	1028.76487
297.228	1008.74517
297.754	1051.61022
298.28	986.5543
298.806	1007.69789
299.332	1009.51827
299.857	991.54292
300.383	1018.84088
300.908	951.62576
301.433	919.5936
301.958	1081.70135
302.483	996.74621
303.008	1054.81639
303.533	1126.03952
304.058	1052.70461
304.582	1010.63353
305.107	1004.84961
305.631	1077.65319
306.155	1079.6738
306.679	1021.61296
307.203	1137.72431
307.727	1050.68516
308.251	1084.81881
308.775	1039.64717
309.298	1060.68974
309.822	1167.95812
310.345	1243.86496
310.868	1213.85015
311.391	1171.89253
311.914	1109.84628
312.437	1217.74619
312.96	1143.7273
313.482	1127.72225
314.005	1153.89155
314.527	1223.08252
315.049	1253.02472
315.571	1130.54657
316.093	1248.93479
316.615	1221.82624
317.137	1259.60796
317.659	1349.97944
318.18	1353.95641
318.702	1275.76669
319.223	1299.48324
319.744	1309.68406
320.265	1269.83389
320.786	1319.92091
321.307	1349.97342
321.828	1388.73927
322.348	1376.82263
322.869	1358.79134
323.389	1482.03259
323.909	1439.78355
324.43	1523.00283
324.95	1470.76228
325.47	1492.96538
325.989	1478.8231
326.509	1458.5994
327.029	1531.69105
327.548	1573.69076
328.067	1619.91061
328.587	1601.03053
329.106	1636.73493
329.625	1570.21815
330.144	1590.73163
330.662	1553.70542
331.181	1686.79661
331.7	1687.78711
332.218	1748.55137
332.736	1736.77914
333.255	1719.73046
333.773	1736.78058
334.291	1858.02638
334.808	1774.5655
335.326	1831.61164
335.844	1888.65308
336.361	1860.92959
336.879	1880.63516
337.396	1984.7547
337.913	1965.57399
338.43	2025.48852
338.947	1970.66146
339.464	1985.28772
339.981	2030.59715
340.497	2083.76896
341.014	2115.67832
341.53	2052.37633
342.046	2197.6569
342.562	2266.74097
343.078	2238.47597
343.594	2206.52213
344.11	2216.48638
344.626	2244.67414
345.141	2297.27118
345.657	2338.27148
346.172	2318.44577
346.687	2328.23523
347.202	2386.11713
347.717	2405.32876
348.232	2455.48888
348.747	2452.13264
349.261	2345.90268
349.776	2531.15066
350.29	2477.27538
350.805	2525.34967
351.319	2557.06291
351.833	2534.89977
352.347	2542.04216
352.861	2680.9281
353.374	2690.92243
353.888	2739.04521
354.401	2658.85093
354.915	2662.68044
355.428	2721.05568
355.941	2740.76557
356.454	2904.62311
356.967	2824.80309
357.48	2808.6959
357.993	2836.917
358.505	2905.80184
359.018	3053.72916
359.53	3015.63128
360.042	3050.34481
360.554	3004.66873
361.066	2924.676
361.578	3077.20544
362.09	3099.49132
362.602	3089.17631
363.113	3123.31221
363.625	3198.13528
364.136	3262.02847
364.647	3187.10265
365.158	3256.1454
365.669	3355.18187
366.18	3275.14963
366.691	3379.85183
367.201	3337.10641
367.712	3401.85322
368.222	3438.82452
368.733	3452.59409
369.243	3428.62588
369.753	3688.62142
370.263	3688.68915
370.773	3719.74635
371.282	3735.53902
371.792	3790.2595
372.301	3986.31919
372.811	3982.54805
373.32	3932.92687
373.829	4056.0382
374.338	4282.81122
374.847	4221.82308
375.356	4339.79221
375.865	4617.60561
376.373	4866.65798
376.882	4993.74385
377.39	4963.68952
377.898	4992.69284
378.407	5411.07546
378.915	5626.44374
379.423	5910.76596
379.93	6104.38183
380.438	6194.71678
380.946	6522.96949
381.453	6651.71736
381.96	6932.46919
382.468	7376.82009
382.975	8092.46471
383.482	8424.30927
383.989	8510.84386
384.495	8479.63729
385.002	9120.88434
385.509	9615.27785
386.015	10296.48909
386.521	10782.76226
387.028	11247.83087
387.534	11615.00015
388.04	12051.40731
388.546	11872.7997
389.051	12440.95935
389.557	13634.78694
390.063	15436.4525
390.568	15716.65855
391.073	15835.73439
391.578	16626.8524
392.084	16864.19438
392.589	17274.301
393.093	18038.12664
393.598	20057.32137
394.103	22094.03393
394.607	24100.23254
395.112	26274.1161
395.616	27680.27324
396.12	29569.84639
396.624	32415.76325
397.128	35626.30392
397.632	39631.90424
398.136	38445.1771
398.639	36166.3097
399.143	32503.66402
399.646	28888.45294
400.15	25083.82847
400.653	20124.16724
401.156	13866.23708
401.659	5169.95759
402.162	1054.15589
402.664	0
403.167	0
403.67	0
404.172	0
404.674	0
405.176	0
405.678	0
406.18	0
406.682	0
407.184	0
407.686	0
408.187	0
408.688	0
409.19	0
409.691	0
410.192	0
410.693	0
411.194	435.30976
411.694	4082.94878
412.195	8864.71461
412.696	12089.80453
413.196	12760.96929
413.696	12863.67595
414.196	13703.56671
414.696	17261.84252
415.196	21764.24417
415.696	29583.19008
416.196	36460.31858
416.695	40057.39798
417.195	41392.74103
417.694	42311.08144
418.194	43882.52025
418.693	41971.11483
419.192	40360.85293
419.691	39881.6042
420.19	39512.96183
420.688	38354.72307
421.187	36973.05
421.685	34944.79349
422.184	32411.47515
422.682	27912.62943
423.18	23322.88431
423.678	20614.20036
424.176	19160.44248
424.674	18155.66753
425.172	17450.6353
425.669	16430.58141
426.167	15399.94327
426.664	13959.87851
427.161	12753.83131
427.659	11887.35809
428.156	11094.29122
428.652	10270.69852
429.149	9868.50782
429.646	9464.85311
430.143	9006.23372
430.639	8477.01667
431.135	8015.97171
431.632	7539.83608
432.128	7017.97357
432.624	6513.06448
433.12	6266.09125
433.616	5960.36558
434.111	5647.57297
434.607	5545.25351
435.103	5537.30776
435.598	5491.2064
436.093	5227.79209
436.588	4999.69351
437.083	4806.66872
437.578	4490.72382
438.073	4096.94139
438.568	4175.05241
439.062	3990.86438
439.557	3880.21749
440.051	3660.23364
440.546	3516.34374
441.04	3473.56421
441.534	3509.7998
442.028	3447.73156
442.522	3264.83828
443.015	3232.63192
443.509	3183.05707
444.002	3067.12954
444.496	2972.8724
444.989	3052.20942
445.482	2971.32085
445.975	2879.03955
446.468	2810.97898
446.961	2779.01323
447.454	2802.19956
447.947	2739.34931
448.439	2767.51329
448.931	2658.2818
449.424	2643.75953
449.916	2627.63217
450.408	2524.415
450.9	2483.68521
451.392	2352.9037
451.884	2391.64076
452.375	2204.90671
452.867	2397.66268
453.358	2205.67198
453.849	2221.52729
454.341	2123.73473
454.832	2193.59824
455.323	2114.99416
455.814	2229.83559
456.304	2089.89411
456.795	2093.88603
457.285	2097.87507
457.776	2086.98185
458.266	2023.05202
458.756	1889.15507
459.247	1898.09307
459.737	1842.11215
460.226	1841.97579
460.716	1802.17502
461.206	1739.22041
461.695	1800.39376
462.185	1726.21004
462.674	1661.16622
463.163	1772.08086
463.653	1692.95565
464.142	1663.3115
464.63	1586.38147
465.119	1541.20616
465.608	1536.21361
466.096	1520.11928
466.585	1544.29267
467.073	1511.39295
467.561	1471.39958
468.05	1517.34189
468.538	1417.46572
469.026	1376.38613
469.513	1335.08172
470.001	1300.23352
470.489	1322.34824
470.976	1340.32898
471.463	1257.48857
471.951	1264.5281
472.438	1165.30221
472.925	1202.316
473.412	1158.4518
473.899	1120.27955
474.385	1131.44183
474.872	1101.29883
475.359	1040.3609
475.845	1117.10447
476.331	1029.16872
476.817	1009.37487
477.303	951.22979
477.789	931.28861
478.275	895.30651
478.761	936.31433
479.247	917.17826
479.732	853.28329
480.218	848.3799
480.703	888.34619
481.188	808.02496
481.673	827.14835
482.158	687.88835
482.643	801.32399
483.128	760.07832
483.612	743.11117
484.097	754.21275
484.581	713.08675
485.066	645.05489
485.55	629.90507
486.034	628.8932
486.518	641.00689
487.002	633.05429
487.486	576.9814
487.969	620.04478
488.453	598.07187
488.936	550.86413
489.42	573.88234
489.903	578.05084
490.386	584.61723
490.869	556.85588
491.352	554.99386
491.835	495.73162
492.318	496.80954
492.8	534.78042
493.283	447.85619
493.765	461.84931
494.247	481.84267
494.73	426.70303
495.212	476.87322
495.694	396.70119
496.175	370.66744
496.657	408.74354
497.139	442.56145
497.62	342.62546
498.102	330.64323
498.583	401.78479
499.064	297.51642
499.545	362.64131
500.026	345.60021
500.507	326.59649
500.988	360.70805
501.469	330.65578
501.949	349.68787
502.43	264.50137
502.91	260.42472
503.39	305.61896
503.87	289.54229
504.35	293.55957
504.83	288.50143
505.31	277.54236
505.79	222.43374
506.269	266.50591
506.749	192.35965
507.228	207.39839
507.707	277.49339
508.187	254.49933
508.666	207.4197
509.145	199.38318
509.623	199.38668
510.102	250.49865
510.581	279.5543
511.059	224.46445
511.538	222.48169
512.016	228.45181
512.494	258.5182
512.972	201.40045
513.45	102.1991
513.928	242.48472
514.406	172.34435
514.884	245.52445
515.361	255.50425
515.839	171.32641
516.316	212.42601
516.793	246.52192
517.27	191.39222
517.747	199.43078
518.224	222.42963
518.701	181.33896
519.178	105.22292
519.654	199.40108
520.131	147.31073
520.607	179.37903
521.083	175.33778
521.56	199.39647
522.036	139.26069
522.512	207.43448
522.987	110.2238
523.463	171.34576
523.939	185.38745
524.414	183.36018
524.89	139.28363
525.365	169.32541
525.84	87.17825
526.315	148.30564
526.79	130.25218
527.265	185.35845
527.74	186.38653
528.215	147.29791
528.689	141.26744
529.164	156.29033
529.638	140.31283
530.112	105.21435
530.587	124.22653
531.061	143.29657
531.534	143.30068
532.008	120.24993
532.482	165.32597
532.956	114.25252
533.429	177.36889
533.903	127.24395
534.376	127.24301
534.849	130.26171
535.322	203.40952
535.795	158.33449
536.268	158.3279
536.741	118.24784
537.213	175.34849
537.686	140.29535
538.158	125.24173
538.631	161.34032
539.103	137.26481
539.575	183.32679
540.047	186.3503
540.519	195.4017
540.991	265.5518
541.463	172.36046
541.934	173.34098
542.406	121.25128
542.877	216.41521
543.348	228.47148
543.82	200.4234
544.291	262.51919
544.762	187.38019
545.233	214.45899
545.703	196.36877
546.174	266.52095
546.645	210.42452
547.115	246.50072
547.585	333.63257
548.056	255.51348
548.526	270.52753
548.996	342.67804
549.466	400.79822
549.935	380.72485
550.405	429.74206
550.875	359.68961
551.344	442.84723
551.814	352.65677
552.283	472.8054
552.752	405.74874
553.221	436.73793
553.69	511.87363
554.159	457.88297
554.628	527.89664
555.096	500.99407
555.565	489.84544
556.033	511.94571
556.502	497.95474
556.97	414.73804
557.438	418.80548
557.906	445.85895
558.374	430.80313
558.842	402.79103
559.31	387.71475
559.777	358.72005
560.245	424.82332
560.712	374.72346
561.18	423.76405
561.647	461.83824
562.114	409.76825
562.581	464.94313
563.048	489.92036
563.514	462.93136
563.981	479.8971
564.448	522.94462
564.914	562.05175
565.381	547.00319
565.847	598.11816
566.313	595.10568
566.779	628.11594
567.245	595.11117
567.711	547.05975
568.176	611.08032
568.642	658.3047
569.108	650.26359
569.573	707.29927
570.038	729.16479
570.504	741.26181
570.969	800.53726
571.434	763.25682
571.899	797.43788
572.363	820.39709
572.828	836.43284
573.293	847.44516
573.757	865.47042
574.222	805.33577
574.686	856.40622
575.15	927.60836
575.614	878.48014
576.078	905.55517
576.542	948.55875
577.006	922.50494
577.469	967.76043
577.933	918.48085
578.396	906.58968
578.86	904.56959
579.323	863.5279
579.786	835.32867
580.249	832.40769
580.712	916.66023
581.175	763.4474
581.637	848.46434
582.1	782.29928
582.563	835.33474
583.025	762.41775
583.487	745.12627
583.95	707.15787
584.412	803.25863
584.874	700.32736
585.336	715.31466
585.797	747.22698
586.259	731.3401
586.721	678.24431
587.182	762.37846
587.643	755.31617
588.105	669.2478
588.566	665.09072
589.027	686.29254
589.488	679.21271
589.949	742.39825
590.41	664.98873
590.87	706.25941
591.331	703.17764
591.791	619.13382
592.252	659.17933
592.712	673.27825
593.172	636.13077
593.632	705.20165
594.092	708.22462
594.552	681.13944
595.011	657.183
595.471	687.19925
595.931	739.26584
596.39	698.30747
596.849	705.28
597.308	773.27758
597.768	732.45706
598.227	737.38304
598.685	815.42626
599.144	735.33188
599.603	830.49259
600.062	765.20998
600.52	763.29518
600.978	848.5188
601.437	846.45777
601.895	899.38852
602.353	908.48283
602.811	911.48236
603.269	979.71229
603.727	983.7166
604.184	1000.60821
604.642	1083.89376
605.099	1065.75142
605.557	1117.92789
606.014	1099.6229
606.471	1128.98043
606.928	1148.64901
607.385	1223.01473
607.842	1425.06455
608.299	1487.17922
608.755	1442.23053
609.212	1329.90363
609.668	1456.98252
610.125	1480.28322
610.581	1595.3579
611.037	1514.17554
611.493	1423.19513
611.949	1417.22271
612.405	1341.68947
612.861	1482.24785
613.316	1413.20622
613.772	1484.16355
614.227	1578.31633
614.683	1513.00536
615.138	1487.22031
615.593	1517.2291
616.048	1563.23648
616.503	1592.49344
616.958	1509.46747
617.412	1641.39764
617.867	1514.08451
618.321	1542.94758
618.776	1521.1191
619.23	1490.26544
619.684	1542.20809
620.138	1552.30947
620.592	1513.40728
621.046	1453.26009
621.5	1472.37664
621.954	1480.17346
622.407	1489.14777
622.861	1401.3175
623.314	1490.22018
623.768	1317.1193
624.221	1278.68348
624.674	1289.06812
625.127	1249.07027
625.58	1339.11267
626.033	1257.95393
626.485	1213.09192
626.938	1248.13041
627.39	1199.01745
627.843	1208.01895
628.295	1189.99952
628.747	1176.0541
629.199	1111.87391
629.651	1051.80016
630.103	1061.83383
630.555	1046.65784
631.006	1084.92577
631.458	1009.83985
631.909	1082.89151
632.361	1030.85318
632.812	973.75351
633.263	959.60706
633.714	940.57555
634.165	871.71446
634.616	912.73939
635.067	950.66535
635.518	926.77381
635.968	930.46145
636.419	902.56611
636.869	869.68728
637.319	836.58189
637.769	840.52992
638.219	899.74976
638.669	837.64436
639.119	864.73691
639.569	855.69869
640.019	864.63814
640.468	821.51224
640.918	900.77618
641.367	853.56895
641.816	862.578
642.265	857.63235
642.714	847.61874
643.163	906.69623
643.612	817.63365
644.061	822.42686
644.51	829.56442
644.958	824.49617
645.406	879.73428
645.855	879.78776
646.303	936.78265
646.751	859.61005
647.199	927.71216
647.647	921.72563
648.095	914.70871
648.543	912.50684
648.99	896.76497
649.438	909.76003
649.885	959.94531
650.333	895.39366
650.78	957.8866
651.227	952.89559
651.674	925.72037
652.121	902.82003
652.568	942.87826
653.015	959.00105
653.461	914.79205
653.908	949.80614
654.354	929.82963
654.801	861.68363
655.247	956.70043
655.693	909.98934
656.139	894.7841
656.585	930.84317
657.031	805.58512
657.477	837.50405
657.922	776.52114
658.368	880.82669
658.813	850.66562
659.259	809.65122
659.704	778.54804
660.149	824.62372
660.594	793.60829
661.039	788.5287
661.484	876.76187
661.929	792.58397
662.373	745.63374
662.818	809.72057
663.262	800.64796
663.707	765.68325
664.151	782.64834
664.595	705.48817
665.039	749.6246
665.483	803.76469
665.927	758.54597
666.371	658.34056
666.814	804.64953
667.258	714.47326
667.701	789.45609
668.145	776.67928
668.588	677.47205
669.031	671.39093
669.474	717.51485
669.917	664.29944
670.36	726.58169
670.803	714.51673
671.245	710.30251
671.688	721.54789
672.13	642.27708
672.573	702.58226
673.015	694.47292
673.457	691.32015
673.899	748.58626
674.341	660.41955
674.783	653.39514
675.225	639.40816
675.666	622.34002
676.108	666.27938
676.549	677.42525
676.991	588.16895
677.432	607.07714
677.873	634.31384
678.314	633.35645
678.755	593.30668
679.196	541.13109
679.637	652.42874
680.078	636.33619
680.518	646.34948
680.959	567.23731
681.399	604.35621
681.839	610.34222
682.28	582.30515
682.72	533.1168
683.16	561.27628
683.6	521.09354
684.039	574.08168
684.479	540.21531
684.919	488.03834
685.358	545.27126
685.798	484.17966
686.237	552.22359
686.676	545.16009
687.115	494.07482
687.554	510.11768
687.993	520.05756
688.432	483.02345
688.871	460.97334
689.309	488.08062
689.748	495.95777
690.186	488.08286
690.625	495.07358
691.063	477.06346
691.501	506.15818
691.939	460.07083
692.377	444.01401
692.815	421.94818
693.253	454.02148
693.69	444.914
694.128	400.91653
694.565	437.97977
695.003	459.08924
695.44	409.90796
695.877	428.93967
696.314	406.826
696.751	431.92614
697.188	401.87132
697.625	472.01077
698.061	348.79869
698.498	485.09202
698.934	401.91495
699.371	377.84355
699.807	487.06966
700.243	383.87566
700.679	405.86803
701.115	421.93654
701.551	421.93576
701.987	431.91258
702.422	367.83064
702.858	370.83998
703.294	360.77942
703.729	424.97891
704.164	336.7761
704.599	378.8009
705.035	277.60192
705.47	336.7835
705.904	382.84539
706.339	415.91324
706.774	329.74041
707.209	372.8164
707.643	359.82377
708.078	355.82633
708.512	383.90971
708.946	385.87775
709.38	378.85257
709.814	353.77226
710.248	363.84494
710.682	324.74094
711.116	339.77383
711.549	344.85107
711.983	274.61526
712.416	326.74191
712.85	302.72743
713.283	324.73766
713.716	387.92522
714.149	364.82905
714.582	343.73802
715.015	345.82861
715.448	388.92991
715.881	382.79522
716.313	324.7302
716.746	346.77946
717.178	356.8177
717.61	358.86814
718.043	376.89292
718.475	278.65413
718.907	372.89903
719.339	303.66261
719.77	277.63666
720.202	321.78122
720.634	300.70452
721.065	371.83764
721.497	312.73726
721.928	288.68425
722.359	291.67792
722.79	306.70625
723.221	351.8459
723.652	356.87946
724.083	323.70007
724.514	366.80154
724.945	308.69812
725.375	296.66302
725.806	377.89684
726.236	358.87725
726.666	339.76947
727.096	340.79999
727.526	315.77034
727.956	310.67863
728.386	408.95059
728.816	318.77407
729.246	332.77356
729.675	319.75482
730.105	321.76043
730.534	316.71189
730.964	348.84295
731.393	347.82645
731.822	334.81907
732.251	356.86362
732.68	403.89911
733.109	324.76739
733.537	295.68832
733.966	355.84225
734.395	352.77641
734.823	346.74719
735.251	357.82082
735.68	384.91507
736.108	336.81573
736.536	366.82282
736.964	342.75941
737.392	353.8446
737.82	355.81394
738.247	393.89237
738.675	364.83005
739.102	327.7842
739.53	346.84283
739.957	354.87035
740.384	429.99773
740.811	393.94565
741.238	395.91324
741.665	369.81339
742.092	424.95396
742.519	403.94282
742.945	389.88543
743.372	389.91364
743.798	380.92942
744.225	353.80124
744.651	384.91542
745.077	368.87426
745.503	398.91963
745.929	421.95128
746.355	473.09747
746.781	393.92339
747.207	356.79542
747.632	349.81204
748.058	384.91016
748.483	415.89982
748.908	360.85329
749.334	364.85211
749.759	359.80659
750.184	402.9041
750.609	472.08024
751.033	447.99024
751.458	432.9089
751.883	452.04763
752.307	429.948
752.732	374.88749
753.156	422.98165
753.58	416.93136
754.005	456.08273
754.429	409.90608
754.853	408.95433
755.277	432.95961
755.7	444.03109
756.124	457.0582
756.548	451.99868
756.971	442.01024
757.394	444.07236
757.818	461.10825
758.241	451.07022
758.664	417.9931
759.087	382.80584
759.51	430.00441
759.933	398.90463
760.356	442.0623
760.778	405.94044
761.201	443.00827
761.623	500.12241
762.046	450.99916
762.468	466.04253
762.89	454.04687
763.312	455.03688
763.734	433.97799
764.156	359.84484
764.578	433.93364
765	360.8368
765.421	388.93345
765.843	423.04396
766.264	415.94498
766.686	392.93305
767.107	364.83908
767.528	360.86512
767.949	387.93333
768.37	382.88898
768.791	417.94992
769.212	315.75945
769.632	328.73075
770.053	373.93476
770.473	328.76424
770.894	361.86143
771.314	335.76594
771.734	271.6114
772.154	354.86746
772.575	309.68828
772.994	313.68158
773.414	353.80806
773.834	282.68132
774.254	298.70255
774.673	297.69706
775.093	307.73008
775.512	271.64597
775.931	257.6325
776.351	260.62604
776.77	250.59352
777.189	297.67989
777.607	233.57999
778.026	219.53302
778.445	219.53501
778.864	265.65891
779.282	193.456
779.701	237.58178
780.119	197.48807
780.537	195.47727
780.955	237.58737
781.373	217.5244
781.791	207.45498
782.209	224.50382
782.627	198.51132
783.045	192.43344
783.462	196.491
783.88	143.36603
784.297	177.43804
784.715	157.39777
785.132	171.40778
785.549	151.37329
785.966	184.45461
786.383	149.36239
786.8	153.35139
787.217	135.31737
787.633	98.24391
788.05	159.3732
788.466	225.51736
788.883	152.3827
789.299	128.30601
789.715	132.31822
790.131	133.32783
790.547	151.3726
790.963	159.38931
791.379	106.26679
791.795	164.36903
792.21	138.31967
792.626	124.29225
793.041	120.29421
793.457	115.28263
793.872	92.21616
794.287	81.19339
794.702	135.32957
795.117	88.21831
795.532	77.19301
795.947	126.30111
796.362	177.41561
796.776	164.37884
797.191	85.20797
797.605	41.09703
798.02	106.2568
798.434	124.27433
798.848	79.19459
799.262	79.19595
799.676	101.24565
800.09	81.19929
800.504	105.25375
800.918	69.16038
801.331	111.28929
801.745	93.21334
802.158	91.22695
802.572	100.24181
802.985	103.24807
803.398	66.15791
803.811	130.33118
804.224	101.25042
804.637	59.14113
805.05	71.16502
805.462	89.21833
805.875	28.07311
806.288	36.08751
806.7	55.13876
807.112	63.14666
807.525	63.15592
807.937	36.08963
808.349	100.24944
808.761	97.23777
809.173	68.16511
809.584	77.19036
809.996	7.01736
810.408	21.05466
810.819	17.04046
811.231	74.19104
811.642	123.29051
812.053	230.53065
812.464	302.68675
812.875	237.58801
813.286	124.31623
813.697	166.38178
814.108	105.25519
814.519	40.08993
814.929	91.23138
815.34	79.1915
815.75	64.16282
816.16	56.14004
816.571	71.18441
816.981	51.12106
817.391	52.12612
817.801	44.10983
818.211	55.13166
818.62	47.11371
819.03	67.16442
819.44	102.26497
819.849	19.04833
820.259	46.11826
820.668	21.05213
821.077	17.04263
821.486	40.09698
821.895	102.25073
822.304	65.1723
822.713	39.09283
823.122	60.15004
823.531	29.06934
823.939	61.14892
824.348	95.23002
824.756	72.18031
825.164	65.16375
825.573	34.08585
825.981	61.15158
826.389	63.15848
826.797	39.09821
827.205	41.09469
827.612	91.22373
828.02	21.04979
828.428	51.13027
828.835	55.14501
829.243	53.12678
829.65	23.05765
830.057	53.12905
830.464	40.098
830.871	76.18183
831.278	67.16204
831.685	67.14974
832.092	66.1617
832.499	14.03101
832.905	43.10933
833.312	46.1055
833.718	96.23798
834.124	39.08972
834.531	53.13395
834.937	72.18459
835.343	56.13546
835.749	99.23001
836.155	82.21404
836.561	34.08413
836.966	11.02718
837.372	53.13519
837.777	32.0802
838.183	18.04047
838.588	69.17121
838.993	37.0906
839.399	56.13715
839.804	0
840.209	39.09969
840.613	-5.01129
841.018	58.14703
841.423	45.11579
841.828	20.05097
842.232	75.18548
842.637	45.10661
843.041	16.04134
843.445	50.12571
843.849	56.13882
844.253	26.06228
844.657	6.01526
845.061	49.11159
845.465	7.01709
845.869	56.13039
846.272	39.09539
846.676	84.20243
847.079	27.06906
847.483	72.17933
847.886	59.14371
848.289	55.14686
848.692	51.1294
849.095	58.13946
849.498	85.21459
849.901	55.12642
850.304	49.11744
850.707	54.13786
851.109	69.17439
851.512	17.04212
851.914	5.01272
852.316	72.18174
852.718	17.0442
853.121	63.15432
853.523	13.03068
853.925	16.04204
854.326	11.02774
854.728	8.02075
855.13	30.07775
855.531	-1.00242
855.933	23.05563
856.334	39.09758
856.736	26.05867
857.137	19.04455
857.538	-3.00763
857.939	2.00499
858.34	19.04666
858.741	49.12827
859.142	6.01456
859.542	27.07159
859.943	58.14415
860.343	3.0075
860.744	40.09796
861.144	33.08089
861.544	12.02909
861.945	37.09464
862.345	17.0419
862.745	19.04756
863.145	52.12451
863.544	30.07619
863.944	59.13941
864.344	35.08732
864.743	74.18311
865.143	21.05428
865.542	45.10468
865.941	60.14847
866.34	87.20731
866.74	37.09961
867.139	40.0961
867.537	28.07171
867.936	1.00243
868.335	32.08178
868.734	29.07447
869.132	-16.03772
869.531	64.15464
869.929	-38.08831
870.327	31.07469
870.726	40.10006
871.124	23.05413
871.522	31.07932
871.92	22.05462
872.318	22.05414
872.715	79.1948
873.113	20.04907
873.511	9.02262
873.908	-39.10011
874.306	20.05007
874.703	38.0954
875.1	53.13567
875.497	19.04588
875.894	-10.0248
876.291	2.00496
876.688	7.01821
877.085	11.02662
877.482	22.05541
877.878	-19.04639
878.275	44.11202
878.671	53.11816
879.068	68.16381
879.464	25.06078
879.86	11.02624
880.256	15.0373
880.652	38.09695
881.048	22.05486
881.444	33.07891
881.84	32.08167
882.236	45.11337
882.631	55.13502
883.027	59.1428
883.422	24.0617
883.817	11.02786
884.213	1.00259
884.608	-10.02482
885.003	0
885.398	14.0353
885.793	14.0354
886.188	-34.08588
886.582	34.08753
886.977	43.10231
887.371	43.10899
887.766	-4.01005
888.16	60.14961
888.554	60.14825
888.949	46.1157
889.343	55.13437
889.737	-24.06477
890.131	38.09561
890.525	51.1305
890.918	50.12594
891.312	68.16232
891.706	47.12346
892.099	69.17513
892.492	33.07156
892.886	30.07374
893.279	9.02311
893.672	40.10208
894.065	39.09793
894.458	54.13582
894.851	52.12749
895.244	19.04882
895.637	42.10141
896.029	39.09564
896.422	15.03692
896.814	17.04255
897.206	-8.01928
897.599	71.17507
897.991	30.07287
898.383	24.05705
898.775	32.07257
899.167	-37.08783
899.559	52.13168
899.951	37.08753
900.342	51.12977
900.734	-4.01003
901.125	40.10519
901.517	29.07151
901.908	57.13661
902.299	-4.00988
902.69	16.03803
903.082	42.10194
903.473	20.0482
903.863	20.05133
904.254	39.09079
904.645	36.08983
905.036	-12.02941
905.426	89.20236
905.817	35.08618
906.207	15.036
906.597	-12.02843
906.987	31.08066
907.378	45.11397
907.768	12.03194
908.158	5.0123
908.547	-5.01304
908.937	42.10798
909.327	24.0586
909.717	66.16719
910.106	43.10349
910.495	64.15947
910.885	38.0965
911.274	2.00504
911.663	41.10429
912.052	68.16734
912.441	22.05624
912.83	20.04622
913.219	68.1775
913.608	34.08358
913.997	26.06549
914.385	30.072
914.774	45.10974
915.162	-13.03137
915.55	68.16406
915.939	9.02289
916.327	64.15941
916.715	18.04615
917.103	59.14506
917.491	17.04234
917.878	55.13517
918.266	12.03133
918.654	27.06928
919.041	-2.00527
919.429	43.10168
919.816	41.10414
920.203	13.03176
920.591	28.06974
920.978	43.10548
921.365	27.07114
921.752	27.06468
922.139	35.07628
922.525	-21.05113
922.912	37.0905
923.299	-2.00502
923.685	48.12529
924.072	38.08789
924.458	18.04487
924.844	41.10166
925.231	12.02815
925.617	46.11711
926.003	45.11515
926.389	23.05832
926.774	48.12172
927.16	30.0748
927.546	12.03084
927.931	54.1347
928.317	57.13118
928.702	87.20445
929.088	-5.01196
929.473	18.04607
929.858	-55.13562
930.243	-6.01456
930.628	67.16253
931.013	38.09441
931.398	81.18521
931.783	48.12645
932.167	46.11257
932.552	51.12779
932.937	66.16337
933.321	6.01518
933.705	53.13357
934.09	103.2579
934.474	38.0905
934.858	26.06773
935.242	10.02337
935.626	48.12293
936.009	45.1198
936.393	17.04352
936.777	16.04122
937.16	11.02882
937.544	31.07333
937.927	-12.03079
938.311	57.139
938.694	56.14797
939.077	10.02413
939.46	67.16405
939.843	15.03155
940.226	29.07467
940.609	3.00695
940.991	30.07664
941.374	39.09553
941.757	62.15268
942.139	12.02717
942.522	40.09475
942.904	33.0796
943.286	60.15221
943.668	30.07799
944.05	36.08892
944.432	26.06445
944.814	54.13293
945.196	-11.02711
945.578	-15.0361
945.959	39.09161
946.341	103.25042
946.722	33.07773
947.104	34.08153
947.485	5.01174
947.866	52.13098
948.247	36.09107
948.628	34.08321
949.009	6.01548
949.39	43.1072
949.771	49.11403
950.152	19.0469
950.532	-62.15566
950.913	52.12541
951.293	23.06241
951.674	51.12335
952.054	4.01
952.434	10.02501
952.814	24.0574
953.194	60.15678
953.574	73.17908
953.954	9.02155
954.334	36.08996
954.714	39.09525
955.093	43.10588
955.473	-5.01263
955.853	13.03387
956.232	20.05508
956.611	7.01693
956.99	25.06312
957.37	28.07163
957.749	16.03843
958.128	-3.00763
958.506	39.10137
958.885	32.08103
959.264	8.01976
959.643	22.05036
960.021	16.0399
960.4	4.00915
960.778	52.12806
961.156	-24.06097
961.535	27.06323
961.913	11.02594
962.291	-1.00259
962.669	13.03315
963.047	36.0921
963.424	27.06919
963.802	11.02724
964.18	62.15655
964.557	49.1129
964.935	34.08082
965.312	4.0105
965.69	43.10782
966.067	33.08062
966.444	46.11345
966.821	41.10587
967.198	49.11891
967.575	76.18599
967.952	27.06392
968.329	29.07085
968.705	33.07104
969.082	-2.00518
969.458	-8.0194
969.835	59.14339
970.211	-9.02334
970.587	54.13435
970.963	64.16379
971.339	-19.0502
971.715	49.12238
972.091	22.05446
972.467	20.05016
972.843	-27.06795
973.219	44.10579
973.594	24.06305
973.97	93.21957
974.345	1.00242
974.721	56.13546
975.096	53.12818
975.471	39.09272
975.846	19.04592
976.221	51.12949
976.596	-17.04127
976.971	73.17948
977.346	18.04218
977.72	33.08432
978.095	16.04159
978.469	27.06473
978.844	90.22466
979.218	7.01692
979.593	36.08649
979.967	30.07336
980.341	-6.01397
980.715	43.10848
981.089	0
981.463	26.05999
981.837	9.02216
982.21	12.02814
982.584	22.05342
982.957	18.04521
983.331	50.11821
983.704	6.01486
984.078	-25.06246
984.451	71.17668
984.824	23.0563
985.197	27.06587
985.57	51.12788
985.943	74.18197
986.316	95.23149
986.688	63.15156
987.061	10.02362
987.434	33.08624
987.806	27.06577
988.179	-15.03584
988.551	30.07637
988.923	28.06923
989.295	75.18657
989.667	-4.00965
990.039	-10.02498
990.411	59.13556
990.783	22.05094
991.155	-40.09774
991.527	75.18385
991.898	27.06756
992.27	-4.00999
992.641	21.05296
993.012	77.18024
993.384	25.05992
993.755	12.0308
994.126	6.01455
994.497	9.02226
994.868	16.03701
995.239	37.08989
995.61	30.07575
995.98	1.00245
996.351	-3.0075
996.722	17.03968
997.092	0
997.462	20.04699
997.833	29.06903
998.203	31.07543
998.573	12.03008
998.943	36.08465
999.313	1.00242
999.683	15.03624
1000.053	23.05321
1000.423	61.14792
1000.792	24.06248
1001.162	-2.00497
1001.531	52.12815
1001.901	26.06509
1002.27	-23.05219
1002.639	18.04624
1003.009	31.07398
1003.378	27.06931
1003.747	27.06407
1004.116	17.04093
1004.485	-4.00966
1004.853	29.07374
1005.222	38.09602
1005.591	47.11165
1005.959	-1.00228
1006.328	-25.05712
1006.696	18.04367
1007.064	30.07573
1007.433	30.07524
1007.801	79.19286
1008.169	44.11122
1008.537	33.07333
1008.905	-5.01177
1009.273	50.1235
1009.64	-26.06292
1010.008	18.04316
1010.375	65.15738
1010.743	68.15646
1011.11	23.0547
1011.478	29.07204
1011.845	11.02606
1012.212	31.07043
1012.579	33.08125
1012.946	58.13781
1013.313	112.26335
1013.68	62.139
1014.047	10.02401
1014.414	-7.01671
1014.78	38.09461
1015.147	16.03894
1015.513	29.07014
1015.88	62.15817
1016.246	37.09154
1016.612	51.11671
1016.978	31.07622
1017.344	37.09164
1017.71	64.15563
1018.076	3.00714
1018.442	46.11839
1018.808	34.08521
1019.174	-18.04569
1019.539	69.15822
1019.905	24.05687
1020.27	8.01989
1020.636	42.10083
1021.001	30.07208
1021.366	5.01211
1021.731	48.12345
1022.096	22.05575
1022.461	34.08069
1022.826	24.05731
1023.191	62.16228
1023.556	47.11019
1023.92	53.13021
1024.285	39.09535
1024.649	5.01235
1025.014	25.06219
1025.378	27.06814
1025.742	9.02251
1026.107	10.0228
1026.471	58.13516
1026.835	35.08697
1027.199	2.00486
1027.562	24.05606
1027.926	31.07605
1028.29	0
1028.654	30.06927
1029.017	59.14473
1029.381	69.16417
1029.744	29.07421
1030.107	17.04046
1030.471	44.10543
1030.834	33.07531
1031.197	70.16792
1031.56	21.04981
1031.923	8.02083
1032.286	5.01184
1032.648	77.18313
1033.011	7.0162
1033.374	65.15227
1033.736	-10.02655
1034.099	31.07579
1034.461	-31.07941
1034.823	2.00502
1035.185	58.14572
1035.548	54.13127
1035.91	11.02653
1036.272	27.06171
1036.634	59.14404
1036.995	11.02604
1037.357	7.01716
1037.719	17.04158
1038.08	11.0263
1038.442	-29.06985
1038.803	67.16027
1039.165	32.08098
1039.526	9.02191
1039.887	29.06964
1040.248	-15.03738
1040.609	67.16497
1040.97	-13.03213
1041.331	67.16903
1041.692	-1.00236
1042.053	21.04808
1042.413	67.15554
1042.774	13.03182
1043.134	34.08116
1043.495	50.12562
1043.855	31.07543
1044.215	18.04492
1044.576	-58.14146
1044.936	58.1327
1045.296	83.20579
1045.656	24.05915
1046.016	51.12302
1046.375	17.04147
1046.735	-15.03444
1047.095	23.05409
1047.454	19.04051
1047.814	34.08194
1048.173	71.16886
1048.533	20.04607
1048.892	-35.08532
1049.251	26.06551
1049.61	-19.04735
1049.969	-9.02145
1050.328	44.09547
1050.687	3.00736
1051.046	31.07571
1051.405	43.10704
1051.763	35.08068
1052.122	-7.01763
1052.48	43.10552
1052.839	-10.02379
1053.197	8.01897
1053.555	73.16558
1053.914	59.14398
1054.272	45.10883
1054.63	-21.05199
1054.988	-20.04812
1055.345	21.04548
1055.703	30.07243
1056.061	8.02072
1056.419	22.05719
1056.776	35.08506
1057.134	27.06276
1057.491	54.13504
1057.848	49.12194
1058.206	23.05434
1058.563	-7.01561
1058.92	45.10377
1059.277	59.14522
1059.634	30.07082
1059.991	60.14339
1060.348	0
1060.704	-16.03859
1061.061	72.16646
1061.418	33.08023
1061.774	41.10132
1062.131	-12.03204
1062.487	17.03998
1062.843	21.0526
1063.199	19.04749
1063.555	-27.06347
1063.911	34.08607
1064.267	83.17175
1064.623	32.07793
1064.979	79.18601
1065.335	21.05044
1065.691	55.13161
1066.046	12.02658
1066.402	5.01146
1066.757	56.1411
1067.112	40.09829
1067.468	-40.09603
1067.823	37.08912
1068.178	23.05588
1068.533	60.14509
1068.888	16.03846
1069.243	43.10619
1069.598	-3.00736
1069.952	-47.10786
1070.307	-27.06773
1070.662	-10.024
1071.016	5.0113
1071.371	-16.03686
1071.725	72.17141
1072.079	17.04112
1072.434	-2.0049
1072.788	12.02877
1073.142	37.09117
1073.496	7.01673
1073.85	19.0443
1074.203	20.04876
1074.557	20.05341
1074.911	64.15224
1075.265	30.06996
1075.618	64.15575
1075.971	13.03112
1076.325	18.04597
1076.678	-36.08369
1077.031	13.02962
1077.385	18.03989
1077.738	32.07245
1078.091	-13.02992
1078.444	6.01404
1078.796	31.07627
1079.149	34.08475
1079.502	-16.03825
1079.855	9.02114
1080.207	61.14986
1080.56	47.12144
1080.912	0
1081.264	44.10599
1081.617	18.0441
1081.969	-26.06642
1082.321	27.06616
1082.673	-6.01384
1083.025	-20.04805
1083.377	52.11148
1083.728	40.09343
1084.08	9.02262
1084.432	25.06053
1084.783	40.09383
1085.135	-1.00253
1085.486	-37.08607
1085.838	13.03221
1086.189	-8.01961
1086.54	31.07424
1086.891	-7.01787
1087.242	27.06596
1087.593	44.10716
1087.944	-17.03897
1088.295	51.11582
1088.646	12.02927
1088.996	-16.039
1089.347	25.06158
1089.698	-39.09368
1090.048	31.08071
1090.398	12.02802
1090.749	14.0337
1091.099	-24.0611
1091.449	44.10963
1091.799	26.06532
1092.149	-32.07915
1092.499	27.06609
1092.849	8.02047
1093.199	57.14257
1093.548	-1.00242
1093.898	14.03523
1094.248	18.04647
1094.597	-18.04645
1094.947	21.05624
1095.296	25.06196
1095.645	34.0886
1095.994	1.00242
1096.343	53.13318
1096.692	-13.03448
1097.041	-17.04648
1097.39	31.07796
1097.739	56.14528
1098.088	75.19993
1098.437	-16.04246
1098.785	40.10792
1099.134	39.10365
1099.482	31.08544
1099.83	48.12606
1100.179	-9.02369
1100.527	27.07195
1100.875	-1.00266
1101.223	39.10365
1101.571	0
1101.919	-33.08736
1102.267	10.0283
1102.615	4.01286
1102.962	10.0322
1103.31	1.00321
1103.658	20.06435
