Data from N2 R5 sample 8_Subt2__3__13-53-39-211.txt Node

Date: Fri Aug 29 13:53:39 PDT 2025
User: uwsun
Spectrometer: HDX01956
Trigger mode: 0
Integration Time (sec): 5.000000E-1
Scans to average: 1
Nonlinearity correction enabled: true
Boxcar width: 0
Storing dark spectrum: false
XAxis mode: Wavelengths
Number of Pixels in Spectrum: 2068
>>>>>Begin Spectral Data<<<<<
194.03	422.10363
194.578	423.26277
195.127	414.21728
195.676	437.28518
196.225	447.0936
196.773	514.28906
197.321	692.63876
197.87	1019.04026
198.418	944.89356
198.966	971.95
199.513	838.63589
200.061	902.77015
200.609	974.01225
201.156	941.52023
201.704	895.74691
202.251	902.87405
202.798	897.82275
203.345	964.82631
203.892	958.84755
204.438	984.77474
204.985	937.66698
205.532	1064.10951
206.078	1060.93257
206.624	972.80305
207.17	990.71572
207.716	1000.81559
208.262	976.38651
208.808	923.72599
209.354	1023.85135
209.899	1072.03677
210.445	928.76055
210.99	925.6923
211.535	1013.77471
212.08	1047.79233
212.625	1003.90447
213.17	1044.99446
213.715	929.52867
214.259	982.7153
214.804	1035.92443
215.348	1020.725
215.892	1045.86156
216.436	1021.76168
216.98	1007.64651
217.524	974.73164
218.068	968.87221
218.612	998.9193
219.155	949.69274
219.698	954.72839
220.242	871.71205
220.785	910.63261
221.328	896.74515
221.871	884.77145
222.414	1003.91001
222.956	850.59589
223.499	853.48355
224.041	910.63763
224.583	910.49772
225.126	855.45102
225.668	865.64283
226.21	904.77242
226.751	840.40745
227.293	898.57807
227.835	843.61652
228.376	902.60746
228.918	870.73775
229.459	823.61909
230	825.54317
230.541	877.5624
231.082	850.61391
231.622	921.6224
232.163	836.58805
232.704	891.71692
233.244	886.71258
233.784	956.80409
234.324	826.38619
234.864	818.44316
235.404	928.69482
235.944	893.63774
236.484	938.81152
237.023	885.60921
237.563	887.56724
238.102	911.64906
238.641	957.86192
239.18	892.5896
239.719	930.80375
240.258	843.46302
240.797	899.64877
241.335	905.71393
241.874	887.24872
242.412	939.71452
242.95	858.57935
243.488	894.55382
244.026	875.53956
244.564	909.38514
245.102	974.61674
245.64	924.70874
246.177	889.51133
246.715	972.76464
247.252	909.58704
247.789	974.31434
248.326	888.6257
248.863	983.57496
249.4	981.65301
249.936	914.38249
250.473	943.64743
251.009	919.57762
251.546	921.51043
252.082	967.55712
252.618	969.58503
253.154	910.65853
253.69	929.56087
254.226	889.61813
254.761	913.5339
255.297	916.48594
255.832	928.65221
256.367	972.70402
256.903	954.53654
257.438	1004.74373
257.972	927.53297
258.507	903.54346
259.042	960.52271
259.576	929.45524
260.111	1037.74676
260.645	997.56133
261.179	1035.75093
261.713	1008.61838
262.247	969.65131
262.781	939.42259
263.315	960.75604
263.849	958.80082
264.382	1040.73239
264.915	1031.74602
265.449	991.76694
265.982	1018.68078
266.515	1036.84786
267.048	968.46892
267.58	1041.6268
268.113	933.46407
268.646	1048.88661
269.178	956.5502
269.71	1035.60708
270.243	1026.69123
270.775	977.85952
271.307	1066.86345
271.838	1127.91127
272.37	1099.94394
272.902	1043.69897
273.433	1057.62328
273.965	989.77334
274.496	1055.92005
275.027	944.74927
275.558	1041.82772
276.089	957.72812
276.62	1064.98677
277.15	1041.87828
277.681	1059.61491
278.211	1056.88073
278.741	1043.60543
279.272	1092.73902
279.802	1071.93647
280.332	1064.77834
280.861	1069.83891
281.391	1070.69606
281.921	1067.84423
282.45	1105.98089
282.98	1059.02027
283.509	1107.71847
284.038	1090.72792
284.567	1098.80542
285.096	1097.87422
285.625	1017.63151
286.153	1051.73595
286.682	1105.74131
287.21	1069.81646
287.739	1075.78163
288.267	1090.84979
288.795	1174.19127
289.323	1151.8246
289.851	1128.81912
290.378	1163.75144
290.906	1036.76729
291.433	1178.02645
291.961	1120.71401
292.488	1185.02721
293.015	1116.79259
293.542	1133.99287
294.069	1129.91262
294.596	1176.0005
295.122	1212.93226
295.649	1175.70855
296.175	1206.97509
296.702	1256.02675
297.228	1219.99482
297.754	1250.80564
298.28	1216.7931
298.806	1235.95629
299.332	1165.67309
299.857	1221.77705
300.383	1265.1452
300.908	1217.93532
301.433	1317.04805
301.958	1274.8964
302.483	1222.01695
303.008	1371.16726
303.533	1295.247
304.058	1333.9939
304.582	1261.89895
305.107	1263.17741
305.631	1304.87155
306.155	1341.92575
306.679	1288.88285
307.203	1277.85808
307.727	1358.99459
308.251	1305.05981
308.775	1305.91549
309.298	1299.93333
309.822	1385.18831
310.345	1391.99704
310.868	1363.98923
311.391	1415.13323
311.914	1435.18037
312.437	1446.93183
312.96	1430.98201
313.482	1464.0212
314.005	1480.21305
314.527	1448.32062
315.049	1513.2717
315.571	1396.75187
316.093	1598.23289
316.615	1574.11304
317.137	1547.78942
317.659	1599.1731
318.18	1559.11516
318.702	1602.99701
319.223	1578.62288
319.744	1663.89425
320.265	1629.10211
320.786	1673.18183
321.307	1687.22249
321.828	1708.91429
322.348	1721.03053
322.869	1755.02387
323.389	1561.04316
323.909	1772.95374
324.43	1844.17901
324.95	1766.90385
325.47	1810.14386
325.989	1937.02772
326.509	1868.74628
327.029	1870.81386
327.548	1968.81103
328.067	1944.03939
328.587	1989.20731
329.106	1934.82517
329.625	2062.48928
330.144	1976.85239
330.662	1987.84312
331.181	2059.8954
331.7	2085.88721
332.218	2148.59105
332.736	2194.86585
333.255	2138.81137
333.773	2164.86586
334.291	2235.11118
334.808	2280.59433
335.326	2250.63774
335.844	2379.66361
336.361	2303.00151
336.879	2422.63836
337.396	2397.76301
337.913	2475.54452
338.43	2378.46045
338.947	2591.62492
339.464	2558.18612
339.981	2423.57515
340.497	2588.73988
341.014	2611.62814
341.53	2577.28714
342.046	2642.59616
342.562	2656.68918
343.078	2628.40035
343.594	2773.40538
344.11	2785.36109
344.626	2845.56054
345.141	2871.09565
345.657	2855.11151
346.172	2855.30358
346.687	2853.06943
347.202	2907.92963
347.717	3055.10672
348.232	3010.31806
348.747	2954.94559
349.261	3060.6032
349.776	3088.92862
350.29	3180.00714
350.805	3289.05174
351.319	3145.81335
351.833	3216.58877
352.347	3212.75095
352.861	3294.63811
353.374	3398.57993
353.888	3326.77202
354.401	3331.52503
354.915	3369.32146
355.428	3423.72409
355.941	3599.32002
356.454	3552.27559
356.967	3475.46964
357.48	3439.36827
357.993	3631.50952
358.505	3531.47589
359.018	3726.36375
359.53	3691.26228
360.042	3793.92859
360.554	3811.22741
361.066	3695.26
361.578	3690.85998
362.09	3773.11607
362.602	3810.77089
363.113	3890.88168
363.625	3968.70509
364.136	4019.60959
364.647	3897.7047
365.158	4106.67507
365.669	4160.73678
366.18	4154.66523
366.691	4073.47768
367.201	4028.72173
367.712	4106.47484
368.222	4193.42671
368.733	4317.17366
369.243	4309.19277
369.753	4462.2577
370.263	4675.24457
370.773	4639.3192
371.282	4631.15371
371.792	4573.96476
372.301	4893.02417
372.811	4911.19657
373.32	4900.75219
373.829	5015.84794
374.338	5388.86121
374.847	5347.84466
375.356	5553.93625
375.865	5600.049
376.373	5987.38621
376.882	6216.48097
377.39	6342.78366
377.898	6308.90035
378.407	6775.24655
378.915	7041.25737
379.423	7345.00661
379.93	7473.00792
380.438	7833.66531
380.946	8362.97333
381.453	8527.53014
381.96	8696.89145
382.468	9311.34251
382.975	10238.65839
383.482	10444.12596
383.989	10615.26744
384.495	10880.07913
385.002	11335.76485
385.509	11936.72693
386.015	12742.76632
386.521	13610.27368
387.028	13972.5883
387.534	14589.49909
388.04	15179.6841
388.546	15033.11432
389.051	16054.88804
389.557	17235.70526
390.063	19222.02109
390.568	19737.04986
391.073	19979.14077
391.578	20772.89728
392.084	21203.9589
392.589	21271.26116
393.093	22884.33349
393.598	25098.19586
394.103	27611.32419
394.607	30005.593
395.112	32740.8232
395.616	34516.92678
396.12	36980.95292
396.624	40512.48761
397.128	42289.62894
397.632	40904.08643
398.136	39172.79427
398.639	36273.96993
399.143	32503.66402
399.646	28888.45294
400.15	25083.82847
400.653	20124.16724
401.156	13866.23708
401.659	5169.95759
402.162	1054.15589
402.664	0
403.167	0
403.67	0
404.172	0
404.674	0
405.176	0
405.678	0
406.18	0
406.682	0
407.184	0
407.686	0
408.187	0
408.688	0
409.19	0
409.691	0
410.192	0
410.693	0
411.194	435.30976
411.694	4082.94878
412.195	8864.71461
412.696	12089.80453
413.196	12760.96929
413.696	12863.67595
414.196	13703.56671
414.696	17261.84252
415.196	21764.24417
415.696	29583.19008
416.196	36460.31858
416.695	40057.39798
417.195	41392.74103
417.694	42311.08144
418.194	43882.52025
418.693	44704.85811
419.192	45402.14938
419.691	45678.73777
420.19	46397.77183
420.688	47003.01428
421.187	46424.85365
421.685	43763.6374
422.184	40349.188
422.682	34882.94686
423.18	29429.93832
423.678	25885.30993
424.176	24002.22719
424.674	22442.75899
425.172	21524.2203
425.669	20696.1826
426.167	19256.12269
426.664	17405.49648
427.161	15988.73418
427.659	14834.5192
428.156	13700.13632
428.652	13127.54078
429.149	12405.05384
429.646	12075.84845
430.143	11479.90061
430.639	10617.49968
431.135	10084.69288
431.632	9463.19595
432.128	8778.39948
432.624	8325.10201
433.12	7848.14223
433.616	7812.79615
434.111	7252.11739
434.607	6960.81374
435.103	7025.14247
435.598	6813.47077
436.093	6547.23258
436.588	6276.76181
437.083	6000.33387
437.578	5679.01462
438.073	5234.83631
438.568	5130.89044
439.062	5045.75154
439.557	4968.91158
440.051	4629.88485
440.546	4465.94707
441.04	4357.14317
441.534	4253.41388
442.028	4252.31979
442.522	4089.3958
443.015	4100.18495
443.509	4083.56201
444.002	3959.63286
444.496	3882.37235
444.989	3828.77391
445.482	3660.93608
445.975	3802.52515
446.468	3751.45566
446.961	3601.55279
447.454	3629.73869
447.947	3394.99327
448.439	3375.19107
448.931	3242.96674
449.424	3389.38716
449.916	3388.24239
450.408	3243.04079
450.9	3104.39191
451.392	3044.61489
451.884	3096.30842
452.375	2901.64182
452.867	3033.36888
453.358	2874.38742
453.849	2860.23796
454.341	2838.44937
454.832	2750.36248
455.323	2824.7559
455.814	2813.61046
456.304	2735.67317
456.795	2643.705
457.285	2645.69266
457.776	2717.78228
458.266	2578.90713
458.756	2518.03642
459.247	2484.97342
459.737	2376.02644
460.226	2351.87262
460.716	2335.11203
461.206	2230.19259
461.695	2248.38823
462.185	2316.16378
462.674	2218.13774
463.163	2224.02716
463.653	2147.89696
464.142	2189.32073
464.63	2088.43597
465.119	2032.23564
465.608	2013.24749
466.096	2045.13131
466.585	1999.34282
467.073	1985.47825
467.561	1932.50119
468.05	1929.41115
468.538	1888.60781
469.026	1848.52488
469.513	1776.15278
470.001	1743.35874
470.489	1802.50203
470.976	1794.46511
471.463	1741.7203
471.951	1680.74506
472.438	1579.50171
472.925	1542.47745
473.412	1554.69275
473.899	1554.50211
474.385	1450.65456
474.872	1472.51229
475.359	1439.64115
475.845	1412.23183
476.331	1442.39561
476.817	1327.62777
477.303	1326.50494
477.789	1291.58748
478.275	1211.60123
478.761	1232.57254
479.247	1190.39127
479.732	1162.59074
480.218	1122.68881
480.703	1103.56768
481.188	1145.28935
481.673	1142.43054
482.158	1035.1836
482.643	1073.64314
483.128	1006.31961
483.612	988.37108
484.097	1006.50513
484.581	986.38409
485.066	982.45844
485.55	900.18681
486.034	851.12595
486.518	842.24733
487.002	879.36706
487.486	874.36994
487.969	842.33488
488.453	902.49273
488.936	842.2118
489.42	837.18921
489.903	769.33146
490.386	769.75386
490.869	745.08266
491.352	760.29042
491.835	768.0411
492.318	785.17777
492.8	704.97572
493.283	751.33193
493.765	646.13374
494.247	690.14161
494.73	672.03288
495.212	674.17371
495.694	582.98094
496.175	570.97588
496.657	662.12787
497.139	666.78152
497.62	522.91141
498.102	567.04152
498.583	538.01718
499.064	532.86786
499.545	532.901
500.026	462.77899
500.507	533.9245
500.988	541.01712
501.469	485.92899
501.949	520.98377
502.43	452.81916
502.91	426.66373
503.39	467.91267
503.87	418.75945
504.35	477.87042
504.83	484.79924
505.31	457.85674
505.79	379.71294
506.269	421.77055
506.749	389.69328
507.228	421.7686
507.707	351.61324
508.187	446.83714
508.666	358.7008
509.145	356.65962
509.623	391.72503
510.102	322.63152
510.581	430.82422
511.059	376.75311
511.538	381.79861
512.016	400.76079
512.494	365.71501
512.972	385.73421
513.45	289.53908
513.928	318.62574
514.406	313.60618
514.884	356.74374
515.361	358.69085
515.839	340.62243
516.316	321.62881
516.793	355.73524
517.27	302.60462
517.747	331.69627
518.224	281.53613
518.701	279.50984
519.178	242.49841
519.654	346.67378
520.131	283.58035
520.607	316.64905
521.083	284.53383
521.56	270.52903
522.036	277.50183
522.512	322.65869
522.987	271.53112
523.463	295.57952
523.939	298.60849
524.414	333.63226
524.89	277.5475
525.365	294.54909
525.84	270.53028
526.315	307.61135
526.79	299.55663
527.265	272.51606
527.74	284.57727
528.215	257.50773
528.689	215.40044
529.164	245.44589
529.638	241.52726
530.112	227.45057
530.587	215.38374
531.061	229.46579
531.534	266.54414
532.008	208.42472
532.482	271.52207
532.956	200.43507
533.429	271.55298
533.903	287.53004
534.376	249.46239
534.849	226.44491
535.322	235.47059
535.795	215.44948
536.268	203.41705
536.741	250.50978
537.213	260.50751
537.686	223.46186
538.158	228.43004
538.631	251.52009
539.103	191.36441
539.575	252.44199
540.047	199.37359
540.519	259.52585
540.991	247.51638
541.463	279.57086
541.934	231.44908
542.406	224.45448
542.877	230.44063
543.348	258.52992
543.82	248.5195
544.291	257.50988
544.762	220.44392
545.233	233.49769
545.703	249.46239
546.174	314.60797
546.645	263.52519
547.115	309.61992
547.585	337.63955
548.056	279.5587
548.526	409.77279
548.996	435.84368
549.466	474.92964
549.935	418.78999
550.405	423.73284
550.875	403.76593
551.344	464.88468
551.814	481.86884
552.283	502.8497
552.752	438.80308
553.221	457.76909
553.69	527.89713
554.159	489.93755
554.628	488.839
555.096	482.9623
555.565	427.75039
556.033	527.97143
556.502	433.84461
556.97	442.78226
557.438	344.67467
557.906	352.6946
558.374	327.62632
558.842	280.5668
559.31	319.59918
559.777	263.54056
560.245	274.5511
560.712	261.51854
561.18	263.49447
561.647	285.54138
562.114	249.48615
562.581	270.57309
563.048	292.5762
563.514	280.58809
563.981	280.55018
564.448	289.55407
564.914	321.63745
565.381	322.62495
565.847	328.65515
566.313	316.62883
566.779	288.55763
567.245	358.70876
567.711	380.76676
568.176	365.68762
568.642	323.6914
569.108	352.73376
569.573	415.8195
570.038	400.6998
570.504	400.74449
570.969	442.92339
571.434	401.72763
571.899	447.87938
572.363	467.87203
572.828	551.01562
573.293	508.94649
573.757	565.03731
574.222	520.9314
574.686	493.89235
575.15	571.08313
575.614	567.03577
576.078	531.00269
576.542	578.04712
577.006	601.06813
577.469	647.27239
577.933	581.02556
578.396	570.08728
578.86	563.0648
579.323	562.07199
579.786	590.00383
580.249	536.98035
580.712	581.14185
581.175	566.12461
581.637	614.12549
582.1	604.0521
582.563	614.04252
583.025	565.102
583.487	538.86438
583.95	516.89096
584.412	585.97555
584.874	537.0582
585.336	520.00229
585.797	499.87698
586.259	582.10645
586.721	496.95304
587.182	565.07277
587.643	558.02263
588.105	514.99668
588.566	505.86615
589.027	470.93355
589.488	476.89566
589.949	518.02907
590.41	521.80928
590.87	502.94367
591.331	534.9368
591.791	437.83825
592.252	392.75065
592.712	439.88235
593.172	463.86113
593.632	501.90174
594.092	484.8879
594.552	467.82803
595.011	447.84915
595.471	472.87155
595.931	476.87366
596.39	453.90084
596.849	449.86917
597.308	495.88181
597.768	462.97842
598.227	535.05326
598.685	513.96981
599.144	466.90316
599.603	519.00683
600.062	550.92445
600.52	483.88272
600.978	508.99022
601.437	504.94836
601.895	479.83167
602.353	567.01331
602.811	533.95986
603.269	522.02159
603.727	571.10422
604.184	554.00252
604.642	568.12649
605.099	571.06679
605.557	596.17001
606.014	609.03261
606.471	614.22186
606.928	635.05705
607.385	718.34765
607.842	803.38606
608.299	864.50629
608.755	847.53685
609.212	835.37884
609.668	741.24282
610.125	849.55064
610.581	894.60138
611.037	779.37455
611.493	766.40827
611.949	675.28517
612.405	656.02248
612.861	747.37981
613.316	643.2277
613.772	696.26011
614.227	714.32433
614.683	743.23668
615.138	701.29404
615.593	669.23732
616.048	692.25922
616.503	711.3965
616.958	693.38989
617.412	668.26719
617.867	639.12818
618.321	658.08552
618.776	704.23643
619.23	602.15622
619.684	719.29357
620.138	661.2481
620.592	638.26793
621.046	596.15789
621.5	632.26124
621.954	646.19023
622.407	602.10734
622.861	479.99514
623.314	630.18219
623.768	544.06624
624.221	547.8981
624.674	543.05499
625.127	512.02044
625.58	520.01334
626.033	511.96792
626.485	470.97187
626.938	487.00045
627.39	468.94519
627.843	494.98809
628.295	507.00975
628.747	476.9856
629.199	432.86368
629.651	377.76298
630.103	438.88298
630.555	418.78264
631.006	431.89582
631.458	406.85383
631.909	440.89965
632.361	398.83258
632.812	384.7969
633.263	389.7541
633.714	390.7526
634.165	352.77804
634.616	355.76909
635.067	376.75904
635.518	318.69908
635.968	326.60252
636.419	344.68615
636.869	345.75412
637.319	271.58412
637.769	309.63911
638.219	386.84355
638.669	284.63116
639.119	290.66053
639.569	303.67995
640.019	353.75333
640.468	334.69097
640.918	329.73677
641.367	297.6231
641.816	301.62954
642.265	267.58192
642.714	318.68615
643.163	330.70623
643.612	259.58528
644.061	286.56754
644.51	240.51875
644.958	270.55983
645.406	281.63266
645.855	236.55056
646.303	297.65388
646.751	229.49635
647.199	257.55466
647.647	257.56084
648.095	247.53833
648.543	293.56771
648.99	251.56975
649.438	246.55217
649.885	250.5894
650.333	237.44054
650.78	241.55525
651.227	242.56167
651.674	236.51447
652.121	231.53816
652.568	233.54132
653.015	275.66153
653.461	182.41875
653.908	253.56333
654.354	282.64024
654.801	214.48291
655.247	244.51451
655.693	213.53464
656.139	206.47699
656.585	217.50196
657.031	139.31681
657.477	182.38243
657.922	202.45006
658.368	219.52184
658.813	256.57248
659.259	179.41784
659.704	182.41272
660.149	150.34264
660.594	206.47415
661.039	185.4109
661.484	216.50074
661.929	196.44645
662.373	154.37994
662.818	196.47267
663.262	175.4114
663.707	166.41135
664.151	200.47574
664.595	161.3807
665.039	182.44273
665.483	160.39923
665.927	210.482
666.371	113.25901
666.814	206.48001
667.258	154.358
667.701	226.47635
668.145	246.59301
668.588	188.45167
669.031	152.35196
669.474	160.37958
669.917	191.41611
670.36	150.36694
670.803	191.45233
671.245	198.41054
671.688	172.41323
672.13	154.34155
672.573	232.57361
673.015	147.34948
673.457	204.43622
673.899	164.39236
674.341	194.45952
674.783	151.35802
675.225	179.4329
675.666	146.34703
676.108	146.31598
676.549	179.4185
676.991	136.29924
677.432	153.30397
677.873	160.3671
678.314	138.32764
678.755	155.37331
679.196	178.40266
679.637	200.48049
680.078	171.3965
680.518	146.33914
680.959	160.37972
681.399	149.36618
681.839	183.43924
682.28	150.36666
682.72	171.38754
683.16	144.35566
683.6	156.35433
684.039	168.34865
684.479	145.35319
684.919	131.30087
685.358	206.51325
685.798	155.4016
686.237	185.44201
686.676	161.37184
687.115	194.44974
687.554	151.3565
687.993	147.32487
688.432	135.30831
688.871	163.3673
689.309	152.36074
689.748	138.28985
690.186	171.40512
690.625	138.32258
691.063	106.25486
691.501	164.40178
691.939	147.36393
692.377	141.34229
692.815	145.34499
693.253	155.37076
693.69	166.3631
694.128	97.23575
694.565	141.33534
695.003	131.33107
695.44	127.29844
695.877	112.26222
696.314	166.35619
696.751	186.42076
697.188	144.32999
697.625	192.43681
698.061	146.34864
698.498	167.40114
698.934	135.32453
699.371	89.21094
699.807	145.34194
700.243	67.1629
700.679	192.43044
701.115	179.41817
701.551	145.34074
701.987	122.27576
702.422	187.43875
702.858	153.36262
703.294	138.31294
703.729	149.3628
704.164	100.24181
704.599	133.29688
705.035	70.15881
705.47	128.31068
705.904	119.27779
706.339	129.3009
706.774	139.32499
707.209	90.20923
707.643	143.34232
708.078	167.40312
708.512	137.34079
708.946	134.32096
709.38	174.40881
709.814	138.31561
710.248	148.35908
710.682	132.31352
711.116	97.23221
711.549	134.34426
711.983	157.36101
712.416	178.41722
712.85	155.38374
713.283	107.25429
713.716	186.46174
714.149	181.42749
714.582	175.39015
715.015	161.4002
715.448	165.41223
715.881	151.3305
716.313	134.31373
716.746	121.28512
717.178	99.23907
717.61	151.38039
718.043	197.48396
718.475	155.37345
718.907	210.52303
719.339	113.25703
719.77	131.30988
720.202	126.31781
720.634	141.34139
721.065	215.50089
721.497	155.3774
721.928	161.39187
722.359	103.24883
722.79	108.25908
723.221	170.42372
723.652	180.45903
724.083	139.3131
724.514	194.44028
724.945	127.29844
725.375	103.23987
725.806	168.41569
726.236	181.45808
726.666	150.35352
727.096	190.46011
727.526	145.3658
727.956	114.25988
728.386	204.49438
728.816	150.37659
729.246	148.35733
729.675	106.26114
730.105	189.45915
730.534	160.37195
730.964	134.33763
731.393	188.46142
731.822	193.48566
732.251	125.31636
732.68	191.4448
733.109	183.44524
733.537	130.31316
733.966	205.50044
734.395	135.31129
734.823	163.3658
735.251	123.29602
735.68	189.46722
736.108	193.48113
736.536	147.34531
736.964	150.34636
737.392	183.45206
737.82	194.45917
738.247	190.44918
738.675	236.55208
739.102	155.38388
739.53	157.39593
739.957	189.47883
740.384	224.54203
740.811	188.46994
741.238	172.41527
741.665	144.33238
742.092	204.47966
742.519	140.34438
742.945	174.41327
743.372	176.43053
743.798	179.45415
744.225	196.45905
744.651	160.39778
745.077	196.48106
745.503	200.48031
745.929	194.45863
746.355	256.62061
746.781	219.53202
747.207	143.33355
747.632	165.39784
748.058	188.46245
748.483	196.44482
748.908	166.40818
749.334	217.52262
749.759	161.37642
750.184	191.44813
750.609	214.51608
751.033	216.50153
751.458	252.55121
751.883	237.5738
752.307	191.44305
752.732	153.37851
753.156	235.56682
753.58	274.6314
754.005	243.60179
754.429	232.53292
754.853	206.50092
755.277	218.50577
755.7	266.64073
756.124	237.5738
756.548	235.54381
756.971	218.52174
757.394	245.61517
757.818	216.54441
758.241	241.59619
758.664	218.539
759.087	203.44507
759.51	238.57807
759.933	241.56521
760.356	258.64302
760.778	273.65049
761.201	239.56752
761.623	263.62017
762.046	283.65019
762.468	257.60084
762.89	256.61478
763.312	250.59444
763.734	183.43439
764.156	219.52943
764.578	239.53679
765	291.68565
765.421	203.5055
765.843	260.6623
766.264	304.70778
766.686	271.66005
767.107	237.56017
767.528	206.50952
767.949	206.51381
768.37	255.6083
768.791	250.58872
769.212	190.46892
769.632	148.34202
770.053	236.60605
770.473	202.48235
770.894	239.58365
771.314	274.63417
771.734	222.50587
772.154	251.62683
772.575	224.50774
772.994	185.4138
773.414	209.49227
773.834	228.55648
774.254	212.50816
774.673	264.62361
775.093	160.39125
775.512	190.45994
775.931	195.48541
776.351	193.47062
776.77	144.34885
777.189	195.45555
777.607	160.40357
778.026	198.48381
778.445	133.33012
778.864	217.54428
779.282	182.43093
779.701	163.40561
780.119	150.37482
780.537	192.47019
780.955	226.56123
781.373	165.40265
781.791	140.31205
782.209	206.46505
782.627	158.41086
783.045	151.34374
783.462	184.46194
783.88	127.32599
784.297	152.3779
784.715	128.32597
785.132	156.37308
785.549	139.34438
785.966	110.27547
786.383	138.33633
786.8	136.31341
787.217	88.20877
787.633	119.29505
788.05	180.42076
788.466	126.29546
788.883	105.2666
789.299	112.26857
789.715	103.24967
790.131	135.33264
790.547	113.28079
790.963	128.31521
791.379	107.26926
791.795	122.27688
792.21	142.32868
792.626	96.22749
793.041	83.20489
793.457	118.28984
793.872	104.24378
794.287	75.17927
794.702	68.16808
795.117	54.13479
795.532	65.16328
795.947	114.27306
796.362	148.34949
796.776	131.3046
797.191	114.27742
797.605	44.10406
798.02	106.2568
798.434	69.15441
798.848	54.13362
799.262	89.22035
799.676	135.32625
800.09	100.24517
800.504	120.28918
800.918	83.19238
801.331	106.2765
801.745	84.19304
802.158	74.18512
802.572	113.27257
802.985	85.20542
803.398	92.21902
803.811	135.34361
804.224	81.20157
804.637	73.17415
805.05	70.16273
805.462	88.21591
805.875	37.09646
806.288	55.13322
806.7	52.13126
807.112	103.23789
807.525	78.19251
807.937	65.16099
808.349	33.08331
808.761	96.23537
809.173	98.23661
809.584	106.26065
809.996	42.10347
810.408	37.09604
810.819	92.21582
811.231	118.30231
811.642	188.43842
812.053	268.61363
812.464	339.7651
812.875	305.74728
813.286	199.50076
813.697	201.45904
814.108	127.30738
814.519	104.23076
814.929	106.2688
815.34	80.19388
815.75	72.18291
816.16	61.15241
816.571	59.15356
816.981	62.14686
817.391	88.21199
817.801	46.11478
818.211	81.19294
818.62	74.17813
819.03	57.14014
819.44	76.19831
819.849	100.2507
820.259	67.17162
820.668	59.14543
821.077	62.1542
821.486	68.164
821.895	74.18284
822.304	54.1434
822.713	110.25824
823.122	66.16487
823.531	31.0741
823.939	75.18262
824.348	83.20142
824.756	61.15307
825.164	67.16873
825.573	49.1234
825.981	81.20054
826.389	101.25234
826.797	53.13314
827.205	45.10385
827.612	65.16057
828.02	22.05215
828.428	81.20581
828.835	68.17889
829.243	54.12915
829.65	44.10987
830.057	76.18426
830.464	35.08583
830.871	60.14399
831.278	31.07548
831.685	26.0586
832.092	56.13745
832.499	63.13813
832.905	65.16463
833.312	66.15076
833.718	90.22335
834.124	97.22055
834.531	90.22596
834.937	41.10568
835.343	95.22811
835.749	65.15203
836.155	86.22433
836.561	33.08167
836.966	86.2096
837.372	41.1048
837.777	47.11747
838.183	46.10283
838.588	25.06253
838.993	102.24674
839.399	22.05422
839.804	33.08089
840.209	35.08953
840.613	64.14254
841.018	39.0992
841.423	56.14382
841.828	64.16184
842.232	98.24134
842.637	54.12772
843.041	53.13605
843.445	35.08824
843.849	34.08462
844.253	58.13808
844.657	68.17103
845.061	35.07993
845.465	19.04628
845.869	34.07951
846.272	37.09053
846.676	57.13806
847.079	48.12233
847.483	104.25753
847.886	62.15094
848.289	48.12832
848.692	64.16201
849.095	82.19626
849.498	95.23941
849.901	58.13324
850.304	39.09365
850.707	59.15049
851.109	90.22661
851.512	40.09869
851.914	-12.03063
852.316	59.14927
852.718	36.0933
853.121	15.03707
853.523	56.13106
853.925	10.0263
854.326	26.06539
854.728	58.14917
855.13	41.10605
855.531	56.13393
855.933	43.10361
856.334	26.06521
856.736	-19.04327
857.137	16.03753
857.538	29.07329
857.939	24.05967
858.34	72.17509
858.741	59.15419
859.142	57.13703
859.542	74.19467
859.943	39.09726
860.343	4.01
860.744	61.14881
861.144	34.08333
861.544	-23.05613
861.945	33.08447
862.345	52.12735
862.745	40.09974
863.145	76.18114
863.544	38.09636
863.944	65.1534
864.344	77.19064
864.743	41.10207
865.143	66.16927
865.542	64.14831
865.941	59.14602
866.34	78.18619
866.74	74.19802
867.139	12.02898
867.537	35.08953
867.936	54.13008
868.335	34.08686
868.734	51.13045
869.132	34.07939
869.531	22.05358
869.929	22.05052
870.327	40.09621
870.726	83.20602
871.124	46.10778
871.522	55.14014
871.92	64.15767
872.318	50.12241
872.715	77.18994
873.113	33.08077
873.511	38.09499
873.908	-13.03322
874.306	24.06004
874.703	80.19933
875.1	70.17865
875.497	48.11528
875.894	-1.00248
876.291	62.15201
876.688	33.08545
877.085	54.12964
877.482	56.14019
877.878	-8.01949
878.275	3.00769
878.671	89.19694
879.068	38.09206
879.464	29.07046
879.86	17.04051
880.256	72.17718
880.652	39.09948
881.048	64.15836
881.444	19.04555
881.84	65.16492
882.236	72.18051
882.631	45.11068
883.027	67.16192
883.422	54.1381
883.817	11.02786
884.213	37.09524
884.608	-6.01488
885.003	26.06304
885.398	15.03782
885.793	43.10817
886.188	-7.0176
886.582	88.22442
886.977	91.21451
887.371	55.1391
887.766	23.05753
888.16	77.1914
888.554	43.10658
888.949	46.1157
889.343	109.26362
889.737	15.04023
890.131	32.0806
890.525	55.14064
890.918	24.06073
891.312	70.16703
891.706	38.09997
892.099	101.25489
892.492	86.18438
892.886	46.11274
893.279	36.092
893.672	49.12485
894.065	58.14515
894.458	73.18298
894.851	75.1831
895.244	-7.01807
895.637	82.19649
896.029	48.11751
896.422	21.05163
896.814	51.12687
897.206	14.0336
897.599	71.17507
897.991	52.12579
898.383	56.13229
898.775	35.07932
899.167	10.02352
899.559	56.14171
899.951	49.11564
900.342	58.1474
900.734	-7.01756
901.125	63.16504
901.517	72.17613
901.908	38.0914
902.299	5.01233
902.69	52.12275
903.082	68.16424
903.473	46.11031
903.863	51.13018
904.254	15.03508
904.645	61.15152
905.036	0
905.426	90.20459
905.817	34.08373
906.207	28.06704
906.597	12.02829
906.987	54.13994
907.378	31.07871
907.768	54.14273
908.158	43.10505
908.547	32.08296
908.937	33.08497
909.327	24.0586
909.717	66.16719
910.106	19.04594
910.495	62.15454
910.885	57.14426
911.274	40.10021
911.663	49.12446
912.052	68.16734
912.441	67.16993
912.83	36.08293
913.219	60.15683
913.608	65.15886
913.997	14.03534
914.385	64.1526
914.774	72.17469
915.162	37.08844
915.55	34.08256
915.939	31.07854
916.327	99.24501
916.715	26.06656
917.103	73.17901
917.491	39.09673
917.878	32.07898
918.266	57.14769
918.654	47.12018
919.041	-15.0396
919.429	38.08994
919.816	80.20179
920.203	22.05366
920.591	43.10681
920.978	78.1901
921.365	69.18051
921.752	32.07659
922.139	42.09141
922.525	15.03628
922.912	77.18693
923.299	21.05249
923.685	26.06812
924.072	81.18574
924.458	17.04238
924.844	22.05474
925.231	50.11642
925.617	21.0537
926.003	61.15565
926.389	33.08352
926.774	67.16933
927.16	62.1537
927.546	15.03853
927.931	82.2035
928.317	60.138
928.702	44.10427
929.088	12.0286
929.473	44.11209
929.858	-9.022
930.243	45.10814
930.628	17.04163
931.013	65.16069
931.398	102.23225
931.783	54.14211
932.167	30.07363
932.552	40.10043
932.937	50.12413
933.321	20.05047
933.705	56.14105
934.09	45.11385
934.474	46.10938
934.858	30.07809
935.242	-3.00703
935.626	55.14069
936.009	24.06412
936.393	61.15494
936.777	55.14074
937.16	42.10944
937.544	54.12717
937.927	12.03066
938.311	40.09785
938.694	58.1532
939.077	28.06732
939.46	79.19301
939.843	68.14137
940.226	28.07211
940.609	56.12844
940.991	28.07156
941.374	4.00986
941.757	42.10381
942.139	17.03845
942.522	56.13224
942.904	38.09158
943.286	51.12958
943.668	23.05986
944.05	27.0668
944.432	36.08908
944.814	83.20323
945.196	-7.01724
945.578	-14.03369
945.959	33.07761
946.341	59.14463
946.722	25.05898
947.104	40.09581
947.485	55.12789
947.866	41.10347
948.247	-3.00764
948.628	30.07347
949.009	22.05662
949.39	64.15894
949.771	50.11633
950.152	58.14215
950.532	-13.03235
950.913	43.10388
951.293	24.06511
951.674	34.08249
952.054	0
952.434	40.09949
952.814	28.06691
953.194	50.13087
953.574	61.14997
953.954	8.01915
954.334	13.03262
954.714	26.06365
955.093	38.09365
955.473	-8.02022
955.853	38.09858
956.232	51.13976
956.611	83.19786
956.99	19.04802
957.37	33.08435
957.749	6.01444
958.128	19.04814
958.506	36.09362
958.885	24.06086
959.264	4.00989
959.643	97.21867
960.021	17.04238
960.4	3.00687
960.778	76.18633
961.156	-6.01519
961.535	57.13269
961.913	25.0588
962.291	-3.00777
962.669	15.03823
963.047	54.13772
963.424	18.0462
963.802	14.03466
964.18	92.23106
964.557	50.11518
964.935	80.18847
965.312	6.01574
965.69	57.14257
966.067	46.11211
966.444	74.18156
966.821	28.07246
967.198	18.04394
967.575	74.18116
967.952	51.12018
968.329	44.1072
968.705	49.10512
969.082	29.07465
969.458	26.06266
969.835	18.04408
970.211	28.07214
970.587	58.1442
970.963	26.06698
971.339	42.10982
971.715	4.01007
972.091	24.05939
972.467	54.1346
972.843	8.02001
973.219	53.12722
973.594	31.08135
973.97	46.10959
974.345	8.0193
974.721	48.11629
975.096	45.109
975.471	39.09272
975.846	65.15572
976.221	43.10933
976.596	7.01692
976.971	59.14543
977.346	39.09101
977.72	63.16013
978.095	46.11896
978.469	78.18519
978.844	86.21483
979.218	-16.03884
979.593	73.17415
979.967	43.1049
980.341	53.12197
980.715	26.06579
981.089	33.08287
981.463	39.08975
981.837	32.07846
982.21	70.16228
982.584	11.02676
982.957	10.02515
983.331	33.07828
983.704	35.08624
984.078	25.0619
984.451	116.2863
984.824	12.02943
985.197	60.14547
985.57	25.06298
985.943	53.13083
986.316	136.32885
986.688	57.13729
987.061	87.20245
987.434	56.14578
987.806	32.07787
988.179	37.08753
988.551	81.20435
988.923	55.13532
989.295	31.07773
989.667	17.04087
990.039	39.09656
990.411	79.18079
990.783	84.19211
991.155	-13.03161
991.527	90.22
991.898	-2.00503
992.27	62.15302
992.641	77.19224
993.012	46.10833
993.384	2.00481
993.755	41.10469
994.126	18.04356
994.497	17.04198
994.868	82.18716
995.239	72.17377
995.61	37.09331
995.98	34.08283
996.351	32.0795
996.722	27.0629
997.092	-2.00478
997.462	-32.07595
997.833	31.07376
998.203	10.02443
998.573	-19.0479
998.943	21.04952
999.313	5.01208
999.683	-14.03401
1000.053	63.14458
1000.423	52.12631
1000.792	-1.00261
1001.162	47.11572
1001.531	17.04217
1001.901	-13.03277
1002.27	37.08293
1002.639	64.1631
1003.009	15.03591
1003.378	40.10244
1003.747	7.01667
1004.116	25.0601
1004.485	39.0934
1004.853	42.10655
1005.222	12.03046
1005.591	30.0715
1005.959	-4.00911
1006.328	-32.07322
1006.696	16.03884
1007.064	41.10329
1007.433	47.11751
1007.801	74.18082
1008.169	34.0861
1008.537	40.08875
1008.905	-3.00706
1009.273	71.17469
1009.64	5.01203
1010.008	83.19657
1010.375	67.16216
1010.743	86.19716
1011.11	4.00955
1011.478	33.08191
1011.845	26.06142
1012.212	8.01826
1012.579	47.11543
1012.946	52.1237
1013.313	67.15892
1013.68	60.13457
1014.047	11.0264
1014.414	15.03566
1014.78	31.07728
1015.147	62.14958
1015.513	25.06051
1015.88	47.12022
1016.246	47.11607
1016.612	24.05522
1016.978	25.06153
1017.344	31.07686
1017.71	85.20588
1018.076	56.13188
1018.442	42.10817
1018.808	28.07025
1019.174	7.01769
1019.539	118.26792
1019.905	35.08276
1020.27	12.02981
1020.636	47.11273
1021.001	47.11256
1021.366	11.0266
1021.731	27.06969
1022.096	-23.05875
1022.461	62.14635
1022.826	31.07393
1023.191	40.10509
1023.556	45.10554
1023.92	93.22679
1024.285	32.07834
1024.649	32.07866
1025.014	86.21155
1025.378	39.09821
1025.742	42.10442
1026.107	61.13763
1026.471	49.11439
1026.835	28.06967
1027.199	4.00971
1027.562	32.07463
1027.926	61.14881
1028.29	34.08625
1028.654	34.07845
1029.017	29.07154
1029.381	25.05998
1029.744	52.13252
1030.107	51.1206
1030.471	51.12204
1030.834	18.0412
1031.197	65.15608
1031.56	34.08044
1031.923	22.05713
1032.286	62.14522
1032.648	52.12427
1033.011	-18.04186
1033.374	67.1569
1033.736	24.06335
1034.099	33.08065
1034.461	4.01018
1034.823	21.05254
1035.185	47.11832
1035.548	35.08538
1035.91	22.05296
1036.272	60.13623
1036.634	33.08095
1036.995	21.04962
1037.357	-4.00983
1037.719	18.04402
1038.08	82.19341
1038.442	17.04059
1038.803	55.13187
1039.165	31.07846
1039.526	23.05584
1039.887	64.15265
1040.248	4.00993
1040.609	75.18439
1040.97	45.11002
1041.331	65.16404
1041.692	16.03758
1042.053	39.08896
1042.413	58.13489
1042.774	47.11431
1043.134	51.12134
1043.495	50.12562
1043.855	81.19524
1044.215	38.09448
1044.576	6.01446
1044.936	40.09185
1045.296	37.09251
1045.656	40.09829
1046.016	17.04127
1046.375	1.00245
1046.735	4.00915
1047.095	31.07279
1047.454	49.1038
1047.814	32.07715
1048.173	69.16417
1048.533	16.03689
1048.892	-16.03886
1049.251	48.12047
1049.61	31.07655
1049.969	70.16427
1050.328	41.08902
1050.687	47.11436
1051.046	47.11444
1051.405	23.05746
1051.763	-19.04427
1052.122	11.02761
1052.48	45.11039
1052.839	33.07785
1053.197	47.11062
1053.555	25.05726
1053.914	34.08336
1054.272	78.18747
1054.63	22.05404
1054.988	17.04062
1055.345	5.01087
1055.703	28.06763
1056.061	22.05684
1056.419	38.09851
1056.776	48.11637
1057.134	20.04655
1057.491	39.09779
1057.848	13.03256
1058.206	1.00237
1058.563	61.13408
1058.92	20.04635
1059.277	49.12083
1059.634	51.1199
1059.991	59.14102
1060.348	31.07029
1060.704	27.06459
1061.061	75.17329
1061.418	-12.02942
1061.774	9.02237
1062.131	7.01863
1062.487	38.089
1062.843	65.16152
1063.199	38.09465
1063.555	-40.09427
1063.911	13.03303
1064.267	57.11864
1064.623	16.03908
1064.979	78.18369
1065.335	57.13598
1065.691	40.09599
1066.046	5.01109
1066.402	-13.02989
1066.757	39.09857
1067.112	76.1855
1067.468	-15.03584
1067.823	27.06515
1068.178	74.17806
1068.533	40.09709
1068.888	40.0957
1069.243	33.08164
1069.598	37.09006
1069.952	-15.0342
1070.307	-18.04508
1070.662	43.10215
1071.016	8.01807
1071.371	33.07528
1071.725	27.06483
1072.079	33.07957
1072.434	63.1526
1072.788	36.0859
1073.142	79.19315
1073.496	5.01196
1073.85	36.08366
1074.203	55.13322
1074.557	57.15129
1074.911	33.07897
1075.265	21.04906
1075.618	47.11474
1075.971	49.1165
1076.325	26.06631
1076.678	-28.06499
1077.031	25.05682
1077.385	34.07509
1077.738	50.11279
1078.091	17.03889
1078.444	4.00937
1078.796	46.11286
1079.149	67.166
1079.502	26.06166
1079.855	10.02349
1080.207	38.09375
1080.56	22.05709
1080.912	53.12886
1081.264	14.03392
1081.617	34.08305
1081.969	26.06582
1082.321	27.06616
1082.673	31.07097
1083.025	-6.01438
1083.377	66.14107
1083.728	9.02115
1084.08	11.02763
1084.432	31.07498
1084.783	65.15174
1085.135	20.05036
1085.486	4.00923
1085.838	41.10106
1086.189	-17.04175
1086.54	-9.02172
1086.891	24.06093
1087.242	44.10716
1087.593	88.21255
1087.944	28.0636
1088.295	48.10907
1088.646	37.08982
1088.996	21.05083
1089.347	11.02716
1089.698	-17.04067
1090.048	29.07553
1090.398	16.03733
1090.749	14.0337
1091.099	-17.04323
1091.449	26.065
1091.799	62.15476
1092.149	-64.15923
1092.499	-1.00246
1092.849	51.12949
1093.199	33.0829
1093.548	20.04829
1093.898	2.00504
1094.248	73.18666
1094.597	-16.04128
1094.947	64.17018
1095.296	19.04714
1095.645	33.08601
1095.994	62.14845
1096.343	3.00761
1096.692	7.01851
1097.041	-15.041
1097.39	51.12779
1097.739	-3.00786
1098.088	51.13649
1098.437	-47.12537
1098.785	70.18793
1099.134	44.11685
1099.482	36.09914
1099.83	48.12606
1100.179	6.01575
1100.527	43.11429
1100.875	33.08742
1101.223	1.00267
1101.571	42.11611
1101.919	5.01315
1102.267	9.02547
1102.615	13.04175
1102.962	27.08676
1103.31	6.01928
1103.658	18.05793
