Data from N2 R5 sample 2_Subt2__5__14-25-32-666.txt Node

Date: Fri Aug 29 14:25:32 PDT 2025
User: uwsun
Spectrometer: HDX01956
Trigger mode: 0
Integration Time (sec): 5.000000E-1
Scans to average: 1
Nonlinearity correction enabled: true
Boxcar width: 0
Storing dark spectrum: false
XAxis mode: Wavelengths
Number of Pixels in Spectrum: 2068
>>>>>Begin Spectral Data<<<<<
194.03	385.013
194.578	372.11802
195.127	347.02954
195.676	370.09808
196.225	425.04391
196.773	454.15063
197.321	638.52649
197.87	834.7419
198.418	850.74165
198.966	892.82368
199.513	782.54663
200.061	806.61721
200.609	897.88637
201.156	812.35891
201.704	820.62869
202.251	810.71711
202.798	862.76547
203.345	864.67636
203.892	850.6813
204.438	911.67334
204.985	867.57003
205.532	876.81354
206.078	918.7331
206.624	844.61494
207.17	916.61819
207.716	871.63259
208.262	945.35532
208.808	855.62538
209.354	893.66897
209.899	982.90746
210.445	920.74874
210.99	875.62077
211.535	903.62708
212.08	927.63724
212.625	918.77875
213.17	903.78335
213.715	844.42111
214.259	944.66518
214.804	953.80763
215.348	956.64438
215.892	951.73473
216.436	941.65772
216.98	942.56774
217.524	898.62753
218.068	931.81642
218.612	903.77586
219.155	873.58734
219.698	843.56992
220.242	845.67101
220.785	845.54099
221.328	822.62888
221.871	840.70023
222.414	834.65269
222.956	803.52489
223.499	789.39514
224.041	833.52826
224.583	806.36432
225.126	788.36119
225.668	789.52591
226.21	773.56197
226.751	795.34819
227.293	846.50666
227.835	801.55137
228.376	849.53347
228.918	813.64515
229.459	766.52696
230	759.4426
230.541	812.4706
231.082	831.58505
231.622	836.50494
232.163	786.51104
232.704	757.50515
233.244	741.4815
233.784	801.56837
234.324	782.32788
234.864	844.47908
235.404	787.48793
235.944	774.46152
236.484	814.61826
237.023	761.42676
237.563	816.46811
238.102	800.48859
238.641	864.71779
239.18	767.41047
239.719	819.6301
240.258	830.44535
240.797	844.56906
241.335	828.59725
241.874	785.14033
242.412	833.56123
242.95	802.49675
243.488	814.44431
244.026	847.50106
244.564	864.33386
245.102	852.46112
245.64	828.56749
246.177	790.37842
246.715	884.64032
247.252	849.50539
247.789	858.20118
248.326	791.48311
248.863	924.50485
249.4	836.46349
249.936	890.35566
250.473	871.55009
251.009	852.48844
251.546	874.45182
252.082	836.39538
252.618	887.48361
253.154	821.52963
253.69	830.43165
254.226	820.51832
254.761	837.43494
255.297	859.41547
255.832	838.52627
256.367	885.58644
256.903	819.36879
257.438	841.52285
257.972	856.44294
258.507	817.42827
259.042	888.43713
259.576	852.36395
260.111	885.55152
260.645	879.42291
261.179	875.54357
261.713	937.5342
262.247	908.57239
262.781	872.34705
263.315	906.67955
263.849	955.79649
264.382	883.53343
264.915	909.58954
265.449	874.60484
265.982	983.63846
266.515	923.69373
267.048	875.36398
267.58	941.51253
268.113	902.42791
268.646	929.7227
269.178	897.47829
269.71	956.51808
270.243	884.51372
270.775	952.82281
271.307	944.70243
271.838	1021.78036
272.37	941.73202
272.902	994.64101
273.433	921.47022
273.965	978.7585
274.496	885.67925
275.027	933.73357
275.558	912.65464
276.089	838.55866
276.62	990.88203
277.15	985.80232
277.681	910.44805
278.211	1033.85054
278.741	910.45466
279.272	920.53604
279.802	982.81532
280.332	978.6725
280.861	1016.77208
281.391	907.50392
281.921	962.70848
282.45	983.81672
282.98	962.87919
283.509	998.59773
284.038	976.59696
284.567	965.64447
285.096	1024.78326
285.625	987.59663
286.153	1029.70978
286.682	1012.63678
287.21	944.65739
287.739	954.63308
288.267	1045.79462
288.795	1045.01174
289.323	1015.67072
289.851	1060.74172
290.378	1001.57941
290.906	986.70426
291.433	1030.84185
291.961	1019.60517
292.488	1020.82205
293.015	1042.70823
293.542	1013.83693
294.069	1036.79853
294.596	1103.91372
295.122	1100.80872
295.649	1058.59289
296.175	1050.79317
296.702	1069.81548
297.228	1120.88252
297.754	1037.59521
298.28	1085.6626
298.806	1108.8179
299.332	1078.58928
299.857	1123.68276
300.383	1202.07231
300.908	1117.82614
301.433	1124.84529
301.958	1161.78602
302.483	1094.86958
303.008	1159.94253
303.533	1131.04602
304.058	1170.83426
304.582	1131.76819
305.107	1082.95492
305.631	1165.74296
306.155	1193.79049
306.679	1159.75997
307.203	1196.78268
307.727	1235.8806
308.251	1250.00345
308.775	1126.74152
309.298	1230.86796
309.822	1264.06492
310.345	1307.92429
310.868	1244.88043
311.391	1277.00264
311.914	1245.99699
312.437	1395.89414
312.96	1309.88287
313.482	1278.86811
314.005	1279.0254
314.527	1352.2243
315.049	1348.12151
315.571	1356.72459
316.093	1356.0368
316.615	1388.9748
317.137	1405.7079
317.659	1397.01982
318.18	1411.00393
318.702	1393.85951
319.223	1431.55643
319.744	1428.76537
320.265	1421.95997
320.786	1517.07868
321.307	1500.09541
321.828	1514.81733
322.348	1543.93481
322.869	1502.88969
323.389	1559.04294
323.909	1627.88966
324.43	1633.07191
324.95	1635.84906
325.47	1648.06207
325.989	1620.9028
326.509	1603.66473
327.029	1711.76618
327.548	1664.72792
328.067	1746.96993
328.587	1726.09941
329.106	1783.78694
329.625	1877.40843
330.144	1772.80117
330.662	1806.80118
331.181	1891.86229
331.7	1874.84713
332.218	1887.57615
332.736	1950.83627
333.255	1919.78304
333.773	1924.8325
334.291	2024.0751
334.808	1970.59452
335.326	2074.63925
335.844	2074.67332
336.361	2101.98392
336.879	2079.65568
337.396	2095.76658
337.913	2177.57865
338.43	2189.48359
338.947	2186.6723
339.464	2218.26515
339.981	2204.5976
340.497	2339.77115
341.014	2256.67705
341.53	2252.35791
342.046	2402.64106
342.562	2336.73734
343.078	2396.45384
343.594	2453.48926
344.11	2510.43953
344.626	2516.6435
345.141	2501.22368
345.657	2633.19268
346.172	2508.40939
346.687	2586.16685
347.202	2524.07704
347.717	2592.28097
348.232	2720.42217
348.747	2690.05477
349.261	2623.80432
349.776	2692.09693
350.29	2732.19717
350.805	2915.22061
351.319	2827.96056
351.833	2714.82972
352.347	2753.96412
352.861	2822.86936
353.374	2893.83602
353.888	2952.9558
354.401	2950.72176
354.915	2925.55791
355.428	3026.92566
355.941	3101.59286
356.454	3190.47644
356.967	3070.68613
357.48	3175.51294
357.993	3063.8126
358.505	3179.66704
359.018	3276.61407
359.53	3322.46951
360.042	3365.17114
360.554	3279.52575
361.066	3305.47881
361.578	3321.06937
362.09	3441.30418
362.602	3299.05902
363.113	3370.17512
363.625	3428.00543
364.136	3483.90253
364.647	3550.89666
365.158	3528.99086
365.669	3650.01465
366.18	3663.9294
366.691	3644.70276
367.201	3560.97934
367.712	3729.66973
368.222	3701.67744
368.733	3806.40387
369.243	3975.33774
369.753	4060.42932
370.263	3984.53216
370.773	3972.6107
371.282	4107.35287
371.792	4052.13926
372.301	4196.2255
372.811	4324.38717
373.32	4270.81753
373.829	4395.92402
374.338	4661.75006
374.847	4749.74346
375.356	4869.74479
375.865	5057.71611
376.373	5274.8081
376.882	5506.91107
377.39	5511.93522
377.898	5542.01418
378.407	5777.47556
378.915	6208.33863
379.423	6401.6162
379.93	6671.61738
380.438	6776.09969
380.946	7250.21804
381.453	7451.48437
381.96	7618.24604
382.468	8209.14646
382.975	8852.11925
383.482	9112.07371
383.989	9322.46679
384.495	9585.10553
385.002	9936.23521
385.509	10373.56803
386.015	11372.65475
386.521	11887.81745
387.028	12323.29023
387.534	12241.06223
388.04	13252.42452
388.546	13455.47733
389.051	13648.00208
389.557	14914.3523
390.063	16585.98891
390.568	16891.33871
391.073	17265.59025
391.578	18165.44497
392.084	18417.19816
392.589	18484.10051
393.093	19664.01513
393.598	21799.22378
394.103	23926.78782
394.607	26413.78037
395.112	28088.28569
395.616	29962.27105
396.12	32179.16535
396.624	35346.51262
397.128	38659.249
397.632	40294.64676
398.136	38769.19698
398.639	36273.96993
399.143	32503.66402
399.646	28888.45294
400.15	25083.82847
400.653	20124.16724
401.156	13866.23708
401.659	5169.95759
402.162	1054.15589
402.664	0
403.167	0
403.67	0
404.172	0
404.674	0
405.176	0
405.678	0
406.18	0
406.682	0
407.184	0
407.686	0
408.187	0
408.688	0
409.19	0
409.691	0
410.192	0
410.693	0
411.194	435.30976
411.694	4082.94878
412.195	8864.71461
412.696	12089.80453
413.196	12760.96929
413.696	12863.67595
414.196	13703.56671
414.696	17261.84252
415.196	21764.24417
415.696	29583.19008
416.196	36460.31858
416.695	40057.39798
417.195	41392.74103
417.694	42311.08144
418.194	43882.52025
418.693	44704.85811
419.192	44737.86031
419.691	43894.55729
420.19	43143.78421
420.688	42449.68269
421.187	40802.59821
421.685	38350.02938
422.184	35478.53482
422.682	31288.6779
423.18	26016.11967
423.678	22724.75587
424.176	21106.21166
424.674	19698.5042
425.172	18969.39608
425.669	18064.95327
426.167	16921.04294
426.664	15499.8272
427.161	13976.18619
427.659	12854.1193
428.156	12054.28514
428.652	11370.47157
429.149	10861.57877
429.646	10471.47451
430.143	9956.20576
430.639	9592.30205
431.135	8733.71801
431.632	8326.46305
432.128	7725.46863
432.624	7351.34779
433.12	6862.63376
433.616	6610.8037
434.111	6364.8018
434.607	6136.06551
435.103	6078.06565
435.598	6106.03286
436.093	5802.22417
436.588	5540.97764
437.083	5106.73528
437.578	4956.7275
438.073	4522.82592
438.568	4512.94695
439.062	4391.75634
439.557	4193.08367
440.051	3999.07676
440.546	3855.17376
441.04	3801.38883
441.534	3886.59317
442.028	3767.55529
442.522	3615.64071
443.015	3539.46098
443.509	3474.89171
444.002	3435.9218
444.496	3322.67422
444.989	3246.10188
445.482	3271.15685
445.975	3188.86651
446.468	3187.76792
446.961	3104.83222
447.454	3050.0657
447.947	2959.23566
448.439	2961.41659
448.931	2900.15677
449.424	2918.63533
449.916	2956.47612
450.408	2832.26494
450.9	2732.57864
451.392	2664.79098
451.884	2691.51372
452.375	2502.81315
452.867	2654.55616
453.358	2539.54582
453.849	2541.39542
454.341	2478.61281
454.832	2363.5361
455.323	2409.91771
455.814	2386.78633
456.304	2298.83949
456.795	2299.83155
457.285	2342.80723
457.776	2305.93006
458.266	2199.02044
458.756	2182.12261
459.247	2085.07225
459.737	2019.09911
460.226	2102.93775
460.716	1943.17251
461.206	2019.22018
461.695	1901.40239
462.185	1931.21483
462.674	1960.17148
463.163	1840.07951
463.653	1868.94523
464.142	1782.32758
464.63	1784.42128
465.119	1689.23009
465.608	1762.2464
466.096	1728.14294
466.585	1637.31328
467.073	1730.45004
467.561	1641.45316
468.05	1582.36002
468.538	1668.56002
469.026	1499.43688
469.513	1495.12165
470.001	1494.30454
470.489	1519.4304
470.976	1552.40985
471.463	1445.59892
471.951	1408.61776
472.438	1319.39108
472.925	1260.34955
473.412	1372.59683
473.899	1248.35974
474.385	1233.51848
474.872	1166.3438
475.359	1177.47126
475.845	1192.14279
476.331	1235.29781
476.817	1082.44016
477.303	1135.3787
477.789	1109.44953
478.275	1091.49906
478.761	1021.39586
479.247	1035.27767
479.732	963.40198
480.218	984.54133
480.703	990.45616
481.188	977.16893
481.673	942.26088
482.158	865.05122
482.643	958.51605
483.128	844.16644
483.612	847.22776
484.097	858.3401
484.581	821.21203
485.066	800.25282
485.55	736.02308
486.034	719.99368
486.518	674.04879
487.002	665.09801
487.486	666.10606
487.969	680.12751
488.453	718.24789
488.936	653.99565
489.42	712.05085
489.903	661.17684
490.386	677.6893
490.869	654.97795
491.352	654.14181
491.835	623.88523
492.318	605.95753
492.8	605.86504
493.283	576.06738
493.765	565.01233
494.247	602.01989
494.73	569.90205
495.212	579.03321
495.694	507.87191
496.175	438.77639
496.657	507.90086
497.139	519.64186
497.62	421.7546
498.102	436.82846
498.583	434.84274
499.064	425.71404
499.545	443.76832
500.026	398.68274
500.507	414.74072
500.988	487.92921
501.469	380.74633
501.949	428.82792
502.43	335.6252
502.91	340.54301
503.39	409.8103
503.87	347.64182
504.35	390.72732
504.83	328.56504
505.31	378.72244
505.79	327.62299
506.269	345.64355
506.749	278.50968
507.228	265.5029
507.707	304.5377
508.187	347.66721
508.666	291.57868
509.145	233.44498
509.623	272.51933
510.102	284.56199
510.581	326.64057
511.059	299.60956
511.538	277.59397
512.016	268.52611
512.494	312.61885
512.972	294.57306
513.45	191.36494
513.928	265.52796
514.406	253.49701
514.884	302.63849
515.361	308.60149
515.839	266.49605
516.316	244.48669
516.793	270.56984
517.27	287.57658
517.747	235.50479
518.224	205.39834
518.701	217.40276
519.178	177.36987
519.654	217.43555
520.131	179.37571
520.607	201.42356
521.083	225.42907
521.56	182.36403
522.036	194.3589
522.512	202.42446
522.987	173.34691
523.463	211.42272
523.939	237.49064
524.414	215.41997
524.89	219.43875
525.365	203.38768
525.84	154.31074
526.315	230.46623
526.79	217.41221
527.265	203.39163
527.74	133.27966
528.215	246.48725
528.689	212.39515
529.164	226.4133
529.638	155.34527
530.112	197.39376
530.587	153.27746
531.061	125.26028
531.534	221.4567
532.008	147.30432
532.482	200.39187
532.956	181.39533
533.429	118.24915
533.903	238.44493
534.376	173.32734
534.849	179.35629
535.322	183.37087
535.795	142.30167
536.268	197.40527
536.741	204.42034
537.213	219.43164
537.686	164.34415
538.158	129.24923
538.631	164.34643
539.103	146.2816
539.575	177.31657
540.047	184.34671
540.519	213.437
540.991	190.40223
541.463	215.44629
541.934	152.30107
542.406	146.30151
542.877	201.38777
543.348	185.38625
543.82	167.3561
544.291	206.41357
544.762	181.3685
545.233	170.36808
545.703	120.23
546.174	251.49332
546.645	201.40716
547.115	227.46404
547.585	207.4053
548.056	237.47921
548.526	255.5
548.996	294.58942
549.466	339.68608
549.935	292.56889
550.405	311.55482
550.875	301.58629
551.344	309.61132
551.814	350.65336
552.283	405.70351
552.752	304.57621
553.221	348.60303
553.69	428.74801
554.159	392.76917
554.628	371.65777
555.096	385.78595
555.565	349.62584
556.033	361.69312
556.502	285.57547
556.97	283.5216
557.438	244.48986
557.906	296.59178
558.374	209.41174
558.842	210.43192
559.31	194.37562
559.777	136.28754
560.245	237.48075
560.712	150.30573
561.18	179.34351
561.647	153.3
562.114	129.25904
562.581	172.37289
563.048	206.41471
563.514	92.20124
563.981	125.2546
564.448	183.35984
564.914	192.39276
565.381	227.45057
565.847	183.37783
566.313	183.37545
566.779	179.35562
567.245	182.37518
567.711	191.40214
568.176	146.28986
568.642	144.32017
569.108	87.19203
569.573	245.50311
570.038	196.36133
570.504	178.34959
570.969	176.38937
571.434	180.34501
571.899	192.40042
572.363	203.40387
572.828	280.552
573.293	250.49564
573.757	268.52959
574.222	209.40437
574.686	218.42229
575.15	251.51403
575.614	295.57679
576.078	248.50157
576.542	278.5429
577.006	260.50365
577.469	317.67269
577.933	246.47288
578.396	285.58208
578.86	313.6291
579.323	293.59624
579.786	270.49976
580.249	253.49584
580.712	268.56636
581.175	227.48739
581.637	296.58684
582.1	288.54428
582.563	312.57376
583.025	247.51889
583.487	267.46203
583.95	220.40986
584.412	286.51616
584.874	280.58601
585.336	272.55641
585.797	311.5735
586.259	261.53572
586.721	242.49347
587.182	266.54266
587.643	252.4982
588.105	241.4978
588.566	237.43572
589.027	204.43036
589.488	236.47029
589.949	284.59596
590.41	231.38931
590.87	283.56067
591.331	245.46245
591.791	249.49932
592.252	234.46522
592.712	238.50054
593.172	236.46373
593.632	305.57655
594.092	302.57942
594.552	308.56868
595.011	238.47516
595.471	269.52196
595.931	243.47218
596.39	257.53442
596.849	288.57899
597.308	289.54229
597.768	240.53294
598.227	253.53197
598.685	284.567
599.144	333.66591
599.603	328.6664
600.062	224.41005
600.52	275.52901
600.978	315.64218
601.437	311.61297
601.895	309.56067
602.353	369.69413
602.811	348.6564
603.269	369.74953
603.727	390.78802
604.184	353.67253
604.642	364.75742
605.099	410.79766
605.557	463.93874
606.014	468.82485
606.471	441.91416
606.928	486.84316
607.385	521.02468
607.842	672.19987
608.299	756.35507
608.755	597.15129
609.212	636.10739
609.668	626.08247
610.125	715.34959
610.581	716.34059
611.037	737.3145
611.493	647.2246
611.949	576.12269
612.405	545.87788
612.861	583.12047
613.316	544.06322
613.772	582.08389
614.227	602.14733
614.683	691.16633
615.138	602.13844
615.593	641.19371
616.048	667.22132
616.503	670.32853
616.958	599.2271
617.412	649.23678
617.867	635.12227
618.321	632.05002
618.776	677.1973
619.23	617.18081
619.684	596.10562
620.138	647.22579
620.592	572.154
621.046	588.1445
621.5	565.14481
621.954	594.10848
622.407	598.10106
622.861	542.1084
623.314	527.01362
623.768	528.03872
624.221	563.92028
624.674	488.96208
625.127	527.04674
625.58	482.94935
626.033	514.97289
626.485	418.87442
626.938	458.94875
627.39	402.82419
627.843	429.871
628.295	397.81229
628.747	382.80761
629.199	363.73734
629.651	401.80709
630.103	382.78
630.555	351.66807
631.006	368.77563
631.458	344.73333
631.909	377.78185
632.361	333.70664
632.812	310.65396
633.263	328.64511
633.714	362.70326
634.165	341.75546
634.616	271.59765
635.067	328.66944
635.518	304.67027
635.968	311.57695
636.419	291.58759
636.869	278.61629
637.319	265.57192
637.769	248.51996
638.219	311.69044
638.669	221.49758
639.119	232.53463
639.569	258.58433
640.019	237.51851
640.468	282.5902
640.918	294.66314
641.367	273.57579
641.816	251.53079
642.265	279.60652
642.714	244.53484
643.163	202.44427
643.612	212.48367
644.061	205.41451
644.51	197.42973
644.958	231.48314
645.406	223.50804
645.855	192.4518
646.303	227.50711
646.751	216.46947
647.199	256.55262
647.647	242.52978
648.095	200.44024
648.543	298.57671
648.99	240.546
649.438	257.57555
649.885	252.59389
650.333	255.47188
650.78	250.57495
651.227	286.658
651.674	232.50618
652.121	252.58465
652.568	268.61832
653.015	316.75422
653.461	227.51757
653.908	267.59277
654.354	271.61664
654.801	246.55149
655.247	260.54632
655.693	256.63757
656.139	256.58687
656.585	269.6158
657.031	227.50816
657.477	250.51743
657.922	249.54936
658.368	301.7059
658.813	317.69996
659.259	267.61245
659.704	252.56331
660.149	239.53612
660.594	277.6285
661.039	318.68673
661.484	369.82939
661.929	310.6898
662.373	262.63349
662.818	296.70027
663.262	277.63819
663.707	336.80654
664.151	375.86185
664.595	354.80562
665.039	374.87688
665.483	351.84526
665.927	349.77865
666.371	308.67824
666.814	363.81959
667.258	367.81711
667.701	429.86384
668.145	426.99173
668.588	378.87516
669.031	365.80929
669.474	414.93375
669.917	386.80605
670.36	401.93484
670.803	392.89208
671.245	465.90661
671.688	434.99042
672.13	379.80109
672.573	484.13873
673.015	481.06752
673.457	451.91274
673.899	488.09273
674.341	481.07372
674.783	465.03323
675.225	498.12934
675.666	405.91439
676.108	434.88135
676.549	511.11446
676.991	523.05522
677.432	487.89228
677.873	492.05141
678.314	511.1234
678.755	534.191
679.196	481.01876
679.637	537.20485
680.078	552.18087
680.518	564.1993
680.959	559.22189
681.399	482.1089
681.839	558.24101
682.28	532.2051
682.72	488.03249
683.16	585.32451
683.6	576.19455
684.039	549.04081
684.479	516.16691
684.919	501.06305
685.358	565.31281
685.798	561.34799
686.237	548.21572
686.676	585.23457
687.115	552.18647
687.554	604.29785
687.993	529.0737
688.432	547.14315
688.871	543.12625
689.309	542.18692
689.748	560.06506
690.186	588.27806
690.625	569.21494
691.063	550.20801
691.501	525.19716
691.939	592.34282
692.377	590.30847
692.815	529.16304
693.253	619.34638
693.69	565.12967
694.128	567.25349
694.565	584.26774
695.003	572.32831
695.44	567.21536
695.877	516.10993
696.314	578.1282
696.751	556.16071
697.188	553.16082
697.625	622.28952
698.061	549.20708
698.498	579.27899
698.934	627.36322
699.371	515.11751
699.807	606.29824
700.243	554.22089
700.679	544.12908
701.115	561.20973
701.551	521.13199
701.987	530.09606
702.422	546.18866
702.858	593.2832
703.294	551.14236
703.729	567.26965
704.164	549.21213
704.599	537.09642
705.035	568.15589
705.47	551.22821
705.904	492.06185
706.339	582.23387
706.774	509.10118
707.209	536.13373
707.643	537.18609
708.078	531.19088
708.512	518.19613
708.946	585.27772
709.38	554.20252
709.814	542.13644
710.248	553.23674
710.682	524.14793
711.116	521.14351
711.549	566.3407
711.983	532.12919
712.416	588.26505
712.85	561.28245
713.283	530.15426
713.716	636.44564
714.149	628.3518
714.582	570.16471
715.015	572.31208
715.448	576.32865
715.881	584.15936
716.313	585.24591
716.746	572.22689
717.178	560.23155
717.61	591.36788
718.043	580.32089
718.475	609.33806
718.907	655.49576
719.339	539.11794
719.77	547.18706
720.202	580.34054
720.634	568.26171
721.065	597.28361
721.497	617.36927
721.928	545.22833
722.359	558.2292
722.79	577.25757
723.221	619.41349
723.652	635.48548
724.083	610.23925
724.514	593.23451
724.945	587.25288
725.375	521.11085
725.806	630.42332
726.236	634.47126
726.666	594.27633
727.096	613.36321
727.526	635.45761
727.956	606.24175
728.386	660.45904
728.816	610.40102
729.246	607.33533
729.675	587.31449
730.105	684.50396
730.534	657.37461
730.964	642.46635
731.393	680.51329
731.822	654.50575
732.251	684.5542
732.68	693.4513
733.109	623.38776
733.537	609.33077
733.966	675.49998
734.395	712.45007
734.823	619.2567
735.251	674.44907
735.68	738.63635
736.108	746.66848
736.536	684.43527
736.964	677.39651
737.392	640.44476
737.82	704.49871
738.247	688.46652
738.675	730.53931
739.102	672.50287
739.53	694.57757
739.957	751.70755
740.384	751.63309
740.811	746.6719
741.238	686.49195
741.665	721.47009
742.092	668.42569
742.519	711.56043
742.945	690.47269
743.372	716.57175
743.798	761.72611
744.225	687.4514
744.651	713.58972
745.077	753.65337
745.503	740.5911
745.929	762.59982
746.355	765.6734
746.781	754.64413
747.207	740.52014
747.632	706.52444
748.058	815.76784
748.483	754.51484
748.908	763.66481
749.334	796.7028
749.759	722.49911
750.184	744.55377
750.609	763.64516
751.033	778.6026
751.458	783.51862
751.883	784.69876
752.307	748.54074
752.732	728.60681
753.156	773.671
753.58	811.66578
754.005	782.74114
754.429	745.53283
754.853	766.66326
755.277	747.54867
755.7	838.79579
756.124	763.6606
756.548	751.55697
756.971	777.65748
757.394	786.77671
757.818	727.66028
758.241	755.68758
758.664	803.76764
759.087	699.37031
759.51	800.73419
759.933	765.60719
760.356	796.78546
760.778	794.69925
761.201	772.64147
761.623	789.66711
762.046	794.63486
762.468	752.58436
762.89	800.71873
763.312	754.61567
763.734	711.51264
764.156	728.58739
764.578	698.41765
765	749.6046
765.421	721.62213
765.843	744.7287
766.264	779.64093
766.686	768.69303
767.107	679.46452
767.528	656.48512
767.949	701.58739
768.37	701.52622
768.791	679.46264
769.212	638.44141
769.632	628.31009
770.053	651.54666
770.473	708.52354
770.894	639.44104
771.314	714.50554
771.734	589.24031
772.154	654.51054
772.575	666.37164
772.994	570.17155
773.414	646.3894
773.834	636.43105
774.254	575.28019
774.673	581.28555
775.093	623.3889
775.512	588.31376
775.931	618.41658
776.351	545.23884
776.77	555.23765
777.189	534.162
777.607	530.24519
778.026	511.17315
778.445	518.19233
778.864	570.33563
779.282	507.12253
779.701	489.14181
780.119	477.11854
780.537	520.19313
780.955	528.23614
781.373	483.10612
781.791	443.92527
782.209	471.00362
782.627	464.14008
783.045	473.0044
783.462	437.0445
783.88	459.10677
784.297	430.01226
784.715	409.98935
785.132	453.01943
785.549	435.01671
785.966	395.93784
786.383	390.90544
786.8	378.82887
787.217	365.81939
787.633	371.87715
788.05	377.84702
788.466	392.87114
788.883	357.86556
789.299	388.8812
789.715	380.87282
790.131	378.88937
790.547	359.85174
790.963	373.87676
791.379	321.77655
791.795	348.75344
792.21	361.79909
792.626	287.65489
793.041	340.79936
793.457	336.79181
793.872	329.73707
794.287	277.6364
794.702	270.64248
795.117	268.64286
795.532	215.52544
795.947	379.86163
796.362	293.67235
796.776	366.81134
797.191	262.61985
797.605	171.39446
798.02	257.60485
798.434	272.58312
798.848	202.48622
799.262	236.56848
799.676	280.65807
800.09	234.55939
800.504	265.621
800.918	163.37181
801.331	250.63594
801.745	232.51732
802.158	198.48417
802.572	217.5131
802.985	223.52484
803.398	202.4707
803.811	202.50803
804.224	228.55212
804.637	204.47442
805.05	188.42684
805.462	200.48049
805.875	116.29833
806.288	151.35913
806.7	174.42959
807.112	163.37196
807.525	149.36293
807.937	109.26778
808.349	157.38755
808.761	141.34281
809.173	203.48037
809.584	166.40366
809.996	97.23654
810.408	142.36188
810.819	181.41719
811.231	131.33484
811.642	188.43842
812.053	297.67606
812.464	387.86485
812.875	352.85488
813.286	235.58751
813.697	202.46123
814.108	133.32154
814.519	163.35722
814.929	155.38963
815.34	122.29333
815.75	114.28744
816.16	122.30144
816.571	128.32919
816.981	126.29477
817.391	93.22382
817.801	104.25677
818.211	90.21401
818.62	66.15911
819.03	138.33419
819.44	135.3487
819.849	64.16149
820.259	124.31444
820.668	65.16004
821.077	64.15912
821.486	93.22323
821.895	127.31073
822.304	89.23496
822.713	83.19588
823.122	99.24582
823.531	53.12615
823.939	82.1994
824.348	93.22526
824.756	93.23202
825.164	135.33582
825.573	52.13088
825.981	104.2564
826.389	115.28659
826.797	83.20737
827.205	84.19234
827.612	96.2358
828.02	38.0898
828.428	83.21081
828.835	93.24362
829.243	105.24867
829.65	97.23989
830.057	101.24372
830.464	109.26362
830.871	111.26379
831.278	67.16204
831.685	40.0899
832.092	118.2863
832.499	80.17477
832.905	98.24675
833.312	32.0736
833.718	78.194
834.124	13.03006
834.531	77.19377
834.937	62.15923
835.343	71.17126
835.749	89.20719
836.155	87.2269
836.561	62.15263
836.966	71.17353
837.372	85.21559
837.777	8.02014
838.183	60.13374
838.588	44.10967
838.993	81.19671
839.399	25.06158
839.804	46.11249
840.209	61.15532
840.613	51.11389
841.018	40.10172
841.423	107.27235
841.828	46.11669
842.232	85.20983
842.637	42.09957
843.041	31.07988
843.445	72.18031
843.849	2.00501
844.253	83.19664
844.657	47.11866
845.061	46.10482
845.465	49.11869
845.869	81.18767
846.272	45.10994
846.676	63.15243
847.079	26.06652
847.483	79.19652
847.886	77.18693
848.289	27.07243
848.692	48.12185
849.095	24.05808
849.498	122.30596
849.901	61.14004
850.304	51.12218
850.707	73.18574
851.109	96.24145
851.512	21.05199
851.914	-19.04855
852.316	51.12922
852.718	-12.03136
853.121	27.06658
853.523	34.07992
853.925	-22.05817
854.326	39.09786
854.728	26.06724
855.13	7.01821
855.531	-15.03636
855.933	65.15596
856.334	4.01007
856.736	11.0249
857.137	10.02349
857.538	58.14583
857.939	46.11391
858.34	85.20619
858.741	56.14642
859.142	48.11559
859.542	17.04515
859.943	52.12938
860.343	6.015
860.744	65.15845
861.144	70.17041
861.544	-16.039
861.945	41.1048
862.345	64.15639
862.745	24.06002
863.145	59.14108
863.544	18.04581
863.944	56.13239
864.344	64.15883
864.743	56.13903
865.143	29.07486
865.542	8.01874
865.941	37.09194
866.34	45.1081
866.74	42.11298
867.139	-3.00727
867.537	65.16539
867.936	29.07019
868.335	51.1299
868.734	59.15071
869.132	46.10715
869.531	96.23056
869.929	29.0665
870.327	25.0603
870.726	70.17416
871.124	37.08685
871.522	60.15275
871.92	53.13083
872.318	18.04433
872.715	51.12641
873.113	45.1099
873.511	71.17643
873.908	-6.01531
874.306	32.07994
874.703	39.0979
875.1	100.25386
875.497	35.08427
875.894	25.0616
876.291	38.09358
876.688	29.07514
877.085	52.12489
877.482	53.13275
877.878	45.10855
878.275	40.1019
878.671	64.14236
879.068	34.08243
879.464	48.1162
879.86	44.10431
880.256	63.15529
880.652	42.10707
881.048	87.21437
881.444	28.06702
881.84	69.17495
882.236	64.16068
882.631	62.15201
883.027	58.14041
883.422	65.16591
883.817	-1.00254
884.213	53.13605
884.608	-14.03477
885.003	42.10152
885.398	45.11284
885.793	23.05807
886.188	-1.00251
886.582	58.1487
886.977	88.20756
887.371	36.09136
887.766	1.00251
888.16	74.18405
888.554	43.10658
888.949	67.16788
889.343	76.18495
889.737	-14.03772
890.131	24.06054
890.525	33.08471
890.918	76.19053
891.312	49.11739
891.706	78.20381
892.099	85.21513
892.492	51.11017
892.886	49.12003
893.279	56.14261
893.672	41.10462
894.065	70.1748
894.458	49.12335
894.851	45.11047
895.244	13.03344
895.637	75.17995
896.029	19.04676
896.422	26.06386
896.814	64.15883
897.206	25.05987
897.599	60.14825
897.991	34.08252
898.383	45.10653
898.775	60.13529
899.167	22.05163
899.559	75.18914
899.951	50.11798
900.342	54.13733
900.734	-47.11874
901.125	44.11564
901.517	27.0666
901.908	85.20263
902.299	35.08586
902.69	54.12742
903.082	39.09471
903.473	7.01691
903.863	26.06666
904.254	25.05836
904.645	84.20778
905.036	27.06569
905.426	65.14851
905.817	43.10572
906.207	37.08844
906.597	28.06581
906.987	85.2191
907.378	16.04073
907.768	63.16627
908.158	9.02213
908.547	-19.04969
908.937	86.2194
909.327	35.08529
909.717	91.22949
910.106	55.13207
910.495	75.1865
910.885	68.17177
911.274	71.17688
911.663	102.25664
912.052	49.121
912.441	50.1272
912.83	34.07835
913.219	61.15942
913.608	31.07624
913.997	31.07801
914.385	47.11243
914.774	80.19381
915.162	27.06466
915.55	68.16406
915.939	29.0735
916.327	44.10999
916.715	33.08438
917.103	96.23441
917.491	78.19209
917.878	89.21736
918.266	31.08068
918.654	70.17827
919.041	33.08642
919.429	30.07112
919.816	38.09657
920.203	32.0779
920.591	61.15102
920.978	51.12492
921.365	49.12862
921.752	75.17803
922.139	0
922.525	-4.00971
922.912	48.11716
923.299	69.17096
923.685	22.05768
924.072	74.16992
924.458	57.14107
924.844	14.03488
925.231	60.13943
925.617	19.0486
926.003	34.08717
926.389	14.03555
926.774	42.10662
927.16	57.14143
927.546	35.08959
927.931	68.16919
928.317	16.03712
928.702	53.12537
929.088	-27.06483
929.473	42.10704
929.858	29.0704
930.243	15.03625
930.628	13.03186
931.013	19.04737
931.398	78.17846
931.783	36.09503
932.167	68.16573
932.552	41.10292
932.937	72.17803
933.321	38.09558
933.705	1.00254
934.09	99.24806
934.474	65.154
934.858	31.08068
935.242	19.04432
935.626	47.12039
936.009	31.08272
936.393	18.04607
936.777	38.09753
937.16	38.09909
937.544	49.11551
937.927	13.03321
938.311	46.1124
938.694	84.22091
939.077	54.1292
939.46	38.09355
939.843	72.14956
940.226	10.02583
940.609	-33.07704
940.991	19.04863
941.374	-15.03711
941.757	30.07432
942.139	41.09228
942.522	43.1018
942.904	65.15584
943.286	77.19474
943.668	78.20109
944.05	51.12562
944.432	17.04221
944.814	70.17181
945.196	-11.02711
945.578	21.0502
945.959	52.12184
946.341	84.20495
946.722	35.08241
947.104	24.05766
947.485	29.06778
947.866	49.12349
948.247	28.07093
948.628	82.19888
949.009	10.02579
949.39	48.11956
949.771	36.08399
950.152	49.12029
950.532	-5.01242
950.913	57.13734
951.293	7.01904
951.674	-7.01711
952.054	47.11653
952.434	31.07723
952.814	36.0859
953.194	80.20832
953.574	74.1815
953.954	52.12346
954.334	34.08499
954.714	28.06852
955.093	64.15697
955.473	40.10021
955.853	25.065
956.232	69.18855
956.611	88.20958
956.99	-5.01269
957.37	96.24267
957.749	21.05039
958.128	38.09595
958.506	39.10137
958.885	26.06591
959.264	30.0738
959.643	43.09801
960.021	52.12881
960.4	2.00458
960.778	95.2321
961.156	13.03281
961.535	55.12809
961.913	69.16088
962.291	30.07724
962.669	66.16671
963.047	89.22557
963.424	30.07683
963.802	84.20526
964.18	45.11397
964.557	70.16061
964.935	60.14191
965.312	14.03668
965.69	99.24573
966.067	62.15066
966.444	42.10366
966.821	17.04408
967.198	60.1453
967.575	75.18357
967.952	72.16897
968.329	54.13131
968.705	42.09024
969.082	64.16374
969.458	-39.09514
969.835	49.11931
970.211	31.07982
970.587	67.1663
970.963	42.1079
971.339	18.04726
971.715	70.17416
972.091	56.13776
972.467	48.11977
972.843	22.05488
973.219	66.15803
973.594	36.09439
973.97	78.18469
974.345	32.07685
974.721	29.07051
975.096	35.08494
975.471	69.1631
975.846	50.12013
976.221	27.06885
976.596	5.01209
976.971	42.10385
977.346	6.01409
977.72	54.13747
978.095	23.05972
978.469	49.11699
978.844	58.14562
979.218	-8.01939
979.593	64.15295
979.967	11.02699
980.341	37.08542
980.715	29.07335
981.089	39.09783
981.463	15.03469
981.837	7.01724
982.21	45.10484
982.584	-9.02198
982.957	0
983.331	54.12757
983.704	42.10336
984.078	16.03968
984.451	65.16193
984.824	9.02209
985.197	49.11904
985.57	47.11794
985.943	89.21825
986.316	67.16412
986.688	35.08465
987.061	83.1933
987.434	3.00788
987.806	34.08271
988.179	6.01428
988.551	78.19689
988.923	24.05939
989.295	68.16937
989.667	4.00964
990.039	16.03978
990.411	29.06703
990.783	59.13562
991.155	14.03387
991.527	62.15235
991.898	-10.02519
992.27	22.0547
992.641	47.11798
993.012	55.1293
993.384	25.05992
993.755	34.08692
994.126	45.10834
994.497	-15.03726
994.868	53.12168
995.239	78.18804
995.61	-2.00508
995.98	-14.03441
996.351	-4.01
996.722	8.01871
997.092	-2.00478
997.462	-30.07117
997.833	49.11618
998.203	88.21183
998.573	-7.01761
998.943	53.12421
999.313	35.08411
999.683	34.08184
1000.053	68.1559
1000.423	56.13592
1000.792	45.11672
1001.162	36.08882
1001.531	22.05452
1001.901	40.09988
1002.27	67.14925
1002.639	29.07436
1003.009	33.07873
1003.378	12.03088
1003.747	46.10875
1004.116	17.04093
1004.485	43.1029
1004.853	55.1392
1005.222	8.02032
1005.591	49.11636
1005.959	23.0521
1006.328	2.00454
1006.696	35.08465
1007.064	41.10329
1007.433	62.1546
1007.801	83.20248
1008.169	47.11874
1008.537	59.13039
1008.905	7.01644
1009.273	33.08176
1009.64	1.00241
1010.008	62.14743
1010.375	62.1502
1010.743	81.18589
1011.11	24.05707
1011.478	77.18959
1011.845	104.24196
1012.212	47.10643
1012.579	57.13972
1012.946	32.07642
1013.313	72.17062
1013.68	36.08114
1014.047	32.0765
1014.414	55.12975
1014.78	5.01252
1015.147	74.17813
1015.513	23.05569
1015.88	60.15312
1016.246	95.23253
1016.612	76.17305
1016.978	39.09574
1017.344	19.04721
1017.71	70.17003
1018.076	25.05923
1018.442	62.15912
1018.808	30.07524
1019.174	34.08552
1019.539	97.22117
1019.905	-3.00715
1020.27	-10.02494
1020.636	55.13172
1021.001	40.09592
1021.366	15.03625
1021.731	66.16921
1022.096	16.04059
1022.461	39.09247
1022.826	23.05493
1023.191	52.13634
1023.556	55.12874
1023.92	55.13507
1024.285	53.12924
1024.649	28.06888
1025.014	70.1727
1025.378	75.18765
1025.742	52.12905
1026.107	29.06586
1026.471	83.19246
1026.835	18.04487
1027.199	32.07726
1027.562	23.05373
1027.926	72.17528
1028.29	23.05846
1028.654	68.15583
1029.017	12.02969
1029.381	22.05282
1029.744	40.10216
1030.107	58.13696
1030.471	45.10781
1030.834	40.09115
1031.197	87.20803
1031.56	38.08984
1031.923	45.1164
1032.286	71.166
1032.648	56.13373
1033.011	8.01851
1033.374	70.16382
1033.736	10.02646
1034.099	60.14591
1034.461	23.05836
1034.823	-14.03525
1035.185	51.1283
1035.548	50.12163
1035.91	43.1031
1036.272	54.12276
1036.634	45.11015
1036.995	24.05667
1037.357	-4.00983
1037.719	30.0732
1038.08	70.16549
1038.442	-13.03122
1038.803	63.15082
1039.165	34.08601
1039.526	18.04374
1039.887	46.1101
1040.248	4.00993
1040.609	31.07683
1040.97	52.12697
1041.331	43.10895
1041.692	17.03992
1042.053	38.0867
1042.413	29.06783
1042.774	76.18384
1043.134	85.20092
1043.495	37.09318
1043.855	30.07301
1044.215	49.12158
1044.576	-6.01449
1044.936	60.13722
1045.296	60.14939
1045.656	82.19993
1046.016	46.11106
1046.375	40.09716
1046.735	21.04786
1047.095	22.05175
1047.454	37.07859
1047.814	-3.00728
1048.173	63.15007
1048.533	43.0986
1048.892	-29.07061
1049.251	60.15026
1049.61	-7.01741
1049.969	10.02374
1050.328	65.14041
1050.687	32.07808
1051.046	16.03918
1051.405	71.17585
1051.763	11.02548
1052.122	32.08002
1052.48	17.04192
1052.839	13.03079
1053.197	38.0896
1053.555	60.13645
1053.914	63.15363
1054.272	65.15661
1054.63	4.00986
1054.988	6.01437
1055.345	25.0541
1055.703	24.05801
1056.061	35.09022
1056.419	39.10109
1056.776	47.11397
1057.134	6.014
1057.491	63.15729
1057.848	36.0898
1058.206	30.07079
1058.563	-20.04471
1058.92	60.13794
1059.277	75.18405
1059.634	55.1292
1059.991	65.15519
1060.348	11.02504
1060.704	45.10727
1061.061	95.21862
1061.418	20.04874
1061.774	1.00249
1062.131	18.04782
1062.487	39.09133
1062.843	33.08248
1063.199	40.09959
1063.555	43.09971
1063.911	36.0911
1064.267	85.17581
1064.623	-2.0049
1064.979	116.27116
1065.335	59.1407
1065.691	25.06017
1066.046	49.1077
1066.402	39.08875
1066.757	41.10358
1067.112	55.13477
1067.468	18.04274
1067.823	27.06515
1068.178	24.0583
1068.533	56.13552
1068.888	68.16182
1069.243	19.04713
1069.598	21.05127
1069.952	11.02495
1070.307	-5.01249
1070.662	-8.01919
1071.016	-5.01132
1071.371	54.12266
1071.725	61.14553
1072.079	16.0387
1072.434	20.04884
1072.788	9.02159
1073.142	45.11072
1073.496	16.03818
1073.85	5.01169
1074.203	49.11882
1074.557	63.16705
1074.911	82.19439
1075.265	25.05836
1075.618	82.19888
1075.971	80.18906
1076.325	62.15711
1076.678	37.08477
1077.031	37.08389
1077.385	30.06632
1077.738	50.11279
1078.091	-7.01609
1078.444	91.20942
1078.796	50.12259
1079.149	42.10454
1079.502	-18.04305
1079.855	-3.00706
1080.207	62.15229
1080.56	25.06484
1080.912	66.16007
1081.264	17.04116
1081.617	22.05386
1081.969	5.0127
1082.321	27.06616
1082.673	13.02987
1083.025	59.13962
1083.377	-218.49455
1083.728	70.16254
1084.08	32.08008
1084.432	47.11333
1084.783	47.1101
1085.135	6.01515
1085.486	-14.03242
1085.838	39.09617
1086.189	35.08513
1086.54	57.13583
1086.891	8.02037
1087.242	54.13127
1087.593	95.22915
1087.944	51.1153
1088.295	33.07522
1088.646	33.08017
1088.996	32.07729
1089.347	23.05667
1089.698	21.04987
1090.048	52.1349
1090.398	53.12275
1090.749	14.0337
1091.099	7.01772
1091.449	29.07246
1091.799	47.11764
1092.149	-52.1291
1092.499	16.03924
1092.849	47.11942
1093.199	72.17959
1093.548	40.09621
1093.898	32.08025
1094.248	52.13346
1094.597	23.05894
1094.947	18.04823
1095.296	19.04714
1095.645	50.12993
1095.994	69.16499
1096.343	28.07068
1096.692	11.02906
1097.041	28.07601
1097.39	59.14762
1097.739	17.0444
1098.088	50.13384
1098.437	-19.05045
1098.785	66.17731
1099.134	46.12212
1099.482	32.08818
1099.83	47.12346
1100.179	25.06542
1100.527	51.13537
1100.875	37.09795
1101.223	41.10893
1101.571	39.10786
1101.919	-10.02637
1102.267	48.13506
1102.615	7.0225
1102.962	18.0579
1103.31	9.02891
1103.658	24.07718
