Data from N2 R5 sample 10_Subt2__1__13-33-14-239.txt Node

Date: Fri Aug 29 13:33:14 PDT 2025
User: uwsun
Spectrometer: HDX01956
Trigger mode: 0
Integration Time (sec): 5.000000E-1
Scans to average: 1
Nonlinearity correction enabled: true
Boxcar width: 0
Storing dark spectrum: false
XAxis mode: Wavelengths
Number of Pixels in Spectrum: 2068
>>>>>Begin Spectral Data<<<<<
194.03	414.08414
194.578	387.16083
195.127	389.14768
195.676	398.17675
196.225	428.05071
196.773	487.22718
197.321	687.62848
197.87	868.79937
198.418	919.85395
198.966	885.81221
199.513	814.59799
200.061	822.64329
200.609	896.88468
201.156	836.39004
201.704	882.72679
202.251	818.73106
202.798	875.78687
203.345	949.80439
203.892	912.77804
204.438	934.7058
204.985	826.51121
205.532	971.96789
206.078	909.71985
206.624	948.7689
207.17	970.68984
207.716	872.63406
208.262	920.32957
208.808	856.62689
209.354	968.77604
209.899	1000.93419
210.445	923.75318
210.99	875.62077
211.535	1017.77988
212.08	958.67853
212.625	959.84021
213.17	944.8466
213.715	917.51387
214.259	982.7153
214.804	977.84244
215.348	984.6801
215.892	963.75136
216.436	1027.76925
216.98	967.59847
217.524	1004.77131
218.068	997.91508
218.612	938.82966
219.155	886.60574
219.698	903.65695
220.242	952.83596
220.785	867.57243
221.328	842.6608
221.871	859.7312
222.414	877.72062
222.956	750.44241
223.499	812.42733
224.041	820.50926
224.583	823.38678
225.126	899.50785
225.668	818.57115
226.21	766.55029
226.751	763.30496
227.293	818.4672
227.835	783.52296
228.376	861.55044
228.918	844.69588
229.459	810.59834
230	758.44104
230.541	885.57344
231.082	816.56203
231.622	841.51203
232.163	830.57893
232.704	861.67093
233.244	792.56497
233.784	852.64834
234.324	801.35327
234.864	858.49816
235.404	863.60167
235.944	832.54901
236.484	875.71508
237.023	839.54315
237.563	765.39411
238.102	846.55644
238.641	830.66313
239.18	841.51821
239.719	810.61553
240.258	904.54394
240.797	857.58815
241.335	886.68564
241.874	862.22297
242.412	870.61589
242.95	873.60099
243.488	878.53237
244.026	838.48853
244.564	848.31521
245.102	834.43704
245.64	864.62143
246.177	780.36451
246.715	941.72164
247.252	881.54933
247.789	861.20425
248.326	768.44805
248.863	876.44557
249.4	838.46623
249.936	863.3249
250.473	910.60339
251.009	868.5101
251.546	891.47325
252.082	947.5334
252.618	869.46055
253.154	888.62733
253.69	893.51489
254.226	810.5035
254.761	890.50449
255.297	888.45168
255.832	857.55346
256.367	916.62911
256.903	892.46149
257.438	921.63422
257.972	833.41282
258.507	857.48267
259.042	901.45292
259.576	839.34802
260.111	927.60751
260.645	898.44602
261.179	902.58016
261.713	942.54027
262.247	933.60513
262.781	907.387
263.315	871.62858
263.849	892.70365
264.382	957.62992
264.915	957.65268
265.449	894.63342
265.982	1007.66759
266.515	958.74269
267.048	920.41569
267.58	984.56273
268.113	864.38244
268.646	963.77083
269.178	921.50791
269.71	969.53309
270.243	994.65278
270.775	954.82577
271.307	993.76869
271.838	1024.7842
272.37	988.79739
272.902	1001.64941
273.433	971.52835
273.965	897.64592
274.496	975.80997
275.027	937.73929
275.558	982.7504
276.089	951.71988
276.62	1036.94772
277.15	984.80094
277.681	968.51528
278.211	1027.84259
278.741	907.45109
279.272	965.59164
279.802	998.83762
280.332	940.62366
280.861	1046.81021
281.391	978.59046
281.921	1030.79751
282.45	1064.9272
282.98	1011.95224
283.509	1016.61837
284.038	981.60294
284.567	1013.70434
285.096	1047.81242
285.625	1020.63495
286.153	1070.75822
286.682	1035.66333
287.21	967.6877
287.739	1022.71814
288.267	1016.75813
288.795	1100.09011
289.323	1015.67072
289.851	1090.77636
290.378	1053.63707
290.906	1029.7586
291.433	1053.87199
291.961	1068.65906
292.488	1140.97449
293.015	1090.76349
293.542	1095.94487
294.069	1007.7614
294.596	1152.97327
295.122	1134.84736
295.649	1100.63573
296.175	1151.91336
296.702	1192.95854
297.228	1121.88369
297.754	1122.68377
298.28	1193.77123
298.806	1219.93962
299.332	1170.67772
299.857	1193.75092
300.383	1255.13386
300.908	1094.79981
301.433	1176.90332
301.958	1185.81037
302.483	1174.96404
303.008	1197.98582
303.533	1241.18342
304.058	1236.90159
304.582	1171.80995
305.107	1140.02846
305.631	1240.81434
306.155	1270.86313
306.679	1210.81021
307.203	1252.83539
307.727	1250.89517
308.251	1251.00449
308.775	1218.83429
309.298	1221.85914
309.822	1310.11329
310.345	1330.94479
310.868	1300.93309
311.391	1360.08308
311.914	1343.09485
312.437	1292.81167
312.96	1286.86268
313.482	1381.95677
314.005	1352.09744
314.527	1434.30706
315.049	1433.2017
315.571	1435.77727
316.093	1460.12687
316.615	1491.05438
317.137	1547.78942
317.659	1554.14176
318.18	1519.08681
318.702	1499.93347
319.223	1519.59808
319.744	1503.811
320.265	1473.99883
320.786	1548.10069
321.307	1630.18664
321.828	1651.88866
322.348	1585.95964
322.869	1621.95893
323.389	1699.05263
323.909	1683.9162
324.43	1704.11162
324.95	1620.842
325.47	1695.0878
325.989	1698.94022
326.509	1716.70533
327.029	1828.80292
327.548	1871.79115
328.067	1858.01237
328.587	1872.16535
329.106	1772.78356
329.625	1956.44596
330.144	1827.81769
330.662	1832.80853
331.181	1950.87598
331.7	1890.85117
332.218	1980.58604
332.736	2016.84788
333.255	2055.80409
333.773	2026.85103
334.291	2100.09134
334.808	2099.60099
335.326	2146.64072
335.844	2200.67548
336.361	2240.99864
336.879	2125.65709
337.396	2252.77103
337.913	2288.5712
338.43	2328.4683
338.947	2352.66292
339.464	2300.2508
339.981	2313.58949
340.497	2466.75906
341.014	2364.66881
341.53	2454.31943
342.046	2527.62101
342.562	2476.7224
343.078	2510.43051
343.594	2590.45863
344.11	2646.40455
344.626	2590.62892
345.141	2683.16684
345.657	2727.16039
346.172	2633.37673
346.687	2725.11918
347.202	2710.01167
347.717	2860.18871
348.232	2859.37593
348.747	2866.98416
349.261	2820.71961
349.776	2945.9944
350.29	2913.12747
350.805	3084.14884
351.319	3015.87653
351.833	2921.73735
352.347	3008.85199
352.861	3033.77188
353.374	3142.71568
353.888	3099.88715
354.401	3117.63866
354.915	3107.46444
355.428	3209.83643
355.941	3287.49408
356.454	3399.36177
356.967	3418.50133
357.48	3356.41452
357.993	3385.64598
358.505	3356.57276
359.018	3544.46671
359.53	3533.35186
360.042	3556.06286
360.554	3460.42602
361.066	3464.39069
361.578	3521.95532
362.09	3491.27598
362.602	3551.91551
363.113	3667.00674
363.625	3648.88028
364.136	3686.78829
364.647	3564.88875
365.158	3877.79584
365.669	3899.87506
366.18	3830.83632
366.691	3902.56384
367.201	3890.79532
367.712	3960.54734
368.222	3895.57345
368.733	3980.31807
369.243	4195.23866
369.753	4325.31085
370.263	4264.39905
370.773	4286.45843
371.282	4364.24386
371.792	4345.02884
372.301	4549.09918
372.811	4647.26616
373.32	4566.76145
373.829	4802.8518
374.338	5025.76376
374.847	5041.7642
375.356	5284.82236
375.865	5344.86314
376.373	5665.071
376.882	5878.15582
377.39	5971.32692
377.898	5923.38609
378.407	6259.19938
378.915	6680.32865
379.423	6887.71788
379.93	7104.81207
380.438	7295.67563
380.946	7699.94294
381.453	8018.95111
381.96	8181.99841
382.468	8936.70848
382.975	9549.08988
383.482	9957.81744
383.989	9946.40151
384.495	10224.75201
385.002	10640.25589
385.509	11341.88029
386.015	12102.56749
386.521	12805.50565
387.028	13096.53288
387.534	13640.05282
388.04	14367.02297
388.546	14338.06335
389.051	14766.1649
389.557	16211.13338
390.063	17795.94405
390.568	18589.40371
391.073	18878.70232
391.578	19623.61669
392.084	19781.4381
392.589	20079.03023
393.093	21505.08557
393.598	23709.11926
394.103	26085.17293
394.607	29094.27371
395.112	31070.22246
395.616	32432.74518
396.12	34915.38278
396.624	38361.44672
397.128	41396.0181
397.632	40674.17919
398.136	39172.79427
398.639	36273.96993
399.143	32503.66402
399.646	28888.45294
400.15	25083.82847
400.653	20124.16724
401.156	13866.23708
401.659	5169.95759
402.162	1054.15589
402.664	0
403.167	0
403.67	0
404.172	0
404.674	0
405.176	0
405.678	0
406.18	0
406.682	0
407.184	0
407.686	0
408.187	0
408.688	0
409.19	0
409.691	0
410.192	0
410.693	0
411.194	435.30976
411.694	4082.94878
412.195	8864.71461
412.696	12089.80453
413.196	12760.96929
413.696	12863.67595
414.196	13703.56671
414.696	17261.84252
415.196	21764.24417
415.696	29583.19008
416.196	36460.31858
416.695	40057.39798
417.195	41392.74103
417.694	42311.08144
418.194	43882.52025
418.693	44704.85811
419.192	45402.14938
419.691	45553.65409
420.19	45814.20583
420.688	45009.46055
421.187	43529.59747
421.685	41047.68257
422.184	37636.25565
422.682	32437.56045
423.18	27382.99895
423.678	24281.89102
424.176	22551.38286
424.674	20891.75384
425.172	20165.84034
425.669	19225.95937
426.167	17829.11271
426.664	16267.97548
427.161	14894.02461
427.659	13850.06619
428.156	12933.13914
428.652	12091.31021
429.149	11581.92752
429.646	11139.9211
430.143	10641.99701
430.639	9971.16617
431.135	9383.72187
431.632	8850.34471
432.128	8340.16584
432.624	7755.75789
433.12	7388.35114
433.616	7164.41791
434.111	6669.49291
434.607	6521.78905
435.103	6559.99655
435.598	6425.61439
436.093	6098.56057
436.588	5826.22322
437.083	5486.9113
437.578	5244.79696
438.073	4910.79533
438.568	4856.89075
439.062	4783.7242
439.557	4645.95021
440.051	4370.94455
440.546	4066.08162
441.04	4108.24276
441.534	4043.51296
442.028	3983.44414
442.522	3819.5307
443.015	3805.322
443.509	3711.75863
444.002	3682.7826
444.496	3560.54138
444.989	3509.95233
445.482	3544.00229
445.975	3491.69494
446.468	3341.68056
446.961	3292.72552
447.454	3263.94552
447.947	3291.05221
448.439	3222.27655
448.931	3069.06442
449.424	3115.53572
449.916	3158.36969
450.408	3018.16586
450.9	2951.47194
451.392	2871.69945
451.884	2893.41517
452.375	2727.72204
452.867	2787.49392
453.358	2692.47678
453.849	2736.30165
454.341	2616.55417
454.832	2639.41619
455.323	2577.85895
455.814	2624.69502
456.304	2597.73233
456.795	2521.75443
457.285	2530.7397
457.776	2535.85479
458.266	2402.96665
458.756	2376.07863
459.247	2254.0389
459.737	2245.05978
460.226	2187.91846
460.716	2184.14404
461.206	2186.20014
461.695	2102.40209
462.185	2059.20608
462.674	2141.15123
463.163	2037.06172
463.653	2025.92258
464.142	1878.33433
464.63	1982.4369
465.119	1856.24112
465.608	1845.2507
466.096	1759.14425
466.585	1790.3353
467.073	1786.45964
467.561	1794.48503
468.05	1761.39571
468.538	1776.58739
469.026	1763.51076
469.513	1614.14069
470.001	1609.33456
470.489	1620.46205
470.976	1568.4147
471.463	1601.67062
471.951	1454.64309
472.438	1386.42423
472.925	1438.43693
473.412	1411.61946
473.899	1436.45522
474.385	1280.55103
474.872	1314.43403
475.359	1360.59548
475.845	1211.15184
476.331	1256.30916
476.817	1245.5703
477.303	1189.41727
477.789	1172.50028
478.275	1129.53269
478.761	1108.47311
479.247	1056.29418
479.732	1110.54459
480.218	1091.6571
480.703	1074.54008
481.188	1037.21449
481.673	991.30547
482.158	948.11875
482.643	958.51605
483.128	948.26728
483.612	962.34591
484.097	981.47858
484.581	843.23631
485.066	885.35241
485.55	757.04531
486.034	786.06213
486.518	773.16876
487.002	747.20587
487.486	732.19393
487.969	747.21608
488.453	726.25916
488.936	705.05732
489.42	714.05317
489.903	716.25689
490.386	699.70534
490.869	652.97554
491.352	709.22018
491.835	667.93475
492.318	594.94308
492.8	650.9164
493.283	682.23094
493.765	602.06853
494.247	653.09128
494.73	607.95186
495.212	595.05744
495.694	570.96384
496.175	536.92601
496.657	597.03467
497.139	521.64388
497.62	440.78481
498.102	461.87063
498.583	487.93372
499.064	466.7742
499.545	473.81385
500.026	447.75677
500.507	448.79454
500.988	507.96269
501.469	422.82061
501.949	496.94386
502.43	317.59425
502.91	358.56883
503.39	415.82104
503.87	356.65699
504.35	415.76915
504.83	371.6318
505.31	376.71896
505.79	349.66135
506.269	394.72604
506.749	338.61033
507.228	304.57143
507.707	344.60212
508.187	405.76786
508.666	323.63752
509.145	283.53391
509.623	292.55482
510.102	317.62245
510.581	308.60777
511.059	307.62473
511.538	337.71326
512.016	329.63656
512.494	304.60411
512.972	271.53112
513.45	223.42278
513.928	319.62756
514.406	248.48776
514.884	317.668
515.361	288.5651
515.839	263.49082
516.316	310.60885
516.793	258.54595
517.27	332.66006
517.747	289.61355
518.224	291.55386
518.701	269.49281
519.178	201.41779
519.654	281.55567
520.131	202.42183
520.607	295.60879
521.083	237.45064
521.56	253.49772
522.036	244.44576
522.512	272.56271
522.987	212.42129
523.463	201.40362
523.939	272.55868
524.414	251.4861
524.89	217.43495
525.365	210.40037
525.84	168.3379
526.315	222.45084
526.79	218.41401
527.265	236.45169
527.74	235.48301
528.215	224.44596
528.689	221.411
529.164	237.43221
529.638	240.52518
530.112	175.35157
530.587	216.38542
531.061	212.43289
531.534	210.43504
532.008	239.48458
532.482	206.40306
532.956	195.42464
533.429	234.4815
533.903	249.46423
534.376	206.38663
534.849	237.46536
535.322	180.36504
535.795	222.46339
536.268	243.49472
536.741	208.42819
537.213	267.52031
537.686	180.37639
538.158	168.32154
538.631	243.50441
539.103	175.33518
539.575	255.4469
540.047	202.37894
540.519	307.61648
540.991	256.53412
541.463	248.511
541.934	195.38235
542.406	248.50042
542.877	235.44967
543.348	315.63867
543.82	269.56087
544.291	306.60014
544.762	263.52544
545.233	326.68228
545.703	351.63527
546.174	293.57016
546.645	312.61596
547.115	382.75345
547.585	413.76927
548.056	408.79263
548.526	428.80493
548.996	461.88856
549.466	555.06604
549.935	510.94221
550.405	485.82648
550.875	559.02061
551.344	568.0541
551.814	548.97298
552.283	599.9874
552.752	605.06135
553.221	584.94903
553.69	694.12735
554.159	630.16534
554.628	659.08025
555.096	679.29217
555.565	597.00128
556.033	667.18509
556.502	594.11286
556.97	608.02841
557.438	596.09792
557.906	604.11993
558.374	582.04473
558.842	526.00319
559.31	528.94086
559.777	509.98816
560.245	631.16341
560.712	558.03035
561.18	583.00874
561.647	608.06299
562.114	620.10283
562.581	610.19698
563.048	683.22301
563.514	655.26033
563.981	638.14666
564.448	673.16981
564.914	740.32496
565.381	732.28101
565.847	803.42659
566.313	800.41206
566.779	816.38055
567.245	849.48747
567.711	875.56446
568.176	876.44397
568.642	891.67178
569.108	930.68908
569.573	1003.70852
570.038	979.45528
570.504	1019.60794
570.969	1060.91119
571.434	1032.57585
571.899	1066.79336
572.363	1161.80068
572.828	1184.84458
573.293	1127.78126
573.757	1153.81111
574.222	1159.74017
574.686	1070.65542
575.15	1214.94974
575.614	1209.85924
576.078	1170.87129
576.542	1222.86012
577.006	1257.86471
577.469	1231.09285
577.933	1182.76804
578.396	1184.92921
578.86	1202.92601
579.323	1081.80736
579.786	1178.69558
580.249	1089.71696
580.712	1131.93975
581.175	1076.88788
581.637	1098.77251
582.1	1090.66097
582.563	1051.57898
583.025	1033.79473
583.487	1045.4419
583.95	966.47023
584.412	1062.54271
584.874	1036.80612
585.336	913.59655
585.797	943.46616
586.259	967.66911
586.721	925.59387
587.182	948.63492
587.643	987.61728
588.105	895.5773
588.566	894.37471
589.027	884.58586
589.488	881.49286
589.949	931.67423
590.41	897.24208
590.87	872.48993
591.331	880.40413
591.791	903.53768
592.252	879.48544
592.712	897.61212
593.172	928.52744
593.632	985.55494
594.092	974.568
594.552	909.4279
595.011	879.49428
595.471	950.54562
595.931	918.49839
596.39	944.66259
596.849	968.64208
597.308	1036.5904
597.768	1028.90714
598.227	1038.80581
598.685	1105.78938
599.144	1088.79781
599.603	1089.83071
600.062	1111.58706
600.52	1115.71687
600.978	1197.95539
601.437	1159.8342
601.895	1163.66086
602.353	1288.8863
602.811	1314.9036
603.269	1313.09859
603.727	1382.1655
604.184	1388.99454
604.642	1420.26772
605.099	1429.11879
605.557	1514.34432
606.014	1535.97799
606.471	1547.42575
606.928	1631.00585
607.385	1725.46266
607.842	1827.33484
608.299	1990.49314
608.755	1905.56757
609.212	1809.2224
609.668	1890.23019
610.125	1997.63908
610.581	2016.6204
611.037	2007.4678
611.493	1964.5748
611.949	1888.57791
612.405	1978.9804
612.861	2055.61678
613.316	1966.60305
613.772	1960.46289
614.227	1998.57739
614.683	2044.2631
615.138	2104.59376
615.593	1992.52654
616.048	2125.54191
616.503	2082.82394
616.958	2049.87176
617.412	1987.61176
617.867	1951.33022
618.321	2053.16653
618.776	2045.40293
619.23	1971.5919
619.684	1998.47776
620.138	2012.60116
620.592	1962.7412
621.046	1902.5908
621.5	1949.74399
621.954	1871.43617
622.407	1860.3901
622.861	1755.63046
623.314	1771.42513
623.768	1680.43681
624.221	1703.94102
624.674	1649.3861
625.127	1611.41339
625.58	1641.37291
626.033	1591.24051
626.485	1429.32668
626.938	1498.39063
627.39	1438.26692
627.843	1380.20087
628.295	1394.21583
628.747	1387.29168
629.199	1346.12804
629.651	1326.10695
630.103	1255.05865
630.555	1236.85493
631.006	1245.12017
631.458	1197.07948
631.909	1192.02351
632.361	1151.00657
632.812	1093.9103
633.263	1118.79379
633.714	1082.7446
634.165	1025.94537
634.616	1004.87268
635.067	1035.77456
635.518	1016.90444
635.968	967.50364
636.419	935.60944
636.869	928.77679
637.319	879.64599
637.769	851.54569
638.219	863.69392
638.669	812.60454
639.119	847.70934
639.569	862.70983
640.019	868.64414
640.468	822.51371
640.918	773.57053
641.367	787.47124
641.816	745.40357
642.265	734.43937
642.714	795.53827
643.163	805.54428
643.612	722.47513
644.061	696.24794
644.51	729.40902
644.958	720.34145
645.406	730.49014
645.855	714.5062
646.303	743.48071
646.751	614.21959
647.199	731.41559
647.647	692.36903
648.095	754.46473
648.543	751.2954
648.99	651.35543
649.438	758.52008
649.885	698.49943
650.333	702.15383
650.78	717.49236
651.227	706.4854
651.674	676.3342
652.121	694.46652
652.568	662.40493
653.015	719.58065
653.461	667.38325
653.908	654.333
654.354	674.40618
654.801	629.29679
655.247	661.26457
655.693	623.44486
656.139	623.32063
656.585	638.34982
657.031	586.21261
657.477	614.16571
657.922	635.28572
658.368	593.30886
658.813	628.29443
659.259	583.25025
659.704	592.22833
660.149	567.18397
660.594	544.16524
661.039	531.09249
661.484	597.27701
661.929	552.16457
662.373	551.25704
662.818	572.2785
663.262	557.2093
663.707	551.26613
664.151	568.25283
664.595	502.10613
665.039	564.27095
665.483	544.25973
665.927	542.15895
666.371	476.00925
666.814	579.24753
667.258	498.07665
667.701	550.07497
668.145	543.23279
668.588	522.17187
669.031	443.96625
669.474	526.15716
669.917	481.98325
670.36	532.20607
670.803	527.16446
671.245	502.97015
671.688	520.16403
672.13	452.94009
672.573	498.16854
673.015	494.09347
673.457	453.91637
673.899	476.06844
674.341	471.05352
674.783	460.02316
675.225	476.08417
675.666	437.98018
676.108	492.98591
676.549	491.07529
676.991	454.93206
677.432	401.75062
677.873	429.93096
678.314	461.02391
678.755	453.02692
679.196	399.86182
679.637	476.08112
680.078	459.00128
680.518	431.94446
680.959	431.9691
681.399	383.90025
681.839	429.98119
682.28	376.88019
682.72	343.75007
683.16	419.98216
683.6	387.83769
684.039	405.796
684.479	349.81748
684.919	381.83104
685.358	386.93004
685.798	340.85255
686.237	392.89929
686.676	394.86758
687.115	368.82358
687.554	379.855
687.993	346.73279
688.432	328.71985
688.871	311.67953
689.309	324.74332
689.748	287.58297
690.186	372.84692
690.625	331.7443
691.063	281.65308
691.501	340.80559
691.939	334.79839
692.377	349.81396
692.815	310.71406
693.253	336.77579
693.69	289.61569
694.128	238.56308
694.565	336.769
695.003	290.71199
695.44	280.63827
695.877	297.67005
696.314	304.63286
696.751	333.73067
697.188	288.64085
697.625	369.8093
698.061	269.62717
698.498	360.83284
698.934	339.78318
699.371	272.62179
699.807	297.67962
700.243	265.62027
700.679	322.70252
701.115	308.70124
701.551	277.63411
701.987	281.6145
702.422	229.53287
702.858	317.72741
703.294	282.62073
703.729	308.72753
704.164	319.73933
704.599	272.58967
705.035	253.55258
705.47	258.61086
705.904	264.59865
706.339	317.71195
706.774	280.63647
707.209	242.54564
707.643	261.61067
708.078	250.59398
708.512	233.56942
708.946	293.68042
709.38	294.67451
709.814	232.52053
710.248	286.67583
710.682	216.5047
711.116	213.49857
711.549	268.6723
711.983	242.54698
712.416	275.63232
712.85	275.66579
713.283	267.6149
713.716	293.71309
714.149	283.65513
714.582	232.51111
715.015	261.63689
715.448	306.74486
715.881	309.65372
716.313	251.57414
716.746	208.48181
717.178	222.5236
717.61	247.61147
718.043	262.63587
718.475	261.61617
718.907	309.75567
719.339	202.45118
719.77	202.47125
720.202	275.67504
720.634	251.59509
721.065	228.52981
721.497	258.61605
721.928	224.53876
722.359	177.4216
722.79	189.44638
723.221	270.66069
723.652	300.74876
724.083	232.51261
724.514	210.47505
724.945	263.60158
725.375	210.47872
725.806	250.60926
726.236	270.67244
726.666	192.4488
727.096	242.58028
727.526	187.4682
727.956	199.44585
728.386	222.53618
728.816	202.50237
729.246	224.53303
729.675	202.4888
730.105	250.60037
730.534	214.49217
730.964	250.61675
731.393	258.62499
731.822	222.55572
732.251	249.6162
732.68	247.56885
733.109	228.55004
733.537	211.50046
733.966	207.50514
734.395	254.57176
734.823	217.48157
735.251	192.45601
735.68	247.60408
736.108	234.57898
736.536	210.48721
736.964	239.54207
737.392	213.52326
737.82	224.52709
738.247	217.51032
738.675	253.58987
739.102	172.42465
739.53	186.46662
739.957	218.54945
740.384	249.59968
740.811	257.63436
741.238	207.49646
741.665	220.5001
742.092	242.56478
742.519	191.4654
742.945	213.50208
743.372	196.47767
743.798	196.49577
744.225	232.53953
744.651	215.52915
745.077	206.50466
745.503	230.5492
745.929	229.5377
746.355	261.63214
746.781	229.55527
747.207	163.3787
747.632	157.37913
748.058	203.49796
748.483	213.48173
748.908	173.42485
749.334	189.4576
749.759	187.43497
750.184	146.34556
750.609	223.53686
751.033	276.63322
751.458	268.58422
751.883	193.47115
752.307	215.49635
752.732	166.40969
753.156	211.51125
753.58	189.44292
754.005	231.57334
754.429	194.44903
754.853	199.48453
755.277	185.43202
755.7	245.5925
756.124	195.47586
756.548	204.47498
756.971	212.50797
757.394	209.52818
757.818	201.50796
758.241	162.40656
758.664	200.49613
759.087	136.30239
759.51	185.45381
759.933	179.4249
760.356	209.52554
760.778	162.39423
761.201	167.40206
761.623	192.459
762.046	192.44916
762.468	228.53608
762.89	174.42438
763.312	213.51007
763.734	138.33042
764.156	155.37924
764.578	153.3497
765	190.45647
765.421	135.34033
765.843	153.3971
766.264	162.38773
766.686	154.38329
767.107	140.33712
767.528	110.27686
767.949	119.3015
768.37	113.27689
768.791	146.35077
769.212	89.22373
769.632	105.24472
770.053	157.40875
770.473	129.31234
770.894	140.34819
771.314	90.2159
771.734	114.26544
772.154	132.33675
772.575	106.24603
772.994	116.26316
773.414	143.34115
773.834	108.26949
774.254	75.18446
774.673	129.31269
775.093	95.23511
775.512	91.22439
775.931	124.31266
776.351	81.20164
776.77	88.21543
777.189	126.29834
777.607	108.27494
778.026	131.32409
778.445	34.08591
778.864	120.30624
779.282	70.16933
779.701	87.21948
780.119	91.22982
780.537	53.13314
780.955	141.35558
781.373	120.2953
781.791	71.16052
782.209	127.29133
782.627	56.14817
783.045	114.26146
783.462	60.15399
783.88	33.0861
784.297	61.15417
784.715	21.05449
785.132	106.25593
785.549	62.15577
785.966	89.22373
786.383	62.15325
786.8	73.17034
787.217	83.1971
787.633	31.0781
788.05	124.29304
788.466	116.27254
788.883	60.15356
789.299	34.08274
789.715	55.13452
790.131	75.18684
790.547	95.23683
790.963	99.2451
791.379	61.15477
791.795	33.07625
792.21	42.09914
792.626	45.10768
793.041	64.15854
793.457	64.15877
793.872	52.12313
794.287	15.03626
794.702	67.16564
795.117	33.08269
795.532	14.03549
795.947	62.14998
796.362	90.21492
796.776	108.25226
797.191	56.13776
797.605	27.06407
798.02	52.12726
798.434	41.09228
798.848	36.08937
799.262	42.10488
799.676	85.20736
800.09	38.09424
800.504	69.16788
800.918	42.09814
801.331	70.18372
801.745	58.13398
802.158	9.02278
802.572	76.1846
802.985	69.16726
803.398	56.13424
803.811	82.21067
804.224	39.09779
804.637	10.02414
805.05	58.13516
805.462	88.21591
805.875	-13.03418
806.288	-19.04666
806.7	21.0533
807.112	25.05864
807.525	68.16814
807.937	40.09952
808.349	59.14826
808.761	83.20399
809.173	-8.0197
809.584	67.16594
809.996	-15.03734
810.408	19.04947
810.819	55.12995
811.231	99.25448
811.642	87.20692
812.053	272.62229
812.464	283.64602
812.875	274.6752
813.286	151.38325
813.697	138.31916
814.108	122.29556
814.519	117.2589
814.929	68.1736
815.34	67.16277
815.75	58.14771
816.16	66.16475
816.571	86.22279
816.981	76.17954
817.391	41.09965
817.801	71.17636
818.211	78.1859
818.62	48.11611
819.03	58.14257
819.44	100.25986
819.849	54.1365
820.259	46.11826
820.668	-3.00748
821.077	53.13203
821.486	50.121
821.895	82.20231
822.304	43.1144
822.713	3.00719
823.122	60.15004
823.531	60.14262
823.939	63.15374
824.348	74.17988
824.756	58.14562
825.164	23.05838
825.573	20.05063
825.981	44.10967
826.389	48.12107
826.797	2.00507
827.205	44.10156
827.612	88.21647
828.02	54.12722
828.428	21.05392
828.835	18.04775
829.243	56.13388
829.65	54.1346
830.057	57.13869
830.464	81.19693
830.871	51.1226
831.278	23.05609
831.685	62.13871
832.092	61.14959
832.499	40.08813
832.905	60.1521
833.312	88.20013
833.718	51.12747
834.124	48.11022
834.531	39.09881
834.937	60.15415
835.343	51.12349
835.749	75.17508
836.155	61.1598
836.561	46.11357
836.966	73.17835
837.372	35.08956
837.777	56.13974
838.183	40.08953
838.588	54.13435
838.993	85.20627
839.399	26.06403
839.804	35.08576
840.209	35.08953
840.613	25.05613
841.018	66.16707
841.423	33.08509
841.828	31.07885
842.232	50.12422
842.637	36.08544
843.041	-10.02595
843.445	17.043
843.849	18.04493
844.253	45.1074
844.657	-18.04597
845.061	46.10482
845.465	22.05356
845.869	22.05157
846.272	-5.01233
846.676	59.14286
847.079	35.0894
847.483	43.10767
847.886	37.0905
848.289	22.05906
848.692	66.16701
849.095	50.1204
849.498	78.19717
849.901	-6.01396
850.304	-17.04125
850.707	28.07181
851.109	57.14437
851.512	53.13045
851.914	3.00764
852.316	26.06617
852.718	6.01563
853.121	21.05184
853.523	62.14493
853.925	7.01842
854.326	24.06039
854.728	51.13132
855.13	3.00781
855.531	64.15283
855.933	58.13935
856.334	24.06021
856.736	-13.02957
857.137	7.01645
857.538	19.04811
857.939	41.10162
858.34	63.15346
858.741	48.12568
859.142	5.01214
859.542	20.05309
859.943	6.01505
860.343	23.05732
860.744	53.12949
861.144	34.08333
861.544	3.00729
861.945	59.15033
862.345	59.14431
862.745	45.1121
863.145	70.16703
863.544	46.11649
863.944	28.06656
864.344	35.08732
864.743	63.1562
865.143	38.09793
865.542	-9.02116
865.941	25.06226
866.34	45.1081
866.74	61.16358
867.139	15.03621
867.537	55.14019
867.936	26.06297
868.335	9.02309
868.734	44.11269
869.132	34.07939
869.531	52.12593
869.929	13.02991
870.327	43.10337
870.726	58.14462
871.124	34.07985
871.522	30.07678
871.92	66.16254
872.318	34.08348
872.715	60.14847
873.113	-4.00986
873.511	-26.06575
873.908	-14.03578
874.306	23.05755
874.703	24.06041
875.1	56.14327
875.497	10.02419
875.894	12.02964
876.291	7.01734
876.688	25.06482
877.085	35.08433
877.482	68.16986
877.878	-1.00243
878.275	6.01538
878.671	82.18172
879.068	13.03164
879.464	55.13297
879.86	28.06658
880.256	47.11619
880.652	72.18258
881.048	27.06726
881.444	-4.00963
881.84	30.07659
882.236	27.06824
882.631	35.08624
883.027	49.11882
883.422	33.08471
883.817	41.10329
884.213	17.04391
884.608	-15.03726
885.003	18.04371
885.398	15.03782
885.793	31.07815
886.188	8.02006
886.582	43.11053
886.977	74.17502
887.371	9.02295
887.766	-6.01509
888.16	56.13974
888.554	58.14336
888.949	41.10321
889.343	48.11742
889.737	-19.05124
890.131	71.17758
890.525	62.15834
890.918	31.07835
891.312	42.10076
891.706	31.08165
892.099	32.08175
892.492	51.11017
892.886	50.12245
893.279	42.10723
893.672	38.09701
894.065	22.05541
894.458	69.17308
894.851	70.17105
895.244	25.06417
895.637	42.10141
896.029	32.07857
896.422	51.12469
896.814	5.01254
897.206	-17.04104
897.599	118.28845
897.991	26.0632
898.383	15.03572
898.775	34.07707
899.167	-8.01888
899.559	61.15422
899.951	93.21761
900.342	38.09691
900.734	-46.1162
901.125	71.18574
901.517	10.02474
901.908	89.212
902.299	19.04675
902.69	-8.0191
903.082	38.0923
903.473	23.0554
903.863	56.14282
904.254	30.06996
904.645	61.15152
905.036	-19.04663
905.426	12.02771
905.817	86.20976
906.207	9.02163
906.597	-5.01183
906.987	34.08842
907.378	24.06101
907.768	23.06111
908.158	54.13166
908.547	28.07264
908.937	48.12328
909.327	25.06103
909.717	50.12702
910.106	18.04353
910.495	60.14961
910.885	59.14927
911.274	43.10767
911.663	61.15461
912.052	69.16977
912.441	7.01794
912.83	10.02316
913.219	53.1387
913.608	21.05174
913.997	43.10798
914.385	53.12664
914.774	28.0685
915.162	10.02403
915.55	65.15691
915.939	15.03811
916.327	11.02766
916.715	9.02311
917.103	61.14992
917.491	17.04234
917.878	36.08879
918.266	16.04175
918.654	30.07694
919.041	7.01841
919.429	-26.0623
919.816	36.09152
920.203	39.09482
920.591	42.10435
920.978	15.03699
921.365	14.03697
921.752	-15.03622
922.139	-1.0022
922.525	-14.03404
922.912	9.02213
923.299	34.08478
923.685	34.08896
924.072	74.16992
924.458	15.03741
924.844	16.03985
925.231	52.12103
925.617	-11.02829
926.003	54.13796
926.389	34.08604
926.774	60.15183
927.16	65.16105
927.546	31.07941
927.931	55.13717
928.317	32.07401
928.702	41.09721
929.088	4.00955
929.473	-4.01028
929.858	6.01463
930.243	-7.01699
930.628	26.06356
931.013	24.05978
931.398	56.12869
931.783	77.20185
932.167	25.06142
932.552	35.08795
932.937	43.10689
933.321	15.03788
933.705	36.091
934.09	77.1937
934.474	28.06681
934.858	28.07291
935.242	18.04199
935.626	-2.00517
936.009	6.01608
936.393	41.10451
936.777	27.06943
937.16	5.01311
937.544	31.07333
937.927	0
938.311	40.09785
938.694	41.10861
939.077	-11.02664
939.46	86.20983
939.843	11.02316
940.226	38.0977
940.609	25.05769
940.991	-18.04637
941.374	14.03445
941.757	23.05705
942.139	-19.04329
942.522	45.10649
942.904	21.05077
943.286	37.09424
943.668	43.11153
944.05	39.09627
944.432	-14.03496
944.814	24.05941
945.196	-5.01231
945.578	-6.01442
945.959	21.0495
946.341	70.17124
946.722	40.09409
947.104	34.08153
947.485	46.10715
947.866	5.0127
948.247	18.04568
948.628	14.03439
949.009	18.04636
949.39	53.13189
949.771	61.14161
950.152	40.09836
950.532	-32.07991
950.913	10.02431
951.293	29.07861
951.674	44.10656
952.054	8.01998
952.434	-3.00752
952.814	44.10483
953.194	55.14383
953.574	57.14024
953.954	-17.0409
954.334	8.02009
954.714	3.00738
955.093	83.20285
955.473	3.00757
955.853	3.00783
956.232	58.15877
956.611	17.04104
956.99	0
957.37	52.13247
957.749	-4.00964
958.128	-17.04335
958.506	37.0962
958.885	45.11369
959.264	14.03454
959.643	41.09349
960.021	30.07461
960.4	7.01601
960.778	31.07664
961.156	32.08049
961.535	7.01646
961.913	100.23174
962.291	0
962.669	4.01022
963.047	32.08193
963.424	30.07683
963.802	34.08385
964.18	76.19143
964.557	59.13567
964.935	34.08082
965.312	35.09138
965.69	81.20171
966.067	50.12177
966.444	54.13298
966.821	60.15442
967.198	68.16443
967.575	47.11564
967.952	25.05921
968.329	14.0343
968.705	32.0689
969.082	24.06183
969.458	-39.09514
969.835	30.07331
970.211	-2.00518
970.587	55.13682
970.963	9.02326
971.339	2.00527
971.715	47.11743
972.091	32.07907
972.467	37.09251
972.843	8.02001
973.219	66.15803
973.594	15.03947
973.97	47.11196
974.345	50.11967
974.721	13.0317
975.096	-10.02447
975.471	37.088
975.846	6.01454
976.221	24.06123
976.596	-2.00484
976.971	48.11856
977.346	27.06315
977.72	32.08178
978.095	0
978.469	27.06473
978.844	92.22956
979.218	14.03379
979.593	75.17886
979.967	21.05144
980.341	-5.01164
980.715	56.14095
981.089	58.14499
981.463	-15.03489
981.837	-30.0744
982.21	93.21462
982.584	23.05584
982.957	14.03519
983.331	9.02145
983.704	21.05188
984.078	27.06682
984.451	64.15947
984.824	15.03677
985.197	50.12145
985.57	79.19709
985.943	57.1406
986.316	66.1617
986.688	23.05575
987.061	36.08462
987.434	16.04194
987.806	40.0972
988.179	19.0451
988.551	71.17944
988.923	30.07415
989.295	36.09019
989.667	-14.03385
990.039	16.03978
990.411	28.06473
990.783	10.02321
991.155	-40.09774
991.527	91.22241
991.898	15.03761
992.27	15.03734
992.641	26.06551
993.012	33.07791
993.384	42.10033
993.755	30.07675
994.126	33.07963
994.497	26.0641
994.868	23.05312
995.239	24.05845
995.61	-31.07913
995.98	16.03911
996.351	6.01498
996.722	27.0629
997.092	13.031
997.462	-26.06164
997.833	27.06429
998.203	40.09716
998.573	46.11462
998.943	1.00237
999.313	29.06977
999.683	21.05067
1000.053	50.11504
1000.423	49.11909
1000.792	12.0313
1001.162	23.05688
1001.531	24.05945
1001.901	1.00251
1002.27	0
1002.639	41.10491
1003.009	-4.00961
1003.378	35.08972
1003.747	-7.01672
1004.116	-29.07043
1004.485	0
1004.853	57.14421
1005.222	26.06584
1005.591	73.17255
1005.959	-12.02738
1006.328	-24.05482
1006.696	-13.03173
1007.064	67.168
1007.433	38.09516
1007.801	40.09836
1008.169	26.06593
1008.537	82.18035
1008.905	20.04686
1009.273	60.14792
1009.64	-17.04107
1010.008	22.05272
1010.375	54.13102
1010.743	84.19265
1011.11	-2.00478
1011.478	42.10408
1011.845	55.1292
1012.212	-7.01603
1012.579	41.1008
1012.946	54.12841
1013.313	83.19626
1013.68	24.05423
1014.047	6.01442
1014.414	10.0238
1014.78	6.01503
1015.147	63.15197
1015.513	31.07495
1015.88	33.08462
1016.246	34.08416
1016.612	44.10083
1016.978	49.12007
1017.344	48.11864
1017.71	84.2035
1018.076	24.05687
1018.442	41.10561
1018.808	0
1019.174	33.08302
1019.539	70.16048
1019.905	32.07571
1020.27	35.08659
1020.636	78.18598
1021.001	40.09592
1021.366	14.03384
1021.731	6.01554
1022.096	-13.03315
1022.461	16.03811
1022.826	45.10703
1023.191	56.14672
1023.556	31.07291
1023.92	57.13993
1024.285	27.06616
1024.649	19.04682
1025.014	22.05476
1025.378	13.03289
1025.742	21.05241
1026.107	28.0636
1026.471	60.13976
1026.835	30.07461
1027.199	-9.0219
1027.562	68.15746
1027.926	32.07849
1028.29	50.12648
1028.654	40.09218
1029.017	20.04942
1029.381	-15.03626
1029.744	20.05126
1030.107	48.11357
1030.471	63.15041
1030.834	10.02293
1031.197	107.25487
1031.56	34.08044
1031.923	58.14969
1032.286	19.04488
1032.648	23.05527
1033.011	-1.00232
1033.374	27.06372
1033.736	7.01853
1034.099	37.09036
1034.461	-11.02808
1034.823	9.02257
1035.185	50.1258
1035.548	6.01472
1035.91	23.05535
1036.272	-9.02072
1036.634	41.10043
1036.995	-2.00475
1037.357	35.08535
1037.719	2.00491
1038.08	57.1351
1038.442	11.02629
1038.803	44.10571
1039.165	35.08852
1039.526	-4.00976
1039.887	63.1503
1040.248	-17.04238
1040.609	17.04224
1040.97	38.09303
1041.331	41.10392
1041.692	-15.03544
1042.053	42.09575
1042.413	74.17156
1042.774	43.10466
1043.134	58.13781
1043.495	47.11815
1043.855	45.1092
1044.215	54.13387
1044.576	-2.00483
1044.936	66.15076
1045.296	49.12225
1045.656	34.08364
1046.016	50.12063
1046.375	30.07301
1046.735	3.00686
1047.095	14.03298
1047.454	23.049
1047.814	15.03628
1048.173	57.13593
1048.533	-15.0348
1048.892	-28.06817
1049.251	68.17005
1049.61	10.02479
1049.969	-4.00952
1050.328	2.00438
1050.687	42.10229
1051.046	31.07571
1051.405	52.12924
1051.763	24.05544
1052.122	21.05262
1052.48	15.037
1052.839	13.03079
1053.197	31.07319
1053.555	43.09813
1053.914	4.00986
1054.272	59.14232
1054.63	3.00739
1054.988	35.08334
1055.345	22.04763
1055.703	23.05561
1056.061	51.13109
1056.419	25.06496
1056.776	56.13557
1057.134	-8.01872
1057.491	24.06034
1057.848	70.17353
1058.206	32.07548
1058.563	36.07955
1058.92	28.06478
1059.277	24.05945
1059.634	48.11291
1059.991	8.01931
1060.348	-5.01142
1060.704	-21.05069
1061.061	81.18693
1061.418	32.07782
1061.774	3.00747
1062.131	-16.04274
1062.487	22.05169
1062.843	33.08248
1063.199	29.07235
1063.555	4.00935
1063.911	45.11369
1064.267	54.11247
1064.623	-16.03932
1064.979	58.13712
1065.335	111.26207
1065.691	41.09838
1066.046	-13.02895
1066.402	10.02289
1066.757	23.05829
1067.112	49.1202
1067.468	0
1067.823	54.12964
1068.178	18.04377
1068.533	54.13072
1068.888	64.15242
1069.243	34.0841
1069.598	50.12141
1069.952	-39.08936
1070.307	9.02243
1070.662	18.04297
1071.016	-5.01132
1071.371	10.02292
1071.725	66.1573
1072.079	31.07478
1072.434	19.0464
1072.788	26.06216
1073.142	40.09851
1073.496	-12.02879
1073.85	37.08597
1074.203	66.15953
1074.557	18.04809
1074.911	68.16164
1075.265	5.01172
1075.618	55.13407
1075.971	34.08107
1076.325	2.00512
1076.678	10.02304
1077.031	-5.01143
1077.385	30.06632
1077.738	19.04313
1078.091	-11.0253
1078.444	44.10221
1078.796	14.03455
1079.149	47.11687
1079.502	-45.10818
1079.855	5.01175
1080.207	39.0962
1080.56	-22.05752
1080.912	31.07568
1081.264	23.05563
1081.617	7.01718
1081.969	-9.02292
1082.321	-30.07429
1082.673	-36.08353
1083.025	21.05006
1083.377	9.01947
1083.728	44.10269
1084.08	10.02512
1084.432	9.02186
1084.783	56.13096
1085.135	-3.00758
1085.486	-34.07904
1085.838	3.00745
1086.189	11.02687
1086.54	29.06948
1086.891	26.06598
1087.242	-15.03693
1087.593	36.08781
1087.944	32.07263
1088.295	-5.01148
1088.646	34.08259
1088.996	11.02667
1089.347	16.03948
1089.698	-12.02868
1090.048	21.05477
1090.398	36.08366
1090.749	30.072
1091.099	-43.10984
1091.449	1.00251
1091.799	54.13499
1092.149	-33.08164
1092.499	8.01965
1092.849	20.05106
1093.199	47.11777
1093.548	-7.01699
1093.898	11.02769
1094.248	16.04132
1094.597	32.08187
1094.947	32.08555
1095.296	23.05703
1095.645	44.11446
1095.994	34.08184
1096.343	29.07319
1096.692	-32.08515
1097.041	8.02179
1097.39	28.07045
1097.739	31.08077
1098.088	33.08858
1098.437	-19.05045
1098.785	33.08913
1099.134	48.12738
1099.482	61.16733
1099.83	38.09997
1100.179	6.01575
1100.527	10.02672
1100.875	10.02659
1101.223	33.0878
1101.571	25.06929
1101.919	-15.03959
1102.267	38.10708
1102.615	7.0225
1102.962	19.06111
1103.31	11.03532
1103.658	24.07718
