Data from N2 R5 sample 2_Subt2__0__14-25-27-666.txt Node

Date: Fri Aug 29 14:25:27 PDT 2025
User: uwsun
Spectrometer: HDX01956
Trigger mode: 0
Integration Time (sec): 5.000000E-1
Scans to average: 1
Nonlinearity correction enabled: true
Boxcar width: 0
Storing dark spectrum: false
XAxis mode: Wavelengths
Number of Pixels in Spectrum: 2068
>>>>>Begin Spectral Data<<<<<
194.03	337.89609
194.578	325.98557
195.127	354.04934
195.676	338.00736
196.225	414.0189
196.773	417.06361
197.321	593.43087
197.87	819.7162
198.418	806.66776
198.966	769.6156
199.513	725.45282
200.061	761.54261
200.609	788.69656
201.156	753.28023
201.704	758.52708
202.251	741.59428
202.798	749.57285
203.345	858.66708
203.892	789.5827
204.438	839.56864
204.985	754.40423
205.532	814.70834
206.078	888.68863
206.624	831.59501
207.17	897.59236
207.716	799.52391
208.262	823.22463
208.808	758.47461
209.354	859.61876
209.899	911.79917
210.445	788.54542
210.99	789.49244
211.535	886.6033
212.08	871.56049
212.625	886.72973
213.17	888.75983
213.715	797.35889
214.259	809.47669
214.804	912.74695
215.348	821.46241
215.892	818.54174
216.436	843.52261
216.98	870.47615
217.524	801.48713
218.068	844.68031
218.612	830.66006
219.155	825.51811
219.698	722.38448
220.242	765.54085
220.785	774.43655
221.328	758.52428
221.871	764.57302
222.414	744.50502
222.956	702.3655
223.499	703.27054
224.041	752.40743
224.583	792.34563
225.126	737.29012
225.668	706.3922
226.21	737.50139
226.751	676.18279
227.293	760.38323
227.835	706.39807
228.376	725.35045
228.918	719.48591
229.459	702.41995
230	745.42075
230.541	738.36145
231.082	762.47748
231.622	703.3081
232.163	686.35017
232.704	729.45882
233.244	728.45985
233.784	751.48766
234.324	709.22733
234.864	749.3449
235.404	735.40707
235.944	738.40568
236.484	784.5694
237.023	708.34452
237.563	753.37635
238.102	780.45849
238.641	779.57914
239.18	708.32101
239.719	796.59271
240.258	744.32462
240.797	750.4265
241.335	762.49295
241.874	764.1169
242.412	764.45599
242.95	729.38481
243.488	725.31573
244.026	737.34298
244.564	830.29395
245.102	755.32795
245.64	776.48749
246.177	731.29504
246.715	810.53037
247.252	785.41474
247.789	762.09891
248.326	737.40003
248.863	746.27479
249.4	742.3306
249.936	756.19672
250.473	778.41749
251.009	751.34643
251.546	761.30293
252.082	865.43249
252.618	725.26574
253.154	801.49968
253.69	798.38802
254.226	721.36759
254.761	782.36012
255.297	738.25635
255.832	738.37778
256.367	807.47526
256.903	764.29583
257.438	792.45179
257.972	880.47387
258.507	759.34685
259.042	823.35596
259.576	760.24805
260.111	845.49673
260.645	803.32731
261.179	808.44997
261.713	817.38187
262.247	835.47361
262.781	806.26883
263.315	775.48307
263.849	795.55367
264.382	911.57051
264.915	832.48396
265.449	861.58607
265.982	843.45838
266.515	878.62916
267.048	846.32973
267.58	916.48261
268.113	870.3897
268.646	849.60535
269.178	830.39292
269.71	844.38259
270.243	869.49393
270.775	861.68443
271.307	896.63543
271.838	916.64088
272.37	866.6236
272.902	896.51876
273.433	784.29975
273.965	827.54387
274.496	837.60654
275.027	862.62958
275.558	855.57342
276.089	839.56014
276.62	939.80696
277.15	911.69764
277.681	924.46455
278.211	913.68542
278.741	783.2963
279.272	858.45652
279.802	859.63617
280.332	906.57888
280.861	899.61572
281.391	850.43124
281.921	922.65419
282.45	921.72818
282.98	920.81485
283.509	887.46418
284.038	889.4894
284.567	923.59042
285.096	955.69296
285.625	903.4948
286.153	888.53197
286.682	875.46907
287.21	938.64941
287.739	987.67487
288.267	887.58678
288.795	974.90805
289.323	933.57017
289.851	972.63558
290.378	949.51941
290.906	916.61231
291.433	970.761
291.961	961.53869
292.488	991.7833
293.015	939.58287
293.542	974.78349
294.069	997.74843
294.596	1035.82758
295.122	957.63517
295.649	1047.58142
296.175	987.71367
296.702	1043.78356
297.228	1072.825
297.754	1041.59952
298.28	1049.62419
298.806	985.67056
299.332	992.50016
299.857	1033.58903
300.383	1095.94186
300.908	991.67625
301.433	1039.7454
301.958	1120.74331
302.483	1035.79632
303.008	1128.90629
303.533	1161.08455
304.058	1104.76322
304.582	1038.66581
305.107	1055.91908
305.631	1114.69173
306.155	1066.65979
306.679	1090.6885
307.203	1090.67571
307.727	1091.73099
308.251	1082.81643
308.775	1086.69895
309.298	1100.73389
309.822	1177.96962
310.345	1228.85056
310.868	1137.77248
311.391	1279.00464
311.914	1187.93466
312.437	1240.76676
312.96	1210.79285
313.482	1175.77069
314.005	1199.94236
314.527	1241.10316
315.049	1294.06743
315.571	1147.5614
316.093	1298.98365
316.615	1224.82911
317.137	1322.65313
317.659	1364.99253
318.18	1343.94779
318.702	1323.80579
319.223	1308.48865
319.744	1352.71471
320.265	1350.90341
320.786	1399.98875
321.307	1396.01277
321.828	1426.76409
322.348	1479.89438
322.869	1430.84253
323.389	1447.02666
323.909	1448.78924
324.43	1539.01346
324.95	1474.76463
325.47	1486.96126
325.989	1557.86931
326.509	1623.67256
327.029	1588.71734
327.548	1546.6786
328.067	1606.90387
328.587	1648.0578
329.106	1586.71379
329.625	1682.29595
330.144	1653.75833
330.662	1683.76021
331.181	1721.80986
331.7	1727.80196
332.218	1839.56897
332.736	1850.81335
333.255	1832.76342
333.773	1807.80297
334.291	1927.04889
334.808	1832.57659
335.326	1998.63445
335.844	1971.66471
336.361	1896.94012
336.879	1975.64794
337.396	2017.75901
337.913	1992.57602
338.43	2047.48872
338.947	2057.6691
339.464	2017.28629
339.981	2047.59795
340.497	2123.77176
341.014	2197.67892
341.53	2128.37177
342.046	2138.65727
342.562	2261.74113
343.078	2315.46672
343.594	2308.51223
344.11	2286.47904
344.626	2334.66817
345.141	2419.24495
345.657	2380.26252
346.172	2380.43575
346.687	2410.21653
347.202	2401.11315
347.717	2539.29601
348.232	2545.4696
348.747	2492.12106
349.261	2511.8472
349.776	2557.14264
350.29	2578.24744
350.805	2716.29349
351.319	2717.00542
351.833	2574.88512
352.347	2619.0156
352.861	2570.96919
353.374	2735.90432
353.888	2751.04057
354.401	2723.82423
354.915	2666.67871
355.428	2827.01375
355.941	2837.72219
356.454	2970.59062
356.967	2827.80175
357.48	2916.64497
357.993	2905.88666
358.505	2937.78695
359.018	3019.74589
359.53	3060.60854
360.042	3186.27103
360.554	3116.61205
361.066	2980.64869
361.578	3079.20435
362.09	3114.48342
362.602	3162.13592
363.113	3228.25458
363.625	3233.11569
364.136	3283.01659
364.647	3320.02773
365.158	3325.10657
365.669	3320.20156
366.18	3418.06885
366.691	3320.88534
367.201	3386.07868
367.712	3445.82827
368.222	3472.80527
368.733	3390.6288
369.243	3570.54714
369.753	3705.61217
370.263	3789.63417
370.773	3767.71998
371.282	3720.54705
371.792	3851.22999
372.301	3973.32537
372.811	4118.48077
373.32	4025.89255
373.829	4061.03623
374.338	4394.786
374.847	4332.79533
375.356	4470.76713
375.865	4695.61584
376.373	5092.72632
376.882	5181.78383
377.39	5164.75386
377.898	5278.83053
378.407	5527.18892
378.915	5839.73203
379.423	5899.74974
379.93	6148.46506
380.438	6332.00853
380.946	6766.65057
381.453	6888.45238
381.96	7088.0453
382.468	7549.64083
382.975	8340.89923
383.482	8551.13883
383.989	8609.4787
384.495	8844.24628
385.002	9400.3063
385.509	9728.31869
386.015	10593.72422
386.521	11211.68464
387.028	11473.57098
387.534	11901.65283
388.04	12358.40615
388.546	12496.16579
389.051	12813.15013
389.557	14025.43549
390.063	15649.53839
390.568	16029.13807
391.073	16171.47416
391.578	16960.42509
392.084	17140.86665
392.589	17339.11911
393.093	18342.6208
393.598	20510.62411
394.103	22476.16343
394.607	24409.74002
395.112	26387.1785
395.616	27741.96826
396.12	30060.06785
396.624	33128.60547
397.128	35809.95448
397.632	39710.21164
398.136	38513.61322
398.639	36204.23823
399.143	32503.66402
399.646	28888.45294
400.15	25083.82847
400.653	20124.16724
401.156	13866.23708
401.659	5169.95759
402.162	1054.15589
402.664	0
403.167	0
403.67	0
404.172	0
404.674	0
405.176	0
405.678	0
406.18	0
406.682	0
407.184	0
407.686	0
408.187	0
408.688	0
409.19	0
409.691	0
410.192	0
410.693	0
411.194	435.30976
411.694	4082.94878
412.195	8864.71461
412.696	12089.80453
413.196	12760.96929
413.696	12863.67595
414.196	13703.56671
414.696	17261.84252
415.196	21764.24417
415.696	29583.19008
416.196	36460.31858
416.695	40057.39798
417.195	41392.74103
417.694	42311.08144
418.194	43882.52025
418.693	43255.40586
419.192	41837.99872
419.691	41059.87783
420.19	40553.0104
420.688	40286.9931
421.187	38795.10594
421.685	36292.89936
422.184	33279.14492
422.682	29231.27074
423.18	24525.07185
423.678	21443.02768
424.176	19501.62795
424.674	18615.73789
425.172	17751.83997
425.669	17022.12126
426.167	15903.25574
426.664	14423.3993
427.161	13156.10181
427.659	12066.46999
428.156	11432.04838
428.652	10575.53397
429.149	10133.8063
429.646	9809.65506
430.143	9201.56617
430.639	8738.57104
431.135	8149.6161
431.632	7675.40216
432.128	7184.50384
432.624	6679.45169
433.12	6408.42149
433.616	6149.73542
434.111	5864.8889
434.607	5718.45629
435.103	5767.59526
435.598	5607.33459
436.093	5387.88511
436.588	5083.72313
437.083	4827.67147
437.578	4533.71911
438.073	4324.87017
438.568	4359.98919
439.062	4113.82424
439.557	3873.22079
440.051	3818.15697
440.546	3640.27899
441.04	3538.52836
441.534	3448.8343
442.028	3464.72198
442.522	3263.83885
443.015	3309.58842
443.509	3309.98538
444.002	3140.08905
444.496	3031.83921
444.989	3001.23704
445.482	3058.27437
445.975	2951.00005
446.468	3022.86134
446.961	2935.92717
447.454	2920.13686
447.947	2786.32576
448.439	2749.52185
448.931	2662.27982
449.424	2679.74444
449.916	2712.59436
450.408	2588.38559
450.9	2614.63135
451.392	2492.85731
451.884	2439.62225
452.375	2295.8818
452.867	2431.64976
453.358	2350.62179
453.849	2314.49221
454.341	2236.70093
454.832	2202.59521
455.323	2167.98318
455.814	2214.83979
456.304	2298.83949
456.795	2181.86494
457.285	2217.84491
457.776	2230.95013
458.266	2027.05147
458.756	2111.13442
459.247	1951.08898
459.737	1890.11025
460.226	1907.96934
460.716	1825.17537
461.206	1881.22577
461.695	1895.40204
462.185	1772.21322
462.674	1807.17512
463.163	1793.08071
463.653	1729.95484
464.142	1636.30662
464.63	1706.40859
465.119	1658.2262
465.608	1625.23031
466.096	1509.11728
466.585	1623.31054
467.073	1582.41494
467.561	1581.43649
468.05	1454.3216
468.538	1494.49935
469.026	1436.41223
469.513	1331.0805
470.001	1400.2734
470.489	1382.3762
470.976	1412.35998
471.463	1312.52363
471.951	1298.55071
472.438	1215.33303
472.925	1150.28375
473.412	1229.50388
473.899	1184.32122
474.385	1183.48194
474.872	1153.33507
475.359	1095.40703
475.845	1109.10013
476.331	1035.17294
476.817	1043.40583
477.303	955.23332
477.789	1020.37234
478.275	901.31288
478.761	928.30635
479.247	929.18889
479.732	881.31449
480.218	939.4897
480.703	845.29715
481.188	889.09688
481.673	827.14835
482.158	704.90512
482.643	849.38501
483.128	719.03311
483.612	791.16614
484.097	750.20766
484.581	759.14135
485.066	633.03868
485.55	656.93605
486.034	661.93046
486.518	619.97972
487.002	605.01529
487.486	666.10606
487.969	609.02927
488.453	614.09609
488.936	625.96082
489.42	607.92541
489.903	621.1169
490.386	606.63491
490.869	526.81681
491.352	550.98769
491.835	572.82574
492.318	555.89096
492.8	634.89834
493.283	497.94048
493.765	463.85257
494.247	530.91661
494.73	450.73771
495.212	518.94024
495.694	440.77021
496.175	433.76853
496.657	506.89931
497.139	443.56252
497.62	382.69156
498.102	374.72138
498.583	372.73303
499.064	353.60471
499.545	393.69063
500.026	394.6766
500.507	346.62989
500.988	412.8004
501.469	364.71761
501.949	360.70772
502.43	296.55776
502.91	325.52127
503.39	337.6789
503.87	302.56487
504.35	329.62284
504.83	308.53342
505.31	303.58962
505.79	255.49432
506.269	296.55885
506.749	201.37567
507.228	236.45103
507.707	323.56848
508.187	324.62643
508.666	282.56196
509.145	238.45397
509.623	252.48348
510.102	209.42085
510.581	296.58574
511.059	211.43877
511.538	292.62411
512.016	273.53529
512.494	238.48024
512.972	190.37951
513.45	156.3006
513.928	226.45435
514.406	227.44867
514.884	267.56882
515.361	250.49494
515.839	215.40602
516.316	186.376
516.793	201.43064
517.27	195.40007
517.747	190.41208
518.224	178.34811
518.701	165.31022
519.178	150.31533
519.654	195.39338
520.131	197.41185
520.607	216.45367
521.083	171.33037
521.56	220.43616
522.036	197.36418
522.512	265.54909
522.987	133.26917
523.463	185.37287
523.939	219.4552
524.414	170.33562
524.89	148.30138
525.365	163.31431
525.84	147.2971
526.315	145.29964
526.79	158.30445
527.265	174.33802
527.74	135.28374
528.215	148.29987
528.689	97.18596
529.164	177.3277
529.638	163.36249
530.112	122.2481
530.587	122.22299
531.061	102.21348
531.534	137.28845
532.008	116.24181
532.482	155.30694
532.956	121.26764
533.429	149.31247
533.903	174.33044
534.376	111.21322
534.849	143.28702
535.322	142.29048
535.795	162.34266
536.268	112.23482
536.741	157.32692
537.213	103.20855
537.686	94.20031
538.158	67.13137
538.631	154.32602
539.103	111.21589
539.575	130.23533
540.047	185.3485
540.519	150.31213
540.991	120.25793
541.463	123.26057
541.934	133.26461
542.406	109.22697
542.877	152.2967
543.348	117.24796
543.82	181.38477
544.291	201.40399
544.762	103.21342
545.233	142.3093
545.703	115.22069
546.174	184.36735
546.645	115.23754
547.115	215.44071
547.585	194.38102
548.056	170.34902
548.526	217.42931
548.996	216.44085
549.466	336.68047
549.935	288.56163
550.405	298.53341
550.875	267.52427
551.344	303.6003
551.814	278.52822
552.283	306.54547
552.752	270.51602
553.221	294.51676
553.69	316.56856
554.159	325.6478
554.628	363.64492
555.096	356.73154
555.565	290.52793
556.033	268.52611
556.502	331.66129
556.97	230.42955
557.438	237.47657
557.906	239.48414
558.374	161.32076
558.842	124.25998
559.31	170.33104
559.777	95.20266
560.245	148.30632
560.712	120.24626
561.18	119.23167
561.647	134.26392
562.114	99.20018
562.581	123.26945
563.048	156.31767
563.514	79.17328
563.981	97.19883
564.448	125.24915
564.914	143.29578
565.381	152.30699
565.847	150.31199
566.313	128.26588
566.779	162.32313
567.245	139.28931
567.711	143.30426
568.176	96.19282
568.642	139.30938
569.108	151.32883
569.573	209.43267
570.038	171.31722
570.504	122.24278
570.969	160.35516
571.434	199.37967
571.899	154.32388
572.363	192.38297
572.828	238.47384
573.293	207.41452
573.757	248.49236
574.222	196.3804
574.686	208.40388
575.15	221.45567
575.614	244.48284
576.078	257.51869
576.542	308.59721
577.006	235.45795
577.469	317.67269
577.933	214.41454
578.396	241.49713
578.86	288.5822
579.323	233.48063
579.786	284.52384
580.249	220.43453
580.712	245.52037
581.175	225.48331
581.637	309.61075
582.1	283.53549
582.563	293.54139
583.025	233.491
583.487	249.43294
583.95	194.36375
584.412	283.51113
584.874	271.56831
585.336	225.46517
585.797	236.44338
586.259	230.4754
586.721	228.4664
587.182	265.54074
587.643	276.54258
588.105	244.50366
588.566	296.53612
589.027	234.49039
589.488	209.4191
589.949	271.57032
590.41	159.27323
590.87	253.50476
591.331	233.44109
591.791	184.37452
592.252	210.41984
592.712	236.49655
593.172	243.47669
593.632	261.49869
594.092	234.45632
594.552	280.52061
595.011	192.38742
595.471	264.51287
595.931	242.47035
596.39	270.55983
596.849	260.52608
597.308	288.54055
597.768	217.48418
598.227	302.62813
598.685	293.58374
599.144	244.498
599.603	313.6381
600.062	243.4427
600.52	235.45642
600.978	321.65352
601.437	326.64027
601.895	307.55732
602.353	365.68728
602.811	368.69072
603.269	356.72527
603.727	374.75847
604.184	360.6847
604.642	372.77269
605.099	408.79414
605.557	429.87656
606.014	450.79684
606.471	418.87093
606.928	445.7804
607.385	494.9794
607.842	650.16708
608.299	722.30529
608.755	678.28245
609.212	613.07373
609.668	571.00157
610.125	693.31503
610.581	730.36214
611.037	683.23495
611.493	648.2262
611.949	558.09218
612.405	515.83657
612.861	639.21179
613.316	544.06322
613.772	610.12827
614.227	603.14896
614.683	642.09783
615.138	619.16579
615.593	582.09947
616.048	602.1201
616.503	607.22109
616.958	602.23243
617.412	621.19135
617.867	615.0925
618.321	634.05277
618.776	645.15007
619.23	584.12644
619.684	599.11037
620.138	628.19524
620.592	565.14168
621.046	579.12935
621.5	624.24756
621.954	561.05532
622.407	555.03274
622.861	526.07951
623.314	515.99504
623.768	493.97947
624.221	486.81146
624.674	472.93403
625.127	473.95288
625.58	493.96851
626.033	468.89577
626.485	441.91783
626.938	487.00045
627.39	428.87234
627.843	400.8175
628.295	429.8714
628.747	456.94841
629.199	405.81477
629.651	341.69581
630.103	380.77627
630.555	367.6958
631.006	366.77175
631.458	347.73924
631.909	375.77805
632.361	301.6432
632.812	348.728
633.263	336.6596
633.714	319.62608
634.165	305.68078
634.616	278.61218
635.067	334.68076
635.518	264.58696
635.968	321.59402
636.419	299.60263
636.869	262.58276
637.319	254.54947
637.769	234.49213
638.219	314.69667
638.669	253.56589
639.119	284.64765
639.569	269.60788
640.019	286.61922
640.468	272.57053
640.918	254.57761
641.367	205.43883
641.816	262.55271
642.265	244.53439
642.714	222.48887
643.163	239.52156
643.612	197.45081
644.061	252.50405
644.51	187.40878
644.958	244.50886
645.406	271.6114
645.855	244.56833
646.303	281.62073
646.751	237.51281
647.199	255.55058
647.647	248.54223
648.095	179.39576
648.543	272.52967
648.99	202.46309
649.438	269.60093
649.885	277.64962
650.333	272.5012
650.78	262.6011
651.227	195.4568
651.674	218.47704
652.121	294.6764
652.568	218.50797
653.015	250.60425
653.461	231.52627
653.908	210.47175
654.354	259.59077
654.801	199.45044
655.247	299.62287
655.693	256.63757
656.139	247.56726
656.585	271.62013
657.031	218.48892
657.477	274.56406
657.922	257.56606
658.368	338.78692
658.813	290.64396
659.259	258.59288
659.704	242.54207
660.149	322.70995
660.594	320.71972
661.039	327.70481
661.484	357.8044
661.929	306.68146
662.373	297.71336
662.818	305.72031
663.262	301.69015
663.707	336.80654
664.151	387.88729
664.595	290.66853
665.039	364.85511
665.483	368.88333
665.927	341.76207
666.371	294.64931
666.814	353.79864
667.258	320.71942
667.701	431.86747
668.145	415.96822
668.588	412.94743
669.031	367.81339
669.474	415.93581
669.917	476.97414
670.36	435.00517
670.803	452.01406
671.245	439.8612
671.688	471.06477
672.13	392.82621
672.573	449.06342
673.015	469.04343
673.457	428.87075
673.899	463.04198
674.341	511.13375
674.783	451.00497
675.225	430.99039
675.666	428.96177
676.108	478.96096
676.549	518.12808
676.991	481.98147
677.432	477.87615
677.873	526.11595
678.314	499.09974
678.755	516.15506
679.196	496.04715
679.637	542.21484
680.078	557.1903
680.518	569.20864
680.959	557.21803
681.399	533.21397
681.839	542.20936
682.28	494.1275
682.72	567.17926
683.16	529.21115
683.6	529.1084
684.039	508.97422
684.479	532.19924
684.919	491.04406
685.358	576.3355
685.798	581.39081
686.237	562.2432
686.676	578.22165
687.115	547.17697
687.554	566.226
687.993	558.12519
688.432	536.12285
688.871	458.96953
689.309	574.24864
689.748	515.9917
690.186	598.29707
690.625	568.21306
691.063	513.13536
691.501	572.29215
691.939	566.29052
692.377	566.26143
692.815	552.20784
693.253	570.25253
693.69	574.14531
694.128	590.29816
694.565	543.18887
695.003	597.3796
695.44	584.24728
695.877	547.1689
696.314	564.10447
696.751	545.14047
697.188	582.214
697.625	586.22452
698.061	515.14027
698.498	625.3675
698.934	608.32718
699.371	537.15988
699.807	563.21716
700.243	536.18561
700.679	613.253
701.115	561.20973
701.551	544.17627
701.987	593.20931
702.422	549.19444
702.858	572.24323
703.294	577.18943
703.729	564.2637
704.164	562.23751
704.599	527.0784
705.035	537.10039
705.47	547.22028
705.904	561.19317
706.339	597.26159
706.774	576.22858
707.209	519.10179
707.643	578.26587
708.078	577.282
708.512	496.15024
708.946	535.18068
709.38	561.21593
709.814	545.14198
710.248	577.28412
710.682	570.23678
711.116	518.13763
711.549	547.30038
711.983	523.11222
712.416	559.21005
712.85	560.28042
713.283	566.22339
713.716	600.37363
714.149	621.33872
714.582	548.12525
715.015	569.30597
715.448	569.31431
715.881	644.26083
716.313	549.17824
716.746	523.13345
717.178	548.20815
717.61	587.35969
718.043	550.26005
718.475	571.26445
718.907	649.48383
719.339	533.10695
719.77	546.18513
720.202	576.33234
720.634	539.20439
721.065	594.27798
721.497	595.32641
721.928	566.27027
722.359	531.17624
722.79	552.20936
723.221	573.32041
723.652	620.4546
724.083	582.1898
724.514	580.21089
724.945	559.20025
725.375	562.18778
725.806	603.36973
726.236	652.5077
726.666	607.30067
727.096	638.41153
727.526	608.4031
727.956	598.22754
728.386	634.40908
728.816	601.3828
729.246	611.34302
729.675	561.2629
730.105	633.40657
730.534	618.30403
730.964	639.46037
731.393	677.50754
731.822	637.47153
732.251	665.51679
732.68	680.42812
733.109	665.46857
733.537	597.30781
733.966	653.45765
734.395	656.35284
734.823	630.27587
735.251	644.3934
735.68	684.5335
736.108	671.52372
736.536	671.41199
736.964	701.43832
737.392	643.45065
737.82	656.41093
738.247	682.4556
738.675	728.53576
739.102	694.5451
739.53	656.50255
739.957	689.58607
740.384	756.64223
740.811	722.62604
741.238	696.51052
741.665	657.35884
742.092	712.50526
742.519	649.44275
742.945	666.42878
743.372	690.52288
743.798	701.60922
744.225	727.52259
744.651	696.55723
745.077	693.54065
745.503	751.61097
745.929	757.59106
746.355	783.70632
746.781	697.53802
747.207	645.35304
747.632	677.4708
748.058	728.60814
748.483	706.43392
748.908	696.53997
749.334	692.51329
749.759	727.50783
750.184	676.43281
750.609	755.63068
751.033	764.57866
751.458	768.4948
751.883	740.61834
752.307	684.42896
752.732	673.50233
753.156	693.52345
753.58	764.58571
754.005	739.65994
754.429	726.50006
754.853	724.58599
755.277	690.44851
755.7	751.63931
756.124	679.50388
756.548	686.44264
756.971	756.61996
757.394	722.65315
757.818	739.68364
758.241	755.68758
758.664	706.58545
759.087	621.23954
759.51	743.63003
759.933	719.5257
760.356	755.70766
760.778	721.56714
761.201	763.62548
761.623	734.5694
762.046	719.50515
762.468	747.57553
762.89	726.58436
763.312	732.57591
763.734	705.50182
764.156	706.54653
764.578	686.39705
765	665.45022
765.421	639.46154
765.843	706.65263
766.264	708.51441
766.686	704.57255
767.107	646.40309
767.528	622.41778
767.949	630.44699
768.37	673.47387
768.791	673.45157
769.212	607.37994
769.632	570.20419
770.053	604.44783
770.473	634.38575
770.894	639.44104
771.314	636.36377
771.734	570.20524
772.154	594.38813
772.575	584.22464
772.994	554.14271
773.414	617.3352
773.834	560.27939
774.254	514.1586
774.673	563.25033
775.093	536.21614
775.512	509.15549
775.931	537.25062
776.351	511.16941
776.77	510.1477
777.189	483.06219
777.607	486.15142
778.026	495.13999
778.445	437.02179
778.864	507.20241
779.282	484.07664
779.701	472.10572
780.119	461.08432
780.537	470.089
780.955	451.07145
781.373	515.17197
781.791	417.876
782.209	437.93984
782.627	441.08806
783.045	434.93118
783.462	371.89983
783.88	415.00878
784.297	405.9601
784.715	377.91746
785.132	381.87178
785.549	326.77987
785.966	374.89159
786.383	368.85809
786.8	329.72888
787.217	389.86896
787.633	355.84193
788.05	393.88006
788.466	387.86092
788.883	343.83381
789.299	308.71087
789.715	359.82806
790.131	322.76589
790.547	327.78062
790.963	290.69271
791.379	275.67104
791.795	266.58601
792.21	294.65989
792.626	255.58563
793.041	340.79936
793.457	327.77195
793.872	262.59508
794.287	256.59063
794.702	295.69858
795.117	246.59256
795.532	229.55819
795.947	300.69296
796.362	254.58742
796.776	353.78465
797.191	264.62434
797.605	182.41891
798.02	238.56221
798.434	239.51603
798.848	203.48853
799.262	191.46401
799.676	239.56621
800.09	192.46268
800.504	193.45865
800.918	194.43975
801.331	215.5503
801.745	180.40569
802.158	184.45111
802.572	204.48358
802.985	202.47736
803.398	177.41447
803.811	227.56834
804.224	166.40668
804.637	122.28831
805.05	133.30534
805.462	207.49665
805.875	116.29833
806.288	129.3081
806.7	152.37679
807.112	168.38298
807.525	170.41246
807.937	135.33006
808.349	156.38515
808.761	157.38056
809.173	109.26262
809.584	136.33257
809.996	100.24372
810.408	123.31451
810.819	174.40162
811.231	120.30732
811.642	170.39785
812.053	315.71442
812.464	303.68888
812.875	302.74034
813.286	204.51288
813.697	174.39954
814.108	180.4313
814.519	128.28259
814.929	156.39207
815.34	127.30506
815.75	98.24781
816.16	138.33996
816.571	129.3317
816.981	130.30388
817.391	121.28966
817.801	47.11726
818.211	101.23966
818.62	89.21363
819.03	119.28921
819.44	131.3386
819.849	122.30464
820.259	100.25467
820.668	57.14055
821.077	36.08996
821.486	106.2538
821.895	150.36544
822.304	74.19586
822.713	89.2098
823.122	75.18704
823.531	49.11672
823.939	99.23998
824.348	83.20142
824.756	95.23692
825.164	119.29688
825.573	67.16818
825.981	111.2733
826.389	87.21791
826.797	70.1753
827.205	42.09698
827.612	71.1752
828.02	18.0427
828.428	62.15806
828.835	75.19707
829.243	91.2161
829.65	32.08008
830.057	46.11215
830.464	78.18975
830.871	81.19361
831.278	62.15009
831.685	99.2198
832.092	89.21711
832.499	37.08157
832.905	35.08912
833.312	53.12139
833.718	80.1989
834.124	47.10795
834.531	76.19129
834.937	67.17192
835.343	67.16174
835.749	74.17278
836.155	77.20116
836.561	66.16236
836.966	74.18076
837.372	79.20058
837.777	55.13727
838.183	14.0315
838.588	72.17855
838.993	62.15111
839.399	53.12987
839.804	22.05404
840.209	43.10984
840.613	24.05389
841.018	46.11686
841.423	34.08766
841.828	47.11921
842.232	106.26065
842.637	60.14174
843.041	-1.00259
843.445	60.15058
843.849	62.15353
844.253	56.13337
844.657	-1.00255
845.061	58.13185
845.465	54.13068
845.869	57.13269
846.272	10.02459
846.676	68.16437
847.079	29.07415
847.483	87.2161
847.886	25.06128
848.289	29.07777
848.692	64.16201
849.095	57.13708
849.498	102.25673
849.901	45.10364
850.304	67.16002
850.707	56.14292
851.109	96.24145
851.512	44.10848
851.914	20.05075
852.316	81.20413
852.718	44.11387
853.121	56.13735
853.523	43.10089
853.925	14.03679
854.326	42.10533
854.728	34.08781
855.13	23.05968
855.531	-14.03393
855.933	50.12031
856.334	24.06021
856.736	38.08554
857.137	10.02349
857.538	58.14583
857.939	-3.0075
858.34	62.15105
858.741	71.18517
859.142	56.13465
859.542	51.13469
859.943	17.04257
860.343	6.015
860.744	39.09553
861.144	63.15357
861.544	-14.03411
861.945	39.09972
862.345	31.07622
862.745	68.16869
863.145	70.16703
863.544	45.11397
863.944	41.09721
864.344	54.13426
864.743	61.1513
865.143	66.16927
865.542	23.05373
865.941	60.14847
866.34	40.09618
866.74	38.10229
867.139	56.13414
867.537	27.06916
867.936	44.1062
868.335	49.12485
868.734	54.13806
869.132	81.18737
869.531	89.21403
869.929	33.07561
870.327	49.11766
870.726	50.12485
871.124	56.13096
871.522	57.14519
871.92	46.1137
872.318	40.09811
872.715	76.18751
873.113	27.06616
873.511	17.04266
873.908	8.02037
874.306	52.12943
874.703	67.16734
875.1	51.13059
875.497	36.08666
875.894	-22.05468
876.291	68.16653
876.688	43.11115
877.085	55.13202
877.482	14.03531
877.878	35.08459
878.275	47.11959
878.671	80.17736
879.068	34.08243
879.464	0
879.86	62.14647
880.256	93.22797
880.652	50.12729
881.048	67.1657
881.444	70.1662
881.84	49.12468
882.236	41.10336
882.631	59.14473
883.027	58.14041
883.422	34.08726
883.817	-20.05093
884.213	35.09012
884.608	2.00495
885.003	40.09672
885.398	16.04033
885.793	35.08817
886.188	20.05003
886.582	102.25948
886.977	85.2006
887.371	56.14161
887.766	21.05254
888.16	68.16931
888.554	68.16777
888.949	49.12318
889.343	80.19454
889.737	-29.07833
890.131	51.12802
890.525	52.13304
890.918	44.11095
891.312	64.15289
891.706	36.09474
892.099	94.23753
892.492	51.11017
892.886	19.0468
893.279	21.05381
893.672	31.07924
894.065	33.08296
894.458	21.05313
894.851	68.16623
895.244	10.02574
895.637	31.075
896.029	23.05657
896.422	60.14645
896.814	8.02006
897.206	17.04077
897.599	76.18723
897.991	47.1138
898.383	22.05231
898.775	34.07707
899.167	-1.00236
899.559	56.14171
899.951	35.08283
900.342	66.16749
900.734	-20.05029
901.125	91.23725
901.517	41.10088
901.908	55.13187
902.299	47.11504
902.69	60.14141
903.082	33.08023
903.473	17.04099
903.863	39.09976
904.254	34.07923
904.645	49.12198
905.036	-3.00734
905.426	59.13496
905.817	21.05184
906.207	17.04079
906.597	32.07516
906.987	54.13994
907.378	53.13404
907.768	47.12438
908.158	37.0905
908.547	31.08038
908.937	40.10287
909.327	59.14312
909.717	74.18719
910.106	40.09632
910.495	38.09513
910.885	58.14677
911.274	35.08776
911.663	57.14457
912.052	69.16977
912.441	28.07151
912.83	38.0875
913.219	73.19039
913.608	26.06401
913.997	7.01769
914.385	30.072
914.774	59.1435
915.162	41.09793
915.55	59.14259
915.939	28.07098
916.327	61.15202
916.715	17.04359
917.103	67.16448
917.491	48.11886
917.878	30.07407
918.266	82.21155
918.654	45.11511
919.041	30.0786
919.429	7.01667
919.816	45.11422
920.203	27.06579
920.591	71.17546
920.978	75.18289
921.365	58.15202
921.752	15.03602
922.139	65.14077
922.525	26.06275
922.912	40.09778
923.299	44.10951
923.685	26.06812
924.072	69.1586
924.458	43.10669
924.844	42.10412
925.231	37.08637
925.617	9.02306
926.003	42.10753
926.389	40.10111
926.774	43.10914
927.16	87.21468
927.546	4.01029
927.931	47.11738
928.317	21.04868
928.702	41.09721
929.088	-7.01674
929.473	22.05626
929.858	-41.10084
930.243	27.0651
930.628	-9.02214
931.013	50.12395
931.398	89.20318
931.783	69.18112
932.167	42.10286
932.552	32.08046
932.937	55.13642
933.321	12.03032
933.705	39.09853
934.09	52.1314
934.474	46.10938
934.858	82.21155
935.242	11.0257
935.626	58.14828
936.009	46.12244
936.393	60.15242
936.777	28.07199
937.16	31.08093
937.544	58.13649
937.927	30.0764
938.311	73.17748
938.694	49.12962
939.077	54.1292
939.46	63.15437
939.843	47.09817
940.226	42.1079
940.609	-5.01161
940.991	52.13233
941.374	9.02217
941.757	29.07185
942.139	8.01813
942.522	24.05703
942.904	36.08679
943.286	50.12706
943.668	51.1321
944.05	52.12806
944.432	1.00249
944.814	46.11341
945.196	16.03924
945.578	-38.09185
945.959	41.09627
946.341	68.16641
946.722	16.03781
947.104	23.05527
947.485	65.15084
947.866	8.02031
948.247	4.01018
948.628	37.0905
949.009	1.00258
949.39	36.08986
949.771	60.13932
950.152	77.18805
950.532	-30.07489
950.913	43.10388
951.293	46.12435
951.674	38.09213
952.054	-5.01251
952.434	39.09702
952.814	33.07879
953.194	85.22115
953.574	72.17666
953.954	50.11876
954.334	56.13943
954.714	16.03924
955.093	63.15455
955.473	53.13247
955.853	55.14226
956.232	43.11799
956.611	76.18142
956.99	15.03794
957.37	54.13752
957.749	48.11458
958.128	35.08843
958.506	14.03654
958.885	40.10115
959.264	17.04192
959.643	72.16314
960.021	25.06224
960.4	19.04334
960.778	42.10362
961.156	3.00758
961.535	-1.00235
961.913	66.15398
962.291	3.00776
962.669	29.07374
963.047	50.1276
963.424	35.08956
963.802	-11.02735
964.18	51.12903
964.557	58.1334
964.935	82.19311
965.312	18.04713
965.69	66.16481
966.067	50.12177
966.444	32.07912
966.821	47.12123
967.198	54.13092
967.575	81.19804
967.952	53.12484
968.329	69.16732
968.705	68.14528
969.082	43.11042
969.458	8.01934
969.835	44.10724
970.211	48.12323
970.587	41.10225
970.963	60.15366
971.339	34.08902
971.715	25.06271
972.091	48.11825
972.467	36.09003
972.843	34.08462
973.219	131.30976
973.594	63.16442
973.97	57.13551
974.345	-9.02178
974.721	45.10908
975.096	84.20197
975.471	80.18869
975.846	60.14388
976.221	21.0536
976.596	14.03379
976.971	38.09403
977.346	75.17377
977.72	40.10208
978.095	12.03122
978.469	30.07189
978.844	65.16299
979.218	1.00242
979.593	63.15059
979.967	42.10248
980.341	17.0394
980.715	49.12349
981.089	60.14993
981.463	24.0554
981.837	20.04914
982.21	74.17142
982.584	33.07996
982.957	46.11495
983.331	35.08299
983.704	23.0568
984.078	9.02235
984.451	103.25482
984.824	-7.01723
985.197	66.15983
985.57	44.11047
985.943	67.16497
986.316	59.14473
986.688	42.10145
987.061	67.15653
987.434	36.09403
987.806	58.14046
988.179	10.02378
988.551	60.15194
988.923	19.04706
989.295	70.17429
989.667	-34.08252
990.039	7.01743
990.411	21.04862
990.783	55.12652
991.155	20.04833
991.527	82.20075
991.898	44.10975
992.27	49.12123
992.641	49.12296
993.012	61.14324
993.384	73.17335
993.755	42.10723
994.126	4.00971
994.497	40.09836
994.868	42.09664
995.239	56.13557
995.61	-6.01525
995.98	4.0098
996.351	31.07703
996.722	19.04434
997.092	43.10196
997.462	4.00943
997.833	35.08321
998.203	88.21183
998.573	16.04008
998.943	60.14042
999.313	27.06498
999.683	9.02177
1000.053	37.08535
1000.423	63.15271
1000.792	21.05469
1001.162	48.11816
1001.531	34.08407
1001.901	30.07505
1002.27	70.15584
1002.639	36.0922
1003.009	72.17048
1003.378	23.05908
1003.747	40.09468
1004.116	-8.01935
1004.485	44.10527
1004.853	47.11912
1005.222	56.14105
1005.591	33.07861
1005.959	-2.00455
1006.328	35.079
1006.696	12.02915
1007.064	31.07824
1007.433	24.06026
1007.801	34.0837
1008.169	29.0735
1008.537	64.1413
1008.905	3.00705
1009.273	32.0793
1009.64	-13.03138
1010.008	49.11681
1010.375	82.19791
1010.743	80.18363
1011.11	24.05707
1011.478	27.06709
1011.845	35.08254
1012.212	21.04781
1012.579	64.15668
1012.946	42.1001
1013.313	83.19626
1013.68	31.06994
1014.047	3.00721
1014.414	8.01905
1014.78	44.10943
1015.147	62.14958
1015.513	50.12045
1015.88	77.19592
1016.246	60.14781
1016.612	38.08719
1016.978	37.09087
1017.344	25.06205
1017.71	89.21541
1018.076	38.0898
1018.442	71.18193
1018.808	-3.00757
1019.174	36.09051
1019.539	127.28782
1019.905	2.00476
1020.27	21.05209
1020.636	75.17893
1021.001	7.01689
1021.366	3.00727
1021.731	51.13109
1022.096	-10.02549
1022.461	25.05944
1022.826	51.12116
1023.191	23.0606
1023.556	89.20694
1023.92	73.17868
1024.285	64.15575
1024.649	45.11035
1025.014	54.13362
1025.378	24.0606
1025.742	22.0549
1026.107	49.11083
1026.471	42.09818
1026.835	29.07214
1027.199	-1.00243
1027.562	59.13686
1027.926	0
1028.29	22.05593
1028.654	41.09447
1029.017	49.12043
1029.381	12.02886
1029.744	42.10723
1030.107	46.10888
1030.471	66.15749
1030.834	15.03435
1031.197	75.17975
1031.56	41.09688
1031.923	4.01042
1032.286	74.17291
1032.648	50.11954
1033.011	8.01851
1033.374	59.13838
1033.736	6.01589
1034.099	31.07579
1034.461	-19.04857
1034.823	31.07742
1035.185	54.13577
1035.548	53.12886
1035.91	7.0169
1036.272	20.04578
1036.634	53.12953
1036.995	42.09883
1037.357	7.01716
1037.719	5.01226
1038.08	37.08803
1038.442	37.088
1038.803	53.12712
1039.165	6.01525
1039.526	20.04858
1039.887	3.00724
1040.248	-16.03988
1040.609	60.14792
1040.97	40.09789
1041.331	32.08124
1041.692	25.05861
1042.053	77.1743
1042.413	55.12799
1042.774	86.20764
1043.134	72.17062
1043.495	47.11815
1043.855	51.12362
1044.215	44.10927
1044.576	-22.0533
1044.936	60.13722
1045.296	44.10987
1045.656	36.08853
1046.016	45.10867
1046.375	52.12602
1046.735	37.08406
1047.095	52.1216
1047.454	-3.00643
1047.814	16.03869
1048.173	33.07906
1048.533	41.09405
1048.892	-18.04374
1049.251	48.12047
1049.61	3.00745
1049.969	18.04267
1050.328	38.08256
1050.687	20.04891
1051.046	31.07571
1051.405	27.06741
1051.763	2.00464
1052.122	37.09244
1052.48	52.1274
1052.839	28.06612
1053.197	18.0426
1053.555	72.16334
1053.914	54.1319
1054.272	42.10164
1054.63	10.02462
1054.988	-11.02642
1055.345	44.09482
1055.703	61.14642
1056.061	65.16667
1056.419	33.08562
1056.776	19.04632
1057.134	30.06969
1057.491	33.08284
1057.848	22.05502
1058.206	13.03078
1058.563	41.0905
1058.92	48.11062
1059.277	51.12571
1059.634	33.07785
1059.991	69.16461
1060.348	15.03412
1060.704	-2.00481
1061.061	78.18011
1061.418	12.02929
1061.774	21.05209
1062.131	-6.016
1062.487	20.04701
1062.843	40.09985
1063.199	21.05247
1063.555	0
1063.911	41.10366
1064.267	75.15548
1064.623	37.09003
1064.979	104.24368
1065.335	31.07432
1065.691	45.10789
1066.046	35.07716
1066.402	47.10678
1066.757	32.08098
1067.112	82.19993
1067.468	1.00238
1067.823	63.15099
1068.178	22.05346
1068.533	32.07779
1068.888	67.15947
1069.243	37.09147
1069.598	85.20503
1069.952	-46.10554
1070.307	22.0547
1070.662	35.08328
1071.016	-6.01359
1071.371	7.01605
1071.725	54.129
1072.079	18.04353
1072.434	7.01713
1072.788	18.0431
1073.142	90.21959
1073.496	6.01434
1073.85	33.07673
1074.203	47.11401
1074.557	51.1355
1074.911	68.16164
1075.265	84.19381
1075.618	64.15575
1075.971	43.10235
1076.325	16.04088
1076.678	-40.09306
1077.031	41.09288
1077.385	-5.01113
1077.738	-47.10812
1078.091	-28.06463
1078.444	44.10221
1078.796	18.04439
1079.149	51.12673
1079.502	12.02854
1079.855	5.01175
1080.207	50.12309
1080.56	18.04674
1080.912	29.07082
1081.264	34.08206
1081.617	9.02209
1081.969	-8.02037
1082.321	28.0686
1082.673	-53.12338
1083.025	19.04531
1083.377	-222.50403
1083.728	63.14649
1084.08	25.06264
1084.432	20.04847
1084.783	75.17473
1085.135	6.01515
1085.486	-36.08372
1085.838	2.00497
1086.189	-2.0049
1086.54	40.09563
1086.891	15.03814
1087.242	25.0611
1087.593	40.09749
1087.944	32.07263
1088.295	40.09104
1088.646	46.11148
1088.996	23.05565
1089.347	31.07627
1089.698	-9.0215
1090.048	24.06256
1090.398	43.09979
1090.749	56.13373
1091.099	39.09818
1091.449	33.08239
1091.799	50.12508
1092.149	11.02699
1092.499	18.04413
1092.849	28.07138
1093.199	52.13018
1093.548	-7.01699
1093.898	13.03271
1094.248	48.12328
1094.597	-27.06979
1094.947	15.04021
1095.296	14.03477
1095.645	42.10929
1095.994	-15.03644
1096.343	26.06565
1096.692	-7.01855
1097.041	-16.04374
1097.39	30.07546
1097.739	46.11954
1098.088	49.13119
1098.437	7.01851
1098.785	38.10256
1099.134	51.13528
1099.482	40.11009
1099.83	42.11042
1100.179	15.03932
1100.527	30.07991
1100.875	26.06895
1101.223	50.13265
1101.571	24.06653
1101.919	-3.0079
1102.267	23.06496
1102.615	10.03213
1102.962	22.07073
1103.31	6.01928
1103.658	16.0515
