Data from N2 R5 sample 10_Subt2__4__13-33-17-239.txt Node

Date: Fri Aug 29 13:33:17 PDT 2025
User: uwsun
Spectrometer: HDX01956
Trigger mode: 0
Integration Time (sec): 5.000000E-1
Scans to average: 1
Nonlinearity correction enabled: true
Boxcar width: 0
Storing dark spectrum: false
XAxis mode: Wavelengths
Number of Pixels in Spectrum: 2068
>>>>>Begin Spectral Data<<<<<
194.03	389.02286
194.578	396.18642
195.127	376.11128
195.676	392.15995
196.225	462.12722
196.773	488.22948
197.321	663.5788
197.87	927.89657
198.418	913.84435
198.966	892.82368
199.513	826.617
200.061	821.64166
200.609	865.83178
201.156	807.35237
201.704	883.72834
202.251	875.8288
202.798	837.72387
203.345	931.77783
203.892	944.8266
204.438	911.67334
204.985	858.55725
205.532	915.8779
206.078	932.75357
206.624	910.71378
207.17	992.71829
207.716	876.63996
208.262	905.31387
208.808	902.69537
209.354	884.65578
209.899	971.89099
210.445	917.7443
210.99	922.68808
211.535	914.64233
212.08	964.68642
212.625	919.78027
213.17	957.86633
213.715	887.47632
214.259	913.62334
214.804	964.82365
215.348	1010.71264
215.892	988.78559
216.436	998.73237
216.98	984.61906
217.524	891.61769
218.068	959.85875
218.612	940.8327
219.155	889.60996
219.698	831.55212
220.242	905.76479
220.785	877.58657
221.328	850.67346
221.871	873.75381
222.414	872.71281
222.956	812.53864
223.499	801.41199
224.041	796.4738
224.583	846.41676
225.126	782.35295
225.668	791.52906
226.21	863.70824
226.751	753.29127
227.293	820.47004
227.835	818.57793
228.376	827.50201
228.918	842.69263
229.459	754.50718
230	802.50857
230.541	862.54155
231.082	815.56049
231.622	825.48927
232.163	786.51104
232.704	779.54104
233.244	795.5698
233.784	852.64834
234.324	754.28988
234.864	775.38243
235.404	828.54994
235.944	831.54753
236.484	837.65517
237.023	805.49309
237.563	811.46096
238.102	811.50499
238.641	804.62061
239.18	834.50823
239.719	886.73626
240.258	793.39422
240.797	837.55872
241.335	872.66459
241.874	806.16337
242.412	851.58798
242.95	816.51767
243.488	877.53102
244.026	800.43485
244.564	883.35573
245.102	835.43839
245.64	894.66549
246.177	855.46667
246.715	883.63886
247.252	854.51232
247.789	865.20833
248.326	867.59555
248.863	872.44054
249.4	880.52297
249.936	881.34548
250.473	881.56388
251.009	873.51682
251.546	862.43655
252.082	871.44007
252.618	885.48106
253.154	892.63304
253.69	864.47701
254.226	875.59823
254.761	876.48636
255.297	832.38109
255.832	827.51038
256.367	885.58644
256.903	857.41763
257.438	937.65581
257.972	968.58294
258.507	851.4746
259.042	906.45895
259.576	835.34309
260.111	904.57704
260.645	956.51461
261.179	896.57208
261.713	931.52689
262.247	889.54714
262.781	882.35857
263.315	894.6622
263.849	917.74092
264.382	924.58749
264.915	1013.72376
265.449	871.60052
265.982	960.61006
266.515	952.73437
267.048	963.46347
267.58	913.47898
268.113	860.37758
268.646	936.73269
269.178	946.53823
269.71	1005.57392
270.243	990.64791
270.775	939.8035
271.307	980.75132
271.838	984.73233
272.37	929.71501
272.902	980.62406
273.433	985.54424
273.965	946.71473
274.496	933.74988
275.027	963.77614
275.558	988.7584
276.089	949.71713
276.62	1015.91796
277.15	974.78707
277.681	966.51301
278.211	1022.83594
278.741	939.48884
279.272	933.55229
279.802	976.80689
280.332	966.65722
280.861	1011.76564
281.391	985.59875
281.921	994.75089
282.45	1061.92321
282.98	1066.03023
283.509	1009.61038
284.038	948.56307
284.567	1046.74433
285.096	991.7406
285.625	1028.6441
286.153	971.63876
286.682	1003.62626
287.21	1027.76455
287.739	1021.71692
288.267	1083.84132
288.795	1081.06334
289.323	982.63096
289.851	1046.72528
290.378	1038.62068
290.906	1019.74611
291.433	1032.84449
291.961	1043.63182
292.488	1089.91126
293.015	1067.73726
293.542	1058.8969
294.069	1109.88872
294.596	1152.97327
295.122	1188.90669
295.649	1141.67612
296.175	1058.80301
296.702	1134.89272
297.228	1184.95609
297.754	1137.69876
298.28	1139.71814
298.806	1122.83384
299.332	1115.6257
299.857	1122.68175
300.383	1187.05445
300.908	1141.85313
301.433	1121.84187
301.958	1251.8748
302.483	1113.89252
303.008	1214.00367
303.533	1193.12477
304.058	1193.85814
304.582	1224.86318
305.107	1128.01322
305.631	1255.82805
306.155	1273.86586
306.679	1214.81406
307.203	1275.85629
307.727	1199.84485
308.251	1288.04266
308.775	1271.88451
309.298	1296.93057
309.822	1308.11122
310.345	1262.88293
310.868	1302.93492
311.391	1339.06327
311.914	1318.07038
312.437	1321.83576
312.96	1419.97348
313.482	1290.87889
314.005	1342.08784
314.527	1339.21066
315.049	1375.14764
315.571	1355.72389
316.093	1510.16704
316.615	1451.02417
317.137	1481.75342
317.659	1499.10128
318.18	1538.10043
318.702	1443.89549
319.223	1535.60505
319.744	1477.79567
320.265	1510.02449
320.786	1515.07724
321.307	1604.16945
321.828	1645.88583
322.348	1575.95385
322.869	1661.97983
323.389	1647.05038
323.909	1620.88618
324.43	1713.11638
324.95	1677.86796
325.47	1635.05467
325.989	1656.92062
326.509	1741.71312
327.029	1773.7868
327.548	1800.77271
328.067	1808.9947
328.587	1820.14363
329.106	1776.7848
329.625	1857.39821
330.144	1841.82157
330.662	1889.82307
331.181	1905.86574
331.7	1895.8524
332.218	2033.58938
332.736	2006.8463
333.255	1991.79562
333.773	2101.86052
334.291	2041.07906
334.808	1999.59683
335.326	2136.64069
335.844	2219.67503
336.361	2176.99331
336.879	2161.65736
337.396	2199.7711
337.913	2236.5755
338.43	2425.45199
338.947	2372.66081
339.464	2353.23987
339.981	2374.58228
340.497	2445.76163
341.014	2429.66097
341.53	2340.34347
342.046	2451.6341
342.562	2532.7137
343.078	2486.43591
343.594	2560.46604
344.11	2597.41805
344.626	2586.62978
345.141	2690.1644
345.657	2715.16469
346.172	2788.32757
346.687	2641.14883
347.202	2724.00626
347.717	2793.21416
348.232	2824.38824
348.747	2852.9901
349.261	2826.71686
349.776	2850.03548
350.29	2911.12829
350.805	3041.16788
351.319	2994.88637
351.833	2990.70417
352.347	2974.86794
352.861	3039.76895
353.374	3085.74441
353.888	3165.85471
354.401	3081.65704
354.915	3072.48286
355.428	3184.84904
355.941	3230.52488
356.454	3314.40895
356.967	3188.62552
357.48	3283.45468
357.993	3352.66381
358.505	3375.56239
359.018	3467.50975
359.53	3510.36483
360.042	3536.07422
360.554	3483.41314
361.066	3500.37046
361.578	3508.9627
362.09	3542.24711
362.602	3527.9291
363.113	3544.07649
363.625	3666.87017
364.136	3697.78218
364.647	3651.83976
365.158	3814.83033
365.669	3822.91753
366.18	3939.77703
366.691	3872.57951
367.201	3792.84905
367.712	3804.62914
368.222	3982.52873
368.733	3983.31664
369.243	4176.24669
369.753	4242.3459
370.263	4319.37523
370.773	4290.45664
371.282	4330.25714
371.792	4290.04732
372.301	4576.09142
372.811	4749.23581
373.32	4586.75919
373.829	4669.86662
374.338	5021.76318
374.847	5026.76186
375.356	5185.79353
375.865	5261.81408
376.373	5636.04711
376.882	5771.07368
377.39	5877.23168
377.898	5931.39532
378.407	6232.15245
378.915	6495.91231
379.423	6793.48322
379.93	6988.46906
380.438	7369.9282
380.946	7564.39538
381.453	8028.99867
381.96	8176.97196
382.468	8650.82869
382.975	9363.70265
383.482	9818.64161
383.989	9891.94996
384.495	10083.45891
385.002	10373.52504
385.509	11170.98286
386.015	12073.19955
386.521	12671.76002
387.028	13075.24545
387.534	13483.87736
388.04	14182.40215
388.546	14117.90095
389.051	14704.26545
389.557	16012.27064
390.063	17773.6371
390.568	18199.23912
391.073	18478.61449
391.578	19591.22881
392.084	19761.20692
392.589	19999.1758
393.093	21102.3155
393.598	23730.28971
394.103	25911.73927
394.607	28408.984
395.112	30595.96689
395.616	32199.18594
396.12	34440.49501
396.624	37860.61175
397.128	41250.72015
397.632	40660.90419
398.136	39172.79427
398.639	36273.96993
399.143	32503.66402
399.646	28888.45294
400.15	25083.82847
400.653	20124.16724
401.156	13866.23708
401.659	5169.95759
402.162	1054.15589
402.664	0
403.167	0
403.67	0
404.172	0
404.674	0
405.176	0
405.678	0
406.18	0
406.682	0
407.184	0
407.686	0
408.187	0
408.688	0
409.19	0
409.691	0
410.192	0
410.693	0
411.194	435.30976
411.694	4082.94878
412.195	8864.71461
412.696	12089.80453
413.196	12760.96929
413.696	12863.67595
414.196	13703.56671
414.696	17261.84252
415.196	21764.24417
415.696	29583.19008
416.196	36460.31858
416.695	40057.39798
417.195	41392.74103
417.694	42311.08144
418.194	43882.52025
418.693	44704.85811
419.192	45402.14938
419.691	45429.69688
420.19	45357.89153
420.688	44562.82038
421.187	43035.23468
421.685	40313.49822
422.184	36990.65866
422.682	32059.1896
423.18	26811.44076
423.678	23877.34168
424.176	22168.5045
424.674	20768.3266
425.172	19624.96968
425.669	18931.96728
426.167	17686.06696
426.664	16115.7622
427.161	14583.64053
427.659	13579.47499
428.156	12689.05571
428.652	11932.53386
429.149	11331.30046
429.646	11095.47529
430.143	10569.35414
430.639	9861.31559
431.135	9206.5728
431.632	8752.77946
432.128	8049.82917
432.624	7609.22292
433.12	7237.82398
433.616	7087.17017
434.111	6705.58181
434.607	6499.74334
435.103	6481.8283
435.598	6327.42408
436.093	6179.66716
436.588	5769.16842
437.083	5432.87958
437.578	5224.7903
438.073	4835.79489
438.568	4819.89398
439.062	4588.73004
439.557	4447.9984
440.051	4317.96029
440.546	4083.07476
441.04	4107.24319
441.534	3994.5375
442.028	3996.43774
442.522	3767.55821
443.015	3691.38013
443.509	3723.752
444.002	3647.80212
444.496	3418.62015
444.989	3488.96425
445.482	3441.06079
445.975	3464.7101
446.468	3393.65123
446.961	3358.68815
447.454	3196.98342
447.947	3252.07421
448.439	3086.35068
448.931	3092.05163
449.424	3040.57451
449.916	3061.42159
450.408	2981.18596
450.9	2917.48917
451.392	2792.73575
451.884	2882.42076
452.375	2710.72946
452.867	2732.52018
453.358	2719.46398
453.849	2613.36181
454.341	2589.56607
454.832	2511.47444
455.323	2577.85895
455.814	2571.71693
456.304	2603.72987
456.795	2510.75865
457.285	2447.77103
457.776	2508.86463
458.266	2388.97089
458.756	2409.06953
459.247	2291.02989
459.737	2139.08122
460.226	2183.91944
460.716	2128.15323
461.206	1985.22251
461.695	2087.40288
462.185	2065.20546
462.674	2119.15457
463.163	2006.06583
463.653	1975.93109
464.142	1874.33416
464.63	1917.43432
465.119	1839.24074
465.608	1791.24836
466.096	1802.14517
466.585	1863.3408
467.073	1721.44831
467.561	1749.47721
468.05	1728.39066
468.538	1707.57079
469.026	1627.47851
469.513	1594.13811
470.001	1634.33994
470.489	1624.46316
470.976	1592.42164
471.463	1524.63743
471.951	1451.64149
472.438	1396.4289
472.925	1331.38719
473.412	1412.62003
473.899	1321.39991
474.385	1354.59881
474.872	1308.4307
475.359	1279.54371
475.845	1248.16872
476.331	1261.31182
476.817	1235.56293
477.303	1236.44898
477.789	1128.46518
478.275	1052.46331
478.761	1130.49165
479.247	1042.28321
479.732	1007.44657
480.218	1121.6878
480.703	1015.48176
481.188	1023.20412
481.673	1007.3196
482.158	925.10059
482.643	902.45002
483.128	961.27925
483.612	912.29592
484.097	925.41715
484.581	883.2794
485.066	813.26846
485.55	733.01987
486.034	744.019
486.518	776.17226
487.002	710.15794
487.486	728.18871
487.969	691.14232
488.453	797.3567
488.936	713.06679
489.42	728.06931
489.903	787.35621
490.386	681.69225
490.869	657.98155
491.352	685.18631
491.835	696.96647
492.318	569.90983
492.8	675.94417
493.283	628.14889
493.765	581.03678
494.247	640.0733
494.73	520.83591
495.212	608.07696
495.694	523.8956
496.175	480.84158
496.657	502.89313
497.139	527.64993
497.62	451.80215
498.102	495.92707
498.583	466.89798
499.064	420.7066
499.545	463.79876
500.026	462.77899
500.507	456.80705
500.988	455.87489
501.469	361.71219
501.949	415.80527
502.43	389.71628
502.91	379.59858
503.39	429.84595
503.87	321.59759
504.35	431.79563
504.83	382.64861
505.31	380.72591
505.79	340.64571
506.269	381.70437
506.749	329.59544
507.228	312.58531
507.707	307.54258
508.187	371.70923
508.666	273.54516
509.145	224.42872
509.623	268.51219
510.102	323.63333
510.581	348.68026
511.059	253.52118
511.538	331.70148
512.016	310.60252
512.494	358.70246
512.972	320.61988
513.45	227.42994
513.928	303.59833
514.406	236.46548
514.884	266.56682
515.361	291.57058
515.839	306.56499
516.316	290.57225
516.793	287.60345
517.27	303.60648
517.747	281.59761
518.224	275.52545
518.701	252.46364
519.178	221.45731
519.654	240.47915
520.131	213.44372
520.607	246.51326
521.083	190.36541
521.56	221.43804
522.036	247.4509
522.512	237.49415
522.987	186.37186
523.463	257.5094
523.939	270.55482
524.414	211.41255
524.89	235.46906
525.365	201.38405
525.84	208.41449
526.315	202.41209
526.79	239.45156
527.265	207.39897
527.74	218.44979
528.215	256.50587
528.689	235.43552
529.164	215.39427
529.638	225.49392
530.112	226.44869
530.587	184.33104
531.061	200.4095
531.534	234.48215
532.008	218.44413
532.482	258.49858
532.956	185.40372
533.429	251.5145
533.903	220.41312
534.376	204.38307
534.849	232.45608
535.322	205.41337
535.795	254.52642
536.268	183.37766
536.741	205.4223
537.213	227.44657
537.686	183.38241
538.158	200.37982
538.631	222.46298
539.103	187.35712
539.575	174.31144
540.047	224.41793
540.519	195.4017
540.991	217.45668
541.463	244.50321
541.934	228.44357
542.406	191.39045
542.877	260.49449
543.348	236.48715
543.82	203.42947
544.291	205.41165
544.762	271.54042
545.233	268.5681
545.703	280.51594
546.174	319.61691
546.645	251.50263
547.115	327.6533
547.585	335.63606
548.056	354.69658
548.526	363.6936
548.996	406.79288
549.466	454.89462
549.935	427.80523
550.405	444.76495
550.875	494.91812
551.344	506.95493
551.814	460.83536
552.283	532.89319
552.752	514.92444
553.221	533.87851
553.69	625.03465
554.159	621.15123
554.628	607.00921
555.096	618.19329
555.565	633.0514
556.033	540.99216
556.502	588.10323
556.97	527.91214
557.438	501.94619
557.906	534.00713
558.374	515.94169
558.842	458.88935
559.31	479.86434
559.777	450.88591
560.245	509.96837
560.712	500.93806
561.18	509.89925
561.647	519.92985
562.114	445.82847
562.581	539.0751
563.048	602.10012
563.514	552.08807
563.981	604.09488
564.448	561.00359
564.914	626.15331
565.381	667.18693
565.847	664.22162
566.313	704.27332
566.779	719.24798
567.245	677.23904
567.711	691.29338
568.176	723.24168
568.642	746.44916
569.108	773.45927
569.573	827.47464
570.038	842.30281
570.504	861.41956
570.969	871.64542
571.434	876.39853
571.899	939.63354
572.363	929.53714
572.828	1040.68698
573.293	1022.66323
573.757	1056.70441
574.222	984.5538
574.686	965.53812
575.15	1015.72069
575.614	983.6107
576.078	1020.69989
576.542	1093.72627
577.006	1037.63929
577.469	1068.89531
577.933	974.54678
578.396	1019.73587
578.86	1030.72976
579.323	992.69834
579.786	1059.57964
580.249	901.49641
580.712	997.77035
581.175	914.67088
581.637	902.53556
582.1	954.51143
582.563	883.39251
583.025	886.59841
583.487	899.29787
583.95	857.34591
584.412	881.35025
584.874	833.52902
585.336	810.45431
585.797	873.3846
586.259	831.48561
586.721	763.3708
587.182	875.53795
587.643	798.37558
588.105	791.4314
588.566	767.22291
589.027	744.38214
589.488	742.30401
589.949	828.52783
590.41	729.06325
590.87	862.47674
591.331	793.29626
591.791	747.32482
592.252	698.23677
592.712	729.36598
593.172	739.27939
593.632	827.36408
594.092	801.3518
594.552	806.30326
595.011	843.4468
595.471	851.42244
595.931	763.29867
596.39	823.49473
596.849	869.51304
597.308	901.43736
597.768	862.66453
598.227	907.6318
598.685	943.59566
599.144	948.62625
599.603	955.6632
600.062	894.36259
600.52	952.53504
600.978	1012.73731
601.437	1002.65609
601.895	1090.59145
602.353	1033.62919
602.811	1005.59303
603.269	1103.8674
603.727	1107.87117
604.184	1188.81124
604.642	1198.03156
605.099	1249.95155
605.557	1251.08269
606.014	1247.76074
606.471	1330.21319
606.928	1315.7936
607.385	1441.23479
607.842	1628.21673
608.299	1672.31732
608.755	1648.40143
609.212	1578.09087
609.668	1631.09906
610.125	1690.45302
610.581	1821.51566
611.037	1725.32323
611.493	1715.42849
611.949	1619.39671
612.405	1668.87532
612.861	1684.40695
613.316	1684.43077
613.772	1696.31837
614.227	1697.4041
614.683	1746.14385
615.138	1694.37813
615.593	1769.4084
616.048	1675.31639
616.503	1749.61979
616.958	1743.67116
617.412	1718.45327
617.867	1667.18693
618.321	1735.05192
618.776	1736.26039
619.23	1663.4037
619.684	1740.34458
620.138	1706.42533
620.592	1605.48885
621.046	1609.39317
621.5	1598.49148
621.954	1631.28905
622.407	1564.20541
622.861	1539.45179
623.314	1529.25238
623.768	1505.29723
624.221	1421.78557
624.674	1378.1567
625.127	1377.20412
625.58	1396.16753
626.033	1317.01136
626.485	1262.14869
626.938	1306.19553
627.39	1292.12031
627.843	1279.0971
628.295	1231.04586
628.747	1167.04311
629.199	1129.89513
629.651	1096.85501
630.103	1117.9024
630.555	1034.64436
631.006	1070.90769
631.458	988.811
631.909	1037.83397
632.361	970.77169
632.812	878.62028
633.263	894.52435
633.714	895.51829
634.165	889.74256
634.616	906.73043
635.067	870.55669
635.518	857.66869
635.968	874.39532
636.419	856.50408
636.869	792.5657
637.319	791.513
637.769	754.40284
638.219	763.53259
638.669	674.37445
639.119	753.55209
639.569	666.38086
640.019	704.3863
640.468	670.28027
640.918	735.50613
641.367	673.29316
641.816	613.19183
642.265	645.2911
642.714	645.29229
643.163	617.23667
643.612	570.20419
644.061	571.05625
644.51	571.14485
644.958	608.16384
645.406	562.19037
645.855	580.25904
646.303	635.29686
646.751	627.24169
647.199	598.19439
647.647	583.18242
648.095	564.14461
648.543	610.09118
648.99	586.2375
649.438	632.30386
649.885	596.30809
650.333	547.93874
650.78	572.22847
651.227	608.30646
651.674	590.18765
652.121	583.26153
652.568	534.16446
653.015	605.36151
653.461	535.14174
653.908	584.20901
654.354	572.22003
654.801	516.09041
655.247	572.11752
655.693	513.21525
656.139	492.07228
656.585	520.12813
657.031	457.97439
657.477	492.96313
657.922	522.08383
658.368	558.2405
658.813	526.10866
659.259	483.05774
659.704	462.98783
660.149	499.05741
660.594	489.05964
661.039	498.03207
661.484	491.07394
661.929	423.91912
662.373	479.10835
662.818	415.95909
663.262	403.90505
663.707	447.04807
664.151	426.96904
664.595	403.90802
665.039	458.05402
665.483	429.01558
665.927	462.00465
666.371	363.79011
666.814	436.9697
667.258	363.80888
667.701	519.0217
668.145	456.05316
668.588	446.01654
669.031	354.78671
669.474	413.93169
669.917	418.86668
670.36	415.9648
670.803	423.95657
671.245	415.81873
671.688	417.9549
672.13	370.78361
672.573	430.02206
673.015	374.8501
673.457	377.77591
673.899	400.91359
674.341	397.90327
674.783	369.83788
675.225	386.89687
675.666	346.7906
676.108	358.73963
676.549	391.87594
676.991	385.80272
677.432	329.6268
677.873	363.79883
678.314	345.78626
678.755	344.79868
679.196	358.78006
679.637	344.80372
680.078	352.78681
680.518	379.83963
680.959	381.86548
681.399	335.79481
681.839	308.72161
682.28	315.74622
682.72	317.69703
683.16	318.76016
683.6	343.74944
684.039	322.64525
684.479	321.75603
684.919	251.56258
685.358	299.73231
685.798	299.7553
686.237	292.68332
686.676	368.81476
687.115	293.66588
687.554	270.62268
687.993	295.63175
688.432	312.68704
688.871	263.58049
689.309	236.551
689.748	309.6245
690.186	289.66901
690.625	222.51036
691.063	234.5489
691.501	251.60495
691.939	264.63952
692.377	288.67977
692.815	238.5561
693.253	297.69107
693.69	252.54118
694.128	239.56533
694.565	255.59313
695.003	262.64658
695.44	244.56026
695.877	262.59532
696.314	263.55251
696.751	297.65662
697.188	209.47269
697.625	290.64664
698.061	234.54933
698.498	268.63134
698.934	265.62124
699.371	200.46383
699.807	193.45088
700.243	269.62914
700.679	244.54115
701.115	264.60642
701.551	240.5535
701.987	253.55655
702.422	227.52842
702.858	205.48097
703.294	258.57077
703.729	235.56296
704.164	149.35696
704.599	210.46129
705.035	201.44384
705.47	231.54979
705.904	220.50334
706.339	262.59508
706.774	242.55433
707.209	240.54135
707.643	222.5234
708.078	180.43343
708.512	173.42752
708.946	214.50474
709.38	209.48768
709.814	227.50984
710.248	198.47587
710.682	223.52034
711.116	159.37611
711.549	216.54694
711.983	202.4603
712.416	238.5513
712.85	237.5779
713.283	207.48244
713.716	231.56873
714.149	258.60022
714.582	216.47746
715.015	243.59496
715.448	246.60554
715.881	259.55394
716.313	204.47105
716.746	165.38547
717.178	184.43718
717.61	226.56164
718.043	220.53815
718.475	234.55533
718.907	261.644
719.339	213.47466
719.77	193.45105
720.202	207.51453
720.634	189.45347
721.065	201.46956
721.497	208.50142
721.928	154.37532
722.359	148.35449
722.79	206.48493
723.221	235.57879
723.652	244.61519
724.083	183.40849
724.514	233.5246
724.945	184.42757
725.375	153.3528
725.806	219.5368
726.236	218.54807
726.666	206.4802
727.096	186.45076
727.526	212.52839
727.956	170.38315
728.386	199.48272
728.816	183.4567
729.246	161.38776
729.675	172.41856
730.105	226.54522
730.534	178.41232
730.964	224.55525
731.393	205.50156
731.822	214.53647
732.251	199.49698
732.68	264.60593
733.109	183.44524
733.537	187.44559
733.966	214.52153
734.395	204.46392
734.823	214.47521
735.251	162.38699
735.68	239.58538
736.108	195.48594
736.536	181.42235
736.964	166.38209
737.392	194.47826
737.82	170.40423
738.247	153.3643
738.675	198.46664
739.102	190.46754
739.53	174.43746
739.957	210.53004
740.384	199.4838
740.811	206.51325
741.238	158.38248
741.665	152.35028
742.092	207.48643
742.519	174.42533
742.945	138.33004
743.372	179.43763
743.798	176.44677
744.225	151.35678
744.651	184.45545
745.077	152.37611
745.503	208.49876
745.929	143.34141
746.355	229.55798
746.781	175.42864
747.207	87.20517
747.632	134.32499
748.058	159.39321
748.483	176.40106
748.908	183.44857
749.334	164.39894
749.759	162.37868
750.184	123.29242
750.609	137.3352
751.033	173.40511
751.458	149.33301
751.883	173.4239
752.307	120.28227
752.732	157.38812
753.156	180.43868
753.58	156.36795
754.005	147.37045
754.429	127.29786
754.853	139.34224
755.277	110.26066
755.7	178.43591
756.124	143.35235
756.548	106.25157
756.971	175.42227
757.394	135.34567
757.818	132.3377
758.241	140.35275
758.664	133.33397
759.087	79.17773
759.51	141.3487
759.933	142.33947
760.356	122.31157
760.778	126.30869
761.201	167.40206
761.623	143.34506
762.046	175.41075
762.468	167.39733
762.89	166.40547
763.312	197.4732
763.734	107.25771
764.156	98.24232
764.578	89.20604
765	146.3537
765.421	101.25617
765.843	129.3362
766.264	152.36449
766.686	88.22165
767.107	105.25452
767.528	56.14231
767.949	118.29902
768.37	83.20451
768.791	86.20897
769.212	92.23114
769.632	49.11546
770.053	98.25772
770.473	114.2768
770.894	99.24806
771.314	141.33496
771.734	93.21744
772.154	85.21864
772.575	89.20727
772.994	72.1648
773.414	110.26408
773.834	78.19569
774.254	83.20383
774.673	117.28424
775.093	63.15683
775.512	60.14879
775.931	74.18825
776.351	50.12517
776.77	92.22506
777.189	93.22161
777.607	35.09025
778.026	89.22188
778.445	14.0355
778.864	77.198
779.282	67.16216
779.701	72.18213
780.119	50.1272
780.537	55.13811
780.955	101.25653
781.373	69.17139
781.791	57.12923
782.209	96.22159
782.627	56.14817
783.045	76.17563
783.462	43.11069
783.88	33.0861
784.297	63.15917
784.715	30.07772
785.132	72.17495
785.549	81.20281
785.966	105.26319
786.383	73.18007
786.8	38.08928
787.217	40.09577
787.633	52.13051
788.05	96.2281
788.466	110.25875
788.883	25.06437
789.299	64.15487
789.715	61.14903
790.131	45.11272
790.547	69.17283
790.963	55.13727
791.379	73.18482
791.795	55.12652
792.21	36.08508
792.626	40.09581
793.041	57.14138
793.457	50.12436
793.872	77.18144
794.287	-6.01456
794.702	70.17296
795.117	27.06773
795.532	42.10594
795.947	63.15237
796.362	97.23132
796.776	110.25683
797.191	20.04953
797.605	0
798.02	52.12726
798.434	79.17642
798.848	45.11153
799.262	38.09496
799.676	45.1106
800.09	74.1823
800.504	56.13659
800.918	39.09118
801.331	86.22509
801.745	50.11569
802.158	18.04548
802.572	32.07837
802.985	46.11199
803.398	37.08901
803.811	74.19038
804.224	79.19666
804.637	9.02173
805.05	51.11901
805.462	42.10393
805.875	16.04186
806.288	7.01711
806.7	8.02035
807.112	51.11901
807.525	30.0747
807.937	18.04496
808.349	27.06824
808.761	48.11873
809.173	55.13387
809.584	78.19279
809.996	42.10347
810.408	11.02868
810.819	22.05231
811.231	92.23677
811.642	140.32957
812.053	225.51964
812.464	279.63741
812.875	254.62823
813.286	137.34858
813.697	145.33489
814.108	75.1833
814.519	46.1033
814.929	105.26631
815.34	61.14836
815.75	-1.00257
816.16	34.08536
816.571	64.16643
816.981	32.07624
817.391	30.07306
817.801	11.02762
818.211	39.09365
818.62	31.07523
819.03	51.12553
819.44	71.18542
819.849	39.09885
820.259	55.14118
820.668	-4.00997
821.077	38.09492
821.486	42.10179
821.895	70.17308
822.304	60.15918
822.713	39.09283
823.122	22.05539
823.531	-3.00722
823.939	38.09317
824.348	75.18228
824.756	56.14065
825.164	54.13631
825.573	23.05819
825.981	61.15158
826.389	43.10856
826.797	29.07316
827.205	6.01395
827.612	41.10173
828.02	50.11789
828.428	60.15302
828.835	49.12932
829.243	66.15749
829.65	21.05266
830.057	22.05388
830.464	39.09557
830.871	69.16531
831.278	39.09482
831.685	86.19145
832.092	60.14716
832.499	48.10557
832.905	37.09418
833.312	64.14625
833.718	69.17189
834.124	30.06914
834.531	42.10636
834.937	84.2149
835.343	29.07051
835.749	51.11962
836.155	50.13123
836.561	22.05456
836.966	65.15904
837.372	64.16293
837.777	44.11003
838.183	68.15132
838.588	15.03759
838.993	66.16074
839.399	0
839.804	4.00986
840.209	19.04874
840.613	30.06729
841.018	45.11434
841.423	42.10813
841.828	48.12172
842.232	54.13406
842.637	37.0878
843.041	19.04906
843.445	43.10825
843.849	40.09945
844.253	50.11922
844.657	-19.04853
845.061	50.11385
845.465	17.04143
845.869	7.01646
846.272	-1.00246
846.676	36.08754
847.079	0
847.483	54.13494
847.886	44.10748
848.289	57.15215
848.692	21.05357
849.095	37.08932
849.498	74.18719
849.901	49.11276
850.304	76.18121
850.707	56.14292
851.109	59.14938
851.512	28.06923
851.914	-7.01785
852.316	36.09145
852.718	-17.04446
853.121	9.02227
853.523	66.15416
853.925	35.09166
854.326	21.05287
854.728	42.10832
855.13	-5.01304
855.531	-21.05096
855.933	57.13697
856.334	22.05521
856.736	-8.01818
857.137	-13.03067
857.538	28.07078
857.939	14.03487
858.34	65.15827
858.741	28.07356
859.142	43.10364
859.542	17.04515
859.943	34.08487
860.343	-16.04016
860.744	71.17288
861.144	44.10764
861.544	-23.05613
861.945	16.04108
862.345	92.22364
862.745	57.14169
863.145	32.07691
863.544	51.12903
863.944	54.12772
864.344	91.22472
864.743	41.10207
865.143	37.09537
865.542	38.08852
865.941	24.05978
866.34	74.17678
866.74	14.03783
867.139	26.06263
867.537	64.16287
867.936	38.09182
868.335	38.09701
868.734	37.09488
869.132	62.14396
869.531	50.12113
869.929	28.06422
870.327	42.10099
870.726	60.14955
871.124	70.16325
871.522	35.0895
871.92	32.0793
872.318	49.11998
872.715	66.16313
873.113	38.09293
873.511	23.05765
873.908	2.0051
874.306	38.09482
874.703	74.18458
875.1	34.08732
875.497	7.01694
875.894	23.05669
876.291	39.09603
876.688	37.09574
877.085	59.14151
877.482	27.06795
877.878	17.04122
878.275	-3.0077
878.671	42.09385
879.068	50.12086
879.464	40.09698
879.86	10.02386
880.256	55.13577
880.652	25.06393
881.048	71.17546
881.444	69.16385
881.84	37.09434
882.236	72.18051
882.631	23.0568
883.027	57.13801
883.422	51.1305
883.817	-2.00508
884.213	50.12841
884.608	7.01732
885.003	35.08471
885.398	57.14262
885.793	24.06058
886.188	-9.02263
886.582	69.17656
886.977	23.05493
887.371	46.11653
887.766	8.02006
888.16	93.2305
888.554	74.18237
888.949	77.19259
889.343	56.13679
889.737	10.02684
890.131	26.06556
890.525	3.00774
890.918	12.03043
891.312	71.16938
891.706	38.09997
892.099	64.16259
892.492	54.11657
892.886	13.03206
893.279	20.05126
893.672	19.04867
894.065	41.10292
894.458	33.08331
894.851	107.25966
895.244	46.11764
895.637	3.0073
896.029	22.05412
896.422	10.02464
896.814	17.04255
897.206	32.07653
897.599	97.23804
897.991	-14.03429
898.383	7.01669
898.775	-4.00914
899.167	-14.03309
899.559	18.04586
899.951	33.07812
900.342	71.18002
900.734	22.0549
901.125	70.18316
901.517	29.07151
901.908	43.10333
902.299	16.03939
902.69	67.15769
903.082	60.14514
903.473	16.03859
903.863	63.16047
904.254	3.00703
904.645	62.15398
905.036	-39.09606
905.426	75.17101
905.817	34.08373
906.207	30.0718
906.597	34.07982
906.987	94.24192
907.378	46.11649
907.768	45.11912
908.158	21.05152
908.547	30.0778
908.937	37.09521
909.327	30.07317
909.717	59.14964
910.106	29.06998
910.495	45.11251
910.885	34.0864
911.274	13.03273
911.663	84.21203
912.052	36.08911
912.441	31.07913
912.83	55.12622
913.219	75.19554
913.608	54.13225
913.997	5.01264
914.385	35.08391
914.774	51.12423
915.162	46.10976
915.55	39.09461
915.939	5.01273
916.327	10.02515
916.715	-31.08016
917.103	86.21038
917.491	59.14581
917.878	23.05686
918.266	21.05475
918.654	47.12018
919.041	27.07078
919.429	11.02617
919.816	53.13433
920.203	34.08274
920.591	44.10927
920.978	10.02468
921.365	30.079
921.752	10.02404
922.139	18.03937
922.525	-4.00971
922.912	39.09535
923.299	5.01253
923.685	18.04723
924.072	41.09477
924.458	37.09191
924.844	1.0025
925.231	59.13713
925.617	11.02818
926.003	28.07186
926.389	28.07093
926.774	33.08391
927.16	48.1193
927.546	8.02057
927.931	52.12975
928.317	58.13345
928.702	37.0878
929.088	-34.08175
929.473	66.16749
929.858	-13.03181
930.243	2.00485
930.628	31.07571
931.013	33.08206
931.398	74.16945
931.783	54.14211
932.167	27.06631
932.552	48.12034
932.937	55.13642
933.321	-11.02791
933.705	32.08095
934.09	101.25298
934.474	37.08814
934.858	68.17586
935.242	-28.06592
935.626	22.0566
936.009	-5.01342
936.393	41.10451
936.777	45.11535
937.16	40.10427
937.544	35.08273
937.927	11.02811
938.311	52.12692
938.694	58.1532
939.077	-5.0121
939.46	42.10332
939.843	1.00211
940.226	60.15366
940.609	-28.0653
940.991	26.06647
941.374	-2.00494
941.757	69.1697
942.139	2.00454
942.522	44.10415
942.904	24.05799
943.286	68.17226
943.668	23.05986
944.05	-7.01743
944.432	31.07678
944.814	47.11585
945.196	13.0319
945.578	-10.02404
945.959	29.06826
946.341	92.22414
946.722	58.13595
947.104	39.09343
947.485	31.07242
947.866	66.16582
948.247	37.09358
948.628	42.10263
949.009	-4.01034
949.39	35.08738
949.771	31.07239
950.152	49.12029
950.532	-19.04733
950.913	13.03158
951.293	20.05429
951.674	2.00488
952.054	10.02496
952.434	35.08713
952.814	63.14955
953.194	62.16195
953.574	40.09872
953.954	18.04302
954.334	58.14436
954.714	11.027
955.093	37.0912
955.473	-19.04811
955.853	20.05205
956.232	24.06605
956.611	59.14129
956.99	52.13065
957.37	14.03591
957.749	40.09563
958.128	23.05823
958.506	8.0209
958.885	33.08355
959.264	19.04683
959.643	22.05036
960.021	-13.03259
960.4	10.02285
960.778	75.18392
961.156	2.00506
961.535	48.11194
961.913	28.06581
962.291	-10.02592
962.669	17.04332
963.047	41.1048
963.424	24.06153
963.802	-4.00993
964.18	61.15406
964.557	33.07628
964.935	37.0879
965.312	17.04452
965.69	73.18206
966.067	63.15306
966.444	64.15732
966.821	26.06731
967.198	49.11891
967.575	33.0814
967.952	44.10382
968.329	26.06356
968.705	35.07531
969.082	27.06952
969.458	-57.13952
969.835	33.08059
970.211	64.16385
970.587	28.06999
970.963	58.14859
971.339	14.03678
971.715	17.0427
972.091	32.07907
972.467	52.12966
972.843	15.03746
973.219	54.12959
973.594	21.0552
973.97	42.10014
974.345	15.03614
974.721	56.13546
975.096	18.04382
975.471	29.06908
975.846	13.03145
976.221	17.04342
976.596	-1.00242
976.971	31.07681
977.346	42.09795
977.72	9.02309
978.095	22.05713
978.469	67.15941
978.844	57.14313
979.218	-13.03154
979.593	64.15295
979.967	30.07336
980.341	-3.00698
980.715	50.12598
981.089	17.04281
981.463	31.07146
981.837	-6.01481
982.21	60.13938
982.584	16.03889
982.957	-30.076
983.331	-18.04312
983.704	35.08624
984.078	11.0273
984.451	48.11995
984.824	17.04166
985.197	54.13107
985.57	55.13781
985.943	24.05956
986.316	86.20991
986.688	56.1349
987.061	38.08928
987.434	15.03932
987.806	25.06092
988.179	11.02615
988.551	46.11678
988.923	-19.04738
989.295	86.2135
989.667	18.04326
990.039	31.07686
990.411	35.0808
990.783	55.12652
991.155	18.04351
991.527	89.2176
991.898	2.00503
992.27	12.02989
992.641	23.05798
993.012	68.15946
993.384	5.01203
993.755	35.08946
994.126	18.04356
994.497	-16.03975
994.868	-8.01859
995.239	19.04632
995.61	44.11083
995.98	19.04642
996.351	16.03987
996.722	6.01404
997.092	-11.02635
997.462	-37.0879
997.833	37.08793
998.203	21.05119
998.573	18.04508
998.943	18.04247
999.313	3.00725
999.683	33.07945
1000.053	18.04168
1000.423	12.02937
1000.792	24.06248
1001.162	17.04209
1001.531	5.01243
1001.901	37.09244
1002.27	19.04275
1002.639	41.10491
1003.009	17.04068
1003.378	14.03602
1003.747	21.04989
1004.116	6.01448
1004.485	55.13131
1004.853	30.07627
1005.222	39.09853
1005.591	27.06439
1005.959	-29.06639
1006.328	32.07227
1006.696	-9.02195
1007.064	31.07824
1007.433	13.0327
1007.801	47.11543
1008.169	51.12876
1008.537	7.01564
1008.905	11.02582
1009.273	40.09898
1009.64	-11.02654
1010.008	12.02881
1010.375	93.22399
1010.743	78.17911
1011.11	23.0547
1011.478	38.09424
1011.845	68.15933
1012.212	2.00457
1012.579	32.07881
1012.946	44.10483
1013.313	56.13311
1013.68	25.05647
1014.047	-4.00963
1014.414	-2.00477
1014.78	34.08472
1015.147	72.17338
1015.513	23.05569
1015.88	39.0999
1016.246	40.09891
1016.612	43.09856
1016.978	33.0811
1017.344	11.02737
1017.71	73.17722
1018.076	60.14119
1018.442	51.13114
1018.808	38.09516
1019.174	17.04289
1019.539	61.1401
1019.905	2.00476
1020.27	5.01244
1020.636	36.08653
1021.001	43.10306
1021.366	7.01694
1021.731	41.10557
1022.096	20.0507
1022.461	33.07834
1022.826	14.0335
1023.191	74.19329
1023.556	25.05886
1023.92	26.06419
1024.285	62.15094
1024.649	43.10548
1025.014	55.13607
1025.378	34.0857
1025.742	35.08713
1026.107	45.10186
1026.471	44.10281
1026.835	47.11653
1027.199	23.05563
1027.562	29.06767
1027.926	59.14398
1028.29	43.10891
1028.654	46.10588
1029.017	69.16895
1029.381	-13.03142
1029.744	19.0487
1030.107	53.12528
1030.471	33.07924
1030.834	46.1047
1031.197	53.12755
1031.56	6.01427
1031.923	20.05196
1032.286	32.07539
1032.648	63.15024
1033.011	10.02313
1033.374	56.13142
1033.736	27.07123
1034.099	22.05388
1034.461	1.00255
1034.823	-7.0176
1035.185	53.13328
1035.548	32.07811
1035.91	41.09834
1036.272	24.05489
1036.634	52.12711
1036.995	67.1569
1037.357	-11.02705
1037.719	12.02938
1038.08	37.08803
1038.442	19.04535
1038.803	16.03865
1039.165	22.05577
1039.526	35.08478
1039.887	6.01447
1040.248	5.01242
1040.609	76.18682
1040.97	55.13422
1041.331	45.11397
1041.692	-25.05918
1042.053	60.13628
1042.413	25.05852
1042.774	25.06106
1043.134	55.13076
1043.495	27.06812
1043.855	71.17146
1044.215	35.08707
1044.576	-3.00724
1044.936	38.08729
1045.296	22.05515
1045.656	23.05669
1046.016	11.02673
1046.375	1.00245
1046.735	-2.00458
1047.095	28.06579
1047.454	-19.04085
1047.814	23.05554
1048.173	51.12176
1048.533	49.11222
1048.892	-39.09514
1049.251	58.1453
1049.61	34.08392
1049.969	51.12013
1050.328	17.0371
1050.687	3.00736
1051.046	30.07328
1051.405	33.0823
1051.763	-10.02326
1052.122	54.1345
1052.48	3.00742
1052.839	24.05672
1053.197	27.0638
1053.555	65.14767
1053.914	70.17048
1054.272	53.12799
1054.63	13.03199
1054.988	37.08807
1055.345	20.04332
1055.703	76.1819
1056.061	33.08509
1056.419	56.14472
1056.776	17.04146
1057.134	35.08122
1057.491	52.13008
1057.848	67.16618
1058.206	-10.02378
1058.563	-19.04246
1058.92	40.09233
1059.277	62.15252
1059.634	3.00712
1059.991	53.12683
1060.348	-13.02974
1060.704	-23.05554
1061.061	74.17101
1061.418	8.01954
1061.774	35.08659
1062.131	11.02926
1062.487	28.06571
1062.843	60.14923
1063.199	30.07483
1063.555	9.02101
1063.911	27.06843
1064.267	102.21017
1064.623	11.02689
1064.979	46.10901
1065.335	76.18065
1065.691	25.06017
1066.046	31.0684
1066.402	-11.02528
1066.757	41.10358
1067.112	33.08119
1067.468	-20.04783
1067.823	50.12013
1068.178	-19.04652
1068.533	47.11393
1068.888	29.06953
1069.243	43.10619
1069.598	29.07069
1069.952	-34.07782
1070.307	-14.03504
1070.662	36.08564
1071.016	-19.04315
1071.371	-19.0438
1071.725	26.06244
1072.079	7.01696
1072.434	1.00245
1072.788	38.09064
1073.142	38.09362
1073.496	10.02389
1073.85	13.03035
1074.203	23.05605
1074.557	16.04276
1074.911	76.18037
1075.265	34.07923
1075.618	41.10021
1075.971	21.0502
1076.325	22.05615
1076.678	22.05056
1077.031	11.02507
1077.385	9.01998
1077.738	52.11725
1078.091	-3.00689
1078.444	49.11371
1078.796	75.18303
1079.149	10.02503
1079.502	2.00476
1079.855	21.04922
1080.207	52.12796
1080.56	3.00781
1080.912	47.1144
1081.264	4.00971
1081.617	41.10002
1081.969	-20.05104
1082.321	37.0905
1082.673	0
1083.025	29.06903
1083.377	29.06248
1083.728	26.0609
1084.08	25.06264
1084.432	34.08218
1084.783	19.04475
1085.135	9.02271
1085.486	8.01844
1085.838	6.01488
1086.189	26.06334
1086.54	40.09563
1086.891	4.01019
1087.242	28.0684
1087.593	49.11922
1087.944	28.0636
1088.295	52.11807
1088.646	-3.00734
1088.996	-16.039
1089.347	22.05422
1089.698	-17.04067
1090.048	28.07294
1090.398	21.04895
1090.749	28.06722
1091.099	-11.02794
1091.449	40.09974
1091.799	39.09776
1092.149	-32.07915
1092.499	7.0172
1092.849	13.03323
1093.199	78.19435
1093.548	28.0675
1093.898	50.12499
1094.248	39.10032
1094.597	14.03593
1094.947	49.13062
1095.296	28.06936
1095.645	33.08601
1095.994	13.03142
1096.343	18.04552
1096.692	-33.08782
1097.041	28.07601
1097.39	40.10043
1097.739	20.05221
1098.088	52.13915
1098.437	-9.02386
1098.785	33.08913
1099.134	57.15104
1099.482	49.13467
1099.83	27.07116
1100.179	10.02624
1100.527	31.08256
1100.875	13.03455
1101.223	20.05332
1101.571	44.1216
1101.919	9.02366
1102.267	31.08745
1102.615	3.00965
1102.962	15.04827
1103.31	0
1103.658	26.0836
