Data from N2 R5 sample 1_Subt2__3__14-23-53-668.txt Node

Date: Fri Aug 29 14:23:53 PDT 2025
User: uwsun
Spectrometer: HDX01956
Trigger mode: 0
Integration Time (sec): 5.000000E-1
Scans to average: 1
Nonlinearity correction enabled: true
Boxcar width: 0
Storing dark spectrum: false
XAxis mode: Wavelengths
Number of Pixels in Spectrum: 2068
>>>>>Begin Spectral Data<<<<<
194.03	307.82041
194.578	319.96816
195.127	313.93566
195.676	323.96739
196.225	390.96624
196.773	395.01127
197.321	556.35084
197.87	725.55047
198.418	694.47164
198.966	702.49639
199.513	655.33353
200.061	636.32563
200.609	716.56516
201.156	729.24733
201.704	656.35223
202.251	745.60152
202.798	706.49646
203.345	730.46117
203.892	745.50945
204.438	755.44055
204.985	697.3162
205.532	761.61561
206.078	833.60499
206.624	726.42835
207.17	756.39055
207.716	701.36841
208.262	769.16269
208.808	699.3787
209.354	720.40257
209.899	800.62066
210.445	709.41613
210.99	783.48324
211.535	829.52167
212.08	776.42384
212.625	817.62084
213.17	788.59777
213.715	652.15448
214.259	794.45474
214.804	749.4906
215.348	740.34539
215.892	773.47282
216.436	781.43267
216.98	766.33574
217.524	736.38829
218.068	765.55073
218.612	803.616
219.155	783.45582
219.698	669.29905
220.242	723.47016
220.785	670.27532
221.328	675.38303
221.871	683.4316
222.414	703.43529
222.956	642.2664
223.499	681.23759
224.041	703.33144
224.583	708.22982
225.126	682.21086
225.668	673.33729
226.21	689.41875
226.751	671.17556
227.293	679.26086
227.835	645.29527
228.376	696.30564
228.918	738.51875
229.459	655.33898
230	670.30068
230.541	671.25835
231.082	678.34066
231.622	691.28955
232.163	665.31522
232.704	654.33119
233.244	639.3074
233.784	655.32627
234.324	574.02875
234.864	677.23779
235.404	722.38648
235.944	617.20931
236.484	769.54466
237.023	667.27915
237.563	679.26399
238.102	668.28323
238.641	683.41458
239.18	681.27902
239.719	719.46401
240.258	695.25285
240.797	669.2972
241.335	733.44586
241.874	664.00012
242.412	674.3122
242.95	708.35171
243.488	701.27983
244.026	713.30703
244.564	739.18216
245.102	686.22807
245.64	736.42427
246.177	714.27043
246.715	758.45013
247.252	746.35769
247.789	777.11541
248.326	694.33198
248.863	709.22343
249.4	730.31306
249.936	712.14111
250.473	694.291
251.009	681.24261
251.546	699.21639
252.082	785.32832
252.618	745.29391
253.154	747.41699
253.69	706.25747
254.226	758.42497
254.761	705.25082
255.297	677.17118
255.832	676.28115
256.367	769.41911
256.903	727.24524
257.438	735.36641
257.972	755.30716
258.507	652.18869
259.042	717.21559
259.576	711.18327
260.111	774.39594
260.645	741.24553
261.179	714.31183
261.713	711.23667
262.247	742.34084
262.781	685.11549
263.315	731.41357
263.849	765.50554
264.382	818.44466
264.915	760.38043
265.449	718.36951
265.982	856.47584
266.515	760.45116
267.048	742.20082
267.58	787.31948
268.113	760.25152
268.646	768.48063
269.178	774.31851
269.71	785.30679
270.243	769.35687
270.775	823.62441
271.307	770.4497
271.838	820.50474
272.37	828.56672
272.902	826.42625
273.433	814.33849
273.965	808.51541
274.496	842.61421
275.027	813.55516
275.558	747.41148
276.089	736.40322
276.62	846.66401
277.15	800.53135
277.681	849.37419
278.211	787.49808
278.741	733.23004
279.272	813.39667
279.802	792.53282
280.332	780.40392
280.861	817.49884
281.391	823.39581
281.921	859.56578
282.45	857.63314
282.98	805.63043
283.509	846.41212
284.038	783.3493
284.567	857.50231
285.096	842.53589
285.625	819.38676
286.153	807.42185
286.682	817.39308
287.21	822.48875
287.739	872.52507
288.267	802.46573
288.795	889.77616
289.323	836.44356
289.851	892.53318
290.378	836.38088
290.906	865.54256
291.433	872.62202
291.961	875.43474
292.488	875.62077
293.015	854.47238
293.542	834.5804
294.069	857.5574
294.596	907.6543
295.122	898.55832
295.649	905.42406
296.175	863.54691
296.702	922.62712
297.228	927.63894
297.754	881.41654
298.28	941.50227
298.806	925.59387
299.332	943.44655
299.857	917.45799
300.383	970.77526
300.908	892.5487
301.433	947.63016
301.958	988.59601
302.483	980.72526
303.008	1016.76836
303.533	947.79361
304.058	1070.72517
304.582	935.54369
305.107	959.78638
305.631	1013.58375
306.155	985.56923
306.679	998.58686
307.203	1049.63177
307.727	1008.63669
308.251	1018.73834
308.775	936.52702
309.298	966.58054
309.822	1071.84334
310.345	1046.66069
310.868	1088.71981
311.391	1075.78358
311.914	1064.79289
312.437	1039.57208
312.96	1084.66643
313.482	1103.6973
314.005	1097.82722
314.527	1109.94647
315.049	1169.93385
315.571	1100.51982
316.093	1194.87965
316.615	1150.75605
317.137	1180.54687
317.659	1209.84836
318.18	1251.86471
318.702	1166.6709
319.223	1190.41282
319.744	1229.62311
320.265	1221.79014
320.786	1257.86471
321.307	1303.93234
321.828	1297.67524
322.348	1347.80092
322.869	1290.73921
323.389	1068.91124
323.909	1354.72674
324.43	1446.94963
324.95	1357.69102
325.47	1342.85396
325.989	1408.77818
326.509	1389.56292
327.029	1438.64305
327.548	1418.61371
328.067	1436.80409
328.587	1561.00599
329.106	1420.63059
329.625	1520.18023
330.144	1539.70792
330.662	1458.65765
331.181	1584.75304
331.7	1567.73576
332.218	1578.50397
332.736	1608.73007
333.255	1586.68045
333.773	1610.73228
334.291	1698.96189
334.808	1675.54155
335.326	1719.58648
335.844	1713.61425
336.361	1797.90904
336.879	1785.61673
337.396	1760.70719
337.913	1809.55361
338.43	1876.47982
338.947	1917.65457
339.464	1813.28563
339.981	1914.58714
340.497	1900.74373
341.014	1914.66024
341.53	2010.37751
342.046	2035.65319
342.562	2045.73454
343.078	2030.48547
343.594	2070.52676
344.11	2044.49342
344.626	2010.66871
345.141	2123.29649
345.657	2121.30453
346.172	2135.46419
346.687	2172.26228
347.202	2212.15622
347.717	2299.34899
348.232	2276.51591
348.747	2288.17313
349.261	2255.92833
349.776	2250.21944
350.29	2263.31997
350.805	2440.36981
351.319	2413.10656
351.833	2309.97124
352.347	2345.09977
352.861	2443.01161
353.374	2544.97661
353.888	2469.1363
354.401	2569.88531
354.915	2470.75783
355.428	2559.1124
355.941	2557.83998
356.454	2658.73499
356.967	2677.86548
357.48	2584.79164
357.993	2536.03221
358.505	2615.92382
359.018	2753.86711
359.53	2871.70119
360.042	2848.44929
360.554	2812.75957
361.066	2770.74728
361.578	2874.31372
362.09	2777.65076
362.602	2842.30814
363.113	2900.42966
363.625	2977.25631
364.136	3011.1681
364.647	2946.23469
365.158	3085.24007
365.669	3096.32514
366.18	3129.23076
366.691	3080.0214
367.201	3030.27638
367.712	3100.02403
368.222	3196.9618
368.733	3173.75167
369.243	3283.70769
369.753	3323.82578
370.263	3431.83311
370.773	3328.96668
371.282	3506.66445
371.792	3425.45048
372.301	3602.51568
372.811	3702.69676
373.32	3636.05439
373.829	3754.17096
374.338	4027.88819
374.847	4053.87469
375.356	4005.88957
375.865	4291.60214
376.373	4479.61833
376.882	4591.73164
377.39	4691.64556
377.898	4640.60376
378.407	4952.74041
378.915	5343.12781
379.423	5472.21161
379.93	5613.59252
380.438	5720.86672
380.946	6050.84819
381.453	6211.53103
381.96	6349.58275
382.468	6815.42913
382.975	7502.39677
383.482	7894.08193
383.989	7760.45385
384.495	7931.05722
385.002	8389.03508
385.509	8892.01259
386.015	9625.56314
386.521	9911.38383
387.028	10555.74254
387.534	10514.66191
388.04	10996.26066
388.546	11076.52227
389.051	11600.51612
389.557	12606.101
390.063	13975.21979
390.568	14469.59876
391.073	14615.22147
391.578	15332.66109
392.084	15704.35796
392.589	15643.87072
393.093	16661.51235
393.598	18453.0188
394.103	20096.78409
394.607	22346.24611
395.112	24134.35807
395.616	24893.07999
396.12	27198.80546
396.624	30332.39144
397.128	32962.1909
397.632	36851.92058
398.136	37974.91249
398.639	35750.71397
399.143	32367.30742
399.646	28888.45294
400.15	25083.82847
400.653	20124.16724
401.156	13866.23708
401.659	5169.95759
402.162	1054.15589
402.664	0
403.167	0
403.67	0
404.172	0
404.674	0
405.176	0
405.678	0
406.18	0
406.682	0
407.184	0
407.686	0
408.187	0
408.688	0
409.19	0
409.691	0
410.192	0
410.693	0
411.194	435.30976
411.694	4082.94878
412.195	8864.71461
412.696	12089.80453
413.196	12760.96929
413.696	12863.67595
414.196	13703.56671
414.696	17261.84252
415.196	21764.24417
415.696	29583.19008
416.196	36460.31858
416.695	40057.39798
417.195	41392.74103
417.694	42311.08144
418.194	42853.85713
418.693	39391.03793
419.192	37937.17584
419.691	37292.27322
420.19	36632.99836
420.688	35917.67961
421.187	34525.48974
421.685	32611.66253
422.184	30056.24366
422.682	26396.13395
423.18	21949.41282
423.678	19144.33954
424.176	17927.67962
424.674	16796.06824
425.172	16083.14683
425.669	15460.48565
426.167	14430.97497
426.664	13131.49028
427.161	11978.03225
427.659	11043.86342
428.156	10273.70403
428.652	9591.81761
429.149	9157.8136
429.646	8936.87489
430.143	8398.42473
430.639	7956.2018
431.135	7438.46205
431.632	7117.2254
432.128	6594.77844
432.624	6186.39458
433.12	5788.14724
433.616	5620.79782
434.111	5267.12985
434.607	5189.92286
435.103	5292.05595
435.598	5047.82727
436.093	4872.65458
436.588	4568.61624
437.083	4382.66894
437.578	4191.78137
438.073	3944.99932
438.568	3857.18711
439.062	3795.93896
439.557	3672.32008
440.051	3479.32748
440.546	3200.51763
441.04	3216.70889
441.534	3110.02613
442.028	3191.87673
442.522	3014.97932
443.015	2933.80135
443.509	3001.15785
444.002	2913.21306
444.496	2923.89979
444.989	2813.33554
445.482	2723.44624
445.975	2633.16918
446.468	2685.04655
446.961	2559.12811
447.454	2567.31708
447.947	2592.41987
448.439	2446.65314
448.931	2439.38447
449.424	2420.84382
449.916	2435.70979
450.408	2332.49649
450.9	2258.76445
451.392	2254.93167
451.884	2277.68158
452.375	2062.9385
452.867	2219.72372
453.358	2117.6986
453.849	2077.57558
454.341	2160.72422
454.832	1985.65969
455.323	1968.01773
455.814	2043.88093
456.304	2038.90456
456.795	1897.92036
457.285	2017.89166
457.776	1853.01248
458.266	1859.06774
458.756	1866.15572
459.247	1794.09672
459.737	1608.10284
460.226	1694.98186
460.716	1687.16872
461.206	1657.21191
461.695	1671.37368
462.185	1581.19168
462.674	1656.16569
463.163	1593.07185
463.653	1586.95372
464.142	1441.25735
464.63	1531.36587
465.119	1437.18097
465.608	1455.19396
466.096	1357.08174
466.585	1361.2353
467.073	1361.33501
467.561	1364.35559
468.05	1358.28541
468.538	1338.42675
469.026	1295.34677
469.513	1187.0294
470.001	1244.20807
470.489	1233.30191
470.976	1162.23609
471.463	1195.44623
471.951	1160.45332
472.438	1081.24609
472.925	1002.18047
473.412	1100.40628
473.899	1053.23252
474.385	958.29261
474.872	1058.26725
475.359	965.294
475.845	986.02744
476.331	927.09256
476.817	944.31301
477.303	943.22269
477.789	878.23559
478.275	891.30224
478.761	813.18556
479.247	818.08603
479.732	807.23058
480.218	805.32548
480.703	798.24172
481.188	747.96819
481.673	737.05248
482.158	681.88237
482.643	781.29797
483.128	653.95848
483.612	708.06983
484.097	685.12299
484.581	669.0328
485.066	575.95991
485.55	610.88289
486.034	579.83612
486.518	518.84358
487.002	548.93517
487.486	502.87232
487.969	565.96757
488.453	528.96474
488.936	527.83348
489.42	512.8025
489.903	495.92021
490.386	503.54877
490.869	511.79698
491.352	476.87102
491.835	499.73664
492.318	423.70447
492.8	494.73081
493.283	481.91375
493.765	409.76333
494.247	470.82577
494.73	390.65002
495.212	443.81942
495.694	365.65151
496.175	364.65762
496.657	415.75496
497.139	420.53754
497.62	299.55275
498.102	315.61618
498.583	342.67867
499.064	301.52282
499.545	361.63971
500.026	307.53947
500.507	332.60655
500.988	328.64998
501.469	268.54027
501.949	284.56832
502.43	225.43137
502.91	265.43228
503.39	297.60383
503.87	279.52482
504.35	283.54178
504.83	261.45766
505.31	258.50743
505.79	206.40401
506.269	278.52718
506.749	202.37744
507.228	212.40752
507.707	215.3891
508.187	249.49008
508.666	217.43897
509.145	217.41603
509.623	196.38113
510.102	169.34344
510.581	281.55801
511.059	192.40095
511.538	239.5167
512.016	205.40842
512.494	202.41097
512.972	203.40425
513.45	137.26519
513.928	181.36766
514.406	130.2628
514.884	162.35301
515.361	226.44994
515.839	167.31908
516.316	128.2622
516.793	221.47144
517.27	188.38632
517.747	207.44733
518.224	178.34811
518.701	139.26301
519.178	138.29087
519.654	168.34102
520.131	125.2655
520.607	131.2803
521.083	165.31924
521.56	103.20979
522.036	159.29673
522.512	151.32086
522.987	53.10923
523.463	145.29494
523.939	156.32881
524.414	197.38645
524.89	125.25588
525.365	150.29015
525.84	52.10739
526.315	116.24128
526.79	116.22578
527.265	110.21696
527.74	107.22628
528.215	103.21084
528.689	128.24356
529.164	154.28675
529.638	156.34743
530.112	77.15819
530.587	123.22476
531.061	109.22778
531.534	99.21018
532.008	102.21329
532.482	123.24539
532.956	84.18723
533.429	144.30232
533.903	149.28469
534.376	104.20011
534.849	104.21062
535.322	100.20651
535.795	145.30784
536.268	123.25726
536.741	121.25397
537.213	144.28883
537.686	106.22529
538.158	48.09454
538.631	140.29729
539.103	16.03182
539.575	115.20897
540.047	145.27584
540.519	83.17529
540.991	156.33271
541.463	109.23162
541.934	99.19852
542.406	94.19639
542.877	118.23219
543.348	103.21896
543.82	115.24799
544.291	116.23772
544.762	70.14612
545.233	85.18738
545.703	111.21322
546.174	158.31735
546.645	115.23754
547.115	119.24923
547.585	184.36223
548.056	163.33518
548.526	157.31498
548.996	239.48525
549.466	225.46726
549.935	196.39058
550.405	278.50018
550.875	224.4443
551.344	215.43473
551.814	269.51224
552.283	302.5389
552.752	206.39981
553.221	180.32584
553.69	330.59161
554.159	304.6089
554.628	294.53168
555.096	336.69355
555.565	243.44765
556.033	256.50397
556.502	233.47609
556.97	233.43483
557.438	176.35889
557.906	175.35969
558.374	122.24527
558.842	115.24159
559.31	158.30855
559.777	44.0949
560.245	139.28828
560.712	89.18392
561.18	123.23923
561.647	92.18299
562.114	68.13847
562.581	121.26518
563.048	124.25435
563.514	97.21195
563.981	110.22482
564.448	98.19656
564.914	82.17193
565.381	139.28157
565.847	160.33205
566.313	103.21514
566.779	128.25733
567.245	146.3034
567.711	126.26908
568.176	98.19675
568.642	67.15135
569.108	49.10902
569.573	112.2369
570.038	108.2035
570.504	117.2331
570.969	138.30772
571.434	118.22956
571.899	160.33606
572.363	154.30989
572.828	192.38635
573.293	179.36077
573.757	186.37462
574.222	188.36557
574.686	128.25329
575.15	176.36656
575.614	218.43402
576.078	239.48436
576.542	227.44867
577.006	228.44505
577.469	293.62502
577.933	159.31205
578.396	256.52629
578.86	196.40458
579.323	142.29891
579.786	217.40698
580.249	145.29144
580.712	176.37944
581.175	171.37159
581.637	211.42664
582.1	200.38612
582.563	270.50176
583.025	186.39601
583.487	178.31531
583.95	159.3007
584.412	250.45534
584.874	162.34791
585.336	198.41183
585.797	163.31174
586.259	253.52024
586.721	196.40385
587.182	224.46134
587.643	233.46269
588.105	212.44075
588.566	209.38694
589.027	204.43036
589.488	210.42101
589.949	264.55644
590.41	123.2134
590.87	253.50476
591.331	246.46422
591.791	235.47277
592.252	226.45015
592.712	207.43832
593.172	244.47854
593.632	295.55901
594.092	292.56158
594.552	318.58568
595.011	294.57933
595.471	256.49828
595.931	254.49226
596.39	354.72021
596.849	295.59211
597.308	318.59244
597.768	327.71297
598.227	298.62037
598.685	400.77709
599.144	332.66406
599.603	381.76472
600.062	348.61715
600.52	367.69037
600.978	422.83938
601.437	444.84777
601.895	483.83773
602.353	484.88477
602.811	455.83573
603.269	590.1364
603.727	522.02111
604.184	557.00719
604.642	614.20484
605.099	626.15388
605.557	705.3489
606.014	725.19141
606.471	658.29619
606.928	740.1969
607.385	754.40284
607.842	890.50124
608.299	985.66337
608.755	1005.75145
609.212	1019.59871
609.668	907.45356
610.125	1056.8295
610.581	1111.881
611.037	1098.77948
611.493	982.70901
611.949	918.64616
612.405	980.38698
612.861	1118.8771
613.316	1016.76743
613.772	999.6716
614.227	1057.796
614.683	1071.62559
615.138	1058.78178
615.593	1063.77618
616.048	1037.72502
616.503	1109.97691
616.958	1064.95355
617.412	1041.7982
617.867	1042.65053
618.321	1077.57573
618.776	1098.73371
619.23	1060.81515
619.684	1046.72719
620.138	1044.78956
620.592	974.78617
621.046	1048.82039
621.5	1012.84394
621.954	1003.68563
622.407	942.58751
622.861	949.76423
623.314	926.61298
623.768	857.5574
624.221	876.30739
624.674	834.50976
625.127	867.58757
625.58	868.5539
626.033	788.39083
626.485	778.49635
626.938	804.53532
627.39	768.44309
627.843	760.42523
628.295	745.40289
628.747	672.32878
629.199	669.26261
629.651	673.26831
630.103	684.2995
630.555	673.17969
631.006	682.33661
631.458	650.29181
631.909	692.3326
632.361	617.22641
632.812	589.16468
633.263	587.08266
633.714	595.09032
634.165	606.26637
634.616	549.13821
635.067	641.21381
635.518	609.25493
635.968	627.07068
636.419	604.13052
636.869	580.20285
637.319	591.18448
637.769	542.06081
638.219	631.30558
638.669	524.10444
639.119	570.22259
639.569	526.1242
640.019	568.15379
640.468	539.06215
640.918	627.31582
641.367	601.17456
641.816	567.11429
642.265	569.15872
642.714	597.20921
643.163	608.22113
643.612	588.23739
644.061	602.10512
644.51	630.24618
644.958	643.22057
645.406	680.40365
645.855	628.34949
646.303	658.33691
646.751	627.24169
647.199	701.36711
647.647	655.30691
648.095	665.31891
648.543	711.23928
648.99	722.47979
649.438	791.5743
649.885	744.58257
650.333	755.22295
650.78	740.53243
651.227	773.60263
651.674	795.5258
652.121	835.7105
652.568	798.64384
653.015	882.87308
653.461	865.71539
653.908	892.72091
654.354	912.80325
654.801	879.71159
655.247	912.6404
655.693	934.03159
656.139	925.83282
656.585	989.93337
657.031	887.71329
657.477	1018.74578
657.922	1002.86065
658.368	1083.14576
658.813	1094.02046
659.259	1055.03297
659.704	1083.00257
660.149	1170.1195
660.594	1147.13915
661.039	1255.16698
661.484	1283.3408
661.929	1299.29658
662.373	1282.49441
662.818	1361.54952
663.262	1368.46214
663.707	1457.74321
664.151	1466.63128
664.595	1505.62707
665.039	1506.74451
665.483	1551.87695
665.927	1607.65801
666.371	1607.58279
666.814	1678.77719
667.258	1689.7386
667.701	1811.52064
668.145	1798.05433
668.588	1886.06662
669.031	1847.84915
669.474	1967.04677
669.917	2072.76331
670.36	2102.27518
670.803	2147.18097
671.245	2196.61064
671.688	2220.27498
672.13	2173.85222
672.573	2335.54986
673.015	2378.26836
673.457	2387.80287
673.899	2496.36329
674.341	2485.33621
674.783	2536.31102
675.225	2644.48525
675.666	2531.31823
676.108	2620.83707
676.549	2727.30265
676.991	2699.91666
677.432	2716.43457
677.873	2825.18123
678.314	2801.35578
678.755	2850.46919
679.196	2869.12212
679.637	2976.51729
680.078	2967.25959
680.518	3017.23884
680.959	2948.38972
681.399	3009.60502
681.839	2993.4909
682.28	3026.57086
682.72	2977.12243
683.16	3041.63366
683.6	3143.10225
684.039	3047.62113
684.479	3011.5407
684.919	3067.1477
685.358	3206.77459
685.798	3179.99727
686.237	3182.45797
686.676	3148.21112
687.115	3199.27035
687.554	3247.32774
687.993	3191.91852
688.432	3130.11138
688.871	3208.05234
689.309	3083.37862
689.748	3139.63052
690.186	3259.37503
690.625	3264.24303
691.063	3129.40355
691.501	3235.59815
691.939	3120.65484
692.377	3166.51024
692.815	3184.37873
693.253	3189.4267
693.69	3231.87319
694.128	3102.46537
694.565	3182.3713
695.003	3162.78052
695.44	3134.28011
695.877	3089.24175
696.314	3095.79013
696.751	3069.12307
697.188	3067.15015
697.625	3119.1597
698.061	2992.41246
698.498	3041.47666
698.934	3113.43973
699.371	2965.29577
699.807	3005.33181
700.243	2992.43203
700.679	2989.08347
701.115	2986.31501
701.551	2928.30983
701.987	3028.04443
702.422	2828.34449
702.858	2859.36826
703.294	2888.08944
703.729	2841.52978
704.164	2785.42127
704.599	2806.9945
705.035	2829.01302
705.47	2770.47481
705.904	2817.23407
706.339	2853.2432
706.774	2859.26931
707.209	2790.1745
707.643	2845.41662
708.078	2776.48741
708.512	2710.62685
708.946	2805.4052
709.38	2706.32214
709.814	2719.12975
710.248	2714.48535
710.682	2737.3429
711.116	2740.35021
711.549	2724.83698
711.983	2699.17909
712.416	2770.32209
712.85	2697.61442
713.283	2776.32281
713.716	2777.68652
714.149	2791.37323
714.582	2650.02447
715.015	2713.65066
715.448	2718.68891
715.881	2764.90795
716.313	2722.25879
716.746	2653.27023
717.178	2715.40097
717.61	2700.72103
718.043	2742.6251
718.475	2721.45236
718.907	2736.72604
719.339	2671.06655
719.77	2688.31008
720.202	2755.71438
720.634	2715.46494
721.065	2764.32826
721.497	2787.52889
721.928	2791.53423
722.359	2787.41921
722.79	2774.38033
723.221	2850.70769
723.652	2803.86305
724.083	2783.05072
724.514	2838.15861
724.945	2778.27923
725.375	2763.19748
725.806	2891.66329
726.236	2867.82646
726.666	2861.33063
727.096	2809.53943
727.526	2880.76334
727.956	2907.09154
728.386	3009.58023
728.816	2938.74481
729.246	2885.47979
729.675	2986.56688
730.105	3058.57894
730.534	3105.2553
730.964	3109.76203
731.393	3097.64726
731.822	3129.82926
732.251	3071.78107
732.68	3218.29329
733.109	3090.5815
733.537	3125.44665
733.966	3207.62872
734.395	3296.14501
734.823	3173.03331
735.251	3160.42915
735.68	3294.69027
736.108	3301.75606
736.536	3355.27061
736.964	3311.17032
737.392	3333.67295
737.82	3364.38181
738.247	3317.37678
738.675	3398.35149
739.102	3420.64214
739.53	3407.78249
739.957	3389.86358
740.384	3532.54409
740.811	3500.74344
741.238	3477.46893
741.665	3468.12334
742.092	3505.31922
742.519	3414.57292
742.945	3541.33977
743.372	3530.55828
743.798	3495.84677
744.225	3534.27392
744.651	3575.64778
745.077	3545.60732
745.503	3630.43092
745.929	3616.31353
746.355	3666.56901
746.781	3646.53797
747.207	3521.178
747.632	3546.43388
748.058	3544.61307
748.483	3699.00741
748.908	3681.54513
749.334	3638.47315
749.759	3687.16751
750.184	3658.243
750.609	3653.47453
751.033	3782.16172
751.458	3684.8478
751.883	3754.50637
752.307	3760.12808
752.732	3677.57443
753.156	3770.46999
753.58	3745.20286
754.005	3649.71738
754.429	3691.14143
754.853	3695.51293
755.277	3705.1862
755.7	3653.53886
756.124	3613.54668
756.548	3645.21144
756.971	3683.41549
757.394	3645.82906
757.818	3625.82215
758.241	3614.71443
758.664	3626.67501
759.087	3610.82446
759.51	3611.57227
759.933	3556.33853
760.356	3584.80259
760.778	3577.4893
761.201	3625.40464
761.623	3563.40494
762.046	3611.23837
762.468	3584.33089
762.89	3606.51511
763.312	3498.4616
763.734	3543.3474
764.156	3375.56048
764.578	3364.09701
765	3350.48195
765.421	3311.76054
765.843	3389.00307
766.264	3341.42006
766.686	3270.69496
767.107	3164.45427
767.528	3143.72383
767.949	3251.78064
768.37	3130.54009
768.791	3105.45016
769.212	3018.68511
769.632	3007.21014
770.053	3071.02862
770.473	2950.47948
770.894	2968.67162
771.314	2898.37082
771.734	2796.21174
772.154	2798.80708
772.575	2749.18021
772.994	2797.06496
773.414	2812.392
773.834	2671.6031
774.254	2706.4837
774.673	2641.44189
775.093	2570.50868
775.512	2501.45939
775.931	2484.62077
776.351	2535.5168
776.77	2459.39933
777.189	2414.23849
777.607	2333.58768
778.026	2383.47265
778.445	2245.422
778.864	2301.59615
779.282	2292.24587
779.701	2222.4518
780.119	2190.4418
780.537	2147.34935
780.955	2098.41965
781.373	2117.28678
781.791	2038.79822
782.209	2086.93849
782.627	2000.51743
783.045	1917.82623
783.462	1926.29975
783.88	1875.31199
784.297	1851.16098
784.715	1825.22799
785.132	1747.90419
785.549	1678.97116
785.966	1750.06522
786.383	1679.90382
786.8	1706.706
787.217	1608.69231
787.633	1555.82781
788.05	1648.74198
788.466	1566.63563
788.883	1490.83338
789.299	1544.68503
789.715	1451.61547
790.131	1413.64851
790.547	1389.63385
790.963	1403.62971
791.379	1327.59248
791.795	1319.26484
792.21	1333.3521
792.626	1268.31739
793.041	1253.41549
793.457	1192.33535
793.872	1200.20368
794.287	1170.20309
794.702	1203.34205
795.117	1131.25974
795.532	1070.19025
795.947	1078.09968
796.362	1060.05383
796.776	1037.97582
797.191	977.98725
797.605	915.79443
798.02	963.95077
798.434	914.68685
798.848	934.93112
799.262	842.79119
799.676	911.87388
800.09	836.76456
800.504	836.73683
800.918	798.5842
801.331	791.81444
801.745	759.50563
802.158	779.69473
802.572	796.6676
802.985	688.46969
803.398	673.41993
803.811	731.65938
804.224	661.46702
804.637	610.30232
805.05	671.37173
805.462	672.46642
805.875	565.3355
806.288	571.24553
806.7	524.2076
807.112	550.15476
807.525	554.24432
807.937	540.21779
808.349	556.26871
808.761	496.12298
809.173	429.97053
809.584	509.15549
809.996	396.91137
810.408	457.09696
810.819	446.97341
811.231	452.0872
811.642	467.02694
812.053	524.13586
812.464	604.28727
812.875	583.35201
813.286	539.27054
813.697	473.0188
814.108	379.87348
814.519	313.66421
814.929	362.87586
815.34	330.76194
815.75	351.84718
816.16	383.9006
816.571	320.79519
816.981	299.67566
817.391	297.68699
817.801	318.75405
818.211	289.66078
818.62	273.63223
819.03	310.72629
819.44	299.75018
819.849	311.74981
820.259	275.67853
820.668	168.40577
821.077	221.53366
821.486	235.54877
821.895	294.69689
822.304	239.61493
822.713	208.47894
823.122	217.52717
823.531	224.51558
823.939	231.54599
824.348	203.48149
824.756	212.51743
825.164	216.52935
825.573	187.45922
825.981	212.51222
826.389	213.52132
826.797	188.46074
827.205	97.22153
827.612	189.45622
828.02	145.33555
828.428	191.4758
828.835	188.48449
829.243	205.47609
829.65	185.45011
830.057	176.41866
830.464	155.37161
830.871	182.4266
831.278	159.37786
831.685	167.36552
832.092	171.41075
832.499	174.37255
832.905	160.39836
833.312	164.36721
833.718	164.40148
834.124	102.23168
834.531	140.34832
834.937	141.35711
835.343	141.3356
835.749	119.27539
836.155	84.21919
836.561	122.297
836.966	134.32365
837.372	114.28765
837.777	103.25482
838.183	136.29836
838.588	79.19566
838.993	168.40132
839.399	106.25718
839.804	39.09549
840.209	110.27766
840.613	74.16447
841.018	108.27134
841.423	81.20712
841.828	110.27587
842.232	132.32303
842.637	99.2321
843.041	61.15636
843.445	90.22466
843.849	78.19258
844.253	106.25002
844.657	35.08855
845.061	72.16321
845.465	68.16412
845.869	72.16712
846.272	61.14859
846.676	119.28487
847.079	59.15007
847.483	128.31556
847.886	108.26066
848.289	62.16536
848.692	83.20939
849.095	69.16556
849.498	123.30842
849.901	96.21885
850.304	42.10079
850.707	96.24327
851.109	103.25873
851.512	92.22481
851.914	49.12371
852.316	44.11162
852.718	28.07266
853.121	40.0984
853.523	62.14493
853.925	59.15387
854.326	83.20662
854.728	77.19737
855.13	15.03897
855.531	69.16461
855.933	14.03392
856.334	46.11495
856.736	34.0766
857.137	72.16705
857.538	56.14085
857.939	20.04976
858.34	63.15346
858.741	55.14383
859.142	82.19619
859.542	41.10846
859.943	42.10469
860.343	9.02249
860.744	61.14881
861.144	33.08089
861.544	-15.03655
861.945	51.13013
862.345	84.2045
862.745	24.06002
863.145	104.24654
863.544	69.17401
863.944	65.1534
864.344	81.20039
864.743	80.19774
865.143	73.18699
865.542	42.09776
865.941	66.16313
866.34	45.1081
866.74	55.14764
867.139	-7.01697
867.537	32.0819
867.936	31.075
868.335	47.1198
868.734	36.09233
869.132	28.06545
869.531	87.2093
869.929	8.01842
870.327	5.01211
870.726	97.24015
871.124	41.09616
871.522	47.11993
871.92	65.1601
872.318	14.0345
872.715	86.21179
873.113	32.07834
873.511	38.09499
873.908	29.07355
874.306	16.04008
874.703	51.12774
875.1	64.16351
875.497	46.11052
875.894	-13.03226
876.291	46.11312
876.688	37.09574
877.085	12.02904
877.482	26.06544
877.878	31.07498
878.275	25.06386
878.671	91.20128
879.068	76.1828
879.464	41.09938
879.86	-3.00718
880.256	58.1431
880.652	23.05883
881.048	50.12404
881.444	72.17088
881.84	68.17244
882.236	61.15323
882.631	98.23867
883.027	2.00489
883.422	38.09746
883.817	4.01014
884.213	30.07732
884.608	17.04198
885.003	24.05821
885.398	28.07042
885.793	7.01772
886.188	15.03756
886.582	85.21689
886.977	72.17035
887.371	62.15661
887.766	5.01255
888.16	64.15947
888.554	61.15069
888.949	67.16788
889.343	63.15369
889.737	-19.05124
890.131	28.07058
890.525	45.11527
890.918	47.11845
891.312	59.14108
891.706	14.03698
892.099	61.15505
892.492	55.1187
892.886	10.02467
893.279	31.0793
893.672	51.1299
894.065	68.16986
894.458	50.12585
894.851	83.20233
895.244	39.09986
895.637	81.19413
896.029	29.07125
896.422	55.13437
896.814	42.10465
897.206	-23.05558
897.599	49.12131
897.991	44.1066
898.383	28.0665
898.775	42.09505
899.167	-11.02598
899.559	69.1742
899.951	28.06635
900.342	45.11462
900.734	5.01251
901.125	52.13648
901.517	29.07151
901.908	93.22136
902.299	14.03448
902.69	101.23614
903.082	79.19042
903.473	31.07455
903.863	59.15039
904.254	38.08848
904.645	88.21751
905.036	10.02441
905.426	110.24904
905.817	40.0984
906.207	20.04796
906.597	1.00236
906.987	49.12709
907.378	45.11397
907.768	57.15059
908.158	53.12924
908.547	21.05454
908.937	30.07729
909.327	39.09496
909.717	79.19966
910.106	9.0218
910.495	75.1865
910.885	55.13925
911.274	52.12999
911.663	73.18463
912.052	97.23742
912.441	11.02818
912.83	23.05312
913.219	42.11012
913.608	39.09578
913.997	2.00506
914.385	47.11243
914.774	51.12423
915.162	50.11922
915.55	68.16406
915.939	37.09365
916.327	59.14709
916.715	43.10976
917.103	91.22241
917.491	82.20179
917.878	44.10836
918.266	32.08327
918.654	75.19083
919.041	7.01841
919.429	26.06168
919.816	48.12177
920.203	23.05609
920.591	53.13141
920.978	90.21886
921.365	25.06589
921.752	54.1287
922.139	30.06546
922.525	21.05073
922.912	81.19649
923.299	34.08478
923.685	-11.029
924.072	24.05566
924.458	27.06719
924.844	22.05474
925.231	44.10257
925.617	8.0205
926.003	52.1329
926.389	24.06084
926.774	44.11166
927.16	74.18304
927.546	15.03853
927.931	66.16427
928.317	37.08549
928.702	51.12069
929.088	15.03573
929.473	24.06136
929.858	-2.00488
930.243	10.02419
930.628	31.07571
931.013	12.02995
931.398	34.07848
931.783	67.17593
932.167	65.15851
932.552	39.09793
932.937	39.09702
933.321	29.07306
933.705	22.05575
934.09	44.11134
934.474	77.18201
934.858	60.15538
935.242	-2.00468
935.626	21.05404
936.009	-2.00537
936.393	32.0817
936.777	1.00258
937.16	22.05752
937.544	82.19206
937.927	5.01279
938.311	76.18467
938.694	48.127
939.077	-17.04122
939.46	54.13254
939.843	78.1618
940.226	18.04644
940.609	30.06916
940.991	50.12729
941.374	29.07117
941.757	69.1697
942.139	41.09228
942.522	59.13924
942.904	46.11069
943.286	25.06381
943.668	35.09091
944.05	21.05201
944.432	27.06692
944.814	72.17666
945.196	5.01229
945.578	15.0359
945.959	76.17724
946.341	63.15432
946.722	-5.01186
947.104	33.07915
947.485	-3.00706
947.866	22.05571
948.247	25.06336
948.628	8.01967
949.009	-2.00517
949.39	48.11956
949.771	66.15307
950.152	19.0469
950.532	-4.00994
950.913	46.11106
951.293	55.14846
951.674	47.11376
952.054	23.05728
952.434	67.16582
952.814	59.14016
953.194	73.19032
953.574	83.20323
953.954	7.01676
954.334	56.13943
954.714	39.09525
955.093	63.15455
955.473	30.07529
955.853	73.18823
956.232	64.17503
956.611	63.15076
956.99	28.07065
957.37	56.14256
957.749	67.15935
958.128	4.01016
958.506	36.09362
958.885	37.09361
959.264	-14.03472
959.643	10.02294
960.021	49.12145
960.4	7.01601
960.778	75.18392
961.156	-20.05077
961.535	65.15108
961.913	51.11933
962.291	8.02068
962.669	5.01277
963.047	51.13013
963.424	28.07174
963.802	29.07159
964.18	79.19887
964.557	43.09919
964.935	34.08082
965.312	14.03668
965.69	86.21397
966.067	56.13623
966.444	65.15975
966.821	62.15951
967.198	63.15248
967.575	67.16424
967.952	84.19667
968.329	30.07328
968.705	59.1263
969.082	46.11806
969.458	38.09137
969.835	15.03676
970.211	46.11814
970.587	90.22245
970.963	31.0798
971.339	22.05772
971.715	51.12733
972.091	44.10848
972.467	33.08257
972.843	33.08215
973.219	97.23088
973.594	32.08396
973.97	76.18003
974.345	-10.02421
974.721	67.16174
975.096	51.12339
975.471	50.11862
975.846	35.08433
976.221	14.03578
976.596	27.06501
976.971	55.13567
977.346	83.192
977.72	30.0767
978.095	51.13178
978.469	22.0528
978.844	54.13567
979.218	19.04581
979.593	68.16238
979.967	37.09036
980.341	48.11057
980.715	29.07335
981.089	59.14746
981.463	4.00927
981.837	12.02953
982.21	46.10715
982.584	50.12077
982.957	56.13969
983.331	48.11352
983.704	39.09603
984.078	4.00994
984.451	128.31521
984.824	-26.06422
985.197	42.10217
985.57	66.16505
985.943	60.14792
986.316	67.16412
986.688	42.10145
987.061	65.15191
987.434	65.16894
987.806	7.01711
988.179	9.02141
988.551	27.06877
988.923	36.08888
989.295	47.11751
989.667	-11.02658
990.039	-9.02248
990.411	49.11281
990.783	62.14243
991.155	-31.07562
991.527	32.07907
991.898	26.06507
992.27	18.04478
992.641	51.12793
993.012	59.13859
993.384	34.08135
993.755	36.092
994.126	11.02665
994.497	-2.00496
994.868	59.13529
995.239	58.14035
995.61	42.10583
995.98	4.0098
996.351	-16.0401
996.722	25.05827
997.092	16.03813
997.462	11.02589
997.833	74.17461
998.203	87.20946
998.573	31.07745
998.943	9.02127
999.313	-7.01696
999.683	14.03383
1000.053	27.06241
1000.423	80.1933
1000.792	53.13728
1001.162	14.03468
1001.531	10.02484
1001.901	38.09492
1002.27	49.10956
1002.639	37.09474
1003.009	25.05973
1003.378	27.06931
1003.747	0
1004.116	29.06966
1004.485	49.11712
1004.853	46.11661
1005.222	63.15848
1005.591	26.06202
1005.959	-29.06639
1006.328	-5.01138
1006.696	34.08225
1007.064	43.10829
1007.433	84.20861
1007.801	60.147
1008.169	61.15373
1008.537	70.15435
1008.905	-6.01413
1009.273	32.0793
1009.64	-15.03622
1010.008	38.09078
1010.375	100.24053
1010.743	112.25543
1011.11	27.06417
1011.478	52.12862
1011.845	53.12455
1012.212	38.08621
1012.579	39.09592
1012.946	36.0859
1013.313	59.14016
1013.68	31.06994
1014.047	29.06937
1014.414	4.00953
1014.78	13.03252
1015.147	57.13765
1015.513	29.07014
1015.88	90.22847
1016.246	76.18668
1016.612	43.09856
1016.978	30.07377
1017.344	32.07933
1017.71	96.23205
1018.076	36.08511
1018.442	54.13878
1018.808	20.05025
1019.174	52.13037
1019.539	85.19428
1019.905	14.03324
1020.27	26.06443
1020.636	62.14828
1021.001	60.14333
1021.366	-7.01699
1021.731	37.09534
1022.096	0
1022.461	25.05944
1022.826	48.1141
1023.191	16.04221
1023.556	28.06589
1023.92	90.21959
1024.285	46.11232
1024.649	38.09331
1025.014	31.07703
1025.378	38.09571
1025.742	14.03498
1026.107	41.09288
1026.471	62.14436
1026.835	45.11162
1027.199	4.00971
1027.562	30.06999
1027.926	65.15845
1028.29	54.1365
1028.654	36.08303
1029.017	57.13988
1029.381	63.15007
1029.744	53.13505
1030.107	56.13229
1030.471	20.04814
1030.834	34.07757
1031.197	65.15608
1031.56	27.06397
1031.923	40.10355
1032.286	38.08942
1032.648	53.12664
1033.011	-4.00928
1033.374	26.06137
1033.736	-4.01061
1034.099	41.10006
1034.461	4.01018
1034.823	25.06251
1035.185	37.09331
1035.548	52.12645
1035.91	33.07927
1036.272	50.11375
1036.634	58.14162
1036.995	52.12213
1037.357	-4.00983
1037.719	35.08532
1038.08	66.15616
1038.442	59.13973
1038.803	48.11524
1039.165	13.03301
1039.526	19.04616
1039.887	45.10773
1040.248	7.01738
1040.609	78.19166
1040.97	47.11487
1041.331	60.15156
1041.692	-23.05443
1042.053	59.13404
1042.413	40.09336
1042.774	50.12154
1043.134	88.20789
1043.495	40.10068
1043.855	36.08751
1044.215	45.11174
1044.576	17.04088
1044.936	50.11458
1045.296	82.20335
1045.656	48.11777
1046.016	38.09189
1046.375	61.14759
1046.735	-13.02983
1047.095	15.03533
1047.454	40.0849
1047.814	57.13676
1048.173	79.1876
1048.533	18.04148
1048.892	-5.01212
1049.251	56.14034
1049.61	18.04456
1049.969	26.06154
1050.328	35.07609
1050.687	21.05134
1051.046	47.11444
1051.405	30.07486
1051.763	48.11035
1052.122	30.07505
1052.48	32.07869
1052.839	25.05907
1053.197	-13.03095
1053.555	65.14767
1053.914	39.09553
1054.272	78.18747
1054.63	1.00247
1054.988	31.07387
1055.345	15.03253
1055.703	76.1819
1056.061	28.07226
1056.419	39.10109
1056.776	60.14514
1057.134	16.03727
1057.491	42.10526
1057.848	55.13672
1058.206	44.10354
1058.563	34.07516
1058.92	38.08775
1059.277	42.1037
1059.634	53.12455
1059.991	20.04816
1060.348	35.07929
1060.704	16.03835
1061.061	55.12758
1061.418	7.0171
1061.774	51.1258
1062.131	10.0266
1062.487	33.07737
1062.843	49.12211
1063.199	72.17823
1063.555	7.01635
1063.911	9.02288
1064.267	46.09598
1064.623	44.10692
1064.979	52.12308
1065.335	59.1407
1065.691	45.10789
1066.046	57.12508
1066.402	22.05023
1066.757	46.11611
1067.112	49.1202
1067.468	13.0309
1067.823	59.14151
1068.178	26.06313
1068.533	79.19034
1068.888	58.13829
1069.243	50.12331
1069.598	25.06099
1069.952	-67.15437
1070.307	27.06707
1070.662	6.01436
1071.016	5.0113
1071.371	53.12041
1071.725	14.0337
1072.079	30.07238
1072.434	1.00245
1072.788	51.12134
1073.142	57.13993
1073.496	16.03818
1073.85	11.02569
1074.203	34.08268
1074.557	21.05607
1074.911	65.15459
1075.265	89.20514
1075.618	49.11958
1075.971	51.1212
1076.325	36.09165
1076.678	-4.00924
1077.031	11.02507
1077.385	28.06192
1077.738	6.01366
1078.091	4.00917
1078.444	50.11601
1078.796	40.09825
1079.149	48.11934
1079.502	-8.0191
1079.855	-15.0354
1080.207	70.17169
1080.56	-8.02087
1080.912	36.08781
1081.264	58.13935
1081.617	31.07577
1081.969	14.03552
1082.321	27.06616
1082.673	-29.06719
1083.025	6.01434
1083.377	-174.39121
1083.728	45.10501
1084.08	62.15431
1084.432	5.01215
1084.783	51.11938
1085.135	14.03529
1085.486	-35.08138
1085.838	24.05934
1086.189	9.022
1086.54	29.06948
1086.891	22.05587
1087.242	36.08781
1087.593	48.11681
1087.944	38.08614
1088.295	74.16727
1088.646	38.09223
1088.996	-12.02922
1089.347	13.03209
1089.698	7.01667
1090.048	42.10914
1090.398	39.09058
1090.749	67.15966
1091.099	12.03036
1091.449	24.06002
1091.799	30.07532
1092.149	-33.08164
1092.499	32.07825
1092.849	15.03833
1093.199	42.10533
1093.548	31.07469
1093.898	18.04526
1094.248	59.15124
1094.597	-36.0932
1094.947	-2.00538
1095.296	37.0915
1095.645	52.13508
1095.994	18.04346
1096.343	21.05307
1096.692	6.01586
1097.041	29.07871
1097.39	71.17726
1097.739	43.1118
1098.088	53.1418
1098.437	-15.0398
1098.785	25.06761
1099.134	27.0719
1099.482	9.02489
1099.83	43.11303
1100.179	29.07584
1100.527	44.11692
1100.875	21.05574
1101.223	53.14054
1101.571	39.10786
1101.919	3.00789
1102.267	37.10428
1102.615	6.01929
1102.962	22.07073
1103.31	10.03211
1103.658	19.06114
