Data from N2 R5 sample 9_Subt2__3__13-32-55-239.txt Node

Date: Fri Aug 29 13:32:55 PDT 2025
User: uwsun
Spectrometer: HDX01956
Trigger mode: 0
Integration Time (sec): 5.000000E-1
Scans to average: 1
Nonlinearity correction enabled: true
Boxcar width: 0
Storing dark spectrum: false
XAxis mode: Wavelengths
Number of Pixels in Spectrum: 2068
>>>>>Begin Spectral Data<<<<<
194.03	339.9011
194.578	314.95363
195.127	347.02954
195.676	350.04148
196.225	370.92006
196.773	388.99692
197.321	555.34866
197.87	793.67118
198.418	798.65414
198.966	721.53062
199.513	716.43773
200.061	719.47131
200.609	753.63328
201.156	718.23209
201.704	687.40638
202.251	730.57429
202.798	716.51438
203.345	789.55794
203.892	739.49933
204.438	832.55821
204.985	726.36136
205.532	757.60851
206.078	834.60654
206.624	764.48982
207.17	817.48005
207.716	755.45518
208.262	761.1533
208.808	756.47141
209.354	815.55222
209.899	840.68629
210.445	767.51161
210.99	772.46628
211.535	841.53909
212.08	806.46787
212.625	800.59335
213.17	823.65554
213.715	748.29193
214.259	778.43109
214.804	821.60682
215.348	774.39523
215.892	837.57029
216.436	858.54384
216.98	828.42061
217.524	806.49458
218.068	804.61542
218.612	794.60116
219.155	755.4134
219.698	753.43326
220.242	753.52082
220.785	735.37725
221.328	718.457
221.871	703.46708
222.414	717.45927
222.956	652.28315
223.499	700.26607
224.041	718.35493
224.583	727.25657
225.126	671.19468
225.668	691.36736
226.21	668.38193
226.751	658.15667
227.293	681.26395
227.835	687.36642
228.376	722.34585
228.918	714.47721
229.459	697.41144
230	639.24955
230.541	704.30964
231.082	689.35895
231.622	722.3372
232.163	688.35348
232.704	682.37945
233.244	685.3871
233.784	700.40298
234.324	674.17743
234.864	659.21028
235.404	714.37372
235.944	654.27078
236.484	780.56282
237.023	725.37118
237.563	731.34346
238.102	736.391
238.641	725.48762
239.18	691.29465
239.719	716.45889
240.258	716.28388
240.797	742.41399
241.335	716.4179
241.874	715.06077
242.412	738.41521
242.95	648.25491
243.488	755.35987
244.026	747.3578
244.564	726.16559
245.102	713.26767
245.64	821.55686
246.177	707.26023
246.715	739.4202
247.252	769.3915
247.789	738.07211
248.326	704.34796
248.863	714.23044
249.4	790.39945
249.936	742.17921
250.473	758.38795
251.009	718.29804
251.546	787.33819
252.082	757.29051
252.618	734.27846
253.154	758.43405
253.69	742.30946
254.226	732.38478
254.761	777.35319
255.297	725.23848
255.832	734.37165
256.367	831.51005
256.903	813.36096
257.438	781.43555
257.972	765.32101
258.507	732.30792
259.042	763.27773
259.576	768.25843
260.111	806.44193
260.645	788.30784
261.179	800.43852
261.713	735.27043
262.247	783.40033
262.781	767.22082
263.315	775.48307
263.849	753.48606
264.382	809.43207
264.915	819.46561
265.449	749.41803
265.982	873.49843
266.515	809.52661
267.048	793.26522
267.58	797.33265
268.113	817.32445
268.646	819.55986
269.178	753.28989
269.71	842.38007
270.243	815.42103
270.775	789.56959
271.307	842.55759
271.838	902.62154
272.37	827.56521
272.902	824.42354
273.433	796.31534
273.965	786.48205
274.496	817.57563
275.027	841.59795
275.558	850.56616
276.089	774.46223
276.62	853.67505
277.15	856.61664
277.681	864.39265
278.211	831.56514
278.741	786.3002
279.272	835.42615
279.802	865.64522
280.332	844.49456
280.861	827.51342
281.391	785.34485
281.921	806.48864
282.45	883.6722
282.98	920.81485
283.509	865.43643
284.038	865.45855
284.567	895.55351
285.096	891.6054
285.625	883.46964
286.153	843.47152
286.682	888.48569
287.21	884.57612
287.739	912.57851
288.267	911.61978
288.795	953.87607
289.323	842.45163
289.851	889.52923
290.378	903.46437
290.906	880.56332
291.433	959.74583
291.961	909.47661
292.488	928.69653
293.015	925.56511
293.542	883.65349
294.069	968.71029
294.596	959.72646
295.122	924.59257
295.649	961.48819
296.175	931.64006
296.702	980.70372
297.228	1000.73494
297.754	940.4866
298.28	1008.57909
298.806	956.63389
299.332	986.4937
299.857	1008.56177
300.383	1039.86894
300.908	943.61549
301.433	971.66094
301.958	1056.67377
302.483	1019.77592
303.008	1039.79758
303.533	1023.90208
304.058	1100.7588
304.582	990.61005
305.107	1005.851
305.631	1089.66582
306.155	1071.6652
306.679	1038.63195
307.203	1019.59871
307.727	1026.65765
308.251	1084.81881
308.775	1016.62114
309.298	1080.71199
309.822	1089.86547
310.345	1155.77778
310.868	1098.73072
311.391	1149.86826
311.914	1098.83339
312.437	1167.69996
312.96	1173.75712
313.482	1183.77857
314.005	1179.92049
314.527	1138.98245
315.049	1225.99581
315.571	1194.60116
316.093	1236.92275
316.615	1232.83673
317.137	1266.61313
317.659	1216.8553
318.18	1314.92236
318.702	1273.76502
319.223	1368.52313
319.744	1324.69492
320.265	1271.83567
320.786	1257.86471
321.307	1369.99074
321.828	1398.74591
322.348	1370.81819
322.869	1380.80741
323.389	1444.02612
323.909	1478.80776
324.43	1493.98307
324.95	1437.74248
325.47	1468.94875
325.989	1472.8194
326.509	1454.59738
327.029	1515.68325
327.548	1494.6537
328.067	1632.91722
328.587	1590.0239
329.106	1499.67271
329.625	1587.2306
330.144	1579.72667
330.662	1540.69927
331.181	1610.76485
331.7	1596.74911
332.218	1690.53736
332.736	1740.78049
333.255	1711.72779
333.773	1703.769
334.291	1775.99536
334.808	1797.57015
335.326	1817.60894
335.844	1882.65208
336.361	1838.92272
336.879	1820.62419
337.396	1931.74636
337.913	1983.5754
338.43	1999.48793
338.947	2025.66682
339.464	1953.28858
339.981	2010.596
340.497	2044.7653
341.014	1983.66918
341.53	2109.3732
342.046	2103.65657
342.562	2179.74176
343.078	2244.47536
343.594	2187.52338
344.11	2202.48754
344.626	2239.67435
345.141	2279.27448
345.657	2302.27852
346.172	2317.44592
346.687	2325.23585
347.202	2396.11449
347.717	2476.31237
348.232	2440.49173
348.747	2471.12722
349.261	2347.90207
349.776	2447.17473
350.29	2434.28599
350.805	2565.33912
351.319	2561.06158
351.833	2530.9012
352.347	2571.03241
352.861	2602.95766
353.374	2700.91846
353.888	2676.0688
354.401	2646.85571
354.915	2659.68173
355.428	2716.05756
355.941	2823.7286
356.454	2874.63756
356.967	2802.81282
357.48	2850.67643
357.993	2871.90177
358.505	2868.81872
359.018	3002.75415
359.53	3061.60803
360.042	2959.39275
360.554	3070.63562
361.066	2963.65705
361.578	3082.20271
362.09	3028.52824
362.602	3042.20202
363.113	3029.36265
363.625	3221.12242
364.136	3148.09251
364.647	3134.1322
365.158	3250.14876
365.669	3244.24401
366.18	3277.1485
366.691	3268.91487
367.201	3278.13966
367.712	3353.88048
368.222	3431.82849
368.733	3331.66206
369.243	3522.57355
369.753	3596.67203
370.263	3651.70957
370.773	3676.77017
371.282	3660.57945
371.792	3641.33482
372.301	3896.36272
372.811	3914.58306
373.32	3890.94331
373.829	3990.065
374.338	4251.81917
374.847	4310.80041
375.356	4426.77465
375.865	4546.59958
376.373	4749.63616
376.882	4890.7316
377.39	5031.70812
377.898	5039.71126
378.407	5411.07546
378.915	5514.30977
379.423	5703.4809
379.93	6031.24833
380.438	6172.67188
380.946	6526.98012
381.453	6703.87337
381.96	6903.36487
382.468	7351.70416
382.975	8106.54374
383.482	8336.74955
383.989	8409.20373
384.495	8485.67903
385.002	9047.26339
385.509	9629.40705
386.015	10316.70597
386.521	10616.91142
387.028	11114.2321
387.534	11428.6629
388.04	11875.14459
388.546	12156.57654
389.051	12419.66442
389.557	13698.70926
390.063	15345.12803
390.568	15753.18345
391.073	15564.88231
391.578	16731.28988
392.084	16714.1852
392.589	17070.71357
393.093	17948.08061
393.598	20162.32931
394.103	21962.9506
394.607	24129.46848
395.112	25919.84028
395.616	27499.25321
396.12	29610.43713
396.624	32297.80042
397.128	35732.84472
397.632	39513.97062
398.136	38411.47866
398.639	36072.04171
399.143	32503.66402
399.646	28888.45294
400.15	25083.82847
400.653	20124.16724
401.156	13866.23708
401.659	5169.95759
402.162	1054.15589
402.664	0
403.167	0
403.67	0
404.172	0
404.674	0
405.176	0
405.678	0
406.18	0
406.682	0
407.184	0
407.686	0
408.187	0
408.688	0
409.19	0
409.691	0
410.192	0
410.693	0
411.194	435.30976
411.694	4082.94878
412.195	8864.71461
412.696	12089.80453
413.196	12760.96929
413.696	12863.67595
414.196	13703.56671
414.696	17261.84252
415.196	21764.24417
415.696	29583.19008
416.196	36460.31858
416.695	40057.39798
417.195	41392.74103
417.694	42311.08144
418.194	43882.52025
418.693	41745.9317
419.192	40104.53938
419.691	39584.67003
420.19	39162.05431
420.688	38296.83385
421.187	36755.48028
421.685	34680.53984
422.184	32118.69078
422.682	27992.30827
423.18	23219.98403
423.678	20380.6245
424.176	18881.96773
424.674	17751.23204
425.172	17158.52283
425.669	16271.27157
426.167	15373.56062
426.664	13747.9295
427.161	12828.80442
427.659	11762.90979
428.156	11012.39926
428.652	10200.05846
429.149	9766.65007
429.646	9369.10346
430.143	9160.28016
430.639	8461.92989
431.135	7906.46165
431.632	7452.48414
432.128	6961.80245
432.624	6656.39614
433.12	6146.83221
433.616	6232.91031
434.111	5695.6388
434.607	5436.14004
435.103	5581.35884
435.598	5432.14595
436.093	5185.77098
436.588	4933.67372
437.083	4660.65713
437.578	4525.71992
438.073	4069.95111
438.568	4138.0665
439.062	3928.88671
439.557	3843.23505
440.051	3647.24018
440.546	3460.37376
441.04	3427.58982
441.534	3367.88027
442.028	3406.75472
442.522	3289.82408
443.015	3227.63475
443.509	3198.04865
444.002	2981.17654
444.496	3021.84485
444.989	3031.22083
445.482	2930.34236
445.975	2872.04336
446.468	2853.95546
446.961	2734.03735
447.454	2697.25343
447.947	2689.37386
448.439	2811.49204
448.931	2516.34971
449.424	2695.73761
449.916	2638.62738
450.408	2584.38746
450.9	2484.68482
451.392	2396.88991
451.884	2334.66174
452.375	2305.87885
452.867	2264.70938
453.358	2245.6589
453.849	2203.53373
454.341	2190.7153
454.832	2179.60291
455.323	2126.99179
455.814	2127.86231
456.304	2133.88415
456.795	2169.86801
457.285	2061.88289
457.776	2082.98259
458.266	1989.05641
458.756	2067.14051
459.247	1867.09477
459.737	1854.1118
460.226	1884.97184
460.716	1748.17303
461.206	1771.22264
461.695	1694.37802
462.185	1652.20228
462.674	1769.174
463.163	1799.08063
463.653	1706.95543
464.142	1550.28797
464.63	1628.39203
465.119	1583.21435
465.608	1489.20273
466.096	1503.11616
466.585	1539.2914
467.073	1531.39949
467.561	1517.41603
468.05	1514.34099
468.538	1464.48675
469.026	1428.4089
469.513	1290.06741
470.001	1349.25394
470.489	1327.35067
470.976	1284.30227
471.463	1242.4786
471.951	1226.50176
472.438	1096.25652
472.925	1141.27795
473.412	1207.48817
473.899	1094.26172
474.385	1089.40785
474.872	1054.26424
475.359	1061.3788
475.845	1054.06904
476.331	1044.17922
476.817	999.36558
477.303	951.22979
477.789	923.28076
478.275	915.32764
478.761	880.2573
479.247	881.14567
479.732	825.25142
480.218	866.40219
480.703	788.22967
481.188	804.02127
481.673	808.12868
482.158	717.91779
482.643	763.27424
483.128	730.04538
483.612	782.15598
484.097	736.18974
484.581	738.11665
485.066	675.09486
485.55	648.92693
486.034	620.88402
486.518	608.96533
487.002	634.05567
487.486	549.94217
487.969	575.98207
488.453	632.12306
488.936	548.86148
489.42	533.83036
489.903	578.05084
490.386	637.65915
490.869	528.81944
491.352	575.02446
491.835	548.79696
492.318	491.8025
492.8	481.71438
493.283	501.94712
493.765	477.87527
494.247	530.91661
494.73	467.76196
495.212	458.844
495.694	387.68686
496.175	361.6527
496.657	437.79055
497.139	469.59022
497.62	322.59185
498.102	337.65578
498.583	329.65486
499.064	326.5625
499.545	370.65412
500.026	316.55397
500.507	299.55082
500.988	372.72958
501.469	312.62261
501.949	341.67337
502.43	225.43137
502.91	286.4638
503.39	290.59054
503.87	270.50901
504.35	313.59487
504.83	265.46419
505.31	284.55515
505.79	244.47424
506.269	271.51479
506.749	269.4943
507.228	225.43116
507.707	290.51481
508.187	293.5707
508.666	234.47152
509.145	256.48617
509.623	212.41067
510.102	217.43615
510.581	245.49061
511.059	208.43282
511.538	221.47962
512.016	264.51874
512.494	233.47069
512.972	206.40994
513.45	154.29689
513.928	177.35986
514.406	130.2628
514.884	217.46733
515.361	199.39868
515.839	166.31725
516.316	219.43936
516.793	205.43883
517.27	217.443
517.747	188.40792
518.224	194.37796
518.701	167.31382
519.178	141.297
519.654	194.39145
520.131	140.29638
520.607	178.377
521.083	146.28376
521.56	160.32166
522.036	139.26069
522.512	223.46641
522.987	130.26328
523.463	148.30083
523.939	148.3125
524.414	162.32042
524.89	169.3425
525.365	113.22052
525.84	96.19629
526.315	130.26955
526.79	165.3174
527.265	137.2685
527.74	147.30814
528.215	186.37359
528.689	150.28389
529.164	123.23079
529.638	173.38393
530.112	91.18636
530.587	114.20879
531.061	98.20529
531.534	199.41326
532.008	122.25398
532.482	183.36001
532.956	130.287
533.429	134.28194
533.903	160.30489
534.376	124.23744
534.849	122.24606
535.322	127.26068
535.795	117.24992
536.268	110.23073
536.741	130.27232
537.213	140.28106
537.686	153.32185
538.158	95.18504
538.631	134.28492
539.103	99.1931
539.575	218.38577
540.047	166.31417
540.519	180.37205
540.991	144.30792
541.463	196.40858
541.934	202.39542
542.406	137.28349
542.877	168.32668
543.348	186.38825
543.82	180.38273
544.291	217.43454
544.762	134.27573
545.233	201.43231
545.703	195.36698
546.174	258.50624
546.645	235.47233
547.115	248.50456
547.585	305.58333
548.056	206.41949
548.526	236.46482
548.996	273.54997
549.466	350.70655
549.935	345.66368
550.405	377.66111
550.875	311.60432
551.344	366.71442
551.814	395.72916
552.283	388.67701
552.752	426.78344
553.221	332.57775
553.69	456.79109
554.159	399.78162
554.628	455.78914
555.096	436.87976
555.565	469.81516
556.033	472.88202
556.502	467.90359
556.97	358.64744
557.438	390.75658
557.906	366.71985
558.374	376.71165
558.842	347.69165
559.31	348.64899
559.777	313.63607
560.245	365.71873
560.712	312.61248
561.18	328.60683
561.647	397.73358
562.114	358.6809
562.581	416.85482
563.048	433.82616
563.514	385.78988
563.981	395.75512
564.448	407.75809
564.914	457.87873
565.381	470.88002
565.847	500.95888
566.313	512.97242
566.779	512.93833
567.245	541.02361
567.711	507.9932
568.176	509.92508
568.642	542.10339
569.108	555.10297
569.573	614.15437
570.038	688.11193
570.504	642.12199
570.969	642.28004
571.434	637.08547
571.899	627.17973
572.363	720.2593
572.828	739.29906
573.293	809.39422
573.757	797.37933
574.222	797.32537
574.686	776.30276
575.15	765.38355
575.614	744.29933
576.078	804.4184
576.542	816.39025
577.006	779.3217
577.469	856.60166
577.933	729.23799
578.396	812.4594
578.86	741.34141
579.323	682.26361
579.786	756.22975
580.249	683.20166
580.712	760.43154
581.175	696.34161
581.637	745.32127
582.1	746.25157
582.563	758.23785
583.025	648.23936
583.487	729.10727
583.95	651.08257
584.412	682.10593
584.874	649.24577
585.336	596.12817
585.797	596.01953
586.259	692.2809
586.721	613.14316
587.182	679.25397
587.643	581.05872
588.105	599.13635
588.566	621.03085
589.027	553.07548
589.488	615.11628
589.949	616.19625
590.41	533.82503
590.87	618.12714
591.331	643.09454
591.791	572.05995
592.252	548.00831
592.712	554.08229
593.172	635.12928
593.632	583.02588
594.092	669.16898
594.552	544.94534
595.011	522.97355
595.471	620.10112
595.931	641.12642
596.39	634.20609
596.849	625.15751
597.308	703.18407
597.768	617.26062
598.227	679.29217
598.685	647.18164
599.144	686.25839
599.603	674.25994
600.062	697.12366
600.52	747.27342
600.978	683.2746
601.437	822.42535
601.895	795.26481
602.353	814.36376
602.811	831.38208
603.269	799.46281
603.727	835.51427
604.184	852.42684
604.642	956.72675
605.099	934.59106
605.557	994.77093
606.014	941.45538
606.471	992.80286
606.928	1008.50995
607.385	1088.85929
607.842	1278.93449
608.299	1311.02214
608.755	1210.99705
609.212	1281.86166
609.668	1165.73355
610.125	1319.1285
610.581	1352.14248
611.037	1392.07395
611.493	1309.08506
611.949	1277.08224
612.405	1242.617
612.861	1341.11706
613.316	1253.04513
613.772	1368.06356
614.227	1322.08863
614.683	1341.87691
615.138	1367.11292
615.593	1316.04944
616.048	1344.05113
616.503	1371.28122
616.958	1327.27745
617.412	1317.11097
617.867	1269.88265
618.321	1378.83621
618.776	1370.99893
619.23	1397.18103
619.684	1333.03002
620.138	1419.194
620.592	1285.17462
621.046	1300.10998
621.5	1309.20833
621.954	1277.98983
622.407	1383.05856
622.861	1263.16706
623.314	1289.03438
623.768	1198.99239
624.221	1230.64557
624.674	1144.91052
625.127	1176.98881
625.58	1150.91221
626.033	1182.87668
626.485	1091.94274
626.938	1101.95354
627.39	1082.87865
627.843	1067.85203
628.295	1025.79955
628.747	1010.84121
629.199	983.7148
629.651	922.63304
630.103	940.67621
630.555	902.48779
631.006	899.67275
631.458	830.58122
631.909	981.75986
632.361	814.54469
632.812	829.54838
633.263	847.46222
633.714	827.42836
634.165	834.65576
634.616	771.52022
635.067	788.43937
635.518	722.45046
635.968	758.2496
636.419	799.4246
636.869	736.47387
637.319	705.37623
637.769	705.32743
638.219	709.44166
638.669	711.43786
639.119	700.45984
639.569	699.43872
640.019	763.48189
640.468	691.31377
640.918	752.53511
641.367	688.31727
641.816	651.25442
642.265	688.36364
642.714	712.40471
643.163	700.37647
643.612	630.31369
644.061	656.18814
644.51	711.38008
644.958	745.37954
645.406	707.45064
645.855	741.55399
646.303	727.45415
646.751	737.42247
647.199	746.43953
647.647	733.43639
648.095	686.35397
648.543	735.27312
648.99	751.52925
649.438	767.53497
649.885	750.59327
650.333	768.23953
650.78	754.55659
651.227	730.52786
651.674	783.50707
652.121	761.58474
652.568	729.52476
653.015	759.65469
653.461	717.47052
653.908	777.53995
654.354	739.51979
654.801	660.35134
655.247	777.44535
655.693	746.68832
656.139	697.4539
656.585	638.34982
657.031	683.38305
657.477	699.3
657.922	681.36453
658.368	716.54011
658.813	722.45713
659.259	681.42991
659.704	575.19751
660.149	690.40202
660.594	641.34464
661.039	650.30202
661.484	722.50311
661.929	574.20523
662.373	617.38911
662.818	590.3139
663.262	626.33941
663.707	599.36338
664.151	610.3338
664.595	574.246
665.039	574.29088
665.483	537.24522
665.927	568.20782
666.371	520.09215
666.814	580.24942
667.258	570.21366
667.701	649.23917
668.145	621.38786
668.588	563.25344
669.031	535.14223
669.474	526.15716
669.917	553.11023
670.36	558.25844
670.803	571.25026
671.245	544.0391
671.688	547.21777
672.13	536.09214
672.573	525.22551
673.015	552.20733
673.457	505.00763
673.899	551.21807
674.341	511.13375
674.783	515.13269
675.225	483.09859
675.666	487.07907
676.108	524.04053
676.549	474.04171
676.991	502.01764
677.432	470.86481
677.873	463.99746
678.314	477.056
678.755	486.0945
679.196	441.94395
679.637	499.12818
680.078	467.01705
680.518	489.05649
680.959	417.94032
681.399	456.05442
681.839	437.99787
682.28	418.97043
682.72	401.86614
683.16	423.99075
683.6	413.88899
684.039	401.78888
684.479	383.89113
684.919	337.74193
685.358	380.91663
685.798	386.95983
686.237	422.96227
686.676	463.00277
687.115	375.83803
687.554	403.90468
687.993	340.72102
688.432	365.7948
688.871	342.74235
689.309	362.82416
689.748	352.70439
690.186	384.87211
690.625	345.77355
691.063	337.77454
691.501	361.85186
691.939	358.85182
692.377	332.77691
692.815	291.67284
693.253	337.77794
693.69	316.66925
694.128	337.78196
694.565	321.73688
695.003	315.76977
695.44	298.67683
695.877	274.62107
696.314	304.63286
696.751	359.7834
697.188	254.56918
697.625	354.77886
698.061	309.71474
698.498	287.6736
698.934	329.76159
699.371	234.53902
699.807	301.68821
700.243	297.6908
700.679	276.60803
701.115	312.70977
701.551	286.65353
701.987	287.62683
702.422	266.61443
702.858	321.736
703.294	286.629
703.729	295.69858
704.164	280.65396
704.599	246.53626
705.035	262.57114
705.47	253.5996
705.904	229.52298
706.339	274.62081
706.774	263.59989
707.209	188.42857
707.643	260.60845
708.078	271.64126
708.512	213.52249
708.946	258.6033
709.38	295.67667
709.814	264.58842
710.248	237.56537
710.682	229.53371
711.116	161.3807
711.549	236.59544
711.983	205.46685
712.416	284.65183
712.85	255.6197
713.283	226.52475
713.716	269.65763
714.149	220.51566
714.582	256.56114
715.015	271.66005
715.448	218.5394
715.881	279.59413
716.313	252.57631
716.746	205.47514
717.178	195.46234
717.61	225.55926
718.043	210.51465
718.475	216.51439
718.907	262.64635
719.339	193.43188
719.77	232.53804
720.202	200.49776
720.634	191.45809
721.065	234.54311
721.497	230.55214
721.928	187.45293
722.359	178.42391
722.79	203.47814
723.221	222.54808
723.652	262.65843
724.083	188.41921
724.514	229.51602
724.945	194.44992
725.375	191.43708
725.806	231.56495
726.236	209.5263
726.666	181.42401
727.096	231.55507
727.526	221.54992
727.956	197.44155
728.386	278.6643
728.816	207.51434
729.246	194.46431
729.675	201.48647
730.105	210.50815
730.534	204.47011
730.964	238.58844
731.393	227.55311
731.822	231.57731
732.251	208.51861
732.68	254.58415
733.109	221.53386
733.537	238.56155
733.966	247.59824
734.395	209.4748
734.823	251.55308
735.251	204.48339
735.68	281.68287
736.108	238.58844
736.536	241.5557
736.964	214.48784
737.392	279.677
737.82	252.58973
738.247	223.52382
738.675	281.65153
739.102	160.3959
739.53	210.52455
739.957	231.58085
740.384	288.68846
740.811	203.50605
741.238	255.60597
741.665	222.50444
742.092	261.60684
742.519	168.41112
742.945	215.5066
743.372	196.47767
743.798	257.64297
744.225	174.40928
744.651	219.53859
745.077	219.53521
745.503	266.63077
745.929	227.53321
746.355	310.74387
746.781	261.62905
747.207	213.48997
747.632	208.49743
748.058	232.56603
748.483	229.51623
748.908	250.60516
749.334	267.63693
749.759	239.55021
750.184	209.48863
750.609	253.60561
751.033	286.65484
751.458	256.55948
751.883	235.56918
752.307	237.54473
752.732	224.54692
753.156	255.61273
753.58	286.65747
754.005	283.6957
754.429	232.53292
754.853	239.57756
755.277	206.47907
755.7	274.659
756.124	196.47821
756.548	193.45034
756.971	255.60597
757.394	247.61996
757.818	232.58305
758.241	264.65032
758.664	276.67511
759.087	179.39443
759.51	243.58966
759.933	212.50002
760.356	252.62875
760.778	250.59832
761.201	253.59914
761.623	260.61345
762.046	282.64802
762.468	263.61414
762.89	259.62163
763.312	235.56039
763.734	224.5275
764.156	225.54332
764.578	246.55171
765	230.54836
765.421	175.438
765.843	234.59882
766.264	253.59497
766.686	234.57388
767.107	212.50351
767.528	165.41118
767.949	195.48735
768.37	219.52604
768.791	213.5052
769.212	192.47368
769.632	180.41332
770.053	204.52681
770.473	127.30761
770.894	211.51796
771.314	212.49672
771.734	171.39367
772.154	240.60055
772.575	213.48389
772.994	139.31386
773.414	214.50356
773.834	183.4504
774.254	169.40841
774.673	148.35746
775.093	180.43852
775.512	144.35161
775.931	207.51415
776.351	176.43053
776.77	162.39113
777.189	141.33289
777.607	162.40846
778.026	159.39133
778.445	93.23252
778.864	194.48862
779.282	172.40804
779.701	138.34496
780.119	96.24223
780.537	120.2978
780.955	143.3605
781.373	134.32889
781.791	131.29254
782.209	167.38001
782.627	113.29611
783.045	110.25249
783.462	98.24984
783.88	88.22742
784.297	114.28539
784.715	75.19279
785.132	82.19888
785.549	81.20281
785.966	85.21383
786.383	90.22131
786.8	147.33802
787.217	119.28063
787.633	83.20714
788.05	141.33212
788.466	84.19859
788.883	89.22661
789.299	85.20488
789.715	84.20434
790.131	119.29408
790.547	90.22457
790.963	79.1963
791.379	89.22469
791.795	88.2011
792.21	72.16897
792.626	45.10768
793.041	104.25574
793.457	88.21735
793.872	37.08786
794.287	73.17455
794.702	78.19244
795.117	46.11499
795.532	21.05317
795.947	67.16192
796.362	108.25701
796.776	75.17632
797.191	50.12313
797.605	-19.04548
798.02	28.06883
798.434	120.2657
798.848	81.19944
799.262	41.1024
799.676	86.20976
800.09	54.13352
800.504	58.14141
800.918	38.08886
801.331	79.20702
801.745	72.16586
802.158	73.18265
802.572	91.22042
802.985	89.21492
803.398	46.11048
803.811	125.31872
804.224	59.14741
804.637	4.00967
805.05	68.15815
805.462	52.12844
805.875	61.15838
806.288	-1.00245
806.7	40.10118
807.112	68.15815
807.525	43.10681
807.937	33.08221
808.349	58.14577
808.761	82.20156
809.173	39.09521
809.584	84.2074
809.996	49.12056
810.408	25.06502
810.819	78.18348
811.231	82.2114
811.642	147.34558
812.053	212.49088
812.464	245.56357
812.875	245.60697
813.286	170.43001
813.697	155.35727
814.108	74.18089
814.519	70.15642
814.929	92.23388
815.34	62.15077
815.75	52.13257
816.16	95.23589
816.571	68.17671
816.981	63.1492
817.391	89.21436
817.801	29.07259
818.211	68.16238
818.62	47.11371
819.03	60.14743
819.44	61.15958
819.849	57.14401
820.259	55.14118
820.668	31.07681
821.077	47.11721
821.486	45.109
821.895	70.17308
822.304	16.04276
822.713	64.1516
823.122	15.03782
823.531	41.09781
823.939	38.09317
824.348	43.10513
824.756	35.08824
825.164	39.09871
825.573	28.07078
825.981	62.15403
826.389	43.10856
826.797	53.13314
827.205	13.03019
827.612	28.06964
828.02	-6.0143
828.428	57.14544
828.835	34.08996
829.243	38.09116
829.65	77.19113
830.057	96.23187
830.464	43.10529
830.871	93.22178
831.278	81.19538
831.685	36.08097
832.092	55.13502
832.499	40.08813
832.905	79.19959
833.312	49.11231
833.718	76.18909
834.124	38.08743
834.531	46.1164
834.937	62.15923
835.343	58.14025
835.749	64.14972
836.155	47.12342
836.561	22.05456
836.966	13.03211
837.372	65.16545
837.777	26.06523
838.183	45.10062
838.588	55.13682
838.993	76.18474
839.399	26.06403
839.804	-7.01729
840.209	49.12503
840.613	13.02926
841.018	44.11182
841.423	41.10557
841.828	52.13177
842.232	67.16594
842.637	29.06892
843.041	2.00518
843.445	55.13816
843.849	39.09698
844.253	55.13101
844.657	-12.03061
845.061	34.07767
845.465	73.17602
845.869	55.12809
846.272	8.01968
846.676	27.06577
847.079	23.05887
847.483	68.16949
847.886	47.11474
848.289	22.05906
848.692	39.09916
849.095	62.14896
849.498	93.23445
849.901	54.12415
850.304	57.1364
850.707	47.12014
851.109	72.18187
851.512	28.06923
851.914	17.04316
852.316	28.07123
852.718	-11.02874
853.121	18.04446
853.523	24.05652
853.925	33.08645
854.326	42.10533
854.728	20.05178
855.13	-24.06278
855.531	22.05296
855.933	35.08446
856.334	28.0702
856.736	-12.02729
857.137	7.01645
857.538	29.07329
857.939	11.02741
858.34	60.14623
858.741	39.10227
859.142	55.13227
859.542	23.06103
859.943	37.09231
860.343	38.09444
860.744	32.07849
861.144	56.13669
861.544	-49.12016
861.945	9.02313
862.345	11.02714
862.745	43.10716
863.145	62.14817
863.544	40.1014
863.944	-4.00957
864.344	48.11947
864.743	45.11194
865.143	55.14133
865.542	22.05141
865.941	35.087
866.34	35.08423
866.74	54.14498
867.139	-10.02425
867.537	62.15784
867.936	17.04124
868.335	48.12233
868.734	47.12031
869.132	45.10484
869.531	80.19272
869.929	-18.04166
870.327	28.0675
870.726	63.15695
871.124	55.12864
871.522	47.11993
871.92	38.09406
872.318	48.11755
872.715	41.10181
873.113	1.00246
873.511	39.09747
873.908	-21.05374
874.306	6.01506
874.703	30.07543
875.1	81.20632
875.497	25.0603
875.894	-7.01735
876.291	59.14473
876.688	31.0803
877.085	58.13914
877.482	21.0529
877.878	-21.05129
878.275	58.14729
878.671	45.10049
879.068	63.15191
879.464	57.13775
879.86	12.02862
880.256	42.10393
880.652	11.0282
881.048	40.09941
881.444	37.08841
881.84	20.05115
882.236	53.13333
882.631	25.06171
883.027	54.13082
883.422	18.04633
883.817	11.02786
884.213	50.12841
884.608	18.04444
885.003	31.07509
885.398	14.0353
885.793	29.07314
886.188	2.00502
886.582	109.27695
886.977	38.0905
887.371	35.08884
887.766	-7.0176
888.16	47.11747
888.554	43.10658
888.949	64.16045
889.343	13.03201
889.737	10.02684
890.131	13.03286
890.525	14.03606
890.918	47.11845
891.312	75.17879
891.706	67.1754
892.099	44.11217
892.492	16.03482
892.886	59.14425
893.279	10.02567
893.672	33.08432
894.065	41.10292
894.458	60.15075
894.851	56.1372
895.244	42.10749
895.637	43.1038
896.029	49.11994
896.422	30.07363
896.814	19.04754
897.206	-18.04346
897.599	80.19694
897.991	17.04139
898.383	-13.03112
898.775	55.12414
899.167	-23.05445
899.559	38.09647
899.951	25.05928
900.342	42.10704
900.734	-33.08316
901.125	40.10519
901.517	34.08376
901.908	42.10095
902.299	28.06878
902.69	22.05223
903.082	31.0754
903.473	10.02414
903.863	35.08959
904.254	41.09541
904.645	69.17114
905.036	11.02684
905.426	64.14625
905.817	38.09351
906.207	-10.02412
906.597	13.03065
906.987	36.09358
907.378	23.05848
907.768	41.10861
908.158	50.122
908.547	-3.00782
908.937	23.05933
909.327	14.03425
909.717	70.1772
910.106	17.04112
910.495	65.16193
910.885	51.12922
911.274	49.12256
911.663	46.1169
912.052	71.17462
912.441	45.11458
912.83	23.05312
913.219	80.20839
913.608	29.07135
913.997	42.10549
914.385	-5.01208
914.774	60.14591
915.162	12.02882
915.55	47.11384
915.939	20.05077
916.327	30.07518
916.715	7.01798
917.103	49.12069
917.491	35.08688
917.878	10.02478
918.266	77.19882
918.654	69.17575
919.041	0
919.429	10.0238
919.816	47.11925
920.203	-5.01226
920.591	51.1265
920.978	26.06398
921.365	17.04487
921.752	16.03841
922.139	8.01754
922.525	12.02904
922.912	40.09778
923.299	60.1489
923.685	25.06551
924.072	18.0418
924.458	29.07214
924.844	20.04978
925.231	11.02581
925.617	29.07405
926.003	22.05652
926.389	42.10613
926.774	31.07885
927.16	23.05742
927.546	23.059
927.931	29.07266
928.317	-6.01398
928.702	53.12537
929.088	33.07834
929.473	38.09691
929.858	-28.0687
930.243	-42.10259
930.628	49.11927
931.013	0
931.398	83.18971
931.783	49.12906
932.167	25.06142
932.552	41.10292
932.937	39.09702
933.321	-25.06359
933.705	-13.03315
934.09	88.22094
934.474	50.1188
934.858	16.04175
935.242	2.00468
935.626	14.03607
936.009	26.06944
936.393	15.03841
936.777	19.04892
937.16	39.10168
937.544	25.05921
937.927	0
938.311	32.0784
938.694	45.11912
939.077	-3.00726
939.46	18.04448
939.843	78.1618
940.226	35.09003
940.609	18.0416
940.991	33.08426
941.374	-10.02472
941.757	57.1405
942.139	6.0136
942.522	75.17645
942.904	-8.01945
943.286	32.08158
943.668	32.08316
944.05	-7.01743
944.432	-1.00249
944.814	37.09137
945.196	-19.0469
945.578	-22.05302
945.959	2.00473
946.341	93.22653
946.722	28.06602
947.104	-10.02418
947.485	20.04683
947.866	27.06831
948.247	19.04821
948.628	79.19171
949.009	21.05406
949.39	0
949.771	52.12094
950.152	11.02719
950.532	-28.06987
950.913	63.15162
951.293	12.03262
951.674	25.06076
952.054	-19.04768
952.434	11.0275
952.814	39.09301
953.194	60.15678
953.574	40.09872
953.954	27.06441
954.334	23.05761
954.714	-14.03453
955.093	82.20045
955.473	13.03273
955.853	43.11145
956.232	43.11799
956.611	66.15785
956.99	45.1132
957.37	53.135
957.749	46.10985
958.128	55.13846
958.506	27.07032
958.885	69.17358
959.264	-17.04218
959.643	18.04123
960.021	37.09191
960.4	10.02285
960.778	72.17666
961.156	23.05794
961.535	39.09111
961.913	61.14245
962.291	18.04644
962.669	4.01022
963.047	10.0257
963.424	12.03083
963.802	27.06668
964.18	65.16404
964.557	56.12885
964.935	45.10674
965.312	44.1147
965.69	14.03529
966.067	95.22941
966.444	33.08158
966.821	25.06473
967.198	66.15965
967.575	76.18599
967.952	50.11784
968.329	15.03674
968.705	44.0945
969.082	11.0284
969.458	-31.07551
969.835	56.13618
970.211	40.10284
970.587	34.0849
970.963	53.1359
971.339	31.08121
971.715	27.0677
972.091	24.05939
972.467	39.09747
972.843	9.0225
973.219	50.12008
973.594	21.0552
973.97	65.1543
974.345	36.08639
974.721	1.00244
975.096	-8.01957
975.471	5.01197
975.846	26.06275
976.221	22.05615
976.596	-15.0364
976.971	16.03975
977.346	53.12333
977.72	23.05887
978.095	65.16755
978.469	30.07189
978.844	64.16051
979.218	-5.01211
979.593	43.10317
979.967	-2.00492
980.341	6.01394
980.715	41.10347
981.089	23.05786
981.463	29.06687
981.837	-15.0371
982.21	66.15313
982.584	50.12077
982.957	-3.00756
983.331	25.05939
983.704	43.1058
984.078	-12.02991
984.451	97.24024
984.824	-8.01969
985.197	42.10217
985.57	72.17986
985.943	68.1674
986.316	50.12286
986.688	49.1182
987.061	61.14268
987.434	-3.00789
987.806	30.07303
988.179	23.05456
988.551	64.16195
988.923	3.00745
989.295	29.07274
989.667	-6.01449
990.039	12.02986
990.411	34.07851
990.783	57.13107
991.155	-28.06827
991.527	75.18385
991.898	25.06257
992.27	8.01994
992.641	52.13041
993.012	63.14788
993.384	6.01443
993.755	-21.05421
994.126	21.05079
994.497	10.02473
994.868	27.06231
995.239	19.04632
995.61	16.0405
995.98	7.01714
996.351	9.02245
996.722	-2.00469
997.092	-19.04559
997.462	-15.03548
997.833	37.08793
998.203	21.05119
998.573	40.09978
998.943	15.03541
999.313	7.01691
999.683	12.02901
1000.053	33.07619
1000.423	63.15271
1000.792	38.09868
1001.162	38.09372
1001.531	3.00746
1001.901	12.03012
1002.27	-20.04535
1002.639	62.15806
1003.009	11.02635
1003.378	21.05396
1003.747	15.03568
1004.116	15.03613
1004.485	23.05525
1004.853	69.1742
1005.222	26.06584
1005.591	44.10459
1005.959	19.04308
1006.328	15.034
1006.696	47.11341
1007.064	23.05813
1007.433	46.11503
1007.801	52.12759
1008.169	51.12876
1008.537	46.10194
1008.905	1.00235
1009.273	17.04224
1009.64	46.1098
1010.008	67.15917
1010.375	51.12381
1010.743	64.14737
1011.11	20.04759
1011.478	20.04976
1011.845	28.06612
1012.212	25.05687
1012.579	31.07636
1012.946	-9.02166
1013.313	41.09774
1013.68	39.08785
1014.047	12.0288
1014.414	20.0475
1014.78	23.05742
1015.147	81.19472
1015.513	22.05328
1015.88	39.0999
1016.246	64.15755
1016.612	41.09401
1016.978	54.1322
1017.344	19.04721
1017.71	59.14361
1018.076	31.07336
1018.442	51.13114
1018.808	57.14226
1019.174	18.0454
1019.539	84.19204
1019.905	-43.10321
1020.27	-2.00498
1020.636	69.1648
1021.001	13.03133
1021.366	10.02419
1021.731	47.1209
1022.096	-20.05106
1022.461	31.07362
1022.826	37.08814
1023.191	27.07109
1023.556	-14.03321
1023.92	60.14721
1024.285	29.07104
1024.649	38.09331
1025.014	52.12872
1025.378	35.0882
1025.742	18.04495
1026.107	8.01825
1026.471	21.04929
1026.835	37.09191
1027.199	-1.00243
1027.562	0
1027.926	44.10768
1028.29	22.05593
1028.654	36.08303
1029.017	53.13016
1029.381	-12.029
1029.744	-18.04644
1030.107	61.14396
1030.471	10.02412
1030.834	21.04804
1031.197	58.13946
1031.56	19.04508
1031.923	33.08554
1032.286	56.13132
1032.648	6.01446
1033.011	-44.10285
1033.374	47.11049
1033.736	0
1034.099	12.02944
1034.461	10.02543
1034.823	33.08239
1035.185	17.04303
1035.548	19.04649
1035.91	-1.00242
1036.272	-13.02995
1036.634	73.17775
1036.995	36.08481
1037.357	9.02205
1037.719	21.05132
1038.08	27.06436
1038.442	9.02152
1038.803	22.05308
1039.165	-1.00255
1039.526	60.14465
1039.887	13.03131
1040.248	0
1040.609	34.08422
1040.97	4.00985
1041.331	48.12151
1041.692	-24.05681
1042.053	16.03667
1042.413	24.05619
1042.774	37.09016
1043.134	37.08827
1043.495	35.08817
1043.855	29.07059
1044.215	44.10927
1044.576	-4.00966
1044.936	59.13496
1045.296	38.09499
1045.656	18.04441
1046.016	43.10388
1046.375	-8.01961
1046.735	18.04105
1047.095	34.07979
1047.454	58.12263
1047.814	-29.07072
1048.173	56.13357
1048.533	5.01155
1048.892	-11.02669
1049.251	46.11549
1049.61	-2.00497
1049.969	18.04267
1050.328	3.00657
1050.687	13.03183
1051.046	8.01962
1051.405	45.11198
1051.763	7.01623
1052.122	36.08996
1052.48	22.0542
1052.839	23.05437
1053.197	-4.00951
1053.555	46.10491
1053.914	17.04181
1054.272	56.13516
1054.63	-7.01729
1054.988	6.01437
1055.345	5.01087
1055.703	34.08203
1056.061	2.00518
1056.419	10.02605
1056.776	53.12838
1057.134	24.05582
1057.491	38.0953
1057.848	78.19308
1058.206	24.0567
1058.563	5.01112
1058.92	4.0093
1059.277	41.10125
1059.634	34.0802
1059.991	77.18342
1060.348	43.09725
1060.704	27.06459
1061.061	44.10229
1061.418	24.05845
1061.774	18.04467
1062.131	-2.00533
1062.487	41.09597
1062.843	44.10975
1063.199	12.03003
1063.555	-7.01639
1063.911	12.0305
1064.267	74.15344
1064.623	2.0049
1064.979	56.13245
1065.335	50.11944
1065.691	20.04818
1066.046	-21.04684
1066.402	22.05023
1066.757	27.06838
1067.112	35.08608
1067.468	-29.06948
1067.823	29.06995
1068.178	60.14476
1068.533	30.07295
1068.888	67.15947
1069.243	19.04713
1069.598	15.03666
1069.952	-38.08705
1070.307	-20.0501
1070.662	-2.00479
1071.016	-36.08204
1071.371	-30.0693
1071.725	17.0409
1072.079	39.09393
1072.434	-15.03687
1072.788	10.02398
1073.142	63.15449
1073.496	-6.01438
1073.85	2.00468
1074.203	16.03904
1074.557	30.07999
1074.911	58.13813
1075.265	52.12074
1075.618	89.21557
1075.971	50.11885
1076.325	40.10176
1076.678	16.03681
1077.031	-17.03897
1077.385	15.03326
1077.738	37.08368
1078.091	-57.13233
1078.444	28.06525
1078.796	14.03455
1079.149	4.01002
1079.502	14.03328
1079.855	-5.01178
1080.207	5.01241
1080.56	37.09577
1080.912	37.09023
1081.264	55.13222
1081.617	17.04166
1081.969	-1.00254
1082.321	-1.00246
1082.673	-6.01384
1083.025	23.05481
1083.377	18.03887
1083.728	7.01646
1084.08	50.12472
1084.432	-1.00243
1084.783	56.13096
1085.135	17.04283
1085.486	-26.06035
1085.838	14.03468
1086.189	4.00979
1086.54	5.01203
1086.891	6.01528
1087.242	10.02451
1087.593	43.10474
1087.944	-3.00686
1088.295	45.10232
1088.646	6.01465
1088.996	-25.06103
1089.347	8.01977
1089.698	-32.07677
1090.048	17.04437
1090.398	9.02103
1090.749	17.0409
1091.099	-20.05088
1091.449	19.04756
1091.799	50.12508
1092.149	-42.10408
1092.499	28.06852
1092.849	7.01791
1093.199	51.1277
1093.548	30.0723
1093.898	15.03773
1094.248	27.0696
1094.597	-42.10884
1094.947	12.03219
1095.296	67.16479
1095.645	36.09378
1095.994	22.05308
1096.343	32.08072
1096.692	-3.00794
1097.041	-1.00273
1097.39	31.07796
1097.739	39.10147
1098.088	52.13915
1098.437	-22.05844
1098.785	37.09987
1099.134	63.16677
1099.482	28.07721
1099.83	10.02643
1100.179	16.04194
1100.527	61.16164
1100.875	26.06895
1101.223	39.10365
1101.571	35.09686
1101.919	7.01841
1102.267	7.01982
1102.615	6.01929
1102.962	14.04506
1103.31	2.00643
1103.658	18.05793
