Data from N2 R5 sample 5_Subt2__2__13-51-10-214.txt Node

Date: Fri Aug 29 13:51:10 PDT 2025
User: uwsun
Spectrometer: HDX01956
Trigger mode: 0
Integration Time (sec): 5.000000E-1
Scans to average: 1
Nonlinearity correction enabled: true
Boxcar width: 0
Storing dark spectrum: false
XAxis mode: Wavelengths
Number of Pixels in Spectrum: 2068
>>>>>Begin Spectral Data<<<<<
194.03	356.94359
194.578	353.06353
195.127	370.09443
195.676	350.04148
196.225	387.95934
196.773	452.14595
197.321	594.43301
197.87	821.71964
198.418	825.69989
198.966	823.70866
199.513	785.55148
200.061	747.51903
200.609	799.71621
201.156	766.29783
201.704	745.50533
202.251	783.66957
202.798	795.65268
203.345	787.55471
203.892	791.58598
204.438	855.59231
204.985	804.47902
205.532	771.63331
206.078	907.71689
206.624	824.58421
207.17	850.52707
207.716	825.5637
208.262	848.25245
208.808	820.57197
209.354	771.48393
209.899	910.79761
210.445	788.54542
210.99	835.56191
211.535	904.62847
212.08	910.61424
212.625	869.7033
213.17	851.70094
213.715	752.29747
214.259	837.51713
214.804	887.7092
215.348	845.49595
215.892	878.63078
216.436	908.61318
216.98	900.51487
217.524	891.61769
218.068	835.66584
218.612	851.69387
219.155	766.43015
219.698	806.51463
220.242	782.569
220.785	749.3987
221.328	727.47227
221.871	750.54901
222.414	758.52848
222.956	717.38976
223.499	695.25861
224.041	823.51366
224.583	706.22698
225.126	764.32804
225.668	757.47511
226.21	711.45689
226.751	673.17846
227.293	724.32957
227.835	723.42611
228.376	740.37333
228.918	727.49978
229.459	678.37886
230	738.40976
230.541	759.39293
231.082	724.41639
231.622	736.35844
232.163	710.38961
232.704	774.53293
233.244	710.4296
233.784	758.49909
234.324	689.19895
234.864	685.24993
235.404	771.46331
235.944	740.40881
236.484	765.53802
237.023	751.41144
237.563	825.48092
238.102	745.40495
238.641	799.61236
239.18	755.39253
239.719	742.50303
240.258	739.31739
240.797	811.51993
241.335	785.52975
241.874	754.10561
242.412	745.42625
242.95	714.36121
243.488	758.36424
244.026	771.393
244.564	806.26517
245.102	799.3894
245.64	745.43862
246.177	752.32508
246.715	783.48901
247.252	771.39442
247.789	859.2022
248.326	741.40628
248.863	777.31688
249.4	842.4717
249.936	821.27578
250.473	778.41749
251.009	784.39384
251.546	773.31928
252.082	798.34563
252.618	808.38029
253.154	780.46784
253.69	833.4357
254.226	784.46454
254.761	845.4456
255.297	758.28355
255.832	789.45464
256.367	811.4811
256.903	786.32534
257.438	757.39971
257.972	745.29322
258.507	745.32674
259.042	803.33024
259.576	774.26617
260.111	853.5078
260.645	832.36439
261.179	807.44854
261.713	772.32146
262.247	852.49704
262.781	844.31433
263.315	810.53709
263.849	791.5473
264.382	880.52942
264.915	836.48958
265.449	818.5229
265.982	878.50503
266.515	847.58362
267.048	838.32015
267.58	898.46072
268.113	777.27357
268.646	866.63077
269.178	807.3627
269.71	839.37629
270.243	911.54885
270.775	825.6276
271.307	847.56491
271.838	920.64637
272.37	853.60429
272.902	886.50581
273.433	825.3525
273.965	872.60998
274.496	886.68074
275.027	854.61758
275.558	876.60368
276.089	767.45146
276.62	882.72028
277.15	923.71495
277.681	884.41697
278.211	878.63482
278.741	849.38037
279.272	825.4128
279.802	867.64824
280.332	857.51253
280.861	853.5509
281.391	892.48508
281.921	877.59141
282.45	960.78427
282.98	930.83031
283.509	909.49151
284.038	909.51471
284.567	965.64447
285.096	906.62625
285.625	845.42087
286.153	878.5187
286.682	919.52473
287.21	913.6158
287.739	986.67362
288.267	935.65227
288.795	997.94261
289.323	941.58024
289.851	1020.69431
290.378	922.48732
290.906	997.71832
291.433	971.76238
291.961	901.46685
292.488	954.73277
293.015	947.59294
293.542	952.75275
294.069	928.65647
294.596	956.72236
295.122	1020.71384
295.649	977.50601
296.175	1034.77331
296.702	1060.8045
297.228	1043.78927
297.754	967.51765
298.28	1029.60237
298.806	1019.71261
299.332	1015.52461
299.857	1066.6242
300.383	1060.89661
300.908	1007.69605
301.433	1005.70368
301.958	1073.69258
302.483	986.73315
303.008	1093.86437
303.533	1113.02251
304.058	1077.73308
304.582	1088.72178
305.107	1000.84406
305.631	1098.67521
306.155	1055.64783
306.679	1138.73864
307.203	1075.6598
307.727	1145.78916
308.251	1048.77539
308.775	1084.69678
309.298	1063.6931
309.822	1199.9946
310.345	1213.83597
310.868	1182.81906
311.391	1199.92281
311.914	1136.87747
312.437	1211.74075
312.96	1165.74924
313.482	1219.81339
314.005	1202.94561
314.527	1186.0392
315.049	1301.07458
315.571	1217.61996
316.093	1215.90139
316.615	1237.84147
317.137	1296.63487
317.659	1311.94547
318.18	1296.90622
318.702	1363.83697
319.223	1360.51869
319.744	1316.68915
320.265	1311.87061
320.786	1342.94095
321.307	1415.02852
321.828	1457.78352
322.348	1434.86405
322.869	1416.8329
323.389	1261.98223
323.909	1520.83253
324.43	1576.03728
324.95	1553.80846
325.47	1439.92805
325.989	1526.85174
326.509	1502.62083
327.029	1575.71155
327.548	1616.70905
328.067	1601.90125
328.587	1667.06835
329.106	1578.71024
329.625	1625.25759
330.144	1636.75141
330.662	1652.74824
331.181	1738.81599
331.7	1729.80267
332.218	1748.55137
332.736	1910.82788
333.255	1757.7425
333.773	1827.80866
334.291	1862.02778
334.808	1810.57263
335.326	1967.6315
335.844	1926.65893
336.361	1946.95332
336.879	1969.6473
337.396	2022.75961
337.913	2041.57862
338.43	2046.48872
338.947	2033.66745
339.464	2057.28374
339.981	2079.59901
340.497	2108.77082
341.014	2138.67887
341.53	2133.37137
342.046	2177.65724
342.562	2222.7419
343.078	2280.47129
343.594	2296.51367
344.11	2305.47662
344.626	2326.66888
345.141	2392.25133
345.657	2398.25844
346.172	2397.43268
346.687	2355.2294
347.202	2426.1063
347.717	2509.30401
348.232	2508.47797
348.747	2433.13792
349.261	2464.86393
349.776	2490.16276
350.29	2547.25646
350.805	2630.32058
351.319	2665.02507
351.833	2588.87987
352.347	2709.98156
352.861	2714.9146
353.374	2737.9035
353.888	2755.03901
354.401	2788.79629
354.915	2768.63311
355.428	2844.0067
355.941	2827.72678
356.454	2958.5966
356.967	2800.8137
357.48	2861.67126
357.993	3001.84238
358.505	2902.80322
359.018	3099.70616
359.53	3075.60088
360.042	3074.33196
360.554	3150.59439
361.066	3068.60446
361.578	3062.21363
362.09	3125.4776
362.602	3117.16088
363.113	3086.33221
363.625	3221.12242
364.136	3337.98543
364.647	3218.08528
365.158	3357.08848
365.669	3380.16777
366.18	3355.10454
366.691	3344.87171
367.201	3314.1194
367.712	3464.81751
368.222	3428.83019
368.733	3512.56079
369.243	3520.57465
369.753	3792.56541
370.263	3748.65634
370.773	3784.7107
371.282	3728.54276
371.792	3830.24006
372.301	3995.31494
372.811	4045.5164
373.32	4027.89185
373.829	4049.04098
374.338	4301.80655
374.847	4526.7603
375.356	4553.75552
375.865	4751.62557
376.373	4933.67456
376.882	5127.76994
377.39	5304.81591
377.898	5196.78467
378.407	5499.16042
378.915	5741.59384
379.423	6079.02903
379.93	6148.46506
380.438	6318.97994
380.946	6630.26057
381.453	7020.89402
381.96	7354.10334
382.468	7674.25772
382.975	8332.85143
383.482	8517.9194
383.989	8528.95945
384.495	9005.45793
385.002	9267.13922
385.509	9937.28564
386.015	10517.88942
386.521	11093.30699
387.028	11552.54073
387.534	11758.82437
388.04	12332.0602
388.546	12412.02196
389.051	12974.41896
389.557	13966.58285
390.063	15780.43029
390.568	16154.93373
391.073	16149.16046
391.578	16849.91627
392.084	17304.01109
392.589	17438.3664
393.093	18412.41231
393.598	20608.5373
394.103	22601.17901
394.607	24829.17813
395.112	26591.11653
395.616	28215.41435
396.12	30134.17564
396.624	33952.1676
397.128	36494.61067
397.632	39977.8332
398.136	38644.4265
398.639	36273.96993
399.143	32503.66402
399.646	28888.45294
400.15	25083.82847
400.653	20124.16724
401.156	13866.23708
401.659	5169.95759
402.162	1054.15589
402.664	0
403.167	0
403.67	0
404.172	0
404.674	0
405.176	0
405.678	0
406.18	0
406.682	0
407.184	0
407.686	0
408.187	0
408.688	0
409.19	0
409.691	0
410.192	0
410.693	0
411.194	435.30976
411.694	4082.94878
412.195	8864.71461
412.696	12089.80453
413.196	12760.96929
413.696	12863.67595
414.196	13703.56671
414.696	17261.84252
415.196	21764.24417
415.696	29583.19008
416.196	36460.31858
416.695	40057.39798
417.195	41392.74103
417.694	42311.08144
418.194	43882.52025
418.693	43422.41249
419.192	42130.92787
419.691	41772.08165
420.19	40968.45146
420.688	39766.65747
421.187	38285.15715
421.685	36496.27359
422.184	33300.43973
422.682	28792.29155
423.18	24455.49673
423.678	21322.77691
424.176	19655.48912
424.674	18467.79955
425.172	17885.69593
425.669	17039.36917
426.167	15987.48081
426.664	14281.39191
427.161	13026.38931
427.659	12073.55418
428.156	11376.42105
428.652	10440.2611
429.149	10096.4773
429.646	9779.40284
430.143	9307.30944
430.639	8802.96823
431.135	8323.49072
431.632	7756.75354
432.128	7170.45778
432.624	6752.63209
433.12	6403.40947
433.616	6247.94274
434.111	5920.97819
434.607	5778.53329
435.103	5799.63933
435.598	5587.31159
436.093	5359.86736
436.588	5246.79533
437.083	4850.67479
437.578	4545.71797
438.073	4118.93366
438.568	4236.03019
439.062	4167.80847
439.557	4004.16114
440.051	3801.16495
440.546	3663.26727
441.04	3522.53714
441.534	3583.7582
442.028	3473.71692
442.522	3327.8025
443.015	3264.61381
443.509	3317.98085
444.002	3180.06668
444.496	3132.78204
444.989	3205.12487
445.482	3023.2932
445.975	3076.92978
446.468	2940.90729
446.961	2978.90318
447.454	2775.2136
447.947	2749.34434
448.439	2812.49155
448.931	2709.25633
449.424	2624.76734
449.916	2645.62432
450.408	2676.34353
450.9	2454.69641
451.392	2525.84534
451.884	2507.59478
452.375	2404.84762
452.867	2432.64937
453.358	2319.63315
453.849	2289.50192
454.341	2255.69476
454.832	2282.56695
455.323	2144.9881
455.814	2318.80882
456.304	2193.86922
456.795	2266.84145
457.285	2122.8693
457.776	2163.96603
458.266	2089.04189
458.756	2069.14025
459.247	1896.09319
459.737	1860.11159
460.226	1958.96286
460.716	1910.17408
461.206	1854.22564
461.695	1868.40024
462.185	1792.21421
462.674	1830.1754
463.163	1749.08074
463.653	1787.95207
464.142	1712.31918
464.63	1705.4084
465.119	1601.21752
465.608	1588.22398
466.096	1556.12527
466.585	1594.30445
467.073	1588.41665
467.561	1568.43256
468.05	1548.35089
468.538	1445.47844
469.026	1416.40382
469.513	1335.08172
470.001	1346.25274
470.489	1316.3453
470.976	1447.37373
471.463	1373.55981
471.951	1309.55783
472.438	1194.32032
472.925	1171.29702
473.412	1250.51853
473.899	1149.29883
474.385	1153.45906
474.872	1132.32069
475.359	1112.42079
475.845	1043.06255
476.331	1071.19769
476.817	1057.4183
477.303	1005.27633
477.789	972.328
478.275	941.35461
478.761	910.28818
479.247	990.2411
479.732	902.33744
480.218	907.45191
480.703	932.39472
481.188	838.05223
481.673	856.17777
482.158	798.99352
482.643	859.39746
483.128	753.0707
483.612	792.16726
484.097	806.27761
484.581	794.18166
485.066	713.14434
485.55	717.00264
486.034	638.90459
486.518	631.99529
487.002	629.04876
487.486	634.06205
487.969	578.9864
488.453	622.10811
488.936	602.9317
489.42	602.91914
489.903	576.04773
490.386	581.61479
490.869	548.84554
491.352	592.05019
491.835	604.86333
492.318	522.8458
492.8	544.79261
493.283	546.01923
493.765	483.88495
494.247	520.9017
494.73	505.81524
495.212	475.8716
495.694	431.75624
496.175	384.69022
496.657	484.86511
497.139	481.60281
497.62	359.65373
498.102	364.70377
498.583	373.73483
499.064	408.68865
499.545	354.62844
500.026	355.61598
500.507	430.76618
500.988	423.81962
501.469	294.58914
501.949	361.70952
502.43	310.58213
502.91	274.44584
503.39	369.7379
503.87	237.45042
504.35	322.61063
504.83	235.41488
505.31	355.68226
505.79	295.5664
506.269	291.55009
506.749	298.5436
507.228	268.50822
507.707	314.55394
508.187	293.5707
508.666	235.47342
509.145	183.35373
509.623	199.38668
510.102	194.39199
510.581	291.57652
511.059	220.45657
511.538	281.60203
512.016	264.51874
512.494	284.567
512.972	214.42506
513.45	195.37222
513.928	270.53729
514.406	240.47292
514.884	279.59284
515.361	235.46688
515.839	261.48733
516.316	213.42792
516.793	234.49776
517.27	252.51036
517.747	245.52513
518.224	206.40019
518.701	177.33179
519.178	161.33763
519.654	177.35855
520.131	158.33317
520.607	165.35046
521.083	188.36174
521.56	231.45679
522.036	148.27695
522.512	173.36584
522.987	195.38904
523.463	206.41318
523.939	194.40549
524.414	189.37146
524.89	198.39861
525.365	165.31802
525.84	121.24601
526.315	135.2796
526.79	185.35416
527.265	165.32123
527.74	125.2633
528.215	160.32329
528.689	149.28207
529.164	169.31351
529.638	162.36034
530.112	125.25402
530.587	169.30522
531.061	119.24812
531.534	170.35533
532.008	97.20306
532.482	118.23569
532.956	135.29773
533.429	176.36689
533.903	183.34677
534.376	122.23372
534.849	91.18485
535.322	148.30234
535.795	114.24367
536.268	114.23891
536.741	153.31887
537.213	207.40914
537.686	73.15627
538.158	106.20592
538.631	118.25178
539.103	118.22912
539.575	151.27188
540.047	116.22223
540.519	119.24934
540.991	104.22431
541.463	103.21915
541.934	134.26653
542.406	125.25936
542.877	103.20339
543.348	170.35611
543.82	157.3355
544.291	135.27547
544.762	103.21342
545.233	126.27538
545.703	109.20948
546.174	266.52095
546.645	162.33109
547.115	190.39167
547.585	185.36411
548.056	157.32328
548.526	247.48523
548.996	240.48717
549.466	306.62397
549.935	271.53061
550.405	272.49013
550.875	298.58086
551.344	249.49955
551.814	291.55116
552.283	316.56184
552.752	264.50528
553.221	316.55223
553.69	370.65651
554.159	328.65332
554.628	343.61255
555.096	322.66675
555.565	341.61276
556.033	356.68435
556.502	263.53373
556.97	238.44361
557.438	260.52005
557.906	265.53361
558.374	144.28803
558.842	153.31873
559.31	146.28593
559.777	69.14803
560.245	164.33822
560.712	167.33907
561.18	78.15334
561.647	114.22559
562.114	106.21399
562.581	133.29074
563.048	129.26431
563.514	99.21623
563.981	105.21484
564.448	120.23947
564.914	165.3396
565.381	141.28549
565.847	152.31601
566.313	126.26184
566.779	172.34228
567.245	167.34542
567.711	174.36772
568.176	178.35075
568.642	187.41206
569.108	138.30135
569.573	213.44056
570.038	143.26713
570.504	174.34206
570.969	228.49893
571.434	173.33215
571.899	264.54176
572.363	227.44909
572.828	296.58135
573.293	240.47693
573.757	232.46232
574.222	283.53785
574.686	256.49139
575.15	271.55248
575.614	273.53656
576.078	281.56401
576.542	265.51911
577.006	301.57736
577.469	299.63699
577.933	269.51423
578.396	294.59923
578.86	303.61041
579.323	261.535
579.786	309.56638
580.249	284.55251
580.712	299.62758
581.175	288.61022
581.637	352.68873
582.1	296.55831
582.563	337.61584
583.025	266.55647
583.487	272.47006
583.95	239.44315
584.412	266.48252
584.874	300.62509
585.336	244.5023
585.797	248.46455
586.259	308.62548
586.721	198.40779
587.182	312.62984
587.643	278.54625
588.105	292.59624
588.566	305.55116
589.027	231.48443
589.488	248.49282
589.949	295.61754
590.41	238.40035
590.87	264.52535
591.331	251.47307
591.791	269.53693
592.252	213.42554
592.712	264.55204
593.172	199.39444
593.632	251.48075
594.092	272.52564
594.552	222.41872
595.011	223.44676
595.471	264.51287
595.931	222.43354
596.39	285.58895
596.849	246.49935
597.308	276.51956
597.768	250.55399
598.227	234.49408
598.685	291.58003
599.144	248.50571
599.603	283.58088
600.062	285.51369
600.52	224.4362
600.978	289.59266
601.437	331.64932
601.895	289.52705
602.353	336.63718
602.811	293.56011
603.269	372.7551
603.727	362.73615
604.184	310.59678
604.642	326.68409
605.099	368.7231
605.557	395.81332
606.014	341.62095
606.471	357.75393
606.928	378.67455
607.385	440.88334
607.842	512.953
608.299	608.13073
608.755	564.09613
609.212	556.98976
609.668	476.85695
610.125	587.14227
610.581	602.15845
611.037	580.07588
611.493	500.98157
611.949	373.76318
612.405	368.62247
612.861	492.96768
613.316	363.74104
613.772	425.82349
614.227	458.90463
614.683	473.84653
615.138	394.78405
615.593	454.88579
616.048	442.85623
616.503	506.0412
616.958	408.87314
617.412	427.85863
617.867	432.80486
618.321	400.70791
618.776	430.81029
619.23	439.87747
619.684	493.93929
620.138	499.98076
620.592	418.87442
621.046	419.84953
621.5	398.83848
621.954	422.82218
622.407	427.82104
622.861	373.79324
623.314	413.81746
623.768	385.78417
624.221	369.63586
624.674	348.70865
625.127	360.74409
625.58	375.75719
626.033	387.75524
626.485	297.63795
626.938	382.80478
627.39	326.67986
627.843	325.67552
628.295	292.61167
628.747	380.80373
629.199	290.59888
629.651	266.55203
630.103	253.53173
630.555	291.56195
631.006	239.51802
631.458	293.63153
631.909	280.59327
632.361	293.62719
632.812	202.43624
633.263	276.54949
633.714	272.53976
634.165	270.60703
634.616	217.48398
635.067	227.47393
635.518	261.58065
635.968	224.42457
636.419	196.4044
636.869	209.46999
637.319	198.43346
637.769	212.44802
638.219	223.50414
638.669	169.38456
639.119	209.48384
639.569	156.36065
640.019	181.40068
640.468	132.28544
640.918	216.49498
641.367	231.4917
641.816	182.39069
642.265	235.51565
642.714	175.38918
643.163	181.39984
643.612	128.29698
644.061	153.31305
644.51	122.27036
644.958	143.30492
645.406	142.32881
645.855	179.42227
646.303	220.49219
646.751	157.34552
647.199	164.361
647.647	163.36279
648.095	160.35516
648.543	145.2909
648.99	137.31817
649.438	149.34111
649.885	156.37451
650.333	151.28669
650.78	175.40851
651.227	153.36136
651.674	147.3265
652.121	117.27869
652.568	119.2827
653.015	168.41234
653.461	142.32933
653.908	116.26562
654.354	106.24924
654.801	99.22865
655.247	146.3145
655.693	126.32122
656.139	94.22249
656.585	142.33337
657.031	91.20942
657.477	141.29896
657.922	128.28956
658.368	171.41122
658.813	152.34721
659.259	132.31098
659.704	104.23957
660.149	159.36254
660.594	142.33102
661.039	81.1838
661.484	201.46735
661.929	128.29557
662.373	116.28819
662.818	119.29116
663.262	141.33367
663.707	94.236
664.151	174.41597
664.595	116.27668
665.039	151.36945
665.483	153.38225
665.927	163.37765
666.371	105.24106
666.814	171.40121
667.258	100.23495
667.701	171.36478
668.145	169.41334
668.588	137.33233
669.031	110.25683
669.474	99.23763
669.917	137.30189
670.36	150.36694
670.803	158.37657
671.245	107.22637
671.688	160.38528
672.13	83.18681
672.573	177.44205
673.015	138.32865
673.457	137.2972
673.899	139.33414
674.341	120.28831
674.783	100.23943
675.225	104.25508
675.666	110.26328
676.108	120.26116
676.549	133.31376
676.991	116.25631
677.432	124.24802
677.873	154.35376
678.314	129.3068
678.755	130.31458
679.196	149.33905
679.637	168.40607
680.078	125.29248
680.518	151.35041
680.959	160.37972
681.399	99.24555
681.839	123.2986
682.28	111.2733
682.72	117.26807
683.16	153.37726
683.6	149.33891
684.039	135.28223
684.479	114.27929
684.919	76.17647
685.358	175.43848
685.798	154.39908
686.237	163.39109
686.676	149.34495
687.115	157.36664
687.554	106.25244
687.993	110.24498
688.432	135.30831
688.871	137.31036
689.309	110.26318
689.748	150.31422
690.186	151.35913
690.625	103.24242
691.063	148.35301
691.501	114.28188
691.939	122.30343
692.377	131.31861
692.815	90.2164
693.253	161.38467
693.69	102.22613
694.128	83.20225
694.565	153.36304
695.003	122.30882
695.44	113.26627
695.877	113.26451
696.314	159.34169
696.751	150.34181
697.188	156.35663
697.625	210.47601
698.061	87.21009
698.498	126.30502
698.934	138.33155
699.371	77.18292
699.807	108.25652
700.243	143.34271
700.679	143.32382
701.115	151.3547
701.551	128.30179
701.987	145.32621
702.422	96.22924
702.858	99.23709
703.294	119.2709
703.729	94.23123
704.164	78.18939
704.599	128.28602
705.035	87.19669
705.47	126.30594
705.904	116.27095
706.339	138.32132
706.774	90.21245
707.209	123.28408
707.643	101.24372
708.078	92.22523
708.512	119.29699
708.946	137.32796
709.38	126.29881
709.814	124.28439
710.248	160.38732
710.682	157.3711
711.116	122.29066
711.549	98.25335
711.983	162.37214
712.416	155.36495
712.85	106.26478
713.283	124.29372
713.716	189.46893
714.149	155.36793
714.582	136.30565
715.015	157.39054
715.448	112.2825
715.881	147.32202
716.313	135.31601
716.746	115.2713
717.178	101.24381
717.61	156.39263
718.043	146.36205
718.475	120.29104
718.907	176.44106
719.339	81.18544
719.77	101.24031
720.202	100.25341
720.634	147.35552
721.065	124.29406
721.497	139.33946
721.928	138.33733
722.359	70.17016
722.79	113.27082
723.221	137.34352
723.652	171.43677
724.083	131.29556
724.514	122.28093
724.945	117.27548
725.375	74.17332
725.806	149.36997
726.236	174.44091
726.666	156.36723
727.096	125.30641
727.526	147.37071
727.956	130.2954
728.386	130.31943
728.816	146.36681
729.246	109.26511
729.675	121.29726
730.105	162.39555
730.534	154.35843
730.964	157.39395
731.393	194.47562
731.822	161.40747
732.251	176.44138
732.68	201.46717
733.109	136.3338
733.537	126.30376
733.966	167.41057
734.395	155.35599
734.823	164.36797
735.251	157.3754
735.68	233.57133
736.108	182.45461
736.536	171.3998
736.964	144.33291
737.392	147.36553
737.82	202.47736
738.247	172.40804
738.675	222.52075
739.102	146.36219
739.53	162.40817
739.957	175.44447
740.384	218.52811
740.811	201.50125
741.238	170.4106
741.665	155.35698
742.092	237.55366
742.519	156.38261
742.945	205.48398
743.372	210.51045
743.798	215.54198
744.225	167.39335
744.651	190.46978
745.077	224.54692
745.503	202.48493
745.929	201.47454
746.355	286.68942
746.781	195.47586
747.207	164.38095
747.632	215.51348
748.058	232.56603
748.483	191.43391
748.908	190.46512
749.334	223.53646
749.759	208.48181
750.184	237.55105
750.609	253.60561
751.033	315.71703
751.458	258.56361
751.883	268.64506
752.307	228.52499
752.732	202.49523
753.156	226.54604
753.58	312.7135
754.005	267.65831
754.429	252.57654
754.853	292.69855
755.277	265.60908
755.7	271.65216
756.124	263.63363
756.548	265.60957
756.971	287.6778
757.394	296.73637
757.818	300.74469
758.241	269.66203
758.664	315.7649
759.087	250.54267
759.51	272.65642
759.933	313.7237
760.356	294.72793
760.778	297.7044
761.201	334.77853
761.623	321.74838
762.046	332.75526
762.468	320.73885
762.89	310.73679
763.312	306.71973
763.734	302.70035
764.156	285.68038
764.578	274.61096
765	344.80215
765.421	234.5794
765.843	308.77789
766.264	344.79457
766.686	304.73585
767.107	271.6363
767.528	250.61334
767.949	304.74469
768.37	298.705
768.791	325.75413
769.212	223.54701
769.632	240.54445
770.053	260.66487
770.473	306.71608
770.894	292.70601
771.314	342.78084
771.734	242.54921
772.154	307.75886
772.575	262.58928
772.994	262.57671
773.414	309.7136
773.834	252.61229
774.254	251.59716
774.673	253.59891
775.093	249.59877
775.512	219.52723
775.931	257.6325
776.351	252.6077
776.77	214.51159
777.189	224.52031
777.607	229.57045
778.026	217.52835
778.445	230.56073
778.864	260.64706
779.282	245.57302
779.701	225.55355
780.119	166.4136
780.537	219.53362
780.955	237.58737
781.373	197.47787
781.791	221.48432
782.209	224.50382
782.627	191.49384
783.045	216.48523
783.462	197.49341
783.88	193.48966
784.297	200.49287
784.715	121.30852
785.132	180.4285
785.549	159.39249
785.966	162.40188
786.383	191.46088
786.8	215.48764
787.217	153.35842
787.633	140.34578
788.05	251.57852
788.466	167.38845
788.883	129.32614
789.299	108.25918
789.715	118.28522
790.131	157.38527
790.547	144.35579
790.963	130.32002
791.379	117.2939
791.795	193.4317
792.21	135.31291
792.626	165.38577
793.041	122.299
793.457	139.34009
793.872	128.29862
794.287	103.24488
794.702	122.29856
795.117	97.24024
795.532	90.22506
795.947	120.2871
796.362	144.3403
796.776	133.30913
797.191	108.26312
797.605	67.15776
798.02	99.24016
798.434	120.2657
798.848	67.16539
799.262	63.15672
799.676	79.19293
800.09	76.18716
800.504	110.26559
800.918	88.20377
801.331	143.37064
801.745	69.15904
802.158	78.19498
802.572	119.28672
802.985	127.30449
803.398	64.15318
803.811	118.30125
804.224	145.35662
804.637	56.13403
805.05	116.26722
805.462	80.19658
805.875	61.15838
806.288	59.1428
806.7	70.17612
807.112	93.21522
807.525	91.22406
807.937	22.05492
808.349	66.16564
808.761	71.17488
809.173	49.1194
809.584	107.26306
809.996	40.09858
810.408	45.11664
810.819	85.19967
811.231	92.23677
811.642	178.41592
812.053	240.55262
812.464	258.59193
812.875	300.73571
813.286	198.49833
813.697	174.39954
814.108	103.25042
814.519	111.24593
814.929	83.21134
815.34	74.17954
815.75	90.2279
816.16	92.22856
816.571	115.29642
816.981	92.21666
817.391	85.20488
817.801	64.15918
818.211	115.27214
818.62	66.15911
819.03	108.26302
819.44	99.25731
819.849	49.12397
820.259	64.16402
820.668	12.02983
821.077	48.11969
821.486	95.22794
821.895	64.15842
822.304	63.16705
822.713	93.21906
823.122	32.08043
823.531	3.00721
823.939	53.12958
824.348	66.16068
824.756	108.26871
825.164	100.25034
825.573	38.09588
825.981	68.16876
826.389	38.09602
826.797	40.10071
827.205	51.11756
827.612	65.16057
828.02	12.0285
828.428	52.1328
828.835	80.21003
829.243	51.12204
829.65	44.10987
830.057	69.16751
830.464	55.13437
830.871	73.17475
831.278	78.18825
831.685	53.1188
832.092	70.17137
832.499	69.15109
832.905	33.08406
833.312	65.14851
833.718	57.14231
834.124	44.10112
834.531	94.23583
834.937	82.20986
835.343	73.17602
835.749	103.23912
836.155	74.19342
836.561	39.09642
836.966	36.08856
837.372	75.19056
837.777	27.06773
838.183	59.13154
838.588	12.03008
838.993	66.16074
839.399	9.02223
839.804	3.00739
840.209	44.11237
840.613	37.08287
841.018	36.09162
841.423	54.13873
841.828	29.07379
842.232	90.22196
842.637	39.09251
843.041	-4.01037
843.445	49.12322
843.849	75.18528
844.253	75.17797
844.657	41.10362
845.061	31.07086
845.465	25.06083
845.869	66.15337
846.272	30.0735
846.676	58.14046
847.079	36.09194
847.483	56.13989
847.886	65.15815
848.289	40.10707
848.692	42.10673
849.095	62.14896
849.498	115.28877
849.901	56.12869
850.304	47.11269
850.707	70.1782
851.109	70.17688
851.512	29.07169
851.914	-9.02296
852.316	67.16927
852.718	-26.0681
853.121	52.12763
853.523	49.11483
853.925	36.09426
854.326	20.05036
854.728	21.05436
855.13	60.15469
855.531	30.07211
855.933	56.1346
856.334	12.03017
856.736	30.06764
857.137	36.08412
857.538	24.06071
857.939	17.04232
858.34	99.23952
858.741	90.23396
859.142	31.07489
859.542	23.06103
859.943	33.08239
860.343	50.12399
860.744	41.10039
861.144	59.14393
861.544	-9.02191
861.945	31.07938
862.345	53.12977
862.745	8.02006
863.145	68.16232
863.544	55.13905
863.944	31.07364
864.344	92.22715
864.743	91.22447
865.143	61.15658
865.542	22.05141
865.941	68.16802
866.34	55.13187
866.74	53.14232
867.139	7.01692
867.537	91.23048
867.936	32.07741
868.335	21.05377
868.734	55.14059
869.132	61.14167
869.531	68.16418
869.929	-3.00692
870.327	18.04348
870.726	62.15448
871.124	65.15174
871.522	39.09965
871.92	70.17226
872.318	39.09567
872.715	99.24322
873.113	41.10021
873.511	59.14693
873.908	-8.02042
874.306	17.04258
874.703	35.08792
875.1	58.14833
875.497	19.04588
875.894	32.07875
876.291	68.16653
876.688	9.0234
877.085	61.14625
877.482	92.22881
877.878	-18.04394
878.275	23.05877
878.671	16.03594
879.068	19.04619
879.464	50.121
879.86	-13.03116
880.256	37.09164
880.652	3.0077
881.048	44.10927
881.444	92.2175
881.84	47.11963
882.236	32.0808
882.631	15.0371
883.027	34.08268
883.422	39.1
883.817	9.0228
884.213	44.11312
884.608	38.09348
885.003	31.07509
885.398	34.08542
885.793	35.08817
886.188	-17.04281
886.582	86.2194
886.977	62.14698
887.371	49.12406
887.766	1.00251
888.16	51.12737
888.554	60.14825
888.949	51.12816
889.343	52.12711
889.737	17.04557
890.131	24.06054
890.525	54.1381
890.918	15.03802
891.312	21.05058
891.706	12.03171
892.099	52.13238
892.492	65.13999
892.886	37.09083
893.279	36.092
893.672	22.05632
894.065	73.18219
894.458	66.16564
894.851	70.17105
895.244	23.05906
895.637	40.09661
896.029	48.11751
896.422	38.09313
896.814	26.06497
897.206	-8.01928
897.599	77.18966
897.991	17.04139
898.383	56.13229
898.775	28.06355
899.167	3.00707
899.559	82.20654
899.951	12.02852
900.342	115.28929
900.734	-17.04272
901.125	33.08689
901.517	17.04201
901.908	53.12712
902.299	23.05655
902.69	23.0546
903.082	74.17853
903.473	17.04099
903.863	49.12512
904.254	24.05604
904.645	88.21751
905.036	17.04144
905.426	88.20013
905.817	27.06658
906.207	-16.03863
906.597	30.07049
906.987	110.28231
907.378	5.01275
907.768	22.05846
908.158	41.10021
908.547	36.09326
908.937	50.12837
909.327	36.08771
909.717	76.19218
910.106	15.03629
910.495	39.09762
910.885	55.13925
911.274	25.0628
911.663	96.2418
912.052	86.21093
912.441	55.1398
912.83	-6.01394
913.219	87.22635
913.608	31.07624
913.997	25.06298
914.385	52.12427
914.774	69.16751
915.162	16.0384
915.55	85.20441
915.939	49.12375
916.327	60.14955
916.715	9.02311
917.103	84.20557
917.491	54.13357
917.878	75.18364
918.266	67.1733
918.654	70.17827
919.041	27.07078
919.429	12.02855
919.816	59.14938
920.203	17.0415
920.591	78.19251
920.978	55.13462
921.365	44.1156
921.752	13.03123
922.139	40.08709
922.525	26.06275
922.912	36.08807
923.299	10.02504
923.685	25.06551
924.072	66.1518
924.458	28.06967
924.844	27.06712
925.231	0
925.617	37.09434
926.003	67.17078
926.389	34.08604
926.774	43.10914
927.16	67.16594
927.546	-3.00773
927.931	29.07266
928.317	44.10152
928.702	36.08544
929.088	-7.01674
929.473	37.09438
929.858	-21.05146
930.243	36.08666
930.628	11.02696
931.013	35.087
931.398	83.18971
931.783	63.16554
932.167	33.08095
932.552	6.01516
932.937	104.25564
933.321	20.05047
933.705	13.033
934.09	42.10632
934.474	48.1141
934.858	22.05735
935.242	17.03967
935.626	55.14069
936.009	37.09863
936.393	28.07153
936.777	28.07199
937.16	41.10686
937.544	88.20587
937.927	6.01534
938.311	70.17029
938.694	65.17149
939.077	3.00725
939.46	21.05186
939.843	79.16384
940.226	40.1028
940.609	10.02315
940.991	32.08172
941.374	6.01479
941.757	31.07678
942.139	12.02717
942.522	44.10415
942.904	34.082
943.286	54.13713
943.668	21.05468
944.05	42.10362
944.432	43.10627
944.814	53.1305
945.196	-12.02958
945.578	0
945.959	33.07761
946.341	132.31918
946.722	61.1429
947.104	54.129
947.485	45.10484
947.866	25.06327
948.247	39.0986
948.628	48.11716
949.009	28.07199
949.39	50.12449
949.771	42.09787
950.152	49.12029
950.532	25.06178
950.913	21.05094
951.293	25.06781
951.674	32.07767
952.054	36.08944
952.434	49.12167
952.814	24.0574
953.194	72.18775
953.574	76.18633
953.954	12.02871
954.334	29.07256
954.714	-9.02218
955.093	27.06668
955.473	14.03524
955.853	36.09342
956.232	53.1452
956.611	26.06266
956.99	48.12068
957.37	52.13247
957.749	1.00241
958.128	21.05319
958.506	56.14513
958.885	34.08607
959.264	12.02962
959.643	52.1183
960.021	-3.00751
960.4	70.15803
960.778	39.09627
961.156	24.06045
961.535	23.0539
961.913	58.13553
962.291	4.01034
962.669	0
963.047	38.09718
963.424	43.10988
963.802	25.06176
964.18	50.12652
964.557	93.2124
964.935	38.09026
965.312	39.10175
965.69	27.0679
966.067	34.08305
966.444	41.10121
966.821	27.06989
967.198	103.24742
967.575	57.13998
967.952	55.1295
968.329	41.09994
968.705	6.01299
969.082	24.06183
969.458	26.06266
969.835	26.06358
970.211	-6.01555
970.587	51.12696
970.963	37.09514
971.339	33.08642
971.715	49.12238
972.091	34.08398
972.467	36.09003
972.843	29.07225
973.219	53.12722
973.594	15.03947
973.97	98.23115
974.345	-8.01936
974.721	74.1784
975.096	30.07287
975.471	52.12332
975.846	47.11299
976.221	27.06885
976.596	49.11748
976.971	43.1063
977.346	55.12794
977.72	38.09701
978.095	81.20821
978.469	50.11935
978.844	62.15555
979.218	4.00967
979.593	57.1364
979.967	67.16271
980.341	18.04171
980.715	19.04814
981.089	43.10778
981.463	11.02546
981.837	30.07358
982.21	83.19192
982.584	45.10879
982.957	15.03769
983.331	34.08063
983.704	40.09847
984.078	-34.08509
984.451	62.15454
984.824	4.00983
985.197	14.03424
985.57	73.18232
985.943	67.16497
986.316	82.2003
986.688	70.16818
987.061	53.12416
987.434	66.17151
987.806	56.13567
988.179	40.09457
988.551	79.19937
988.923	16.03965
989.295	86.2135
989.667	-20.04842
990.039	17.04226
990.411	75.17177
990.783	18.04171
991.155	-9.02187
991.527	74.18143
991.898	14.03511
992.27	23.05717
992.641	74.18485
993.012	75.17563
993.384	53.12634
993.755	-1.00257
994.126	22.0532
994.497	41.1008
994.868	89.20285
995.239	61.14753
995.61	13.03293
995.98	21.05129
996.351	0
996.722	23.05363
997.092	41.09725
997.462	-34.08072
997.833	56.1326
998.203	76.18336
998.573	34.0849
998.943	9.02127
999.313	35.08411
999.683	63.15082
1000.053	106.24116
1000.423	73.17662
1000.792	69.17823
1001.162	79.19337
1001.531	25.06192
1001.901	47.11721
1002.27	41.09182
1002.639	42.10745
1003.009	20.04783
1003.378	10.02575
1003.747	45.10641
1004.116	43.10302
1004.485	-1.00241
1004.853	44.11158
1005.222	34.08598
1005.591	75.17721
1005.959	4.0091
1006.328	-35.08013
1006.696	0
1007.064	-3.00762
1007.433	66.16445
1007.801	51.12516
1008.169	43.10871
1008.537	34.07553
1008.905	-12.02829
1009.273	59.14548
1009.64	1.00241
1010.008	42.10026
1010.375	95.22872
1010.743	107.24427
1011.11	16.03811
1011.478	19.04728
1011.845	39.0919
1012.212	7.01598
1012.579	27.06655
1012.946	53.12605
1013.313	49.11663
1013.68	56.1257
1014.047	3.00721
1014.414	2.00477
1014.78	9.02253
1015.147	80.19235
1015.513	63.15139
1015.88	71.18085
1016.246	22.05458
1016.612	26.0598
1016.978	28.06888
1017.344	61.15042
1017.71	43.10498
1018.076	68.15977
1018.442	89.22733
1018.808	35.0877
1019.174	20.05043
1019.539	101.23011
1019.905	22.05215
1020.27	17.0422
1020.636	30.07219
1021.001	38.09116
1021.366	10.02419
1021.731	35.09022
1022.096	-11.02804
1022.461	16.03811
1022.826	51.12116
1023.191	33.0868
1023.556	70.16338
1023.92	66.16176
1024.285	51.12441
1024.649	-4.0099
1025.014	44.10908
1025.378	23.05809
1025.742	59.14623
1026.107	34.07713
1026.471	44.10281
1026.835	26.06471
1027.199	2.00486
1027.562	34.07926
1027.926	76.18488
1028.29	21.0534
1028.654	-2.00465
1029.017	38.09358
1029.381	14.03366
1029.744	20.05126
1030.107	80.18811
1030.471	15.03614
1030.834	31.07077
1031.197	68.16319
1031.56	40.09453
1031.923	24.0623
1032.286	74.17291
1032.648	56.13373
1033.011	12.02774
1033.374	64.14996
1033.736	11.0291
1034.099	36.08794
1034.461	-19.04857
1034.823	52.12938
1035.185	50.1258
1035.548	75.1816
1035.91	25.06014
1036.272	37.0844
1036.634	28.06875
1036.995	35.08247
1037.357	-2.00491
1037.719	18.04402
1038.08	95.22351
1038.442	-10.024
1038.803	76.18148
1039.165	57.1436
1039.526	35.08478
1039.887	6.01447
1040.248	38.09379
1040.609	42.10389
1040.97	34.0833
1041.331	55.13905
1041.692	-23.05443
1042.053	28.06401
1042.413	72.16699
1042.774	64.15517
1043.134	68.16126
1043.495	72.18018
1043.855	24.05847
1044.215	53.13141
1044.576	-16.03872
1044.936	15.03462
1045.296	19.04766
1045.656	29.0714
1046.016	25.0606
1046.375	-3.00735
1046.735	13.02968
1047.095	18.04237
1047.454	44.09331
1047.814	13.03145
1048.173	49.11703
1048.533	18.04148
1048.892	29.06985
1049.251	56.14034
1049.61	35.08637
1049.969	29.0686
1050.328	-3.00657
1050.687	5.01226
1051.046	42.10236
1051.405	35.08726
1051.763	1.00232
1052.122	27.06758
1052.48	56.1371
1052.839	44.10358
1053.197	36.08491
1053.555	63.14319
1053.914	40.09796
1054.272	47.11363
1054.63	-14.03462
1054.988	37.08807
1055.345	25.0541
1055.703	32.07723
1056.061	28.07226
1056.419	27.07013
1056.776	74.17853
1057.134	42.09733
1057.491	25.06285
1057.848	28.06994
1058.206	23.05434
1058.563	6.01334
1058.92	39.09004
1059.277	64.15738
1059.634	74.17319
1059.991	91.21618
1060.348	7.01595
1060.704	-40.09691
1061.061	53.12299
1061.418	-25.06144
1061.774	33.08167
1062.131	10.0266
1062.487	-1.00236
1062.843	23.05759
1063.199	25.06242
1063.555	20.04659
1063.911	43.10868
1064.267	63.13095
1064.623	-25.06153
1064.979	86.20222
1065.335	69.16423
1065.691	82.19521
1066.046	48.10553
1066.402	7.01603
1066.757	16.0406
1067.112	43.1056
1067.468	-26.06225
1067.823	32.07715
1068.178	53.12804
1068.533	37.08986
1068.888	57.13593
1069.243	20.0496
1069.598	43.10455
1069.952	10.02269
1070.307	6.01496
1070.662	27.06434
1071.016	2.00452
1071.371	19.04346
1071.725	70.16671
1072.079	49.11779
1072.434	1.00245
1072.788	42.1001
1073.142	88.21479
1073.496	42.09972
1073.85	35.08135
1074.203	29.07059
1074.557	44.11704
1074.911	71.16867
1075.265	29.06764
1075.618	62.15094
1075.971	22.05258
1076.325	56.14206
1076.678	14.03223
1077.031	22.05003
1077.385	67.14696
1077.738	20.04539
1078.091	-1.0023
1078.444	34.07914
1078.796	48.11773
1079.149	22.05496
1079.502	-3.00715
1079.855	17.03987
1080.207	54.13284
1080.56	2.00521
1080.912	39.09507
1081.264	-3.00729
1081.617	10.02454
1081.969	20.05068
1082.321	22.05396
1082.673	0
1083.025	16.03818
1083.377	25.05391
1083.728	47.10963
1084.08	52.12966
1084.432	28.06776
1084.783	31.07285
1085.135	12.03026
1085.486	-1.00231
1085.838	-4.00994
1086.189	4.00979
1086.54	24.05755
1086.891	6.01528
1087.242	19.04649
1087.593	43.10474
1087.944	4.00913
1088.295	57.12929
1088.646	13.0317
1088.996	28.06768
1089.347	41.10069
1089.698	-8.0191
1090.048	70.18103
1090.398	39.09058
1090.749	46.11006
1091.099	-11.02794
1091.449	50.12445
1091.799	43.10771
1092.149	-45.11157
1092.499	34.08311
1092.849	23.05869
1093.199	31.0779
1093.548	27.0651
1093.898	19.04776
1094.248	43.11053
1094.597	-58.15072
1094.947	41.10944
1095.296	32.07921
1095.645	39.10154
1095.994	37.08901
1096.343	51.1282
1096.692	8.02115
1097.041	7.01907
1097.39	40.10043
1097.739	34.08854
1098.088	56.14975
1098.437	15.0396
1098.785	41.1106
1099.134	58.15366
1099.482	22.06072
1099.83	18.04751
1100.179	0
1100.527	3.00803
1100.875	1.00266
1101.223	25.0666
1101.571	15.04164
1101.919	-11.02901
1102.267	25.07059
1102.615	0
1102.962	19.06111
1103.31	5.01607
1103.658	16.0515
