Data from N2 R5 sample 11_Subt2__0__13-34-59-737.txt Node

Date: Fri Aug 29 13:34:59 PDT 2025
User: uwsun
Spectrometer: HDX01956
Trigger mode: 0
Integration Time (sec): 5.000000E-1
Scans to average: 1
Nonlinearity correction enabled: true
Boxcar width: 0
Storing dark spectrum: false
XAxis mode: Wavelengths
Number of Pixels in Spectrum: 2068
>>>>>Begin Spectral Data<<<<<
194.03	501.29297
194.578	526.54826
195.127	514.49023
195.676	553.59987
196.225	544.30734
196.773	601.48391
197.321	867.984
197.87	1108.17351
198.418	1164.21631
198.966	1158.22504
199.513	1105.02109
200.061	1040.97533
200.609	1121.24075
201.156	1152.7529
201.704	1091.03041
202.251	1109.19737
202.798	1075.09531
203.345	1192.13333
203.892	1175.14848
204.438	1177.01882
204.985	1116.89509
205.532	1156.24346
206.078	1177.08218
206.624	1192.09087
207.17	1224.9925
207.716	1166.02805
208.262	1169.56268
208.808	1153.03429
209.354	1232.11193
209.899	1285.31746
210.445	1161.07818
210.99	1189.03192
211.535	1236.04019
212.08	1254.02918
212.625	1208.17975
213.17	1199.20459
213.715	1173.80248
214.259	1180.95588
214.804	1211.15364
215.348	1226.96025
215.892	1223.07918
216.436	1245.02185
216.98	1241.89984
217.524	1148.95069
218.068	1253.25953
218.612	1202.19857
219.155	1118.9087
219.698	1170.0041
220.242	1155.11919
220.785	1107.88733
221.328	1084.01685
221.871	1056.03151
222.414	1063.99515
222.956	1001.81052
223.499	986.65561
224.041	1028.79495
224.583	1160.77977
225.126	1042.68077
225.668	1068.92956
226.21	1060.00126
226.751	1056.66707
227.293	1072.79958
227.835	1003.85007
228.376	1128.89499
228.918	1082.05482
229.459	1025.92182
230	1022.82001
230.541	1060.80063
231.082	1054.90324
231.622	1057.79696
232.163	1049.89082
232.704	1059.95942
233.244	1057.96057
233.784	1088.98774
234.324	997.59657
234.864	1015.70031
235.404	1035.83991
235.944	1097.91029
236.484	1113.05923
237.023	1067.85203
237.563	1038.76313
238.102	1086.87966
238.641	1117.09021
239.18	1054.80099
239.719	1128.08448
240.258	1157.84463
240.797	1101.91829
241.335	1109.99722
241.874	1053.40637
242.412	1114.94559
242.95	1098.9015
243.488	1106.81662
244.026	1078.7979
244.564	1120.6025
245.102	1070.73002
245.64	1130.98396
246.177	1105.77133
246.715	1152.99745
247.252	1123.85232
247.789	1168.47875
248.326	1106.9154
248.863	1172.77931
249.4	1162.8637
249.936	1156.62556
250.473	1111.8567
251.009	1127.82926
251.546	1208.82672
252.082	1144.75199
252.618	1138.77559
253.154	1167.99108
253.69	1115.78037
254.226	1059.84585
254.761	1169.83004
255.297	1092.6857
255.832	1171.95634
256.367	1175.95236
256.903	1137.73864
257.438	1223.00253
257.972	1132.76823
258.507	1110.79398
259.042	1158.73502
259.576	1088.62755
260.111	1241.97707
260.645	1177.74942
261.179	1125.85768
261.713	1158.7819
262.247	1109.82006
262.781	1126.61316
263.315	1178.03719
263.849	1159.0714
264.382	1157.86664
264.915	1202.94343
265.449	1127.94006
265.982	1237.92153
266.515	1251.10882
267.048	1230.72504
267.58	1206.79661
268.113	1136.68044
268.646	1201.07769
269.178	1198.81365
269.71	1183.75946
270.243	1246.93167
270.775	1223.18959
271.307	1250.08045
271.838	1273.07452
272.37	1278.15633
272.902	1266.93667
273.433	1248.81164
273.965	1243.0851
274.496	1227.1363
275.027	1207.09142
275.558	1196.0151
276.089	1208.04311
276.62	1270.25147
277.15	1309.20238
277.681	1271.81981
278.211	1230.09282
278.741	1200.76396
279.272	1245.89817
279.802	1247.15424
280.332	1240.97491
280.861	1278.07752
281.391	1259.89027
281.921	1290.09948
282.45	1307.22274
282.98	1282.31613
283.509	1287.89575
284.038	1344.97984
284.567	1317.03621
285.096	1343.14567
285.625	1266.89121
286.153	1274.97766
286.682	1284.92176
287.21	1244.01515
287.739	1310.03296
288.267	1301.08398
288.795	1369.43462
289.323	1317.99103
289.851	1339.03323
290.378	1409.97064
290.906	1350.11253
291.433	1354.22271
291.961	1295.88219
292.488	1398.2588
293.015	1382.05644
293.542	1396.2896
294.069	1355.15765
294.596	1454.29366
295.122	1437.14745
295.649	1404.90218
296.175	1426.19532
296.702	1428.19587
297.228	1461.23334
297.754	1461.97719
298.28	1451.99161
298.806	1511.20943
299.332	1525.95426
299.857	1450.96658
300.383	1530.41464
300.908	1388.10146
301.433	1496.20921
301.958	1546.11832
302.483	1476.27037
303.008	1523.30592
303.533	1523.48779
304.058	1563.18121
304.582	1502.10355
305.107	1534.45962
305.631	1608.09761
306.155	1580.106
306.679	1659.16034
307.203	1609.11087
307.727	1602.18357
308.251	1510.24762
308.775	1577.12889
309.298	1680.22409
309.822	1658.42208
310.345	1676.20115
310.868	1678.22139
311.391	1716.36426
311.914	1803.45401
312.437	1747.11284
312.96	1718.17091
313.482	1798.22941
314.005	1717.39206
314.527	1754.57683
315.049	1785.47126
315.571	1725.93024
316.093	1860.39332
316.615	1883.28515
317.137	1884.92423
317.659	1968.37214
318.18	1923.31706
318.702	1909.13938
319.223	1923.72015
319.744	1939.99481
320.265	1949.25823
320.786	2042.35351
321.307	2094.40872
321.828	2122.03315
322.348	2021.14133
322.869	2098.134
323.389	2137.01369
323.909	2145.05214
324.43	2189.2865
324.95	2194.002
325.47	2131.25104
325.989	2233.08398
326.509	2232.78514
327.029	2212.86139
327.548	2296.83557
328.067	2224.09383
328.587	2350.27963
329.106	2438.85153
329.625	2391.57502
330.144	2357.87891
330.662	2442.86051
331.181	2531.89863
331.7	2463.89246
332.218	2574.53672
332.736	2618.83716
333.255	2584.78483
333.773	2586.84448
334.291	2660.10455
334.808	2672.5236
335.326	2825.52516
335.844	2832.56466
336.361	2826.94388
336.879	2724.57492
337.396	2895.65793
337.913	2874.43548
338.43	3027.26306
338.947	3030.49109
339.464	2956.03707
339.981	3009.40922
340.497	3083.59608
341.014	3058.48846
341.53	3211.03574
342.046	3115.43838
342.562	3179.51714
343.078	3349.11002
343.594	3305.18572
344.11	3262.16303
344.626	3293.38351
345.141	3406.83995
345.657	3467.81732
346.172	3420.04903
346.687	3375.82061
347.202	3431.66717
347.717	3571.84618
348.232	3604.03196
348.747	3603.61115
349.261	3639.2863
349.776	3623.64748
350.29	3656.75621
350.805	3786.78488
351.319	3808.45207
351.833	3633.35821
352.347	3842.40348
352.861	3920.288
353.374	3856.3223
353.888	3971.41278
354.401	3899.20556
354.915	3965.98523
355.428	4042.37668
355.941	4125.02545
356.454	4227.90137
356.967	4156.08748
357.48	4227.9296
357.993	4302.13501
358.505	4178.1128
359.018	4379.0053
359.53	4523.8187
360.042	4538.55608
360.554	4436.89158
361.066	4444.85598
361.578	4377.50872
362.09	4517.72782
362.602	4420.46924
363.113	4568.54993
363.625	4754.3625
364.136	4827.28239
364.647	4708.34413
365.158	4957.34132
365.669	5013.40228
366.18	4868.37681
366.691	4891.18058
367.201	4904.36011
367.712	4983.17372
368.222	5020.16218
368.733	4996.00988
369.243	5154.01461
369.753	5408.1076
370.263	5464.15171
370.773	5369.19193
371.282	5479.08522
371.792	5565.99829
372.301	5907.18829
372.811	5832.23729
373.32	5865.13545
373.829	5967.19264
374.338	6376.64483
374.847	6431.71758
375.356	6695.09251
375.865	6877.89233
376.373	7223.54893
376.882	7397.49834
377.39	7382.82003
377.898	7562.66684
378.407	8096.35778
378.915	8372.07662
379.423	8885.30209
379.93	9036.05203
380.438	9320.16604
380.946	9876.13825
381.453	10154.16704
381.96	10676.40726
382.468	11187.37226
382.975	12203.87835
383.482	12676.60878
383.989	12638.36563
384.495	13210.53721
385.002	13619.8345
385.509	14558.6132
386.015	15465.47704
386.521	16014.32259
387.028	16714.01614
387.534	17393.11122
388.04	18105.00762
388.546	18227.07013
389.051	19105.58993
389.557	20798.40923
390.063	22745.48311
390.568	23419.88918
391.073	23973.81274
391.578	24843.7409
392.084	25312.66803
392.589	26045.65161
393.093	27694.34637
393.598	30375.63096
394.103	33143.82727
394.607	36311.24428
395.112	39138.20036
395.616	41440.51307
396.12	44280.74161
396.624	43881.32284
397.128	43263.65897
397.632	41414.05101
398.136	39172.79427
398.639	36273.96993
399.143	32503.66402
399.646	28888.45294
400.15	25083.82847
400.653	20124.16724
401.156	13866.23708
401.659	5169.95759
402.162	1054.15589
402.664	0
403.167	0
403.67	0
404.172	0
404.674	0
405.176	0
405.678	0
406.18	0
406.682	0
407.184	0
407.686	0
408.187	0
408.688	0
409.19	0
409.691	0
410.192	0
410.693	0
411.194	435.30976
411.694	4082.94878
412.195	8864.71461
412.696	12089.80453
413.196	12760.96929
413.696	12863.67595
414.196	13703.56671
414.696	17261.84252
415.196	21764.24417
415.696	29583.19008
416.196	36460.31858
416.695	40057.39798
417.195	41392.74103
417.694	42311.08144
418.194	43882.52025
418.693	44704.85811
419.192	45402.14938
419.691	45678.73777
420.19	46397.77183
420.688	47237.71801
421.187	47797.94428
421.685	49412.82777
422.184	47415.09925
422.682	41187.69524
423.18	34558.41351
423.678	30526.14203
424.176	28421.91792
424.674	26725.92124
425.172	25399.8945
425.669	24196.06679
426.167	22588.5555
426.664	20573.6901
427.161	18897.78653
427.659	17524.12819
428.156	16132.0915
428.652	15413.69844
429.149	14524.56755
429.646	14030.51407
430.143	13501.34863
430.639	12677.03374
431.135	11762.26924
431.632	11171.64417
432.128	10430.19286
432.624	9734.7889
433.12	9354.99896
433.616	9006.63198
434.111	8693.98628
434.607	8285.32358
435.103	8311.69551
435.598	8128.71704
436.093	7797.26723
436.588	7511.31834
437.083	7050.97757
437.578	6830.38286
438.073	6240.4476
438.568	6201.37397
439.062	5911.18405
439.557	5832.11575
440.051	5531.95893
440.546	5358.91867
441.04	5205.99401
441.534	5199.1542
442.028	5053.09571
442.522	4851.12878
443.015	4796.97506
443.509	4743.293
444.002	4587.35088
444.496	4542.10354
444.989	4498.44882
445.482	4465.52527
445.975	4364.26336
446.468	4268.21384
446.961	4296.21791
447.454	4211.43859
447.947	4062.62641
448.439	4097.78913
448.931	3965.56723
449.424	4018.03314
449.916	3887.9602
450.408	3965.63902
450.9	3755.02758
451.392	3695.25817
451.884	3678.98129
452.375	3575.28065
452.867	3570.07026
453.358	3507.04002
453.849	3465.90158
454.341	3389.1525
454.832	3262.08801
455.323	3251.54267
455.814	3357.3264
456.304	3278.39848
456.795	3251.40443
457.285	3182.4296
457.776	3265.51328
458.266	2991.7288
458.756	3080.80242
459.247	2919.79894
459.737	2749.89505
460.226	2856.67189
460.716	2723.98671
461.206	2649.0785
461.695	2707.27973
462.185	2634.07144
462.674	2698.99641
463.163	2659.88979
463.653	2640.73261
464.142	2479.26441
464.63	2549.36503
465.119	2390.17601
465.608	2390.18774
466.096	2434.04907
466.585	2354.30186
467.073	2324.45858
467.561	2267.49481
468.05	2312.38723
468.538	2277.62045
469.026	2231.53533
469.513	2194.11727
470.001	2104.37039
470.489	2020.52275
470.976	2075.48382
471.463	1991.77642
471.951	1963.82286
472.438	1941.57947
472.925	1828.55106
473.412	1831.7932
473.899	1808.57081
474.385	1797.80002
474.872	1770.61185
475.359	1637.73533
475.845	1653.29151
476.331	1661.46623
476.817	1611.78709
477.303	1626.64799
477.789	1524.7265
478.275	1544.82487
478.761	1439.71146
479.247	1482.55509
479.732	1367.7513
480.218	1361.9064
480.703	1422.82587
481.188	1355.4093
481.673	1259.51489
482.158	1308.34902
482.643	1238.80586
483.128	1172.45422
483.612	1223.57324
484.097	1220.7109
484.581	1179.55643
485.066	1070.5477
485.55	1100.35631
486.034	1082.32448
486.518	1085.49172
487.002	984.48445
487.486	1020.53262
487.969	998.51287
488.453	1005.61674
488.936	940.31244
489.42	940.2932
489.903	957.57578
490.386	1000.8873
490.869	918.26439
491.352	913.48729
491.835	950.21304
492.318	857.25848
492.8	895.16478
493.283	876.504
493.765	799.34696
494.247	830.32106
494.73	779.1603
495.212	773.31149
495.694	728.17743
496.175	686.13685
496.657	738.23204
497.139	780.87756
497.62	636.07589
498.102	670.19937
498.583	687.25232
499.064	612.97615
499.545	650.06457
500.026	690.09068
500.507	680.13248
500.988	639.17289
501.469	575.07587
501.949	674.22578
502.43	514.91685
502.91	586.87081
503.39	627.17742
503.87	492.87714
504.35	524.94485
504.83	510.83614
505.31	560.02166
505.79	493.90145
506.269	530.94345
506.749	467.81555
507.228	498.89152
507.707	485.81757
508.187	519.95668
508.666	457.87365
509.145	382.70321
509.623	433.79452
510.102	427.81669
510.581	471.89388
511.059	401.79854
511.538	463.95289
512.016	532.97942
512.494	441.84837
512.972	485.90251
513.45	399.724
513.928	444.84777
514.406	426.80275
514.884	447.915
515.361	437.82732
515.839	460.81668
516.316	405.77761
516.793	382.78638
517.27	406.79326
517.747	385.80022
518.224	429.78916
518.701	374.66706
519.178	352.707
519.654	404.77588
520.131	370.74384
520.607	421.84422
521.083	381.69908
521.56	341.65693
522.036	374.66085
522.512	405.81289
522.987	285.55671
523.463	380.73154
523.939	394.78698
524.414	365.68762
524.89	402.77129
525.365	337.6227
525.84	317.61569
526.315	327.64815
526.79	394.7162
527.265	338.63096
527.74	325.65443
528.215	318.61925
528.689	347.62514
529.164	337.59903
529.638	371.78933
530.112	298.58169
530.587	309.53814
531.061	301.60219
531.534	376.74998
532.008	321.63864
532.482	389.72816
532.956	341.71951
533.429	351.7032
533.903	330.6029
534.376	308.56355
534.849	318.61247
535.322	319.62637
535.795	327.66664
536.268	341.67874
536.741	313.6291
537.213	371.70511
537.686	271.55524
538.158	273.50923
538.631	390.78296
539.103	277.51746
539.575	354.60431
540.047	326.59288
540.519	281.56765
540.991	328.67339
541.463	360.72307
541.934	316.60189
542.406	325.64418
542.877	355.65958
543.348	397.78984
543.82	381.77461
544.291	432.82206
544.762	365.71197
545.233	363.75349
545.703	387.694
546.174	486.90235
546.645	377.73293
547.115	493.94705
547.585	455.83868
548.056	475.90807
548.526	532.975
548.996	576.07801
549.466	617.16771
549.935	567.03106
550.405	578.96042
550.875	628.12692
551.344	654.18813
551.814	671.15216
552.283	704.12568
552.752	635.10535
553.221	707.10833
553.69	752.20199
554.159	783.39385
554.628	785.24243
555.096	757.41366
555.565	758.21644
556.033	815.39339
556.502	706.2867
556.97	681.12948
557.438	679.2252
557.906	638.17311
558.374	674.18176
558.842	601.12573
559.31	546.96843
559.777	594.12821
560.245	617.14153
560.712	652.17608
561.18	641.0923
561.647	641.11111
562.114	712.23678
562.581	733.39715
563.048	765.34136
563.514	669.28299
563.981	808.38991
564.448	772.30732
564.914	815.4315
565.381	801.37673
565.847	924.59088
566.313	914.56608
566.779	924.51831
567.245	951.62228
567.711	991.71973
568.176	919.4971
568.642	1025.86062
569.108	1082.89052
569.573	1113.84082
570.038	1176.64659
570.504	1157.75483
570.969	1234.12662
571.434	1258.79599
571.899	1237.98633
572.363	1325.95931
572.828	1388.03696
573.293	1353.00261
573.757	1376.02531
574.222	1396.95164
574.686	1382.949
575.15	1420.15037
575.614	1491.10839
576.078	1465.15184
576.542	1542.13177
577.006	1487.05666
577.469	1579.44105
577.933	1432.98608
578.396	1506.23891
578.86	1495.20173
579.323	1446.18236
579.786	1451.91759
580.249	1429.03867
580.712	1453.28228
581.175	1423.27447
581.637	1428.09628
582.1	1396.94052
582.563	1394.88601
583.025	1322.12442
583.487	1316.66272
583.95	1201.70379
584.412	1299.7532
584.874	1246.0534
585.336	1209.95317
585.797	1175.70645
586.259	1216.96288
586.721	1093.80064
587.182	1082.80066
587.643	1069.71239
588.105	1045.77077
588.566	1088.57974
589.027	1013.75802
589.488	1004.6457
589.949	1003.77092
590.41	905.25
590.87	957.59846
591.331	921.45267
591.791	934.5774
592.252	847.44361
592.712	897.61212
593.172	847.42502
593.632	906.46224
594.092	850.41571
594.552	863.37338
595.011	808.39953
595.471	794.34758
595.931	814.36673
596.39	794.45254
596.849	763.36519
597.308	813.32906
597.768	683.37485
598.227	778.44543
598.685	790.39147
599.144	791.41322
599.603	842.50957
600.062	769.21493
600.52	793.33536
600.978	765.39903
601.437	812.41169
601.895	738.19298
602.353	830.38458
602.811	814.36004
603.269	851.53787
603.727	841.52285
604.184	779.33026
604.642	809.51543
605.099	815.43224
605.557	849.56861
606.014	846.34431
606.471	882.64715
606.928	921.41516
607.385	1028.7846
607.842	1145.80054
608.299	1218.92976
608.755	1125.89967
609.212	1043.62522
609.668	1103.67146
610.125	1215.01691
610.581	1190.97253
611.037	1231.92214
611.493	1146.9097
611.949	1017.77801
612.405	1064.46689
612.861	1109.86648
613.316	1047.80668
613.772	1107.79866
614.227	1070.81182
614.683	1171.72575
615.138	1083.8117
615.593	1074.78925
616.048	1179.8863
616.503	1119.98967
616.958	1102.00296
617.412	1107.87925
617.867	1065.67605
618.321	1112.60985
618.776	1140.77873
619.23	1107.87218
619.684	1125.81783
620.138	1126.88854
620.592	1004.82748
621.046	1070.84797
621.5	1092.95002
621.954	1067.76249
622.407	1093.76787
622.861	1019.86186
623.314	1006.71595
623.768	987.73536
624.221	928.36367
624.674	932.64567
625.127	896.62884
625.58	946.66005
626.033	920.56882
626.485	867.63226
626.938	924.71384
627.39	813.51095
627.843	787.46617
628.295	818.51311
628.747	809.54898
629.199	780.43263
629.651	698.30747
630.103	742.39005
630.555	766.31046
631.006	687.34484
631.458	692.362
631.909	714.36779
632.361	667.31056
632.812	562.11821
633.263	616.12803
633.714	598.095
634.165	591.23907
634.616	615.25652
635.067	567.09281
635.518	589.2191
635.968	582.00567
636.419	519.99316
636.869	544.13712
637.319	509.03915
637.769	508.00212
638.219	561.17867
638.669	481.0232
639.119	474.03734
639.569	474.02424
640.019	510.04944
640.468	396.80786
640.918	495.06856
641.367	425.86642
641.816	515.02429
642.265	488.01175
642.714	459.96039
643.163	423.88703
643.612	419.91585
644.061	370.71983
644.51	371.77937
644.958	411.82531
645.406	383.84425
645.855	407.9174
646.303	459.97611
646.751	405.84479
647.199	456.94208
647.647	397.8406
648.095	413.86836
648.543	447.83426
648.99	411.90254
649.438	444.95592
649.885	418.95315
650.333	434.7673
650.78	430.95318
651.227	426.95257
651.674	426.89115
652.121	413.9275
652.568	431.96196
653.015	425.9931
653.461	376.83142
653.908	396.85552
654.354	393.87209
654.801	354.77592
655.247	407.82747
655.693	375.91362
656.139	368.8246
656.585	386.86279
657.031	344.75146
657.477	310.63299
657.922	319.69347
658.368	421.96406
658.813	382.83199
659.259	375.84149
659.704	324.71347
660.149	344.75496
660.594	366.81539
661.039	303.65645
661.484	358.80648
661.929	333.73743
662.373	323.77196
662.818	286.67793
663.262	331.75436
663.707	328.78854
664.151	332.7696
664.595	316.72468
665.039	312.7404
665.483	318.77059
665.927	302.68035
666.371	246.54876
666.814	261.60157
667.258	286.64747
667.701	357.73078
668.145	345.81601
668.588	292.6876
669.031	258.5848
669.474	297.68589
669.917	316.67013
670.36	254.60928
670.803	342.78618
671.245	280.56992
671.688	311.72735
672.13	247.53719
672.573	326.79205
673.015	278.64419
673.457	213.45457
673.899	346.79887
674.341	291.67631
674.783	304.6994
675.225	271.64399
675.666	248.57787
676.108	259.54698
676.549	268.61561
676.991	233.50222
677.432	247.47996
677.873	245.55252
678.314	280.64651
678.755	258.60921
679.196	213.4784
679.637	301.70921
680.078	272.61804
680.518	260.59029
680.959	271.62934
681.399	193.47045
681.839	253.59914
682.28	223.53768
682.72	195.43977
683.16	244.59153
683.6	247.55065
684.039	230.47071
684.479	249.59468
684.919	163.37196
685.358	237.58715
685.798	238.60777
686.237	204.48563
686.676	269.60788
687.115	239.54911
687.554	227.52801
687.993	208.45382
688.432	206.46372
688.871	189.42362
689.309	209.49055
689.748	180.37456
690.186	176.41657
690.625	181.41952
691.063	178.42211
691.501	202.49137
691.939	174.42864
692.377	190.45699
692.815	209.49113
693.253	202.47884
693.69	184.40094
694.128	142.3422
694.565	159.37684
695.003	158.39738
695.44	168.39163
695.877	193.44467
696.314	220.46656
696.751	190.42946
697.188	139.31886
697.625	216.48901
698.061	142.33934
698.498	198.4728
698.934	201.47711
699.371	150.35132
699.807	171.40121
700.243	140.33572
700.679	161.36324
701.115	199.46307
701.551	160.37489
701.987	160.35885
702.422	138.32688
702.858	207.48548
703.294	205.45854
703.729	197.47535
704.164	151.36161
704.599	149.3315
705.035	138.30874
705.47	158.38133
705.904	123.2869
706.339	188.43341
706.774	155.36125
707.209	139.32001
707.643	158.37714
708.078	164.39611
708.512	80.20107
708.946	148.35355
709.38	123.29186
709.814	136.31116
710.248	141.34255
710.682	154.36422
711.116	131.31156
711.549	135.34676
711.983	151.34763
712.416	171.40137
712.85	130.32332
713.283	126.29834
713.716	193.47851
714.149	199.46836
714.582	118.26618
715.015	212.52205
715.448	148.3709
715.881	181.39365
716.313	114.26795
716.746	136.31953
717.178	120.28863
717.61	118.29902
718.043	137.3403
718.475	148.35706
718.907	163.40944
719.339	90.20567
719.77	143.33748
720.202	117.29559
720.634	146.35317
721.065	164.38591
721.497	164.39865
721.928	91.22439
722.359	103.24883
722.79	103.24732
723.221	145.36305
723.652	173.44172
724.083	121.27356
724.514	140.32121
724.945	107.25243
725.375	118.27399
725.806	101.25298
726.236	172.436
726.666	98.2333
727.096	173.42028
727.526	151.38053
727.956	123.27989
728.386	161.39333
728.816	124.31277
729.246	85.20766
729.675	140.34273
730.105	159.38845
730.534	127.29716
730.964	133.33517
731.393	159.39234
731.822	151.38284
732.251	131.33119
732.68	150.35215
733.109	124.30503
733.537	109.26362
733.966	165.4058
734.395	126.29106
734.823	145.32661
735.251	104.25119
735.68	162.40246
736.108	137.345
736.536	141.3316
736.964	117.27194
737.392	104.26063
737.82	117.28104
738.247	103.2476
738.675	186.43938
739.102	103.25752
739.53	127.32199
739.957	116.2977
740.384	144.3537
740.811	136.34316
741.238	104.25432
741.665	126.29187
742.092	172.40694
742.519	113.27935
742.945	146.34864
743.372	142.34956
743.798	154.39245
744.225	95.2269
744.651	141.35176
745.077	129.32054
745.503	125.30448
745.929	124.29712
746.355	176.43309
746.781	126.31143
747.207	86.20285
747.632	78.19117
748.058	109.27203
748.483	126.29002
748.908	139.3435
749.334	85.20983
749.759	101.23892
750.184	110.26217
750.609	111.2729
751.033	149.35055
751.458	145.32434
751.883	136.33553
752.307	145.33941
752.732	44.11102
753.156	122.30055
753.58	171.40215
754.005	147.37045
754.429	90.21261
754.853	124.30615
755.277	117.27687
755.7	111.27521
756.124	125.30902
756.548	74.17671
756.971	125.30448
757.394	154.39301
757.818	122.31266
758.241	136.34291
758.664	118.2971
759.087	77.1733
759.51	145.35833
759.933	78.18875
760.356	128.32654
760.778	104.25583
761.201	95.23184
761.623	122.29556
762.046	144.34004
762.468	158.37657
762.89	133.32686
763.312	117.28531
763.734	96.2317
764.156	66.16415
764.578	129.29627
765	137.33246
765.421	80.20366
765.843	103.26963
766.264	105.25404
766.686	89.22413
767.107	49.12003
767.528	22.05624
767.949	74.18899
768.37	105.25767
768.791	121.29209
769.212	56.14161
769.632	71.16659
770.053	75.198
770.473	118.2863
770.894	81.20362
771.314	82.19701
771.734	52.12256
772.154	91.23383
772.575	111.25738
772.994	24.05546
773.414	134.32023
773.834	52.13107
774.254	122.29745
774.673	74.18123
775.093	77.19119
775.512	65.16105
775.931	84.21332
776.351	72.17953
776.77	65.15981
777.189	72.17226
777.607	52.13369
778.026	103.25613
778.445	41.10347
778.864	75.19292
779.282	37.09006
779.701	75.18962
780.119	44.11205
780.537	42.10571
780.955	75.19137
781.373	66.16403
781.791	77.17387
782.209	107.24644
782.627	69.18216
783.045	69.15968
783.462	54.13873
783.88	60.15581
784.297	53.13414
784.715	86.22064
785.132	66.16056
785.549	24.06071
785.966	50.12657
786.383	50.12386
786.8	84.19559
787.217	33.07912
787.633	53.13299
788.05	127.29996
788.466	64.15189
788.883	57.14596
789.299	70.1692
789.715	59.1442
790.131	49.12265
790.547	46.1157
790.963	84.20854
791.379	51.12963
791.795	104.2369
792.21	54.12717
792.626	43.10294
793.041	38.09458
793.457	23.05749
793.872	66.15585
794.287	-19.04623
794.702	84.20701
795.117	62.15454
795.532	19.04812
795.947	114.27306
796.362	75.17961
796.776	106.24769
797.191	52.12801
797.605	-2.00477
798.02	82.19955
798.434	36.08111
798.848	61.15075
799.262	34.08502
799.676	93.22653
800.09	36.08931
800.504	79.19186
800.918	53.12358
801.331	71.18631
801.745	70.16132
802.158	20.05052
802.572	28.06862
802.985	72.17443
803.398	56.13424
803.811	79.20307
804.224	57.14246
804.637	11.02655
805.05	53.12363
805.462	94.23038
805.875	32.0835
806.288	13.03174
806.7	37.09365
807.112	89.20613
807.525	57.14122
807.937	65.16099
808.349	27.06824
808.761	35.08678
809.173	77.18665
809.584	14.03501
809.996	-7.0174
810.408	26.06761
810.819	104.2434
811.231	116.29729
811.642	125.29512
812.053	275.62877
812.464	324.73349
812.875	310.75882
813.286	166.42019
813.697	136.31466
814.108	94.22893
814.519	69.15421
814.929	103.26133
815.34	46.1122
815.75	18.04616
816.16	33.08287
816.571	73.18954
816.981	86.20277
817.391	80.19301
817.801	54.13455
818.211	68.16238
818.62	38.0921
819.03	47.11577
819.44	94.24452
819.849	29.07363
820.259	66.16909
820.668	23.05707
821.077	17.04263
821.486	64.15447
821.895	83.20474
822.304	55.14603
822.713	42.09991
823.122	15.03782
823.531	57.13557
823.939	26.06389
824.348	53.12934
824.756	61.15307
825.164	85.21337
825.573	28.07078
825.981	54.13435
826.389	67.16842
826.797	63.15797
827.205	52.11984
827.612	63.15569
828.02	42.09918
828.428	65.16562
828.835	78.20485
829.243	88.20909
829.65	40.09996
830.057	59.1435
830.464	15.03692
830.871	63.1511
831.278	45.10929
831.685	27.06084
832.092	69.16895
832.499	85.1855
832.905	71.17963
833.312	62.14174
833.718	53.13242
834.124	76.17354
834.531	70.17638
834.937	56.14397
835.343	72.17364
835.749	64.14972
836.155	53.13903
836.561	40.09887
836.966	45.11051
837.372	58.14781
837.777	21.05273
838.183	47.10504
838.588	44.10967
838.993	31.07599
839.399	22.05422
839.804	-7.01729
840.209	35.08953
840.613	41.09175
841.018	77.19453
841.423	96.24483
841.828	26.06619
842.232	53.1316
842.637	35.08308
843.041	-6.01556
843.445	43.10825
843.849	43.10685
844.253	61.14514
844.657	30.07597
845.061	24.05493
845.465	21.05113
845.869	76.17626
846.272	64.15581
846.676	87.20954
847.079	30.0767
847.483	85.21121
847.886	104.25119
848.289	33.08844
848.692	58.14698
849.095	55.13232
849.498	125.31332
849.901	51.11732
850.304	59.14113
850.707	56.14292
851.109	67.16939
851.512	82.20075
851.914	22.05581
852.316	46.11665
852.718	-8.02089
853.121	42.10328
853.523	29.06823
853.925	39.10206
854.326	-14.03546
854.728	51.13132
855.13	-11.02871
855.531	-2.00484
855.933	54.12984
856.334	23.05771
856.736	46.10338
857.137	8.0188
857.538	70.17562
857.939	12.0299
858.34	79.19186
858.741	32.08401
859.142	30.07249
859.542	27.07159
859.943	85.21021
860.343	-17.04267
860.744	51.12465
861.144	41.10035
861.544	1.00243
861.945	30.07683
862.345	51.12492
862.745	14.03507
863.145	95.2256
863.544	52.13154
863.944	37.0878
864.344	63.15638
864.743	85.2099
865.143	26.06715
865.542	35.08158
865.941	62.15336
866.34	81.19324
866.74	37.09961
867.139	37.08895
867.537	71.18046
867.936	51.12293
868.335	42.10715
868.734	24.06168
869.132	25.05847
869.531	44.10672
869.929	-5.01154
870.327	27.0651
870.726	66.16433
871.124	78.18162
871.522	41.10473
871.92	65.1601
872.318	18.04433
872.715	61.15091
873.113	73.17735
873.511	48.11977
873.908	-29.07431
874.306	29.07248
874.703	43.10786
875.1	50.12805
875.497	8.01936
875.894	0
876.291	33.08134
876.688	54.13931
877.085	44.10583
877.482	53.13275
877.878	46.11094
878.275	24.06131
878.671	68.15113
879.068	21.05104
879.464	50.121
879.86	-20.048
880.256	34.08425
880.652	-4.01028
881.048	92.22648
881.444	12.02881
881.84	51.12972
882.236	40.10086
882.631	72.1762
883.027	37.08992
883.422	16.04119
883.817	-18.04582
884.213	67.17156
884.608	-29.07222
885.003	52.12546
885.398	32.08043
885.793	45.11316
886.188	-4.01005
886.582	62.15884
886.977	41.09759
887.371	54.1366
887.766	-3.00754
888.16	46.11499
888.554	49.12131
888.949	76.19012
889.343	46.11257
889.737	5.01343
890.131	32.0806
890.525	30.07705
890.918	27.06829
891.312	47.11264
891.706	54.14168
892.099	78.19766
892.492	47.10161
892.886	7.01728
893.279	39.09962
893.672	30.0767
894.065	24.06043
894.458	30.07578
894.851	57.13962
895.244	40.10241
895.637	58.13961
896.029	43.10537
896.422	30.07363
896.814	14.03506
897.206	-12.02894
897.599	71.17507
897.991	60.14492
898.383	36.08537
898.775	13.02959
899.167	-24.05683
899.559	58.14672
899.951	32.07577
900.342	68.1725
900.734	-15.03768
901.125	35.09212
901.517	-14.03479
901.908	86.20497
902.299	-1.00247
902.69	12.02855
903.082	42.10194
903.473	-8.01938
903.863	47.12005
904.254	17.03975
904.645	50.12445
905.036	0
905.426	53.12139
905.817	-18.04475
906.207	33.07894
906.597	25.0588
906.987	55.14251
907.378	76.19143
907.768	45.11912
908.158	64.15575
908.547	35.09069
908.937	38.09776
909.327	64.15511
909.717	106.2666
910.106	33.07957
910.495	55.13727
910.885	52.13173
911.274	39.09772
911.663	55.13955
912.052	43.1063
912.441	27.06897
912.83	45.10348
913.219	37.09709
913.608	44.10796
913.997	-21.05334
914.385	66.1573
914.774	33.08065
915.162	39.09318
915.55	54.13063
915.939	10.02543
916.327	36.09012
916.715	51.13
917.103	91.22241
917.491	93.22839
917.878	44.10836
918.266	32.08327
918.654	30.07694
919.041	10.02629
919.429	10.0238
919.816	62.15689
920.203	10.02445
920.591	41.10188
920.978	35.08599
921.365	52.13643
921.752	35.08372
922.139	44.09572
922.525	2.00485
922.912	27.06616
923.299	19.04751
923.685	13.03414
924.072	19.04411
924.458	15.03741
924.844	23.05721
925.231	43.10026
925.617	16.04095
926.003	56.14302
926.389	9.02288
926.774	32.08138
927.16	48.1193
927.546	36.09213
927.931	10.02514
928.317	40.09237
928.702	51.12069
929.088	-35.08417
929.473	9.02307
929.858	-14.03426
930.243	21.05069
930.628	10.02452
931.013	34.08453
931.398	30.0693
931.783	78.20443
932.167	45.11015
932.552	45.11288
932.937	-1.00251
933.321	13.03284
933.705	43.10856
934.09	71.1788
934.474	38.0905
934.858	27.07032
935.242	-5.01172
935.626	27.0694
936.009	22.05879
936.393	14.03586
936.777	13.03351
937.16	15.03927
937.544	76.17822
937.927	17.04339
938.311	75.18228
938.694	61.16104
939.077	25.06014
939.46	81.19782
939.843	58.12085
940.226	-23.05976
940.609	38.08747
940.991	23.05883
941.374	16.03936
941.757	21.05211
942.139	-9.02046
942.522	68.1602
942.904	49.11784
943.286	42.10689
943.668	62.16029
944.05	20.04954
944.432	79.19394
944.814	53.1305
945.196	18.04413
945.578	9.02156
945.959	-9.02134
946.341	69.16883
946.722	34.08007
947.104	45.10768
947.485	11.0258
947.866	18.04561
948.247	-4.01019
948.628	47.11474
949.009	27.06943
949.39	62.15403
949.771	38.08862
950.152	12.02966
950.532	-19.04733
950.913	14.03401
951.293	25.06781
951.674	25.06076
952.054	13.03243
952.434	10.02501
952.814	22.05264
953.194	62.16195
953.574	73.17908
953.954	18.04302
954.334	36.08996
954.714	-7.01724
955.093	54.13269
955.473	6.01512
955.853	35.09084
956.232	37.10162
956.611	41.09852
956.99	28.07065
957.37	8.02054
957.749	23.05517
958.128	40.10097
958.506	31.08068
958.885	21.05328
959.264	16.03946
959.643	54.12281
960.021	1.0025
960.4	2.00458
960.778	104.25366
961.156	13.03281
961.535	28.06556
961.913	85.19756
962.291	28.07211
962.669	11.02806
963.047	45.11495
963.424	45.11495
963.802	-7.01739
964.18	25.06354
964.557	80.18319
964.935	20.04767
965.312	32.08359
965.69	27.0679
966.067	57.13864
966.444	37.0914
966.821	61.15696
967.198	21.05123
967.575	77.1884
967.952	74.17359
968.329	25.06112
968.705	33.07104
969.082	39.10021
969.458	-29.07061
969.835	31.07574
970.211	13.03358
970.587	48.11956
970.963	61.1562
971.339	-13.03431
971.715	21.05271
972.091	21.05199
972.467	24.06015
972.843	25.06233
973.219	54.12959
973.594	13.03422
973.97	84.19867
974.345	22.05294
974.721	49.11869
975.096	33.08011
975.471	61.14441
975.846	54.12964
976.221	7.01791
976.596	10.02415
976.971	43.1063
977.346	32.07477
977.72	54.13747
978.095	6.01562
978.469	44.10515
978.844	51.1282
979.218	-11.02667
979.593	46.11031
979.967	54.13146
980.341	47.10829
980.715	33.0834
981.089	41.10281
981.463	15.03469
981.837	23.05648
982.21	77.17826
982.584	28.06791
982.957	-2.00504
983.331	62.14624
983.704	28.06908
984.078	20.04956
984.451	72.17914
984.824	32.07819
985.197	13.0318
985.57	15.03786
985.943	62.1528
986.316	62.15201
986.688	24.05817
987.061	13.03069
987.434	37.09663
987.806	43.10443
988.179	-5.01192
988.551	76.19191
988.923	55.13532
989.295	58.14473
989.667	-14.03385
990.039	14.03482
990.411	26.06013
990.783	35.08084
991.155	-26.06337
991.527	84.20557
991.898	-4.01006
992.27	8.01994
992.641	55.13786
993.012	34.08026
993.384	9.02164
993.755	5.01285
994.126	54.12979
994.497	-28.06972
994.868	51.11713
995.239	11.02685
995.61	13.03293
995.98	4.0098
996.351	20.0498
996.722	0
997.092	-7.01676
997.462	-28.0664
997.833	27.06429
998.203	6.01467
998.573	26.06502
998.943	9.02127
999.313	-1.00242
999.683	23.05548
1000.053	69.15816
1000.423	35.08529
1000.792	37.0961
1001.162	44.1084
1001.531	31.07669
1001.901	12.03012
1002.27	54.12061
1002.639	22.05648
1003.009	35.08347
1003.378	14.03602
1003.747	0
1004.116	6.01448
1004.485	47.11238
1004.853	35.0889
1005.222	38.09602
1005.591	56.1328
1005.959	3.00682
1006.328	-19.04336
1006.696	39.09425
1007.064	7.01774
1007.433	76.18902
1007.801	42.10324
1008.169	22.05583
1008.537	18.04012
1008.905	-10.02357
1009.273	37.09161
1009.64	13.03123
1010.008	27.06464
1010.375	98.23581
1010.743	75.17232
1011.11	60.14169
1011.478	26.06462
1011.845	27.06377
1012.212	27.06139
1012.579	47.11543
1012.946	36.0859
1013.313	23.05502
1013.68	33.07442
1014.047	-6.01445
1014.414	-6.01432
1014.78	-1.00251
1015.147	81.19472
1015.513	60.14426
1015.88	77.19592
1016.246	68.16728
1016.612	64.14608
1016.978	30.07377
1017.344	48.11864
1017.71	46.11224
1018.076	36.08511
1018.442	22.05686
1018.808	51.12742
1019.174	9.02274
1019.539	80.18304
1019.905	18.0427
1020.27	-24.06002
1020.636	48.1151
1021.001	24.05773
1021.366	-4.0097
1021.731	30.0774
1022.096	-10.02549
1022.461	68.16033
1022.826	31.07393
1023.191	37.09726
1023.556	16.03774
1023.92	20.04943
1024.285	65.15815
1024.649	31.07622
1025.014	70.1727
1025.378	9.02279
1025.742	65.16093
1026.107	54.12201
1026.471	70.16273
1026.835	48.11899
1027.199	-4.00972
1027.562	8.01874
1027.926	64.15604
1028.29	34.08625
1028.654	46.10588
1029.017	31.07644
1029.381	10.02406
1029.744	25.06402
1030.107	69.16259
1030.471	34.08163
1030.834	15.03435
1031.197	65.15608
1031.56	30.07104
1031.923	27.07006
1032.286	26.06133
1032.648	53.12664
1033.011	6.01389
1033.374	23.05432
1033.736	22.05809
1034.099	4.00983
1034.461	12.03051
1034.823	30.07494
1035.185	66.16558
1035.548	58.14088
1035.91	35.08404
1036.272	20.04578
1036.634	45.11015
1036.995	30.07076
1037.357	11.02694
1037.719	-3.00736
1038.08	17.0406
1038.442	15.03583
1038.803	41.09856
1039.165	21.05324
1039.526	23.05584
1039.887	41.09823
1040.248	2.00497
1040.609	19.0472
1040.97	12.02952
1041.331	57.14406
1041.692	-34.08063
1042.053	53.12056
1042.413	26.06085
1042.774	43.10466
1043.134	59.14016
1043.495	49.12313
1043.855	23.05605
1044.215	31.07717
1044.576	-9.02175
1044.936	34.07817
1045.296	50.12472
1045.656	21.05178
1046.016	42.10148
1046.375	54.13082
1046.735	17.03878
1047.095	29.06812
1047.454	19.04051
1047.814	31.07475
1048.173	54.12885
1048.533	-11.0255
1048.892	-2.00485
1049.251	48.12047
1049.61	34.08392
1049.969	11.02611
1050.328	38.08256
1050.687	28.06837
1051.046	29.07085
1051.405	66.16361
1051.763	15.03471
1052.122	23.05761
1052.48	31.07624
1052.839	15.03551
1053.197	12.02844
1053.555	33.07546
1053.914	36.08823
1054.272	77.1851
1054.63	19.0467
1054.988	7.01676
1055.345	50.10761
1055.703	48.1155
1056.061	10.02589
1056.419	17.04423
1056.776	36.08748
1057.134	17.03959
1057.491	32.08034
1057.848	44.10959
1058.206	7.01659
1058.563	-5.01114
1058.92	7.01626
1059.277	70.17194
1059.634	39.0919
1059.991	19.04576
1060.348	22.04997
1060.704	-50.12136
1061.061	56.12988
1061.418	-11.02696
1061.774	27.0669
1062.131	-13.03471
1062.487	6.01414
1062.843	34.08496
1063.199	39.09712
1063.555	28.06512
1063.911	26.06591
1064.267	115.23626
1064.623	-6.01472
1064.979	45.10666
1065.335	47.11234
1065.691	42.10076
1066.046	19.04203
1066.402	41.09326
1066.757	25.06334
1067.112	38.09341
1067.468	-2.00477
1067.823	19.04592
1068.178	43.10408
1068.533	41.0995
1068.888	47.1123
1069.243	19.04713
1069.598	13.03178
1069.952	9.02042
1070.307	-30.07529
1070.662	35.08328
1071.016	3.00678
1071.371	-24.05538
1071.725	52.12427
1072.079	39.09393
1072.434	29.07069
1072.788	16.03832
1073.142	34.08382
1073.496	-1.00239
1073.85	43.09979
1074.203	46.11161
1074.557	28.07468
1074.911	67.15929
1075.265	40.0931
1075.618	31.07591
1075.971	3.0072
1076.325	33.08406
1076.678	-41.09541
1077.031	-21.04817
1077.385	47.10353
1077.738	9.02047
1078.091	-55.12763
1078.444	19.04435
1078.796	12.02963
1079.149	42.10454
1079.502	60.14136
1079.855	51.11882
1080.207	21.05197
1080.56	27.07001
1080.912	47.1144
1081.264	23.05563
1081.617	37.09033
1081.969	15.03805
1082.321	11.02703
1082.673	-13.03002
1083.025	40.09501
1083.377	-207.46855
1083.728	57.13269
1084.08	0
1084.432	28.06776
1084.783	30.07051
1085.135	29.0729
1085.486	-20.04637
1085.838	47.11572
1086.189	41.09961
1086.54	46.10985
1086.891	-8.02042
1087.242	19.04649
1087.593	72.17443
1087.944	55.12424
1088.295	48.10907
1088.646	39.09464
1088.996	-5.01216
1089.347	-1.00247
1089.698	-1.00238
1090.048	63.16312
1090.398	40.09288
1090.749	45.10768
1091.099	-37.09441
1091.449	18.04506
1091.799	14.03525
1092.149	-9.02217
1092.499	33.08068
1092.849	48.12194
1093.199	70.17467
1093.548	7.01694
1093.898	13.03271
1094.248	26.06703
1094.597	-40.10363
1094.947	33.0882
1095.296	22.05456
1095.645	35.09119
1095.994	13.03142
1096.343	50.12571
1096.692	-6.0159
1097.041	-10.02731
1097.39	43.1079
1097.739	28.07299
1098.088	57.1524
1098.437	-30.0798
1098.785	56.15069
1099.134	30.07985
1099.482	19.05247
1099.83	21.0554
1100.179	-32.08455
1100.527	39.10372
1100.875	2.00533
1101.223	39.10365
1101.571	16.04441
1101.919	-29.07672
1102.267	18.05088
1102.615	-2.00643
1102.962	21.06753
1103.31	15.04814
1103.658	18.05793
