Data from N2 R5 sample 4_Subt2__5__14-06-14-193.txt Node

Date: Fri Aug 29 14:06:14 PDT 2025
User: uwsun
Spectrometer: HDX01956
Trigger mode: 0
Integration Time (sec): 5.000000E-1
Scans to average: 1
Nonlinearity correction enabled: true
Boxcar width: 0
Storing dark spectrum: false
XAxis mode: Wavelengths
Number of Pixels in Spectrum: 2068
>>>>>Begin Spectral Data<<<<<
194.03	501.29297
194.578	486.43848
195.127	505.46602
195.676	510.4846
196.225	570.36316
196.773	669.63133
197.321	910.06263
197.87	1168.2593
198.418	1234.31038
198.966	1209.29501
199.513	1093.00508
200.061	1151.12659
200.609	1172.31545
201.156	1139.73967
201.704	1144.10157
202.251	1170.28572
202.798	1159.21474
203.345	1213.15943
203.892	1183.15883
204.438	1210.05752
204.985	1196.98796
205.532	1189.28965
206.078	1290.21656
206.624	1250.16002
207.17	1180.94409
207.716	1186.05217
208.262	1254.6306
208.808	1235.13341
209.354	1265.1498
209.899	1301.33693
210.445	1261.20037
210.99	1243.09414
211.535	1276.08349
212.08	1294.07094
212.625	1294.28475
213.17	1301.33218
213.715	1204.83362
214.259	1252.03386
214.804	1309.27022
215.348	1277.01185
215.892	1321.18794
216.436	1326.10576
216.98	1297.95358
217.524	1232.04585
218.068	1285.29869
218.612	1297.31669
219.155	1181.98279
219.698	1146.97655
220.242	1213.19379
220.785	1166.95697
221.328	1129.07754
221.871	1115.1151
222.414	1137.0944
222.956	1053.87971
223.499	1102.793
224.041	1065.84174
224.583	1128.74667
225.126	1052.6922
225.668	1086.95321
226.21	1098.05405
226.751	1107.72247
227.293	1157.89814
227.835	1072.94369
228.376	1133.90084
228.918	1113.09802
229.459	1040.94282
230	1078.89238
230.541	1117.86881
231.082	1127.99774
231.622	1103.85232
232.163	1100.9573
232.704	1055.95394
233.244	1105.02413
233.784	1095.99704
234.324	1053.65993
234.864	1061.75543
235.404	1158.99415
235.944	1163.99059
236.484	1167.1306
237.023	1112.90755
237.563	1177.92576
238.102	1159.96787
238.641	1156.14275
239.18	1047.79233
239.719	1184.15795
240.258	1139.82507
240.797	1104.92202
241.335	1141.03703
241.874	1113.45775
242.412	1127.96168
242.95	1106.91136
243.488	1122.83486
244.026	1139.86848
244.564	1093.57679
245.102	1147.81511
245.64	1137.99265
246.177	1144.81396
246.715	1198.05119
247.252	1114.84197
247.789	1183.4902
248.326	1089.89433
248.863	1171.77831
249.4	1188.89164
249.936	1195.66015
250.473	1195.9521
251.009	1156.86136
251.546	1192.81094
252.082	1180.78835
252.618	1182.82119
253.154	1172.99697
253.69	1135.80219
254.226	1123.92495
254.761	1181.84254
255.297	1110.70462
255.832	1182.96888
256.367	1229.0113
256.903	1158.76
257.438	1232.01233
257.972	1203.84129
258.507	1149.83702
259.042	1197.77292
259.576	1192.72866
260.111	1210.94438
260.645	1258.82515
261.179	1184.92384
261.713	1198.82227
262.247	1198.91849
262.781	1213.69184
263.315	1196.05865
263.849	1220.14688
264.382	1257.97206
264.915	1221.96381
265.449	1261.09371
265.982	1254.9385
266.515	1257.11556
267.048	1249.7414
267.58	1275.86084
268.113	1248.78493
268.646	1265.1521
269.178	1235.84954
269.71	1335.89687
270.243	1304.9882
270.775	1263.23843
271.307	1296.13043
271.838	1338.14185
272.37	1268.14512
272.902	1274.94442
273.433	1254.81706
273.965	1311.1594
274.496	1349.27497
275.027	1279.17488
275.558	1289.11827
276.089	1213.04885
276.62	1318.3081
277.15	1297.18915
277.681	1357.89233
278.211	1317.18963
278.741	1235.79648
279.272	1247.90012
279.802	1363.28388
280.332	1289.02392
280.861	1367.16828
281.391	1226.85854
281.921	1320.13072
282.45	1307.22274
282.98	1383.4357
283.509	1312.91824
284.038	1314.9529
284.567	1359.07605
285.096	1316.11828
285.625	1316.93707
286.153	1318.01941
286.682	1374.00151
287.21	1339.11267
287.739	1428.14216
288.267	1374.15657
288.795	1453.52922
289.323	1395.0604
289.851	1493.16687
290.378	1364.93425
290.906	1400.15997
291.433	1437.30609
291.961	1434.99776
292.488	1396.25681
293.015	1431.09882
293.542	1430.3238
294.069	1428.22791
294.596	1492.32867
295.122	1483.1865
295.649	1488.96264
296.175	1524.28092
296.702	1526.28122
297.228	1547.30677
297.754	1473.98588
298.28	1564.07064
298.806	1573.25795
299.332	1491.9321
299.857	1549.03488
300.383	1536.42005
300.908	1517.21156
301.433	1589.28263
301.958	1580.14202
302.483	1541.32659
303.008	1580.35303
303.533	1601.56011
304.058	1594.20334
304.582	1610.18052
305.107	1533.45869
305.631	1693.14816
306.155	1632.13945
306.679	1637.14684
307.203	1651.13679
307.727	1610.189
308.251	1684.38019
308.775	1609.15024
309.298	1665.21477
309.822	1707.45768
310.345	1774.2571
310.868	1818.30028
311.391	1790.41016
311.914	1802.45341
312.437	1831.1515
312.96	1785.20598
313.482	1848.25336
314.005	1780.43223
314.527	1810.61559
315.049	1866.51955
315.571	1859.98039
316.093	1934.42931
316.615	1895.29041
317.137	1986.94967
317.659	1970.37295
318.18	1944.32574
318.702	2010.17184
319.223	1957.72554
319.744	2032.01686
320.265	2006.27835
320.786	2080.36571
321.307	2113.41455
321.828	2116.03222
322.348	2118.1641
322.869	2155.14473
323.389	2112.01849
323.909	2248.06373
324.43	2251.29748
324.95	2280.00794
325.47	2253.27383
325.989	2288.08844
326.509	2394.77789
327.029	2373.85986
327.548	2328.83465
328.067	2496.10128
328.587	2413.28396
329.106	2418.8532
329.625	2517.58954
330.144	2464.87162
330.662	2496.85499
331.181	2469.90516
331.7	2538.88428
332.218	2715.50013
332.736	2711.81883
333.255	2654.77153
333.773	2773.80648
334.291	2755.09009
334.808	2725.50878
335.326	2894.50219
335.844	2843.56118
336.361	2939.91445
336.879	2897.52125
337.396	2987.62716
337.913	3061.36384
338.43	3129.21875
338.947	3087.46859
339.464	3126.95846
339.981	3154.349
340.497	3221.54017
341.014	3221.42029
341.53	3216.03331
342.046	3240.38424
342.562	3380.42728
343.078	3410.07914
343.594	3422.12748
344.11	3410.08957
344.626	3552.25648
345.141	3524.77633
345.657	3649.71735
346.172	3582.96281
346.687	3540.73146
347.202	3703.51555
347.717	3854.68809
348.232	3830.90687
348.747	3722.54414
349.261	3711.24541
349.776	3890.49653
350.29	4013.55445
350.805	4001.6631
351.319	4028.32755
351.833	3985.15923
352.347	3967.33269
352.861	4098.18851
353.374	4139.16409
353.888	4057.36429
354.401	4145.06943
354.915	4238.84009
355.428	4376.19393
355.941	4351.907
356.454	4468.78237
356.967	4388.96557
357.48	4389.84773
357.993	4476.04538
358.505	4490.95141
359.018	4625.8862
359.53	4646.76383
360.042	4698.49373
360.554	4701.77116
361.066	4595.78608
361.578	4753.36558
362.09	4709.64674
362.602	4722.35611
363.113	4829.45508
363.625	4928.31401
364.136	5001.24263
364.647	4901.28938
365.158	5108.31011
365.669	5191.3667
366.18	5231.30359
366.691	5167.14171
367.201	5112.31447
367.712	5167.15114
368.222	5204.14357
368.733	5345.01497
369.243	5476.04438
369.753	5607.13785
370.263	5656.18181
370.773	5602.21072
371.282	5734.1471
371.792	5763.08003
372.301	5988.23185
372.811	6189.403
373.32	6151.39
373.829	6299.47895
374.338	6633.99323
374.847	6786.23586
375.356	6950.52216
375.865	7127.45224
376.373	7472.18714
376.882	7832.62944
377.39	7794.96728
377.898	7966.95269
378.407	8471.93144
378.915	8718.71233
379.423	9043.12582
379.93	9402.18064
380.438	9817.35089
380.946	10354.69306
381.453	10563.41428
381.96	10996.24759
382.468	11772.28873
382.975	12805.66758
383.482	13143.2012
383.989	13259.74669
384.495	13674.433
385.002	14427.75095
385.509	15122.48835
386.015	15984.98708
386.521	16991.52676
387.028	17290.38098
387.534	17983.57382
388.04	18996.56093
388.546	18932.82802
389.051	19649.74597
389.557	21308.43073
390.063	23687.08543
390.568	24261.92828
391.073	24748.73571
391.578	25667.70807
392.084	26225.06881
392.589	26668.60164
393.093	28532.42313
393.598	31536.18602
394.103	34643.09008
394.607	38098.87106
395.112	40593.08083
395.616	42714.67041
396.12	45061.48704
396.624	44028.37278
397.128	43370.29424
397.632	41414.05101
398.136	39172.79427
398.639	36273.96993
399.143	32503.66402
399.646	28888.45294
400.15	25083.82847
400.653	20124.16724
401.156	13866.23708
401.659	5169.95759
402.162	1054.15589
402.664	0
403.167	0
403.67	0
404.172	0
404.674	0
405.176	0
405.678	0
406.18	0
406.682	0
407.184	0
407.686	0
408.187	0
408.688	0
409.19	0
409.691	0
410.192	0
410.693	0
411.194	435.30976
411.694	4082.94878
412.195	8864.71461
412.696	12089.80453
413.196	12760.96929
413.696	12863.67595
414.196	13703.56671
414.696	17261.84252
415.196	21764.24417
415.696	29583.19008
416.196	36460.31858
416.695	40057.39798
417.195	41392.74103
417.694	42311.08144
418.194	43882.52025
418.693	44704.85811
419.192	45402.14938
419.691	45678.73777
420.19	46397.77183
420.688	47237.71801
421.187	47797.94428
421.685	49412.82777
422.184	49577.13714
422.682	43345.50182
423.18	36059.32037
423.678	31588.78595
424.176	29441.10482
424.674	27630.22521
425.172	26575.15064
425.669	25185.80193
426.167	23652.51409
426.664	21422.68632
427.161	19798.41528
427.659	18326.77946
428.156	16976.32366
428.652	15974.57659
429.149	15269.69575
429.646	14823.02216
430.143	14121.05591
430.639	13113.00903
431.135	12425.01088
431.632	11745.02115
432.128	10946.33168
432.624	10131.44506
433.12	9791.85997
433.616	9599.25312
434.111	9026.73493
434.607	8668.04959
435.103	8695.47149
435.598	8457.12248
436.093	8252.84103
436.588	7788.1322
437.083	7420.83794
437.578	7117.9311
438.073	6538.79495
438.568	6521.69906
439.062	6225.49283
439.557	6118.303
440.051	5877.13184
440.546	5582.9878
441.04	5465.02529
441.534	5377.1522
442.028	5367.09064
442.522	5147.0904
443.015	5023.9535
443.509	5127.21113
444.002	4782.28825
444.496	4812.03899
444.989	4774.35082
445.482	4648.45271
445.975	4571.19003
446.468	4592.10286
446.961	4477.15218
447.454	4397.35821
447.947	4242.53831
448.439	4214.7293
448.931	4205.45003
449.424	4115.97993
449.916	4219.78339
450.408	4117.56191
450.9	3909.94114
451.392	3907.13829
451.884	3800.91288
452.375	3805.15018
452.867	3797.94162
453.358	3659.95332
453.849	3685.77777
454.341	3658.99936
454.832	3539.93043
455.323	3422.44906
455.814	3435.28266
456.304	3412.32404
456.795	3444.29714
457.285	3381.32007
457.776	3374.45364
458.266	3249.59696
458.756	3212.73584
459.247	3033.74449
459.737	3036.76493
460.226	2960.62171
460.716	2903.91126
461.206	2864.9942
461.695	2880.21713
462.185	2848.98812
462.674	2845.93661
463.163	2786.8373
463.653	2707.70395
464.142	2648.21483
464.63	2713.31688
465.119	2527.13802
465.608	2562.13932
466.096	2492.03127
466.585	2476.2739
467.073	2539.41639
467.561	2461.46445
468.05	2402.37084
468.538	2382.60964
469.026	2351.52216
469.513	2209.11437
470.001	2258.35374
470.489	2144.52222
470.976	2195.47818
471.463	2121.79007
471.951	2106.84255
472.438	1963.58154
472.925	1929.56453
473.412	1934.81731
473.899	1901.58551
474.385	1939.83564
474.872	1887.63479
475.359	1765.78137
475.845	1723.30185
476.331	1746.48501
476.817	1669.81232
477.303	1667.66255
477.789	1636.77894
478.275	1521.81216
478.761	1586.79028
479.247	1553.58544
479.732	1427.79199
480.218	1462.98435
480.703	1433.83333
481.188	1406.43349
481.673	1390.59671
482.158	1272.33043
482.643	1385.9318
483.128	1298.54175
483.612	1326.64782
484.097	1251.73755
484.581	1265.62346
485.066	1218.6832
485.55	1127.37671
486.034	1090.33058
486.518	1159.55635
487.002	1055.55848
487.486	1123.63643
487.969	1087.60507
488.453	1111.73475
488.936	989.35973
489.42	1051.39533
489.903	1023.65418
490.386	1048.91005
490.869	966.31033
491.352	964.54833
491.835	878.14832
492.318	905.30982
492.8	929.19542
493.283	855.47607
493.765	817.37067
494.247	840.33322
494.73	851.24046
495.212	832.38944
495.694	772.23336
496.175	756.22906
496.657	877.40929
497.139	814.90417
497.62	705.17068
498.102	718.26965
498.583	757.35582
499.064	704.09243
499.545	707.13983
500.026	658.04952
500.507	677.1284
500.988	693.25498
501.469	651.19556
501.949	666.21365
502.43	613.06415
502.91	571.85236
503.39	628.17901
503.87	646.10469
504.35	604.06542
504.83	570.91897
505.31	522.96294
505.79	522.94751
506.269	538.95572
506.749	522.89845
507.228	477.85853
507.707	573.94293
508.187	594.07288
508.666	496.93927
509.145	477.85721
509.623	490.88624
510.102	517.96733
510.581	555.03018
511.059	478.93483
511.538	508.03311
512.016	556.01589
512.494	564.05134
512.972	464.86793
513.45	415.74998
513.928	464.88167
514.406	444.83298
514.884	475.96615
515.361	447.84419
515.839	495.87086
516.316	419.80178
516.793	448.90854
517.27	446.86316
517.747	403.83427
518.224	443.81205
518.701	432.75899
519.178	399.79271
519.654	427.81551
520.131	384.76949
520.607	390.78766
521.083	364.67075
521.56	434.81743
522.036	413.72236
522.512	432.86168
522.987	391.74457
523.463	367.70872
523.939	402.80147
524.414	417.77556
524.89	357.69239
525.365	394.71766
525.84	339.65496
526.315	395.77049
526.79	413.74712
527.265	337.62925
527.74	365.72821
528.215	374.7186
528.689	356.63988
529.164	352.62327
529.638	366.77954
530.112	297.57987
530.587	358.61542
531.061	264.5327
531.534	384.76451
532.008	295.59046
532.482	327.62148
532.956	281.60073
533.429	359.7179
533.903	398.71465
534.376	321.58541
534.849	371.70545
535.322	348.67864
535.795	363.73397
536.268	316.63264
536.741	284.57464
537.213	345.65984
537.686	270.55332
538.158	250.46899
538.631	361.7296
539.103	288.53655
539.575	336.57636
540.047	288.52882
540.519	342.68121
540.991	386.78209
541.463	316.64114
541.934	278.5344
542.406	314.62398
542.877	317.59454
543.348	353.7095
543.82	328.67491
544.291	386.74274
544.762	325.63996
545.233	354.73628
545.703	368.66315
546.174	429.80781
546.645	374.72761
547.115	407.79804
547.585	460.84683
548.056	410.79614
548.526	444.83174
548.996	556.04563
549.466	604.14669
549.935	481.89506
550.405	560.93511
550.875	624.12087
551.344	562.04449
551.814	558.98818
552.283	621.0161
552.752	620.08345
553.221	571.93128
553.69	666.09024
554.159	694.26351
554.628	672.09764
555.096	593.15178
555.565	588.98999
556.033	567.03315
556.502	519.99172
556.97	503.87614
557.438	451.86218
557.906	438.84686
558.374	409.76787
558.842	364.72267
559.31	306.5766
559.777	256.527
560.245	294.5886
560.712	317.62157
561.18	272.51026
561.647	310.58529
562.114	308.59293
562.581	338.70677
563.048	319.62549
563.514	242.51254
563.981	308.60121
564.448	311.59308
564.914	318.63193
565.381	382.73079
565.847	340.67723
566.313	275.55247
566.779	307.59171
567.245	317.63362
567.711	318.6508
568.176	274.52772
568.642	294.63328
569.108	345.72028
569.573	388.77104
570.038	393.68882
570.504	377.70569
570.969	387.81836
571.434	357.65504
571.899	387.7721
572.363	469.87533
572.828	449.85005
573.293	474.89058
573.757	437.82935
574.222	419.76998
574.686	401.74283
575.15	456.89054
575.614	452.85092
576.078	439.849
576.542	466.86952
577.006	502.91629
577.469	508.03123
577.933	453.82745
578.396	422.83508
578.86	491.94639
579.323	445.87421
579.786	442.78308
580.249	430.8075
580.712	490.98508
581.175	422.86793
581.637	472.89731
582.1	455.8248
582.563	471.83166
583.025	469.937
583.487	434.71783
583.95	454.79682
584.412	491.83987
584.874	424.85908
585.336	403.79991
585.797	435.7773
586.259	461.9035
586.721	438.85335
587.182	486.94193
587.643	389.74437
588.105	430.85052
588.566	436.7616
589.027	429.86027
589.488	386.74238
589.949	412.84011
590.41	346.56493
590.87	453.86181
591.331	470.83834
591.791	353.69085
592.252	355.68588
592.712	354.72546
593.172	354.67624
593.632	429.78638
594.092	375.70681
594.552	372.67586
595.011	356.69127
595.471	428.79899
595.931	461.84931
596.39	390.78694
596.849	414.80812
597.308	458.82369
597.768	393.84486
598.227	401.81564
598.685	451.86552
599.144	422.82648
599.603	431.85509
600.062	393.68882
600.52	428.79306
600.978	407.81238
601.437	400.7719
601.895	449.78576
602.353	480.87834
602.811	438.80794
603.269	447.8918
603.727	451.89853
604.184	428.80058
604.642	484.98019
605.099	502.95528
605.557	474.95863
606.014	483.84796
606.471	498.01734
606.928	519.89256
607.385	612.17829
607.842	777.35034
608.299	782.39243
608.755	763.41364
609.212	673.16054
609.668	612.06213
610.125	737.38372
610.581	794.45839
611.037	749.33182
611.493	568.09552
611.949	478.95476
612.405	523.84767
612.861	560.08213
613.316	519.02026
613.772	543.02089
614.227	588.1244
614.683	594.02864
615.138	562.07303
615.593	519.997
616.048	569.06724
616.503	549.11893
616.958	530.10242
617.412	538.05247
617.867	513.93661
618.321	576.97294
618.776	538.98699
619.23	490.96783
619.684	535.00729
620.138	555.07476
620.592	522.06501
621.046	521.02998
621.5	459.95401
621.954	543.0259
622.407	507.95612
622.861	425.89359
623.314	497.9644
623.768	471.94056
624.221	444.74985
624.674	430.85928
625.127	387.79505
625.58	445.8841
626.033	473.90425
626.485	383.80742
626.938	379.79898
627.39	413.84464
627.843	369.75945
628.295	411.83826
628.747	388.81921
629.199	348.70929
629.651	287.59281
630.103	317.65683
630.555	285.55116
631.006	331.70332
631.458	299.64363
631.909	353.736
632.361	281.60307
632.812	248.5303
633.263	304.60129
633.714	276.54719
634.165	265.5964
634.616	290.637
635.067	276.56997
635.518	267.59326
635.968	245.46199
636.419	245.49993
636.869	261.58065
637.319	245.53103
637.769	207.43793
638.219	256.57485
638.669	178.4043
639.119	250.57403
639.569	195.44731
640.019	183.40494
640.468	208.44246
640.918	205.47081
641.367	174.37497
641.816	216.46028
642.265	225.49475
642.714	184.40843
643.163	214.46948
643.612	138.31954
644.061	167.34061
644.51	207.45058
644.958	127.27175
645.406	183.42029
645.855	189.445
646.303	222.49646
646.751	150.3306
647.199	144.31831
647.647	162.36064
648.095	161.3573
648.543	180.3582
648.99	207.47407
649.438	162.3699
649.885	171.40935
650.333	194.36447
650.78	119.28084
651.227	133.31534
651.674	120.26803
652.121	147.34813
652.568	116.27573
653.015	168.41234
653.461	161.37199
653.908	142.32345
654.354	110.25845
654.801	99.22865
655.247	165.35397
655.693	143.36346
656.139	108.25493
656.585	144.33793
657.031	80.18451
657.477	103.2202
657.922	134.30276
658.368	143.34571
658.813	153.34942
659.259	105.24867
659.704	107.24634
660.149	123.28249
660.594	148.3446
661.039	108.24372
661.484	130.30651
661.929	147.33815
662.373	126.31246
662.818	124.30311
663.262	104.24787
663.707	113.28273
664.151	102.2472
664.595	125.29763
665.039	139.34085
665.483	138.34571
665.927	149.34618
666.371	66.15271
666.814	145.34194
667.258	112.26253
667.701	149.31937
668.145	125.30822
668.588	132.3205
669.031	57.13447
669.474	88.21167
669.917	113.25026
670.36	117.28797
670.803	143.3418
671.245	149.31233
671.688	134.32426
672.13	123.27456
672.573	166.4154
673.015	112.26806
673.457	113.24639
673.899	116.28007
674.341	103.24826
674.783	101.24178
675.225	94.23098
675.666	22.05354
676.108	100.21856
676.549	148.34813
676.991	82.18247
677.432	71.14376
677.873	95.22081
678.314	93.22272
678.755	134.32402
679.196	76.17549
679.637	112.27358
680.078	128.29933
680.518	124.28929
680.959	121.28933
681.399	124.30615
681.839	96.23423
682.28	62.15403
682.72	67.15505
683.16	93.23185
683.6	133.3035
684.039	133.27818
684.479	93.22873
684.919	39.09122
685.358	120.30365
685.798	102.2667
686.237	115.27844
686.676	171.39415
687.115	145.33941
687.554	106.25244
687.993	73.16383
688.432	116.26594
688.871	74.16979
689.309	103.24676
689.748	102.21594
690.186	151.35913
690.625	124.29066
691.063	88.21231
691.501	147.36127
691.939	92.23006
692.377	89.21816
692.815	79.19034
693.253	165.39393
693.69	105.23264
694.128	95.23097
694.565	116.27721
695.003	125.31625
695.44	93.22
695.877	63.14891
696.314	116.25159
696.751	135.30856
697.188	62.14442
697.625	137.31515
698.061	76.18391
698.498	170.40812
698.934	116.27986
699.371	53.12649
699.807	55.13197
700.243	82.19881
700.679	118.26857
701.115	127.29972
701.551	117.27645
701.987	132.29775
702.422	71.17036
702.858	78.18754
703.294	142.32175
703.729	105.25777
704.164	61.14859
704.599	93.20931
705.035	50.11389
705.47	87.21279
705.904	92.2159
706.339	142.33037
706.774	68.1612
707.209	98.22746
707.643	121.29087
708.078	61.15019
708.512	63.15882
708.946	71.1721
709.38	125.29649
709.814	140.32006
710.248	101.24721
710.682	105.25069
711.116	36.08718
711.549	96.24827
711.983	78.18219
712.416	127.30065
712.85	116.28924
713.283	102.24264
713.716	139.34803
714.149	118.2821
714.582	80.18186
715.015	141.35176
715.448	102.25774
715.881	117.25793
716.313	105.24723
716.746	94.22266
717.178	118.28393
717.61	102.25921
718.043	130.32332
718.475	108.26253
718.907	154.38746
719.339	90.20567
719.77	69.16518
720.202	95.24095
720.634	81.19833
721.065	94.22421
721.497	118.2893
721.928	111.2727
722.359	54.13166
722.79	107.25673
723.221	123.30919
723.652	119.30673
724.083	95.21591
724.514	134.30782
724.945	113.26627
725.375	55.1293
725.806	137.34092
726.236	136.34695
726.666	107.25429
727.096	107.26316
727.526	100.25431
727.956	112.25543
728.386	145.3553
728.816	112.28311
729.246	68.16666
729.675	115.28284
730.105	152.37183
730.534	108.25365
730.964	121.30558
731.393	154.38036
731.822	153.38777
732.251	115.29157
732.68	132.31098
733.109	114.28095
733.537	112.27072
733.966	162.39864
734.395	133.30681
734.823	140.31567
735.251	128.30776
735.68	178.44092
736.108	163.40856
736.536	116.27414
736.964	134.31041
737.392	142.35342
737.82	130.3115
738.247	160.38046
738.675	145.34525
739.102	125.31128
739.53	152.38366
739.957	143.36526
740.384	192.4674
740.811	185.46269
741.238	187.4502
741.665	147.3391
742.092	209.49093
742.519	131.32278
742.945	173.41097
743.372	174.4258
743.798	196.49577
744.225	161.37967
744.651	142.35419
745.077	163.40251
745.503	209.50107
745.929	178.42211
746.355	232.56497
746.781	169.41441
747.207	166.38544
747.632	130.31553
748.058	199.48851
748.483	197.447
748.908	167.41057
749.334	195.47159
749.759	207.47959
750.184	175.41188
750.609	218.52532
751.033	235.54359
751.458	270.58833
751.883	223.54133
752.307	199.46087
752.732	180.4431
753.156	205.49727
753.58	238.55239
754.005	236.58521
754.429	179.41554
754.853	226.54748
755.277	219.50799
755.7	241.58327
756.124	188.45937
756.548	247.57021
756.971	273.64649
757.394	245.61517
757.818	240.60229
758.241	249.61507
758.664	257.63087
759.087	181.39867
759.51	272.65642
759.933	224.52709
760.356	233.58336
760.778	253.60515
761.201	280.65961
761.623	262.61793
762.046	289.66317
762.468	312.72153
762.89	282.67386
763.312	282.66638
763.734	244.57235
764.156	254.60998
764.578	280.62357
765	313.73432
765.421	199.4959
765.843	244.62331
766.264	265.62173
766.686	273.66468
767.107	250.5894
767.528	224.55221
767.949	242.59965
768.37	239.57189
768.791	283.66214
769.212	247.60318
769.632	183.41995
770.053	247.63308
770.473	262.61841
770.894	274.66474
771.314	269.62322
771.734	240.54489
772.154	239.59816
772.575	256.5765
772.994	228.50546
773.414	266.61956
773.834	213.52132
774.254	245.58356
774.673	257.6079
775.093	190.46201
775.512	175.42482
775.931	255.62781
776.351	220.53375
776.77	201.4817
777.189	212.49361
777.607	173.43534
778.026	231.56096
778.445	179.44055
778.864	246.61379
779.282	170.40346
779.701	251.61454
780.119	155.38697
780.537	190.46547
780.955	221.54932
781.373	215.51976
781.791	176.38937
782.209	186.42161
782.627	155.40326
783.045	147.33491
783.462	200.50066
783.88	147.376
784.297	174.43085
784.715	139.35329
785.132	182.4331
785.549	137.33955
785.966	167.4139
786.383	140.34108
786.8	181.41336
787.217	178.41494
787.633	134.33133
788.05	215.49911
788.466	190.43994
788.883	139.35079
789.299	142.33857
789.715	153.36738
790.131	170.41617
790.547	130.32203
790.963	176.42957
791.379	133.33313
791.795	109.24803
792.21	144.33317
792.626	146.34262
793.041	136.33244
793.457	135.33055
793.872	129.3009
794.287	91.21685
794.702	146.35569
795.117	121.29836
795.532	84.21029
795.947	134.31974
796.362	146.3449
796.776	170.39223
797.191	116.28219
797.605	47.1111
798.02	87.21152
798.434	129.28509
798.848	77.18973
799.262	84.20816
799.676	187.44747
800.09	117.28595
800.504	94.22764
800.918	67.15579
801.331	107.27906
801.745	61.14083
802.158	70.17524
802.572	123.29613
802.985	126.30215
803.398	128.30261
803.811	122.31124
804.224	146.35901
804.637	62.14822
805.05	130.29863
805.462	107.26161
805.875	87.22488
806.288	25.0609
806.7	76.19101
807.112	83.19246
807.525	90.22164
807.937	80.19759
808.349	62.15572
808.761	74.18217
809.173	87.21049
809.584	93.22924
809.996	36.08879
810.408	83.21372
810.819	87.20429
811.231	154.39204
811.642	202.46977
812.053	340.7672
812.464	402.89558
812.875	326.79561
813.286	224.56113
813.697	206.46998
814.108	109.26471
814.519	91.20246
814.929	105.26631
815.34	93.22484
815.75	89.22541
816.16	73.18199
816.571	95.24572
816.981	96.2259
817.391	56.13572
817.801	49.1222
818.211	101.23966
818.62	13.03165
819.03	64.15715
819.44	86.22402
819.849	47.11895
820.259	79.20193
820.668	37.09157
821.077	44.10979
821.486	64.15447
821.895	46.11424
822.304	75.19847
822.713	47.1117
823.122	47.11781
823.531	46.10964
823.939	88.21375
824.348	95.23002
824.756	92.22956
825.164	89.22324
825.573	31.07832
825.981	76.18833
826.389	100.24989
826.797	65.16293
827.205	27.06253
827.612	89.21889
828.02	44.10386
828.428	59.15049
828.835	63.16588
829.243	96.22775
829.65	52.12966
830.057	64.15552
830.464	75.18255
830.871	98.23348
831.278	79.19063
831.685	56.12544
832.092	117.28393
832.499	55.12079
832.905	103.25911
833.312	57.13044
833.718	49.12251
834.124	51.11704
834.531	67.16891
834.937	80.20481
835.343	81.19501
835.749	77.17968
836.155	55.14423
836.561	31.07675
836.966	52.12754
837.372	86.21809
837.777	75.1865
838.183	41.09175
838.588	61.15158
838.993	101.24436
839.399	40.09825
839.804	19.0467
840.209	70.17795
840.613	58.12933
841.018	70.17707
841.423	30.0774
841.828	42.10662
842.232	90.22196
842.637	61.14408
843.041	26.06705
843.445	43.10825
843.849	48.11917
844.253	96.22687
844.657	61.15362
845.061	67.15203
845.465	28.06809
845.869	88.20361
846.272	38.09296
846.676	70.16914
847.079	57.14503
847.483	94.23319
847.886	91.22033
848.289	34.0911
848.692	55.13945
849.095	113.26886
849.498	121.30351
849.901	31.0716
850.304	62.14822
850.707	73.18574
851.109	95.23898
851.512	50.12313
851.914	10.02542
852.316	58.14677
852.718	27.07008
853.121	57.13978
853.523	-3.0071
853.925	33.08645
854.326	19.04785
854.728	36.09294
855.13	24.06226
855.531	32.07688
855.933	73.17489
856.334	37.09261
856.736	17.03843
857.137	0
857.538	55.13836
857.939	27.06709
858.34	77.18707
858.741	43.11268
859.142	49.11797
859.542	43.11371
859.943	25.06251
860.343	8.01999
860.744	67.16326
861.144	50.12218
861.544	5.01214
861.945	30.07683
862.345	54.1322
862.745	-17.04283
863.145	74.17644
863.544	78.19639
863.944	32.07601
864.344	63.15638
864.743	76.18799
865.143	44.11328
865.542	30.06999
865.941	52.12886
866.34	37.08901
866.74	61.16358
867.139	41.09849
867.537	83.21052
867.936	44.1062
868.335	47.1198
868.734	53.13552
869.132	41.0956
869.531	56.13552
869.929	28.06422
870.327	20.04829
870.726	23.05771
871.124	65.15174
871.522	42.10726
871.92	63.15523
872.318	80.19476
872.715	75.18507
873.113	7.01722
873.511	61.15185
873.908	-2.0051
874.306	17.04258
874.703	49.12278
875.1	70.17865
875.497	39.09383
875.894	5.01237
876.291	96.23388
876.688	50.12908
877.085	33.07954
877.482	92.22881
877.878	37.08939
878.275	24.06131
878.671	71.1577
879.068	49.11846
879.464	-5.01222
879.86	9.02148
880.256	69.16989
880.652	53.13486
881.048	66.16325
881.444	63.14978
881.84	43.10953
882.236	68.1706
882.631	41.10091
883.027	69.16669
883.422	38.09746
883.817	15.03796
884.213	74.18925
884.608	29.07146
885.003	44.10632
885.398	35.08792
885.793	33.08316
886.188	10.02506
886.582	118.29934
886.977	43.10231
887.371	72.18155
887.766	16.04007
888.16	54.13479
888.554	82.20179
888.949	35.0882
889.343	63.15369
889.737	7.0188
890.131	53.13299
890.525	38.09746
890.918	53.13342
891.312	46.11027
891.706	29.07641
892.099	78.19766
892.492	29.06294
892.886	16.03943
893.279	63.16024
893.672	65.16515
894.065	42.10541
894.458	61.15323
894.851	85.20712
895.244	11.02831
895.637	23.05573
896.029	43.10537
896.422	39.09557
896.814	38.09475
897.206	2.00481
897.599	78.19209
897.991	62.1497
898.383	38.09008
898.775	-8.01829
899.167	-19.04495
899.559	49.12415
899.951	71.16685
900.342	95.23984
900.734	0
901.125	73.19091
901.517	55.13497
901.908	52.12474
902.299	4.00987
902.69	29.06876
903.082	47.11397
903.473	17.04099
903.863	29.07431
904.254	20.04673
904.645	71.17604
905.036	14.03415
905.426	61.13948
905.817	29.07148
906.207	10.02403
906.597	37.08681
906.987	69.17835
907.378	33.08376
907.768	49.12962
908.158	35.08564
908.547	42.10869
908.937	46.11818
909.327	13.03181
909.717	89.22453
910.106	17.04112
910.495	61.15207
910.885	74.18672
911.274	52.12999
911.663	77.1946
912.052	44.10876
912.441	21.0537
912.83	9.02084
913.219	56.14647
913.608	40.09822
913.997	-8.02027
914.385	46.11006
914.774	59.1435
915.162	23.05512
915.55	31.07531
915.939	51.12876
916.327	53.13227
916.715	12.0308
917.103	95.23201
917.491	95.23322
917.878	42.10347
918.266	58.15026
918.654	23.05906
919.041	32.08381
919.429	38.08994
919.816	58.14687
920.203	29.07064
920.591	44.10927
920.978	20.04927
921.365	55.14423
921.752	40.09559
922.139	48.10433
922.525	22.05314
922.912	60.14612
923.299	4.01003
923.685	42.10974
924.072	44.10164
924.458	5.01249
924.844	14.03488
925.231	34.07942
925.617	-14.03602
926.003	62.15817
926.389	23.05832
926.774	28.07126
927.16	63.15615
927.546	19.04877
927.931	65.16181
928.317	59.13572
928.702	57.13473
929.088	36.08541
929.473	68.1725
929.858	5.01219
930.243	-5.01213
930.628	30.07328
931.013	8.01998
931.398	97.22108
931.783	69.18112
932.167	43.10529
932.552	54.13523
932.937	38.09455
933.321	29.07306
933.705	47.11857
934.09	56.1414
934.474	12.02872
934.858	29.0755
935.242	26.06056
935.626	41.10513
936.009	9.0241
936.393	37.09438
936.777	45.11535
937.16	21.05492
937.544	68.15971
937.927	-7.01794
938.311	53.12934
938.694	56.14797
939.077	4.00966
939.46	88.21463
939.843	43.0899
940.226	-4.01036
940.609	9.02084
940.991	59.14996
941.374	45.1101
941.757	52.12829
942.139	26.0587
942.522	40.09475
942.904	23.05558
943.286	89.22461
943.668	66.17051
944.05	36.08892
944.432	59.14538
944.814	63.15483
945.196	-9.02218
945.578	4.00959
945.959	64.14961
946.341	95.23132
946.722	44.10342
947.104	23.05527
947.485	23.05382
947.866	46.11599
948.247	51.12866
948.628	50.122
949.009	45.11535
949.39	22.05506
949.771	66.15307
950.152	36.08859
950.532	-10.02487
950.913	19.04611
951.293	42.11361
951.674	-19.04656
952.054	14.03492
952.434	-12.03013
952.814	36.0859
953.194	61.15936
953.574	81.19841
953.954	23.05491
954.334	42.10484
954.714	32.07825
955.093	99.24124
955.473	31.07779
955.853	4.01044
956.232	66.18044
956.611	43.10329
956.99	43.10821
957.37	17.04358
957.749	53.12639
958.128	-4.01018
958.506	23.05994
958.885	33.08355
959.264	10.02469
959.643	55.12505
960.021	10.02496
960.4	31.07054
960.778	61.14997
961.156	10.02525
961.535	63.14649
961.913	30.07049
962.291	-4.01036
962.669	25.06361
963.047	37.09464
963.424	29.07428
963.802	42.10343
964.18	46.11649
964.557	45.10377
964.935	81.19079
965.312	18.04713
965.69	55.13761
966.067	72.17463
966.444	85.20813
966.821	39.10074
967.198	55.13332
967.575	84.20526
967.952	59.13881
968.329	80.19359
968.705	42.09024
969.082	56.14347
969.458	9.02176
969.835	48.1169
970.211	33.08494
970.587	58.1442
970.963	48.12319
971.339	44.11501
971.715	55.13722
972.091	67.16448
972.467	73.18133
972.843	22.05488
973.219	82.19574
973.594	30.07874
973.97	61.14491
974.345	-2.00483
974.721	32.07776
975.096	34.08252
975.471	71.16776
975.846	47.11299
976.221	30.07645
976.596	-5.01211
976.971	54.13323
977.346	28.06548
977.72	43.10968
978.095	40.10355
978.469	53.12644
978.844	58.14562
979.218	18.04341
979.593	55.13166
979.967	62.15071
980.341	18.04171
980.715	95.23744
981.089	32.08037
981.463	40.09203
981.837	34.08333
982.21	73.16914
982.584	12.02919
982.957	19.04771
983.331	28.06648
983.704	32.07889
984.078	4.00994
984.451	106.2621
984.824	-11.02709
985.197	50.12145
985.57	20.05043
985.943	82.20134
986.316	64.15685
986.688	10.0243
987.061	38.08928
987.434	47.12254
987.806	51.12367
988.179	14.03327
988.551	67.16945
988.923	29.07169
989.295	70.17429
989.667	8.01926
990.039	1.00249
990.411	54.1242
990.783	81.18536
991.155	-25.06092
991.527	75.18385
991.898	52.12952
992.27	32.07941
992.641	47.11798
993.012	74.17332
993.384	51.12162
993.755	60.15269
994.126	61.14642
994.497	46.11299
994.868	23.05312
995.239	24.05845
995.61	28.07073
995.98	-2.00491
996.351	0
996.722	35.08141
997.092	5.01194
997.462	15.03528
997.833	40.09501
998.203	58.14041
998.573	57.14174
998.943	42.09864
999.313	-18.04369
999.683	11.02659
1000.053	71.16268
1000.423	29.07075
1000.792	37.0961
1001.162	9.02232
1001.531	59.14522
1001.901	44.10979
1002.27	25.05617
1002.639	34.08711
1003.009	47.11183
1003.378	31.07952
1003.747	45.10641
1004.116	29.06966
1004.485	17.04088
1004.853	46.11661
1005.222	44.11106
1005.591	55.13046
1005.959	3.00682
1006.328	27.06104
1006.696	10.0243
1007.064	86.2149
1007.433	24.06026
1007.801	56.1373
1008.169	63.15871
1008.537	56.12384
1008.905	40.09336
1009.273	56.13816
1009.64	43.1027
1010.008	42.10026
1010.375	71.17172
1010.743	89.20392
1011.11	48.11361
1011.478	64.15796
1011.845	5.01186
1012.212	10.02282
1012.579	41.1008
1012.946	71.16828
1013.313	94.2218
1013.68	31.06994
1014.047	34.08125
1014.414	34.08054
1014.78	37.09214
1015.147	81.19472
1015.513	37.08935
1015.88	80.20345
1016.246	47.11607
1016.612	68.15508
1016.978	35.08599
1017.344	40.09901
1017.71	71.17243
1018.076	25.05923
1018.442	59.1515
1018.808	24.06026
1019.174	47.11794
1019.539	94.21446
1019.905	14.03324
1020.27	33.08167
1020.636	73.17422
1021.001	63.15041
1021.366	29.0699
1021.731	46.11835
1022.096	-1.00254
1022.461	16.03811
1022.826	59.13995
1023.191	26.06847
1023.556	29.06823
1023.92	41.10095
1024.285	55.13407
1024.649	65.1588
1025.014	83.20429
1025.378	58.14557
1025.742	58.14378
1026.107	64.14431
1026.471	52.12132
1026.835	63.15575
1027.199	20.0484
1027.562	71.16431
1027.926	80.19447
1028.29	44.11142
1028.654	63.14452
1029.017	47.11555
1029.381	27.06476
1029.744	44.11229
1030.107	37.08773
1030.471	39.09354
1030.834	17.03892
1031.197	73.17502
1031.56	41.09688
1031.923	-2.00522
1032.286	38.08942
1032.648	72.17141
1033.011	28.06453
1033.374	67.1569
1033.736	34.0896
1034.099	26.06363
1034.461	12.03051
1034.823	30.07494
1035.185	44.11083
1035.548	22.0538
1035.91	42.10072
1036.272	19.0435
1036.634	55.13437
1036.995	69.16152
1037.357	23.05621
1037.719	55.13357
1038.08	62.14681
1038.442	10.02391
1038.803	45.1081
1039.165	-15.03827
1039.526	42.1016
1039.887	20.04811
1040.248	48.11825
1040.609	30.07437
1040.97	54.13181
1041.331	10.02549
1041.692	6.01412
1042.053	48.10929
1042.413	37.08641
1042.774	22.05376
1043.134	79.18695
1043.495	51.12811
1043.855	27.06574
1044.215	16.03994
1044.576	17.04088
1044.936	59.13496
1045.296	89.22043
1045.656	59.14447
1046.016	56.13495
1046.375	9.02199
1046.735	21.04786
1047.095	48.11234
1047.454	81.17039
1047.814	48.11537
1048.173	57.13593
1048.533	1.00231
1048.892	-14.03399
1049.251	51.12793
1049.61	-4.00994
1049.969	20.04739
1050.328	59.12761
1050.687	41.09987
1051.046	14.0343
1051.405	42.10457
1051.763	-8.0186
1052.122	-3.00755
1052.48	0
1052.839	48.11291
1053.197	34.08023
1053.555	88.19899
1053.914	64.15604
1054.272	36.08722
1054.63	41.10035
1054.988	-7.0168
1055.345	-4.00871
1055.703	39.094
1056.061	40.10302
1056.419	8.02085
1056.776	53.12838
1057.134	14.03262
1057.491	41.10277
1057.848	53.13179
1058.206	50.11752
1058.563	32.07077
1058.92	28.06478
1059.277	27.06685
1059.634	61.14313
1059.991	42.10072
1060.348	-4.00913
1060.704	-20.04827
1061.061	93.21411
1061.418	-21.05157
1061.774	68.16721
1062.131	32.08481
1062.487	20.04701
1062.843	12.03011
1063.199	41.10207
1063.555	16.0373
1063.911	12.0305
1064.267	71.14732
1064.623	12.02933
1064.979	98.22989
1065.335	50.11944
1065.691	32.07691
1066.046	30.0662
1066.402	33.07518
1066.757	60.15107
1067.112	37.09097
1067.468	-18.04303
1067.823	64.15336
1068.178	53.12804
1068.533	74.17847
1068.888	67.15947
1069.243	48.11843
1069.598	52.12621
1069.952	-24.05482
1070.307	-18.04508
1070.662	-4.00959
1071.016	7.01581
1071.371	19.04346
1071.725	65.15495
1072.079	29.06998
1072.434	18.04397
1072.788	19.04548
1073.142	86.20999
1073.496	0
1073.85	48.11128
1074.203	30.07301
1074.557	39.10383
1074.911	85.20138
1075.265	32.0746
1075.618	72.17495
1075.971	26.06209
1076.325	38.09671
1076.678	-7.01618
1077.031	-57.1317
1077.385	44.09698
1077.738	18.04087
1078.091	-36.08323
1078.444	49.11371
1078.796	14.03455
1079.149	43.10701
1079.502	-7.01671
1079.855	21.04922
1080.207	81.19826
1080.56	16.04156
1080.912	59.14329
1081.264	56.1346
1081.617	14.03432
1081.969	44.11102
1082.321	12.02949
1082.673	27.06186
1083.025	-10.02398
1083.377	18.03887
1083.728	56.13039
1084.08	20.05016
1084.432	58.13956
1084.783	58.13558
1085.135	59.14752
1085.486	-39.09076
1085.838	1.00248
1086.189	11.02687
1086.54	59.14054
1086.891	-1.00255
1087.242	13.03184
1087.593	47.1144
1087.944	46.1041
1088.295	75.16949
1088.646	-12.0294
1088.996	16.03876
1089.347	9.02223
1089.698	-12.02868
1090.048	70.18103
1090.398	12.02802
1090.749	43.10294
1091.099	2.00507
1091.449	55.13677
1091.799	39.09776
1092.149	-28.06921
1092.499	41.10009
1092.849	8.02047
1093.199	58.14504
1093.548	-9.02185
1093.898	24.06028
1094.248	33.08497
1094.597	6.01542
1094.947	18.04823
1095.296	26.06443
1095.645	45.11704
1095.994	2.00484
1096.343	25.06314
1096.692	32.08424
1097.041	4.0109
1097.39	52.13027
1097.739	53.13756
1098.088	79.21045
1098.437	1.00265
1098.785	33.08913
1099.134	74.19553
1099.482	40.11009
1099.83	38.09997
1100.179	35.09144
1100.527	16.04272
1100.875	13.03455
1101.223	10.02671
1101.571	5.0139
1101.919	-12.03165
1102.267	39.10989
1102.615	4.01286
1102.962	26.08356
1103.31	19.06095
1103.658	29.09321
