Data from N2 R5 sample 3_Subt2__5__14-05-35-194.txt Node

Date: Fri Aug 29 14:05:35 PDT 2025
User: uwsun
Spectrometer: HDX01956
Trigger mode: 0
Integration Time (sec): 5.000000E-1
Scans to average: 1
Nonlinearity correction enabled: true
Boxcar width: 0
Storing dark spectrum: false
XAxis mode: Wavelengths
Number of Pixels in Spectrum: 2068
>>>>>Begin Spectral Data<<<<<
194.03	472.22413
194.578	507.49629
195.127	516.4956
195.676	464.35948
196.225	495.20045
196.773	605.4927
197.321	830.91338
197.87	1080.13236
198.418	1065.07577
198.966	1044.06018
199.513	1002.88092
200.061	1020.94666
200.609	1093.19874
201.156	1034.6275
201.704	1042.96381
202.251	1033.08259
202.798	1026.0227
203.345	1093.00508
203.892	1111.06367
204.438	1091.91478
204.985	1099.87464
205.532	1088.14519
206.078	1125.01659
206.624	1095.96994
207.17	1136.894
207.716	1151.00973
208.262	1146.5433
208.808	1085.94892
209.354	1112.96751
209.899	1161.15896
210.445	1134.04368
210.99	1091.91378
211.535	1164.95996
212.08	1127.88868
212.625	1167.12739
213.17	1172.16927
213.715	1058.67983
214.259	1155.92739
214.804	1162.0922
215.348	1229.9634
215.892	1133.97319
216.436	1222.9981
216.98	1185.84347
217.524	1156.96012
218.068	1188.17722
218.612	1104.06835
219.155	1053.82862
219.698	1012.8068
220.242	1082.02106
220.785	1032.7944
221.328	1025.93595
221.871	1072.05449
222.414	1017.93017
222.956	975.77503
223.499	956.61817
224.041	1015.77822
224.583	1060.67342
225.126	974.60077
225.668	934.74445
226.21	989.9006
226.751	957.55314
227.293	969.67169
227.835	1016.86803
228.376	1069.82427
228.918	1006.94674
229.459	972.84596
230	977.75984
230.541	994.71813
231.082	993.82064
231.622	1040.77603
232.163	1011.83979
232.704	1000.87715
233.244	930.77891
233.784	1012.88391
234.324	942.5317
234.864	1023.71003
235.404	990.78013
235.944	1061.86488
236.484	1059.98666
237.023	1015.78566
237.563	1031.75449
238.102	1043.82551
238.641	1018.9522
239.18	1035.7774
239.719	1022.9392
240.258	1068.74521
240.797	1026.82245
241.335	1022.88097
241.874	1051.40461
242.412	1089.91424
242.95	1002.77879
243.488	1039.73782
244.026	1081.80145
244.564	1099.58256
245.102	1027.68027
245.64	1031.85641
246.177	981.62706
246.715	1107.94193
247.252	1040.7542
247.789	1025.36055
248.326	1024.81139
248.863	1053.65421
249.4	1114.81059
249.936	1060.53504
250.473	1096.83903
251.009	1100.79872
251.546	1088.70307
252.082	1090.69539
252.618	1113.74895
253.154	1036.82888
253.69	1003.65181
254.226	1113.91283
254.761	1114.7712
255.297	1012.59822
255.832	1070.83624
256.367	1126.89572
256.903	1077.67555
257.438	1091.85199
257.972	1110.74472
258.507	1067.74502
259.042	1104.68043
259.576	1146.68506
260.111	1187.9196
260.645	1101.67336
261.179	1117.84848
261.713	1151.7747
262.247	1128.84164
262.781	1105.59323
263.315	1091.93075
263.849	1160.07267
264.382	1150.85895
264.915	1187.92713
265.449	1128.94127
265.982	1204.88787
266.515	1149.99066
267.048	1052.55733
267.58	1128.71921
268.113	1141.68533
268.646	1085.935
269.178	1161.77661
269.71	1175.7517
270.243	1149.83077
270.775	1161.11111
271.307	1168.988
271.838	1198.99348
272.37	1210.07845
272.902	1203.87381
273.433	1156.72474
273.965	1128.95157
274.496	1176.0745
275.027	1139.00845
275.558	1209.02997
276.089	1087.89879
276.62	1252.22971
277.15	1232.1153
277.681	1168.72496
278.211	1232.09511
278.741	1158.72359
279.272	1243.89622
279.802	1234.13898
280.332	1224.95814
280.861	1197.99017
281.391	1222.85463
281.921	1206.00792
282.45	1238.14369
282.98	1246.27135
283.509	1225.83776
284.038	1241.88422
284.567	1293.01277
285.096	1240.03784
285.625	1286.9098
286.153	1227.93025
286.682	1254.8934
287.21	1245.01622
287.739	1256.98012
288.267	1257.03805
288.795	1305.35844
289.323	1236.91272
289.851	1286.98368
290.378	1273.85562
290.906	1258.01976
291.433	1309.17507
291.961	1251.84231
292.488	1333.19224
293.015	1321.00093
293.542	1347.2386
294.069	1332.13459
294.596	1337.1783
295.122	1366.08377
295.649	1340.85235
296.175	1346.11956
296.702	1404.17376
297.228	1382.16052
297.754	1364.9028
298.28	1403.9547
298.806	1378.09483
299.332	1374.84894
299.857	1411.93729
300.383	1434.32388
300.908	1357.07297
301.433	1413.13777
301.958	1408.01275
302.483	1416.2154
303.008	1458.24896
303.533	1441.40629
304.058	1466.10705
304.582	1448.0616
305.107	1414.34235
305.631	1431.97519
306.155	1526.06905
306.679	1504.05731
307.203	1512.0458
307.727	1443.06528
308.251	1466.21023
308.775	1491.06753
309.298	1530.12304
309.822	1621.39394
310.345	1661.19195
310.868	1620.18435
311.391	1562.2551
311.914	1584.30414
312.437	1642.05725
312.96	1566.07881
313.482	1602.11761
314.005	1656.35024
314.527	1685.52566
315.049	1770.46176
315.571	1618.88103
316.093	1758.33708
316.615	1693.18782
317.137	1752.88093
317.659	1819.30393
318.18	1787.25318
318.702	1803.0977
319.223	1758.68354
319.744	1848.96748
320.265	1793.19146
320.786	1816.26011
321.307	1877.32433
321.828	1879.97742
322.348	1994.13389
322.869	1982.10566
323.389	1954.04194
323.909	1991.02248
324.43	2095.26514
324.95	2051.9824
325.47	2036.22662
325.989	2059.05768
326.509	2056.77633
327.029	2186.86026
327.548	2095.82812
328.067	2124.0801
328.587	2221.2633
329.106	2144.8542
329.625	2217.5386
330.144	2232.87955
330.662	2156.8636
331.181	2309.91267
331.7	2333.89969
332.218	2369.5741
332.736	2398.86389
333.255	2504.79719
333.773	2412.86478
334.291	2614.10996
334.808	2499.56364
335.326	2584.59061
335.844	2664.61189
336.361	2636.98061
336.879	2567.61304
337.396	2670.71915
337.913	2739.47958
338.43	2855.33067
338.947	2828.56193
339.464	2737.12568
339.981	2781.48996
340.497	2911.65691
341.014	2982.51741
341.53	2923.16538
342.046	2924.51186
342.562	3044.57093
343.078	2994.27279
343.594	3115.27363
344.11	3195.19471
344.626	3228.41294
345.141	3225.93334
345.657	3327.89134
346.172	3197.15916
346.687	3261.87987
347.202	3222.77809
347.717	3306.9861
348.232	3444.11622
348.747	3421.71149
349.261	3418.41093
349.776	3536.69583
350.29	3468.85913
350.805	3634.86955
351.319	3564.58984
351.833	3542.40966
352.347	3610.5349
352.861	3542.50197
353.374	3714.40292
353.888	3646.5969
354.401	3788.26834
354.915	3722.12175
355.428	3929.44053
355.941	3871.16585
356.454	3981.03377
356.967	3943.2051
357.48	4019.04159
357.993	3969.318
358.505	3931.24949
359.018	4212.09263
359.53	4215.97156
360.042	4183.72022
360.554	4251.98514
361.066	4227.96527
361.578	4267.55868
362.09	4216.87386
362.602	4261.54007
363.113	4297.67063
363.625	4489.45834
364.136	4525.38074
364.647	4440.44323
365.158	4586.45833
365.669	4586.54111
366.18	4662.44324
366.691	4576.26725
367.201	4649.44066
367.712	4697.24054
368.222	4712.22985
368.733	4861.02582
369.243	4915.0311
369.753	4988.12057
370.263	5174.14853
370.773	5090.21022
371.282	5128.06717
371.792	5238.92252
372.301	5482.03901
372.811	5530.16787
373.32	5429.87858
373.829	5659.00898
374.338	5917.17745
374.847	6141.38393
375.356	6033.28019
375.865	6456.10195
376.373	6867.75939
376.882	7048.74896
377.39	6955.84107
377.898	7043.30547
378.407	7559.42626
378.915	7999.49746
379.423	8261.37601
379.93	8560.5623
380.438	8800.20024
380.946	9263.04428
381.453	9651.4906
381.96	9955.50234
382.468	10580.68337
382.975	11429.74224
383.482	11819.92069
383.989	11838.4554
384.495	12357.19351
385.002	12884.29288
385.509	13668.53588
386.015	14301.92435
386.521	15189.42127
387.028	15690.13417
387.534	16268.81655
388.04	16950.39659
388.546	17098.05338
389.051	17788.60726
389.557	19499.25988
390.063	21480.60613
390.568	22078.11944
391.073	22246.12179
391.578	23259.45296
392.084	23644.4304
392.589	24242.04217
393.093	25527.90843
393.598	28223.05944
394.103	31238.68414
394.607	34384.46385
395.112	37054.90056
395.616	38821.59847
396.12	41462.73628
396.624	43481.54368
397.128	43006.60169
397.632	41414.05101
398.136	39172.79427
398.639	36273.96993
399.143	32503.66402
399.646	28888.45294
400.15	25083.82847
400.653	20124.16724
401.156	13866.23708
401.659	5169.95759
402.162	1054.15589
402.664	0
403.167	0
403.67	0
404.172	0
404.674	0
405.176	0
405.678	0
406.18	0
406.682	0
407.184	0
407.686	0
408.187	0
408.688	0
409.19	0
409.691	0
410.192	0
410.693	0
411.194	435.30976
411.694	4082.94878
412.195	8864.71461
412.696	12089.80453
413.196	12760.96929
413.696	12863.67595
414.196	13703.56671
414.696	17261.84252
415.196	21764.24417
415.696	29583.19008
416.196	36460.31858
416.695	40057.39798
417.195	41392.74103
417.694	42311.08144
418.194	43882.52025
418.693	44704.85811
419.192	45402.14938
419.691	45678.73777
420.19	46397.77183
420.688	47237.71801
421.187	47797.94428
421.685	48886.50471
422.184	44930.77751
422.682	39163.08504
423.18	32777.44658
423.678	28836.93133
424.176	26675.99235
424.674	24908.47039
425.172	24038.08691
425.669	22588.83094
426.167	21420.50026
426.664	19530.61059
427.161	17814.2435
427.659	16423.13961
428.156	15325.55015
428.652	14458.65791
429.149	13582.30506
429.646	13296.20841
430.143	12666.54197
430.639	11954.24575
431.135	10938.65145
431.632	10604.74628
432.128	9930.53123
432.624	9201.5607
433.12	8796.72645
433.616	8537.10632
434.111	8177.56981
434.607	7857.62395
435.103	7774.53777
435.598	7716.15162
436.093	7380.05205
436.588	6882.80677
437.083	6650.21693
437.578	6348.65757
438.073	6050.26869
438.568	5812.09817
439.062	5749.05849
439.557	5445.96263
440.051	5282.888
440.546	5002.87666
441.04	4886.00943
441.534	4941.18707
442.028	4813.1345
442.522	4603.19239
443.015	4487.04469
443.509	4516.37011
444.002	4341.44876
444.496	4269.19838
444.989	4257.55416
445.482	4148.67304
445.975	4248.31071
446.468	4235.22717
446.961	4139.28351
447.454	3936.57314
447.947	3924.69821
448.439	3851.92181
448.931	3699.70917
449.424	3813.14747
449.916	3665.08541
450.408	3697.78376
450.9	3514.16417
451.392	3470.38549
451.884	3409.1344
452.375	3305.43184
452.867	3348.19603
453.358	3239.19139
453.849	3209.04722
454.341	3248.23165
454.832	3088.1849
455.323	3132.60557
455.814	3082.47588
456.304	3005.54347
456.795	3001.53686
457.285	2942.55457
457.776	3043.62963
458.266	2806.81457
458.756	2916.87988
459.247	2703.89293
459.737	2659.93107
460.226	2642.7666
460.716	2671.00702
461.206	2519.12148
461.695	2494.34142
462.185	2537.10383
462.674	2511.06242
463.163	2483.95387
463.653	2422.8162
464.142	2355.29321
464.63	2370.40464
465.119	2212.21328
465.608	2250.21783
466.096	2286.08831
466.585	2191.32853
467.073	2136.47707
467.561	2202.50081
468.05	2181.40407
468.538	2153.62575
469.026	2100.5411
469.513	1994.14555
470.001	2001.3746
470.489	1941.51852
470.976	1982.48274
471.463	1874.7552
471.951	1847.7974
472.438	1706.53868
472.925	1707.52649
473.412	1705.7541
473.899	1663.53685
474.385	1648.74802
474.872	1647.57811
475.359	1677.75094
475.845	1506.25966
476.331	1535.4296
476.817	1488.7255
477.303	1438.56604
477.789	1459.69185
478.275	1375.72214
478.761	1332.64381
479.247	1443.53688
479.732	1345.73567
480.218	1329.88
480.703	1293.73133
481.188	1284.37245
481.673	1248.50742
482.158	1165.26945
482.643	1246.81317
483.128	1161.44598
483.612	1183.542
484.097	1169.66532
484.581	1138.52238
485.066	1095.57186
485.55	1022.29407
486.034	1086.32753
486.518	968.38027
487.002	938.43419
487.486	928.43225
487.969	928.43561
488.453	946.54684
488.936	886.25799
489.42	981.33211
489.903	909.51637
490.386	867.81539
490.869	930.27605
491.352	928.50548
491.835	787.06035
492.318	822.2198
492.8	770.04383
493.283	755.33766
493.765	751.28232
494.247	764.23862
494.73	725.09724
495.212	773.31149
495.694	716.16188
496.175	657.09738
496.657	722.21054
497.139	737.84258
497.62	615.0462
498.102	637.14984
498.583	629.16319
499.064	553.89684
499.545	607.00588
500.026	615.99413
500.507	607.03088
500.988	612.13085
501.469	544.02553
501.949	597.10665
502.43	526.93536
502.91	505.76881
503.39	565.07694
503.87	544.95686
504.35	596.05347
504.83	480.79351
505.31	452.84841
505.79	433.80372
506.269	516.92185
506.749	456.79865
507.228	413.75552
507.707	462.78366
508.187	512.94543
508.666	399.77348
509.145	429.78043
509.623	408.75335
510.102	411.78913
510.581	481.91064
511.059	442.87179
511.538	485.99323
512.016	468.87541
512.494	443.85181
512.972	460.8613
513.45	293.546
513.928	401.77364
514.406	341.65598
514.884	351.73411
515.361	377.72419
515.839	402.72444
516.316	395.76024
516.793	385.79202
517.27	334.66373
517.747	346.72542
518.224	370.6907
518.701	376.67028
519.178	328.66245
519.654	373.72169
520.131	363.73095
520.607	348.70961
521.083	361.66572
521.56	296.57641
522.036	320.57339
522.512	380.76711
522.987	258.50719
523.463	283.55752
523.939	362.72843
524.414	381.71494
524.89	359.69594
525.365	310.57668
525.84	267.52476
526.315	323.64082
526.79	375.68495
527.265	292.5513
527.74	315.63575
528.215	357.68875
528.689	340.61363
529.164	328.58439
529.638	305.65824
530.112	294.57442
530.587	257.45373
531.061	268.54027
531.534	308.62405
532.008	295.59046
532.482	296.56681
532.956	282.60273
533.429	311.62883
533.903	301.55395
534.376	336.61044
534.849	335.64258
535.322	294.58069
535.795	330.6723
536.268	299.60097
536.741	253.51555
537.213	318.61218
537.686	283.57826
538.158	238.4478
538.631	291.59757
539.103	259.48599
539.575	322.55441
540.047	282.51858
540.519	266.5392
540.991	313.64478
541.463	323.6543
541.934	281.53977
542.406	267.5364
542.877	291.54928
543.348	267.5473
543.82	294.60959
544.291	327.63814
544.762	304.60157
545.233	344.71708
545.703	259.47976
546.174	343.65951
546.645	318.62692
547.115	415.81219
547.585	429.7959
548.056	390.76091
548.526	434.81502
548.996	407.79465
549.466	441.87166
549.935	401.76102
550.405	467.79965
550.875	476.88862
551.344	476.90492
551.814	462.83856
552.283	517.87155
552.752	465.8468
553.221	501.83307
553.69	573.9634
554.159	541.02261
554.628	510.87168
555.096	536.05499
555.565	499.86044
556.033	534.98261
556.502	432.84286
556.97	436.77285
557.438	381.7407
557.906	411.79979
558.374	340.64918
558.842	335.6696
559.31	326.61127
559.777	215.44669
560.245	297.59419
560.712	273.54086
561.18	208.39636
561.647	301.56955
562.114	234.45849
562.581	332.69514
563.048	321.62911
563.514	232.49243
563.981	306.59759
564.448	271.52182
564.914	296.59123
565.381	318.61778
565.847	312.6255
566.313	242.48988
566.779	333.63782
567.245	289.5814
567.711	336.68483
568.176	277.53312
568.642	316.67745
569.108	287.60691
569.573	397.78727
570.038	354.62681
570.504	402.74785
570.969	368.78142
571.434	348.63997
571.899	337.68015
572.363	415.7849
572.828	438.83145
573.293	475.89224
573.757	432.82086
574.222	389.72024
574.686	398.73783
575.15	434.85199
575.614	376.72105
576.078	421.81769
576.542	498.92187
577.006	444.8223
577.469	498.0132
577.933	432.79328
578.396	448.88114
578.86	464.90014
579.323	395.78513
579.786	460.81117
580.249	394.74645
580.712	450.91301
581.175	429.88094
581.637	439.84127
582.1	502.89915
582.563	424.75783
583.025	403.81747
583.487	423.70175
583.95	407.72312
584.412	453.78275
584.874	489.97605
585.336	406.8053
585.797	438.78205
586.259	409.81144
586.721	397.78101
587.182	454.88663
587.643	405.77198
588.105	420.83268
588.566	409.71951
589.027	349.71279
589.488	401.76844
589.949	402.82159
590.41	385.62177
590.87	443.84484
591.331	479.85241
591.791	405.78286
592.252	344.66638
592.712	413.83507
593.172	388.73508
593.632	422.77491
594.092	375.70681
594.552	430.76975
595.011	320.62671
595.471	425.79398
595.931	388.7279
596.39	384.7759
596.849	417.8134
597.308	417.75783
597.768	377.81326
598.227	477.95342
598.685	428.82594
599.144	388.766
599.603	453.89412
600.062	378.66513
600.52	406.75641
600.978	393.78698
601.437	449.85628
601.895	425.74845
602.353	441.81491
602.811	441.81287
603.269	445.88823
603.727	404.81369
604.184	384.72608
604.642	393.81248
605.099	455.87573
605.557	455.92421
606.014	440.78116
606.471	459.94764
606.928	495.85673
607.385	548.07105
607.842	723.27419
608.299	781.391
608.755	677.28086
609.212	603.05894
609.668	598.04162
610.125	709.34021
610.581	708.32819
611.037	666.20936
611.493	596.14193
611.949	497.98834
612.405	449.74285
612.861	554.07205
613.316	463.92373
613.772	562.05175
614.227	539.04272
614.683	591.02424
615.138	495.96189
615.593	517.99364
616.048	583.08979
616.503	539.10101
616.958	489.02625
617.412	512.00766
617.867	460.85109
618.321	507.87238
618.776	487.90488
619.23	449.89538
619.684	544.02202
620.138	522.01869
620.592	470.97187
621.046	470.94183
621.5	470.97448
621.954	475.91379
622.407	437.83825
622.861	431.905
623.314	470.91788
623.768	450.903
624.221	422.71694
624.674	368.74596
625.127	381.78379
625.58	477.94061
626.033	415.8045
626.485	355.753
626.938	401.84127
627.39	382.78673
627.843	361.74432
628.295	393.80483
628.747	338.72148
629.199	323.66208
629.651	312.64084
630.103	319.66068
630.555	340.64886
631.006	302.64576
631.458	273.59095
631.909	324.67989
632.361	302.6452
632.812	241.51611
633.263	285.56622
633.714	283.56015
634.165	299.66822
634.616	259.57262
635.067	236.49174
635.518	328.71955
635.968	246.46376
636.419	256.52107
636.869	269.59746
637.319	196.42927
637.769	174.37078
638.219	256.57485
638.669	202.45658
639.119	244.56093
639.569	219.49994
640.019	243.53096
640.468	230.48691
640.918	244.55599
641.367	191.4101
641.816	194.41537
642.265	190.42087
642.714	181.40202
643.163	204.44848
643.612	160.36887
644.061	157.32095
644.51	204.44433
644.958	148.31524
645.406	239.54273
645.855	210.49242
646.303	206.4622
646.751	150.3306
647.199	200.43692
647.647	197.43537
648.095	166.36801
648.543	211.41685
648.99	159.36766
649.438	216.48782
649.885	179.42784
650.333	150.28486
650.78	173.404
651.227	150.35448
651.674	170.37578
652.121	163.38483
652.568	166.39077
653.015	219.53242
653.461	127.29542
653.908	142.32345
654.354	200.46163
654.801	129.29616
655.247	214.45423
655.693	200.50318
656.139	124.29179
656.585	150.3516
657.031	119.27232
657.477	110.23481
657.922	132.29836
658.368	137.33158
658.813	190.43068
659.259	169.39528
659.704	137.31351
660.149	159.36254
660.594	139.32422
661.039	112.25254
661.484	181.42251
661.929	177.40472
662.373	133.3294
662.818	138.33645
663.262	119.2828
663.707	136.33886
664.151	115.27802
664.595	158.37382
665.039	157.3837
665.483	155.38711
665.927	141.32811
666.371	104.23881
666.814	154.36252
667.258	72.17009
667.701	190.40364
668.145	200.48633
668.588	125.30391
669.031	123.28645
669.474	139.3311
669.917	136.29975
670.36	147.3598
670.803	169.40193
671.245	144.30218
671.688	157.37827
672.13	78.17573
672.573	154.38621
673.015	159.37713
673.457	128.27821
673.899	175.4178
674.341	157.37454
674.783	116.27689
675.225	160.38834
675.666	96.23038
676.108	150.32436
676.549	126.29765
676.991	130.2864
677.432	144.28669
677.873	108.25038
678.314	155.36679
678.755	153.36863
679.196	124.28359
679.637	116.28313
680.078	137.31981
680.518	157.3639
680.959	117.27998
681.399	107.26501
681.839	99.24142
682.28	100.24672
682.72	67.15505
683.16	135.33398
683.6	140.31902
684.039	146.30449
684.479	89.21905
684.919	87.20157
685.358	113.2863
685.798	131.34083
686.237	115.27844
686.676	164.37854
687.115	128.30062
687.554	85.20325
687.993	128.28401
688.432	108.24799
688.871	109.24833
689.309	110.26318
689.748	139.29188
690.186	169.40054
690.625	91.21468
691.063	125.29946
691.501	175.42785
691.939	94.23498
692.377	101.24703
692.815	102.24469
693.253	140.33584
693.69	98.21744
694.128	112.27143
694.565	86.2067
695.003	120.30387
695.44	122.28697
695.877	110.25764
696.314	155.33338
696.751	117.26839
697.188	110.2538
697.625	140.32186
698.061	88.21247
698.498	158.38017
698.934	146.35024
699.371	68.16182
699.807	119.28204
700.243	124.29826
700.679	148.3348
701.115	119.28128
701.551	103.24403
701.987	103.23372
702.422	148.34989
702.858	63.15191
703.294	102.233
703.729	136.33195
704.164	115.27729
704.599	104.23354
705.035	97.21885
705.47	65.15963
705.904	98.22971
706.339	159.36868
706.774	132.30904
707.209	100.23201
707.643	106.25554
708.078	115.28033
708.512	85.21344
708.946	123.29523
709.38	125.29649
709.814	99.22819
710.248	121.29506
710.682	96.22959
711.116	99.2369
711.549	102.26351
711.983	74.17298
712.416	140.3306
712.85	124.30874
713.283	99.23564
713.716	169.42085
714.149	142.33792
714.582	132.2969
715.015	143.35662
715.448	142.35625
715.881	126.27724
716.313	47.11191
716.746	91.21568
717.178	87.21057
717.61	125.31636
718.043	161.39816
718.475	117.28393
718.907	194.48459
719.339	104.23699
719.77	107.25429
720.202	115.29064
720.634	142.34375
721.065	88.21014
721.497	127.31085
721.928	100.24617
722.359	98.23697
722.79	95.22846
723.221	134.33618
723.652	122.3143
724.083	133.29995
724.514	100.23128
724.945	134.31446
725.375	90.21014
725.806	149.36997
726.236	140.3569
726.666	136.3214
727.096	110.27039
727.526	99.25181
727.956	97.22189
728.386	179.43584
728.816	111.28063
729.246	125.30311
729.675	110.27079
730.105	129.31692
730.534	126.29488
730.964	149.37441
731.393	198.48507
731.822	192.48323
732.251	127.32131
732.68	146.34302
733.109	121.29781
733.537	153.36696
733.966	136.33627
734.395	132.30456
734.823	148.33316
735.251	125.30072
735.68	175.43373
736.108	188.46909
736.536	170.39754
736.964	131.30364
737.392	162.40173
737.82	159.37888
738.247	145.34578
738.675	233.54538
739.102	143.35494
739.53	136.34426
739.957	198.50083
740.384	185.45095
740.811	185.46269
741.238	171.41293
741.665	143.33014
742.092	203.4774
742.519	180.4395
742.945	188.44531
743.372	175.42817
743.798	194.49089
744.225	158.37281
744.651	185.45784
745.077	205.50231
745.503	180.43393
745.929	174.41295
746.355	225.54865
746.781	231.55991
747.207	132.30856
747.632	193.46289
748.058	221.5403
748.483	214.4839
748.908	207.50514
749.334	207.49948
749.759	219.50618
750.184	210.49088
750.609	246.58965
751.033	279.63972
751.458	235.51587
751.883	225.54598
752.307	174.40498
752.732	173.42642
753.156	270.64692
753.58	233.54132
754.005	254.62777
754.429	225.51757
754.853	215.52192
755.277	245.56537
755.7	285.68402
756.124	221.53668
756.548	196.45707
756.971	270.63976
757.394	290.72223
757.818	250.62625
758.241	251.61978
758.664	227.56032
759.087	214.46809
759.51	267.64496
759.933	224.52709
760.356	301.74431
760.778	245.58691
761.201	264.62386
761.623	334.77669
762.046	327.74464
762.468	289.6714
762.89	295.70317
763.312	290.68422
763.734	259.60576
764.156	252.60541
764.578	260.58143
765	300.70562
765.421	239.59124
765.843	291.73719
766.264	298.69463
766.686	305.73813
767.107	203.48297
767.528	236.5805
767.949	270.66559
768.37	281.66698
768.791	286.66876
769.212	244.59619
769.632	248.56168
770.053	261.66731
770.473	305.71388
770.894	285.68999
771.314	313.71881
771.734	274.61779
772.154	314.77516
772.575	252.56796
772.994	240.53073
773.414	274.63719
773.834	292.70414
774.254	247.58809
774.673	316.7389
775.093	207.50174
775.512	256.61198
775.931	261.64187
776.351	261.62833
776.77	218.52075
777.189	244.56452
777.607	246.61089
778.026	226.54934
778.445	170.4191
778.864	243.60663
779.282	211.49679
779.701	271.66104
780.119	205.50714
780.537	222.54062
780.955	235.58262
781.373	202.48953
781.791	226.49476
782.209	236.5295
782.627	191.49384
783.045	167.37893
783.462	250.62015
783.88	172.43801
784.297	184.45478
784.715	138.35081
785.132	189.44915
785.549	143.35403
785.966	181.44745
786.383	139.3387
786.8	206.46808
787.217	138.32423
787.633	126.312
788.05	196.45672
788.466	212.48874
788.883	151.38025
789.299	164.38937
789.715	182.43459
790.131	159.39004
790.547	161.39655
790.963	157.38456
791.379	92.23214
791.795	128.29015
792.21	170.39129
792.626	141.33121
793.041	102.25091
793.457	137.33532
793.872	162.37541
794.287	75.17927
794.702	143.34858
795.117	96.23781
795.532	112.27896
795.947	150.35682
796.362	149.35178
796.776	166.38331
797.191	95.23201
797.605	92.21556
798.02	89.2163
798.434	139.30655
798.848	118.28855
799.262	91.22521
799.676	132.31918
800.09	77.18959
800.504	78.18946
800.918	81.18782
801.331	135.35039
801.745	97.22233
802.158	85.21221
802.572	116.27965
802.985	118.28339
803.398	80.19089
803.811	149.37831
804.224	100.24799
804.637	61.14586
805.05	74.1719
805.462	115.28075
805.875	48.12491
806.288	37.08992
806.7	59.14874
807.112	82.19018
807.525	84.20709
807.937	39.09705
808.349	48.12086
808.761	81.19914
809.173	57.13869
809.584	104.25583
809.996	63.1546
810.408	45.11664
810.819	77.18116
811.231	116.29729
811.642	175.40915
812.053	262.60062
812.464	354.7965
812.875	283.69622
813.286	202.50803
813.697	182.41724
814.108	90.21935
814.519	92.20464
814.929	123.31097
815.34	67.16277
815.75	65.16533
816.16	83.20654
816.571	55.14325
816.981	87.20509
817.391	72.17397
817.801	45.11231
818.211	68.16238
818.62	28.06799
819.03	50.12309
819.44	111.2879
819.849	54.1365
820.259	97.24716
820.668	42.10385
821.077	76.18854
821.486	89.21379
821.895	96.23624
822.304	42.11176
822.713	55.13051
823.122	51.12774
823.531	63.14966
823.939	78.18982
824.348	61.14864
824.756	62.15555
825.164	93.23311
825.573	44.11091
825.981	76.18833
826.389	90.22531
826.797	67.16788
827.205	54.1244
827.612	87.21405
828.02	17.04034
828.428	70.1782
828.835	59.15545
829.243	90.21376
829.65	37.09251
830.057	61.14831
830.464	67.16332
830.871	102.24282
831.278	49.11891
831.685	103.22849
832.092	111.26967
832.499	46.10122
832.905	98.24675
833.312	68.15527
833.718	58.14478
834.124	60.13744
834.531	64.16143
834.937	103.26263
835.343	63.1522
835.749	82.19116
836.155	49.12862
836.561	91.22282
836.966	81.1976
837.372	61.15538
837.777	41.10258
838.183	56.12493
838.588	14.03509
838.993	93.22535
839.399	50.12259
839.804	0
840.209	60.1528
840.613	51.11389
841.018	75.18955
841.423	61.15653
841.828	1.00256
842.232	115.28231
842.637	43.10192
843.041	42.10802
843.445	62.15555
843.849	77.19015
844.253	63.14984
844.657	28.07093
845.061	77.17437
845.465	5.01221
845.869	66.15337
846.272	4.00985
846.676	95.22846
847.079	39.09955
847.483	60.14977
847.886	64.15575
848.289	44.1177
848.692	33.084
849.095	45.10847
849.498	117.29369
849.901	63.14458
850.304	44.10555
850.707	38.09729
851.109	53.13433
851.512	40.09869
851.914	24.06086
852.316	27.0687
852.718	-1.00261
853.121	27.06658
853.523	15.03539
853.925	15.03941
854.326	45.1128
854.728	34.08781
855.13	21.05451
855.531	54.1292
855.933	100.23834
856.334	35.08764
856.736	34.0766
857.137	33.07716
857.538	33.08334
857.939	-11.02752
858.34	41.10028
858.741	45.11788
859.142	18.04359
859.542	71.18688
859.943	64.15889
860.343	-2.00501
860.744	32.07849
861.144	47.11491
861.544	-26.06349
861.945	33.08447
862.345	49.12007
862.745	55.13677
863.145	73.17409
863.544	53.13404
863.944	61.14408
864.344	66.16373
864.743	94.23174
865.143	53.13624
865.542	28.06535
865.941	66.16313
866.34	77.18384
866.74	54.14498
867.139	25.06024
867.537	82.20802
867.936	71.17049
868.335	28.07161
868.734	46.11777
869.132	63.14626
869.531	92.22112
869.929	10.02302
870.327	52.12479
870.726	60.14955
871.124	65.15174
871.522	55.14014
871.92	57.1406
872.318	44.10784
872.715	79.1948
873.113	49.11958
873.511	67.16661
873.908	-30.07689
874.306	41.10225
874.703	64.15993
875.1	69.17612
875.497	48.11528
875.894	4.00989
876.291	84.20511
876.688	8.0208
877.085	53.12726
877.482	37.09294
877.878	41.09897
878.275	57.14478
878.671	51.11375
879.068	60.14476
879.464	52.12579
879.86	23.05474
880.256	38.0941
880.652	-1.00257
881.048	46.1142
881.444	27.06464
881.84	49.12468
882.236	73.18298
882.631	90.21951
883.027	25.0609
883.422	22.05658
883.817	4.01014
884.213	45.11567
884.608	47.11543
885.003	49.11829
885.398	12.03027
885.793	38.09568
886.188	-20.05039
886.582	82.20934
886.977	89.20988
887.371	40.10144
887.766	-3.00754
888.16	68.16931
888.554	62.15313
888.949	63.15797
889.343	104.25176
889.737	17.04557
890.131	8.02024
890.525	74.18859
890.918	39.09843
891.312	62.14817
891.706	17.04488
892.099	91.23007
892.492	35.07586
892.886	58.14183
893.279	47.11988
893.672	3.00771
894.065	16.04034
894.458	64.16068
894.851	72.17587
895.244	40.10241
895.637	63.15151
896.029	52.12721
896.422	41.10043
896.814	32.07988
897.206	32.07653
897.599	91.22356
897.991	54.13058
898.383	54.12762
898.775	50.11297
899.167	-20.04732
899.559	58.14672
899.951	47.11097
900.342	52.13229
900.734	-13.03264
901.125	44.11564
901.517	45.11064
901.908	85.20263
902.299	62.15133
902.69	46.10871
903.082	59.14275
903.473	-22.05344
903.863	53.13524
904.254	42.09772
904.645	46.11458
905.036	31.07537
905.426	82.18671
905.817	10.02474
906.207	33.07894
906.597	-10.02368
906.987	55.14251
907.378	43.10895
907.768	52.13749
908.158	31.07591
908.547	38.09841
908.937	51.13091
909.327	54.13112
909.717	62.15717
910.106	56.13444
910.495	99.2451
910.885	61.15428
911.274	53.13247
911.663	87.21948
912.052	77.18917
912.441	34.08674
912.83	44.1012
913.219	50.13091
913.608	55.13467
913.997	2.00506
914.385	58.13845
914.774	73.17709
915.162	47.11213
915.55	73.17595
915.939	-3.00765
916.327	64.15941
916.715	37.09454
917.103	87.21279
917.491	103.25248
917.878	50.123
918.266	33.08586
918.654	58.14802
919.041	24.06295
919.429	23.0546
919.816	55.13935
920.203	41.09965
920.591	23.05734
920.978	70.17086
921.365	34.08948
921.752	52.12398
922.139	50.10863
922.525	-16.03892
922.912	43.10505
923.299	67.16606
923.685	58.15114
924.072	83.19025
924.458	46.11408
924.844	56.13847
925.231	40.09332
925.617	5.01282
926.003	65.16574
926.389	6.01526
926.774	67.16933
927.16	38.09461
927.546	10.02571
927.931	62.15443
928.317	64.14708
928.702	57.13473
929.088	-13.03113
929.473	28.07153
929.858	16.03894
930.243	36.08666
930.628	21.05138
931.013	49.12149
931.398	68.1559
931.783	64.16814
932.167	27.06631
932.552	69.17233
932.937	61.15114
933.321	2.00506
933.705	47.11857
934.09	84.21104
934.474	65.154
934.858	72.18607
935.242	17.03967
935.626	21.05404
936.009	52.13828
936.393	17.04352
936.777	22.05662
937.16	63.16358
937.544	39.09211
937.927	39.09916
938.311	95.23002
938.694	84.22091
939.077	43.1031
939.46	48.11795
939.843	41.08575
940.226	29.07467
940.609	8.01852
940.991	28.07156
941.374	6.01479
941.757	64.15755
942.139	-16.03643
942.522	67.15788
942.904	53.12736
943.286	56.14216
943.668	42.10896
944.05	49.12074
944.432	34.08416
944.814	83.20323
945.196	13.0319
945.578	-16.03851
945.959	40.09394
946.341	113.27422
946.722	60.14059
947.104	17.0409
947.485	66.15313
947.866	22.05571
948.247	40.10111
948.628	60.14612
949.009	26.06687
949.39	47.11709
949.771	67.15536
950.152	26.0641
950.532	-9.02238
950.913	32.07747
951.293	38.10286
951.674	37.08972
952.054	6.01499
952.434	7.01751
952.814	24.0574
953.194	66.17228
953.574	89.21768
953.954	10.02393
954.334	59.14682
954.714	3.00738
955.093	49.12051
955.473	34.08527
955.853	57.14739
956.232	63.17232
956.611	51.12232
956.99	36.09071
957.37	23.05889
957.749	58.13818
958.128	73.18318
958.506	5.01307
958.885	73.18351
959.264	5.01236
959.643	46.10478
960.021	34.0845
960.4	27.06149
960.778	81.19841
961.156	50.12535
961.535	45.10501
961.913	48.11238
962.291	7.01809
962.669	2.00511
963.047	28.07174
963.424	46.11748
963.802	47.11564
964.18	67.16903
964.557	70.16061
964.935	25.05953
965.312	18.04713
965.69	72.17959
966.067	57.13864
966.444	60.1476
966.821	65.16714
967.198	35.08516
967.575	65.15939
967.952	59.13881
968.329	45.10961
968.705	12.02595
969.082	24.06183
969.458	-6.01455
969.835	35.08545
970.211	5.01293
970.587	69.17121
970.963	41.10535
971.339	32.08381
971.715	52.1298
972.091	51.12557
972.467	57.142
972.843	51.12654
973.219	87.20747
973.594	19.04996
973.97	50.11903
974.345	32.07685
974.721	51.12349
975.096	36.08735
975.471	23.05485
975.846	43.10345
976.221	60.1521
976.596	23.05542
976.971	45.11121
977.346	27.06315
977.72	27.06906
978.095	47.12153
978.469	31.07427
978.844	78.19512
979.218	1.00242
979.593	64.15295
979.967	46.11215
980.341	2.00465
980.715	21.05319
981.089	17.04281
981.463	20.0462
981.837	-1.00247
982.21	99.22819
982.584	-14.03422
982.957	44.10999
983.331	18.04282
983.704	29.07154
984.078	74.18156
984.451	61.15207
984.824	21.05142
985.197	40.09734
985.57	86.21428
985.943	34.08422
986.316	45.11068
986.688	22.05334
987.061	35.08228
987.434	57.14835
987.806	36.08754
988.179	28.06635
988.551	66.16695
988.923	43.10603
989.295	74.18411
989.667	-41.09965
990.039	4.00997
990.411	51.11737
990.783	54.12425
991.155	-26.06337
991.527	64.1572
991.898	22.0551
992.27	0
992.641	33.08305
993.012	75.17563
993.384	39.09322
993.755	68.17281
994.126	37.08922
994.497	-2.00496
994.868	41.09435
995.239	19.04632
995.61	2.00508
995.98	37.09009
996.351	-14.03507
996.722	-34.08016
997.092	24.05711
997.462	-4.00944
997.833	21.05006
998.203	37.08992
998.573	53.13189
998.943	13.0307
999.313	48.11506
999.683	4.00968
1000.053	73.16719
1000.423	49.11909
1000.792	57.14754
1001.162	60.14738
1001.531	76.18647
1001.901	32.08002
1002.27	6.01353
1002.639	51.13027
1003.009	25.05973
1003.378	27.06931
1003.747	93.21787
1004.116	9.0217
1004.485	39.0934
1004.853	39.09899
1005.222	29.0734
1005.591	31.07387
1005.959	30.06787
1006.328	9.02042
1006.696	18.04367
1007.064	90.22474
1007.433	67.16691
1007.801	76.18564
1008.169	78.19597
1008.537	35.07774
1008.905	9.02113
1009.273	35.08669
1009.64	77.18271
1010.008	-9.02169
1010.375	101.24289
1010.743	98.22413
1011.11	22.05233
1011.478	44.109
1011.845	40.09424
1012.212	21.04781
1012.579	53.13002
1012.946	26.06216
1013.313	69.1636
1013.68	39.08785
1014.047	30.07175
1014.414	18.04277
1014.78	49.12176
1015.147	41.09931
1015.513	52.12522
1015.88	49.12529
1016.246	45.11117
1016.612	63.14382
1016.978	67.16363
1017.344	43.10638
1017.71	51.12432
1018.076	40.09449
1018.442	65.16673
1018.808	22.05525
1019.174	37.09301
1019.539	85.19428
1019.905	23.05451
1020.27	35.08659
1020.636	66.15773
1021.001	83.1974
1021.366	22.0531
1021.731	71.18187
1022.096	21.05323
1022.461	65.15334
1022.826	37.08814
1023.191	26.06847
1023.556	23.05418
1023.92	49.12047
1024.285	57.1389
1024.649	16.03945
1025.014	46.11399
1025.378	9.02279
1025.742	68.16826
1026.107	23.0523
1026.471	92.21295
1026.835	60.14841
1027.199	-1.00243
1027.562	72.16659
1027.926	34.08336
1028.29	43.10891
1028.654	66.15131
1029.017	54.13259
1029.381	-14.03384
1029.744	46.11735
1030.107	32.07595
1030.471	34.08163
1030.834	60.13617
1031.197	31.07492
1031.56	32.07574
1031.923	43.11126
1032.286	46.10808
1032.648	61.14553
1033.011	22.05076
1033.374	64.14996
1033.736	-6.01592
1034.099	62.15071
1034.461	30.07602
1034.823	12.03007
1035.185	67.16806
1035.548	14.03429
1035.91	30.07211
1036.272	21.04806
1036.634	98.23751
1036.995	7.01658
1037.357	-14.03445
1037.719	48.11672
1038.08	59.13978
1038.442	7.01674
1038.803	27.06508
1039.165	36.09103
1039.526	18.04374
1039.887	34.08156
1040.248	-21.05239
1040.609	21.05214
1040.97	8.01969
1041.331	38.09636
1041.692	-14.03307
1042.053	64.14525
1042.413	48.11185
1042.774	40.09742
1043.134	67.15892
1043.495	36.09068
1043.855	-3.00735
1044.215	51.1265
1044.576	-3.00724
1044.936	73.16652
1045.296	55.13707
1045.656	44.10804
1046.016	50.12063
1046.375	65.15715
1046.735	15.03423
1047.095	43.10073
1047.454	35.07437
1047.814	16.03869
1048.173	61.14536
1048.533	32.07354
1048.892	14.03382
1049.251	62.15521
1049.61	5.01241
1049.969	18.04267
1050.328	-14.03075
1050.687	21.05134
1051.046	64.15534
1051.405	50.12431
1051.763	-11.02559
1052.122	32.08002
1052.48	54.13225
1052.839	30.07082
1053.197	48.11295
1053.555	107.24102
1053.914	56.13674
1054.272	75.18036
1054.63	15.03689
1054.988	2.00479
1055.345	-12.02617
1055.703	87.20779
1056.061	17.04396
1056.419	26.06754
1056.776	23.05602
1057.134	2.00467
1057.491	50.12513
1057.848	46.11453
1058.206	-8.01902
1058.563	6.01334
1058.92	45.10377
1059.277	54.13303
1059.634	53.12455
1059.991	123.2904
1060.348	8.01822
1060.704	-29.07011
1061.061	97.22314
1061.418	0
1061.774	34.08413
1062.131	11.02926
1062.487	27.06338
1062.843	56.13938
1063.199	20.04998
1063.555	33.07667
1063.911	56.1412
1064.267	87.17987
1064.623	37.09003
1064.979	63.1488
1065.335	37.08861
1065.691	26.06256
1066.046	32.07059
1066.402	6.01374
1066.757	51.12862
1067.112	15.03703
1067.468	-11.02626
1067.823	49.11775
1068.178	47.11367
1068.533	54.13072
1068.888	63.15007
1069.243	25.06194
1069.598	39.09489
1069.952	-7.01594
1070.307	-12.03002
1070.662	1.00239
1071.016	-17.03859
1071.371	9.02063
1071.725	30.072
1072.079	68.16288
1072.434	23.05613
1072.788	47.11191
1073.142	48.11803
1073.496	52.12322
1073.85	29.06748
1074.203	61.14759
1074.557	40.10647
1074.911	99.23392
1075.265	3.00703
1075.618	106.25593
1075.971	38.09053
1076.325	10.02557
1076.678	5.01153
1077.031	36.08164
1077.385	38.08386
1077.738	43.09714
1078.091	18.04117
1078.444	67.15493
1078.796	36.08849
1079.149	21.05247
1079.502	23.05458
1079.855	44.10265
1080.207	76.1862
1080.56	50.12913
1080.912	60.14569
1081.264	37.08925
1081.617	32.07819
1081.969	-28.07156
1082.321	33.08077
1082.673	-2.00461
1083.025	40.09501
1083.377	28.06034
1083.728	33.07719
1084.08	21.05266
1084.432	31.07498
1084.783	27.0635
1085.135	17.04283
1085.486	21.04829
1085.838	32.07901
1086.189	25.06092
1086.54	15.03603
1086.891	30.07608
1087.242	4.00981
1087.593	63.15288
1087.944	-8.0183
1088.295	61.13825
1088.646	41.09946
1088.996	-4.00973
1089.347	35.08605
1089.698	0
1090.048	59.15287
1090.398	51.11816
1090.749	22.05288
1091.099	9.02278
1091.449	19.04756
1091.799	36.09029
1092.149	-14.03452
1092.499	7.0172
1092.849	32.08152
1093.199	63.1574
1093.548	0
1093.898	-1.00252
1094.248	11.02843
1094.597	-16.04128
1094.947	57.15175
1095.296	33.08167
1095.645	31.08082
1095.994	0
1096.343	53.13318
1096.692	-3.00794
1097.041	9.02451
1097.39	53.13275
1097.739	27.07039
1098.088	72.19203
1098.437	16.04223
1098.785	60.16135
1099.134	60.15891
1099.482	36.09914
1099.83	63.16504
1100.179	2.00525
1100.527	48.12747
1100.875	-12.03203
1101.223	81.21377
1101.571	62.17085
1101.919	-6.01581
1102.267	28.07902
1102.615	12.03855
1102.962	18.0579
1103.31	7.02249
1103.658	25.08039
