Data from N2 R5 sample 4_Subt2__4__14-06-13-196.txt Node

Date: Fri Aug 29 14:06:13 PDT 2025
User: uwsun
Spectrometer: HDX01956
Trigger mode: 0
Integration Time (sec): 5.000000E-1
Scans to average: 1
Nonlinearity correction enabled: true
Boxcar width: 0
Storing dark spectrum: false
XAxis mode: Wavelengths
Number of Pixels in Spectrum: 2068
>>>>>Begin Spectral Data<<<<<
194.03	541.38666
194.578	537.5782
195.127	551.58899
195.676	546.58122
196.225	582.38871
196.773	599.47951
197.321	926.09216
197.87	1230.34456
198.418	1195.25851
198.966	1199.28147
199.513	1162.09538
200.061	1131.09989
200.609	1204.36111
201.156	1111.71068
201.704	1159.12125
202.251	1143.24703
202.798	1154.20781
203.345	1220.16804
203.892	1190.16783
204.438	1257.111
204.985	1197.98909
205.532	1133.21069
206.078	1260.18197
206.624	1239.14713
207.17	1273.04343
207.716	1118.96998
208.262	1228.61044
208.808	1229.12636
209.354	1190.06238
209.899	1310.34778
210.445	1184.10706
210.99	1230.07939
211.535	1268.07494
212.08	1240.01424
212.625	1307.30007
213.17	1295.32492
213.715	1231.86009
214.259	1283.06655
214.804	1250.20104
215.348	1264.99966
215.892	1317.18366
216.436	1288.06709
216.98	1312.96753
217.524	1240.05471
218.068	1230.23083
218.612	1230.23421
219.155	1249.05781
219.698	1207.04745
220.242	1156.12051
220.785	1166.95697
221.328	1069.9976
221.871	1126.13034
222.414	1182.15321
222.956	1041.86396
223.499	1047.72932
224.041	1195.99661
224.583	1143.76229
225.126	1125.773
225.668	1093.96233
226.21	1045.98148
226.751	1030.63797
227.293	1093.82451
227.835	1091.96872
228.376	1112.87611
228.918	1115.10078
229.459	1105.0302
230	1106.92753
230.541	1148.9047
231.082	1122.99142
231.622	1060.80063
232.163	1117.97894
232.704	1149.07764
233.244	1058.96194
233.784	1161.08136
234.324	1037.64211
234.864	1055.74835
235.404	1098.92057
235.944	1098.91154
236.484	1127.07798
237.023	1097.88924
237.563	1130.87265
238.102	1089.88338
238.641	1110.08064
239.18	1142.90613
239.719	1152.11631
240.258	1139.82507
240.797	1109.92822
241.335	1154.05347
241.874	1130.47177
242.412	1169.01143
242.95	1088.8891
243.488	1140.85511
244.026	1106.8307
244.564	1188.66459
245.102	1167.83638
245.64	1191.05706
246.177	1172.84377
246.715	1174.02275
247.252	1144.8762
247.789	1185.49171
248.326	1104.91294
248.863	1178.7853
249.4	1233.93863
249.936	1164.63276
250.473	1166.91986
251.009	1130.83261
251.546	1201.81984
252.082	1217.82458
252.618	1200.83937
253.154	1235.06824
253.69	1131.79785
254.226	1170.98076
254.761	1117.77447
255.297	1174.7697
255.832	1172.95748
256.367	1192.97153
256.903	1149.7509
257.438	1271.05399
257.972	1203.84129
258.507	1185.87558
259.042	1178.75461
259.576	1147.68603
260.111	1253.98951
260.645	1224.79403
261.179	1176.91505
261.713	1235.85841
262.247	1179.89804
262.781	1210.68923
263.315	1218.08449
263.849	1229.15773
264.382	1306.01965
264.915	1292.03623
265.449	1223.05137
265.982	1312.99459
266.515	1265.12451
267.048	1225.72069
267.58	1247.83525
268.113	1243.78049
268.646	1253.13842
269.178	1208.82347
269.71	1292.85993
270.243	1281.96612
270.775	1264.23963
271.307	1291.12509
271.838	1307.11019
272.37	1304.18505
272.902	1301.97015
273.433	1252.81526
273.965	1319.16788
274.496	1319.24206
275.027	1300.19837
275.558	1294.12361
276.089	1267.10948
276.62	1387.38602
277.15	1330.22525
277.681	1295.84065
278.211	1339.21309
278.741	1324.87462
279.272	1262.91463
279.802	1371.2924
280.332	1348.0815
280.861	1388.18872
281.391	1278.90813
281.921	1329.13995
282.45	1376.29769
282.98	1337.38234
283.509	1359.95911
284.038	1344.97984
284.567	1382.09725
285.096	1384.1861
285.625	1307.92896
286.153	1388.08407
286.682	1386.01177
287.21	1424.19349
287.739	1351.07221
288.267	1402.18323
288.795	1441.51608
289.323	1376.04374
289.851	1434.11796
290.378	1443.99706
290.906	1388.14877
291.433	1446.31478
291.961	1416.98368
292.488	1466.32462
293.015	1443.1089
293.542	1369.26175
294.069	1460.25731
294.596	1460.29927
295.122	1484.18733
295.649	1470.95015
296.175	1517.27507
296.702	1495.25507
297.228	1500.26739
297.754	1484.99374
298.28	1550.0613
298.806	1548.23875
299.332	1561.97675
299.857	1539.02825
300.383	1567.44758
300.908	1560.24526
301.433	1523.23125
301.958	1639.181
302.483	1568.34893
303.008	1618.38298
303.533	1633.58832
304.058	1590.20053
304.582	1613.18253
305.107	1565.48796
305.631	1614.10136
306.155	1638.14318
306.679	1668.16575
307.203	1704.16758
307.727	1659.22115
308.251	1698.38982
308.775	1654.17893
309.298	1717.24634
309.822	1734.47648
310.345	1770.25496
310.868	1767.27324
311.391	1781.4048
311.914	1783.44187
312.437	1824.14847
312.96	1739.18226
313.482	1821.24066
314.005	1872.48545
314.527	1858.64688
315.049	1891.53346
315.571	1819.96673
316.093	1950.43657
316.615	1855.27247
317.137	2036.95967
317.659	1986.3793
318.18	2051.36514
318.702	2045.18148
319.223	2004.7318
319.744	1942.99562
320.265	2029.28583
320.786	2071.36291
321.307	2118.41605
321.828	2181.04108
322.348	2146.16954
322.869	2149.14369
323.389	2135.01409
323.909	2174.05605
324.43	2243.2962
324.95	2190.00161
325.47	2193.2638
325.989	2272.08733
326.509	2403.77707
327.029	2450.85417
327.548	2393.83108
328.067	2499.10113
328.587	2569.28488
329.106	2486.84667
329.625	2488.58705
330.144	2504.86737
330.662	2562.84625
331.181	2651.88057
331.7	2602.87508
332.218	2691.50694
332.736	2706.81992
333.255	2687.76449
333.773	2762.80915
334.291	2874.06599
334.808	2831.47581
335.326	2937.48701
335.844	2936.52992
336.361	2916.92087
336.879	2878.5277
337.396	2953.6389
337.913	3003.38727
338.43	3200.18625
338.947	3181.4293
339.464	3204.92031
339.981	3177.33889
340.497	3221.54017
341.014	3200.42951
341.53	3237.02304
342.046	3275.36832
342.562	3427.4048
343.078	3410.07914
343.594	3407.1351
344.11	3513.03601
344.626	3431.31761
345.141	3658.70219
345.657	3655.714
346.172	3573.96767
346.687	3538.73256
347.202	3702.51612
347.717	3833.69999
348.232	3837.90294
348.747	3853.46981
349.261	3751.2227
349.776	3874.50561
350.29	3936.59817
350.805	4143.58266
351.319	3995.34611
351.833	3947.18046
352.347	4082.26821
352.861	4140.16543
353.374	4247.10571
353.888	4156.30907
354.401	4205.03724
354.915	4092.91636
355.428	4327.2199
355.941	4374.89551
356.454	4474.77957
356.967	4444.93772
357.48	4426.82979
357.993	4452.05741
358.505	4472.96019
359.018	4582.90591
359.53	4605.78166
360.042	4756.47327
360.554	4710.7674
361.066	4652.76126
361.578	4665.39475
362.09	4754.62937
362.602	4699.3636
363.113	4889.43679
363.625	4814.34438
364.136	4982.24631
364.647	4953.27732
365.158	5148.30364
365.669	5183.36798
366.18	5199.30752
366.691	5184.14059
367.201	5041.32784
367.712	5089.15861
368.222	5241.142
368.733	5364.01732
369.243	5522.05397
369.753	5624.14162
370.263	5636.17756
370.773	5742.23844
371.282	5842.18689
371.792	5786.09146
372.301	6049.26805
372.811	6115.36069
373.32	6077.31723
373.829	6232.4134
374.338	6808.26676
374.847	6747.17253
375.356	6920.46805
375.865	7205.64231
376.373	7491.23905
376.882	7722.32149
377.39	7881.2335
377.898	7997.05662
378.407	8446.82039
378.915	8800.12005
379.423	9091.38449
379.93	9431.35823
380.438	9862.6581
380.946	10382.91244
381.453	10663.24056
381.96	11131.48845
382.468	11856.17063
382.975	12667.06979
383.482	13095.62139
383.989	13293.15408
384.495	13705.83848
385.002	14133.73124
385.509	15020.04677
386.015	15994.1195
386.521	16976.30544
387.028	17547.09216
387.534	18105.30612
388.04	19086.8139
388.546	18970.34006
389.051	19655.8249
389.557	21588.66027
390.063	23650.72571
390.568	24088.30604
391.073	24666.01108
391.578	26094.22159
392.084	26250.27084
392.589	26939.75856
393.093	28778.55998
393.598	31908.46054
394.103	34573.05567
394.607	38011.41663
395.112	40881.45397
395.616	42764.32037
396.12	45152.09213
396.624	44127.49121
397.128	43370.29424
397.632	41414.05101
398.136	39172.79427
398.639	36273.96993
399.143	32503.66402
399.646	28888.45294
400.15	25083.82847
400.653	20124.16724
401.156	13866.23708
401.659	5169.95759
402.162	1054.15589
402.664	0
403.167	0
403.67	0
404.172	0
404.674	0
405.176	0
405.678	0
406.18	0
406.682	0
407.184	0
407.686	0
408.187	0
408.688	0
409.19	0
409.691	0
410.192	0
410.693	0
411.194	435.30976
411.694	4082.94878
412.195	8864.71461
412.696	12089.80453
413.196	12760.96929
413.696	12863.67595
414.196	13703.56671
414.696	17261.84252
415.196	21764.24417
415.696	29583.19008
416.196	36460.31858
416.695	40057.39798
417.195	41392.74103
417.694	42311.08144
418.194	43882.52025
418.693	44704.85811
419.192	45402.14938
419.691	45678.73777
420.19	46397.77183
420.688	47237.71801
421.187	47797.94428
421.685	49412.82777
422.184	49641.26368
422.682	43068.15785
423.18	36177.97958
423.678	31665.50926
424.176	29365.49062
424.674	27629.21715
425.172	26641.71339
425.669	25257.4828
426.167	23725.30257
426.664	21450.03294
427.161	19753.7976
427.659	18165.44317
428.156	17000.67771
428.652	15965.4473
429.149	15329.52283
429.646	14746.99558
430.143	14079.529
430.639	13204.07318
431.135	12444.21399
431.632	11871.26044
432.128	10894.90322
432.624	10239.20414
433.12	9816.02592
433.616	9506.65533
434.111	8919.153
434.607	8767.53047
435.103	8670.34917
435.598	8468.17226
436.093	8227.74746
436.588	7728.95033
437.083	7366.70218
437.578	7126.94976
438.073	6593.86835
438.568	6616.81382
439.062	6194.45836
439.557	6171.34512
440.051	5840.10888
440.546	5650.01543
441.04	5488.03013
441.534	5365.15176
442.028	5323.08796
442.522	5099.09358
443.015	5053.95271
443.509	5175.20583
444.002	4902.25731
444.496	4649.07416
444.989	4784.3478
445.482	4615.46499
445.975	4678.15843
446.468	4662.0842
446.961	4625.10746
447.454	4450.33719
447.947	4343.4922
448.439	4358.65948
448.931	4121.4896
449.424	4192.93903
449.916	4138.82498
450.408	3942.65105
450.9	3983.90066
451.392	4023.0738
451.884	3841.89015
452.375	3688.21648
452.867	3781.95056
453.358	3698.93135
453.849	3739.7479
454.341	3520.07821
454.832	3496.95482
455.323	3430.4446
455.814	3514.23802
456.304	3487.28182
456.795	3369.3392
457.285	3345.34016
457.776	3376.45253
458.266	3179.6339
458.756	3267.70716
459.247	3116.70306
459.737	2993.78573
460.226	2950.62664
460.716	2938.89552
461.206	2911.97396
461.695	2831.2359
462.185	2808.00515
462.674	2806.95311
463.163	2849.80954
463.653	2826.65002
464.142	2660.21088
464.63	2571.3592
465.119	2514.14195
465.608	2597.12803
466.096	2479.03538
466.585	2516.26333
467.073	2504.42469
467.561	2336.4861
468.05	2358.37933
468.538	2423.60392
469.026	2324.52576
469.513	2215.11318
470.001	2184.36324
470.489	2202.51908
470.976	2218.47622
471.463	2112.78945
471.951	2090.84097
472.438	1953.58063
472.925	1982.56911
473.412	2029.83352
473.899	1904.58589
474.385	1787.79701
474.872	1825.62372
475.359	1862.80881
475.845	1750.30503
476.331	1749.48559
476.817	1667.81149
477.303	1701.67374
477.789	1593.75988
478.275	1553.82973
478.761	1499.74557
479.247	1586.59833
479.732	1428.79264
480.218	1467.988
480.703	1435.83467
481.188	1475.46323
481.673	1401.60298
482.158	1306.34801
482.643	1411.95225
483.128	1355.5773
483.612	1319.64302
484.097	1272.75516
484.581	1294.64473
485.066	1139.61313
485.55	1083.34316
486.034	1136.36466
486.518	1100.50518
487.002	1080.58353
487.486	1052.56583
487.969	1041.55825
488.453	1093.71539
488.936	1070.43351
489.42	1062.40489
489.903	1054.68969
490.386	1038.90545
490.869	1014.35435
491.352	1019.61163
491.835	962.22342
492.318	922.32753
492.8	967.22855
493.283	910.54839
493.765	864.43122
494.247	902.40665
494.73	838.22631
495.212	909.48654
495.694	791.25699
496.175	709.16763
496.657	814.33107
497.139	772.87117
497.62	649.09408
498.102	740.30116
498.583	750.34567
499.064	691.07627
499.545	725.16299
500.026	709.11469
500.507	722.18877
500.988	695.25797
501.469	654.20018
501.949	675.22729
502.43	543.96135
502.91	593.87935
503.39	656.22321
503.87	607.0487
504.35	651.13447
504.83	628.99598
505.31	536.9853
505.79	526.9538
506.269	645.11274
506.749	507.87611
507.228	531.94254
507.707	537.89249
508.187	603.08668
508.666	455.87025
509.145	515.9165
509.623	468.85119
510.102	454.86266
510.581	504.94883
511.059	511.99157
511.538	498.01504
512.016	514.95055
512.494	504.95489
512.972	513.94799
513.45	415.74998
513.928	542.00875
514.406	437.82126
514.884	493.99865
515.361	480.8992
515.839	460.81668
516.316	469.88661
516.793	491.98596
517.27	517.98359
517.747	422.86989
518.224	417.76939
518.701	426.74962
519.178	367.73458
519.654	443.84279
520.131	387.77497
520.607	406.81697
521.083	386.70737
521.56	406.76994
522.036	380.6704
522.512	441.87779
522.987	394.74974
523.463	377.72629
523.939	425.84279
524.414	373.70131
524.89	386.74345
525.365	384.70122
525.84	340.65674
526.315	384.75099
526.79	386.70308
527.265	390.71866
527.74	337.67672
528.215	374.7186
528.689	379.6772
529.164	379.66637
529.638	342.73223
530.112	303.59074
530.587	343.592
531.061	310.61891
531.534	351.70418
532.008	289.57926
532.482	330.62672
532.956	296.63074
533.429	384.76344
533.903	340.6196
534.376	345.62536
534.849	320.61603
535.322	360.70004
535.795	364.73583
536.268	333.66405
536.741	371.73571
537.213	383.72579
537.686	275.56293
538.158	285.53004
538.631	325.66226
539.103	264.49477
539.575	316.54495
540.047	356.64251
540.519	296.5959
540.991	354.7225
541.463	283.57852
541.934	348.65768
542.406	329.6515
542.877	345.64259
543.348	312.63303
543.82	342.7015
544.291	341.66325
544.762	345.67615
545.233	366.75921
545.703	361.6517
546.174	446.83632
546.645	371.72229
547.115	435.84731
547.585	413.76927
548.056	402.78209
548.526	450.84174
548.996	530.003
549.466	590.12387
549.935	529.97268
550.405	564.94076
550.875	566.03159
551.344	532.99762
551.814	553.98059
552.283	646.04975
552.752	588.03605
553.221	575.93676
553.69	617.02363
554.159	669.2256
554.628	651.06948
555.096	649.24397
555.565	616.02788
556.033	571.03941
556.502	551.04308
556.97	528.91363
557.438	479.90951
557.906	423.82079
558.374	411.77125
558.842	350.69714
559.31	326.61127
559.777	301.61336
560.245	339.67162
560.712	300.5906
561.18	307.57095
561.647	301.56955
562.114	283.54808
562.581	302.63653
563.048	330.64537
563.514	276.5802
563.981	334.64793
564.448	295.56475
564.914	303.60423
565.381	330.63926
565.847	385.75883
566.313	320.6362
566.779	312.60063
567.245	320.63917
567.711	320.6546
568.176	294.56352
568.642	297.63933
569.108	342.7145
569.573	351.70353
570.038	375.66037
570.504	328.6214
570.969	392.82802
571.434	304.56523
571.899	424.83865
572.363	419.79169
572.828	460.86853
573.293	466.87728
573.757	454.85804
574.222	450.82052
574.686	379.70593
575.15	391.77537
575.614	473.88586
576.078	464.89198
576.542	437.82126
577.006	451.83381
577.469	545.09717
577.933	477.86602
578.396	448.88114
578.86	469.90876
579.323	443.87069
579.786	502.87555
580.249	396.74988
580.712	418.85428
581.175	399.82488
581.637	420.80855
582.1	500.89602
582.563	467.82545
583.025	425.85776
583.487	398.66482
583.95	431.761
584.412	452.78123
584.874	423.85725
585.336	422.83391
585.797	431.77094
586.259	458.89826
586.721	416.81473
587.182	470.9144
587.643	414.78742
588.105	422.83626
588.566	451.78469
589.027	359.73154
589.488	410.78398
589.949	413.84196
590.41	375.60732
590.87	437.83461
591.331	406.73615
591.791	391.75834
592.252	311.60721
592.712	387.78716
593.172	380.72133
593.632	456.8302
594.092	386.72558
594.552	422.75698
595.011	395.75987
595.471	405.76036
595.931	436.80828
596.39	401.80709
596.849	420.81867
597.308	460.82686
597.768	399.85665
598.227	446.89787
598.685	483.91979
599.144	389.76779
599.603	424.84258
600.062	394.69039
600.52	389.7278
600.978	415.82681
601.437	447.85288
601.895	383.68188
602.353	462.84924
602.811	484.88253
603.269	444.88644
603.727	460.91454
604.184	390.73635
604.642	475.96395
605.099	511.97028
605.557	509.01939
606.014	473.83257
606.471	448.92721
606.928	469.81732
607.385	601.16013
607.842	775.34756
608.299	789.40238
608.755	752.39703
609.212	702.20134
609.668	620.07377
610.125	748.40062
610.581	791.45396
611.037	684.23645
611.493	633.20214
611.949	547.07339
612.405	525.85043
612.861	637.20858
613.316	527.03407
613.772	558.04528
614.227	500.97786
614.683	579.00659
615.138	565.07798
615.593	577.09134
616.048	576.07854
616.503	568.15274
616.958	528.09874
617.412	551.07464
617.867	480.88366
618.321	553.9399
618.776	521.95989
619.23	573.1081
619.684	620.14337
620.138	601.15125
620.592	532.083
621.046	519.0265
621.5	487.00405
621.954	496.94937
622.407	496.93789
622.861	464.9672
623.314	501.97123
623.768	432.87048
624.221	430.72896
624.674	434.86647
625.127	421.85827
625.58	431.85908
626.033	460.88216
626.485	386.8132
626.938	430.89633
627.39	444.90166
627.843	374.76887
628.295	369.75979
628.747	357.75889
629.199	348.70929
629.651	324.66368
630.103	363.74441
630.555	337.6436
631.006	358.75621
631.458	373.79014
631.909	358.7456
632.361	276.59298
632.812	292.61843
633.263	310.6123
633.714	282.5583
634.165	310.69123
634.616	249.55166
635.067	262.54276
635.518	283.62672
635.968	273.51125
636.419	239.48835
636.869	291.64336
637.319	226.49183
637.769	201.4258
638.219	280.62563
638.669	164.37356
639.119	235.54122
639.569	220.50212
640.019	227.49768
640.468	184.39345
640.918	246.56032
641.367	239.50785
641.816	253.53478
642.265	204.45056
642.714	191.42335
643.163	176.38921
643.612	171.39336
644.061	128.26339
644.51	146.32192
644.958	156.3317
645.406	159.36693
645.855	207.48567
646.303	207.46435
646.751	155.34126
647.199	180.39489
647.647	154.3434
648.095	179.39576
648.543	195.38669
648.99	136.31591
649.438	229.51581
649.885	162.38847
650.333	169.31946
650.78	121.28545
651.227	179.42063
651.674	136.30276
652.121	151.35733
652.568	176.4135
653.015	181.44318
653.461	144.33383
653.908	145.33008
654.354	147.34288
654.801	110.2535
655.247	152.327
655.693	143.36346
656.139	146.34209
656.585	133.31279
657.031	105.24096
657.477	109.23273
657.922	74.16924
658.368	121.29374
658.813	186.42196
659.259	117.27645
659.704	124.28451
660.149	108.24879
660.594	144.33555
661.039	137.30733
661.484	146.34316
661.929	157.36043
662.373	122.30276
662.818	124.30311
663.262	101.24086
663.707	104.26063
664.151	135.32514
664.595	109.26034
665.039	120.2953
665.483	129.32369
665.927	146.33941
666.371	56.12983
666.814	141.33276
667.258	112.26253
667.701	133.28606
668.145	135.33227
668.588	94.22987
669.031	46.10875
669.474	141.33573
669.917	136.29975
670.36	134.32877
670.803	139.33249
671.245	134.28182
671.688	139.33604
672.13	90.20227
672.573	163.40812
673.015	100.23989
673.457	109.23787
673.899	127.30599
674.341	122.293
674.783	111.26521
675.225	109.26709
675.666	84.20205
676.108	78.17127
676.549	135.31836
676.991	69.15396
677.432	103.20702
677.873	99.22992
678.314	136.32302
678.755	106.25767
679.196	65.15042
679.637	137.33308
680.078	139.32435
680.518	132.30747
680.959	94.22593
681.399	129.3182
681.839	89.21744
682.28	98.24187
682.72	69.15962
683.16	117.29041
683.6	133.3035
684.039	124.25987
684.479	39.09687
684.919	64.14896
685.358	111.28133
685.798	104.27184
686.237	101.24519
686.676	148.3427
687.115	118.27767
687.554	94.22438
687.993	96.21443
688.432	83.19154
688.871	78.17882
689.309	100.23971
689.748	107.22628
690.186	119.28476
690.625	62.14709
691.063	104.25015
691.501	105.26005
691.939	119.29613
692.377	105.25662
692.815	63.15225
693.253	131.31479
693.69	54.12091
694.128	87.21184
694.565	70.16876
695.003	115.29147
695.44	82.19439
695.877	78.18383
696.314	87.18986
696.751	147.33518
697.188	109.25154
697.625	140.32186
698.061	82.19821
698.498	127.30738
698.934	109.26332
699.371	52.12413
699.807	127.30054
700.243	104.2511
700.679	80.18348
701.115	86.20458
701.551	111.26257
701.987	113.25589
702.422	39.09415
702.858	91.21826
703.294	138.31294
703.729	115.28179
704.164	100.24181
704.599	121.27077
705.035	53.12065
705.47	80.19592
705.904	91.2136
706.339	137.31905
706.774	75.17755
707.209	44.10322
707.643	77.18665
708.078	88.21559
708.512	67.16879
708.946	78.18882
709.38	82.19611
709.814	102.23497
710.248	118.28791
710.682	65.15638
711.116	40.0968
711.549	68.17671
711.983	93.21659
712.416	83.19816
712.85	101.25252
713.283	90.21459
713.716	129.32358
714.149	142.33792
714.582	86.19526
715.015	66.16689
715.448	148.3709
715.881	105.23205
716.313	98.23106
716.746	112.26438
717.178	90.21771
717.61	123.31141
718.043	92.2304
718.475	122.29578
718.907	185.46286
719.339	65.14929
719.77	107.25429
720.202	129.32521
720.634	77.18868
721.065	116.27552
721.497	104.25564
721.928	83.20496
722.359	68.16536
722.79	100.24026
723.221	104.26232
723.652	164.41941
724.083	129.29117
724.514	132.30335
724.945	101.23855
725.375	104.24215
725.806	99.24806
726.236	125.31951
726.666	155.36495
727.096	112.2752
727.526	86.21925
727.956	90.20617
728.386	171.41698
728.816	70.17827
729.246	78.19081
729.675	96.23694
730.105	159.38845
730.534	147.34261
730.964	143.35972
731.393	182.44719
731.822	141.35812
732.251	133.33613
732.68	197.45823
733.109	135.33141
733.537	149.35764
733.966	115.28544
734.395	124.28656
734.823	125.28271
735.251	136.3265
735.68	192.47438
736.108	166.41585
736.536	158.37035
736.964	130.30138
737.392	148.36795
737.82	177.42031
738.247	170.40346
738.675	199.4689
739.102	128.31858
739.53	138.3492
739.957	158.4025
740.384	215.52113
740.811	184.46028
741.238	136.33059
741.665	144.33238
742.092	203.4774
742.519	145.35635
742.945	170.40408
743.372	149.36632
743.798	154.39245
744.225	149.35219
744.651	208.51258
745.077	151.3737
745.503	193.46412
745.929	221.51973
746.355	237.57661
746.781	225.54598
747.207	109.25595
747.632	172.41417
748.058	203.49796
748.483	180.40984
748.908	189.46276
749.334	202.48788
749.759	214.49512
750.184	186.43683
750.609	246.58965
751.033	245.5656
751.458	274.59654
751.883	208.50635
752.307	189.43858
752.732	149.36889
753.156	252.60587
753.58	249.57666
754.005	263.64893
754.429	194.44903
754.853	220.53355
755.277	182.42526
755.7	247.59711
756.124	219.53202
756.548	234.5416
756.971	215.51486
757.394	240.60315
757.818	229.57582
758.241	255.6292
758.664	196.48657
759.087	217.47435
759.51	279.67242
759.933	221.52033
760.356	254.63351
760.778	279.66402
761.201	251.59463
761.623	284.66695
762.046	283.65019
762.468	310.71719
762.89	268.64213
763.312	270.63951
763.734	268.6257
764.156	244.58708
764.578	282.62776
765	252.59827
765.421	236.58414
765.843	278.7059
766.264	268.6284
766.686	238.58326
767.107	248.58492
767.528	224.55221
767.949	244.60438
768.37	244.58329
768.791	290.67758
769.212	203.4998
769.632	235.53365
770.053	256.6551
770.473	297.69625
770.894	263.63938
771.314	248.57696
771.734	217.49498
772.154	257.64111
772.575	237.53579
772.994	220.48853
773.414	265.61736
773.834	254.61692
774.254	217.51965
774.673	254.60116
775.093	232.55969
775.512	201.48555
775.931	226.55939
776.351	216.52444
776.77	223.53218
777.189	257.59306
777.607	247.61326
778.026	226.54934
778.445	173.42626
778.864	294.72714
779.282	223.52382
779.701	191.47286
780.119	229.56401
780.537	156.38459
780.955	210.52303
781.373	222.53597
781.791	187.41275
782.209	214.48232
782.627	181.4688
783.045	195.43995
783.462	186.46679
783.88	176.44788
784.297	194.47861
784.715	139.35329
785.132	190.45144
785.549	178.43785
785.966	179.44267
786.383	126.30777
786.8	186.42435
787.217	164.38336
787.633	127.31442
788.05	200.46567
788.466	219.50417
788.883	132.33354
789.299	158.37556
789.715	162.38832
790.131	157.38527
790.547	128.31719
790.963	140.344
791.379	180.44701
791.795	144.32535
792.21	153.35336
792.626	143.33578
793.041	149.36334
793.457	122.29944
793.872	126.29407
794.287	81.19339
794.702	160.38878
795.117	84.20854
795.532	93.23244
795.947	153.36374
796.362	130.30805
796.776	174.40114
797.191	101.24639
797.605	72.16936
798.02	116.28049
798.434	143.31511
798.848	87.21397
799.262	76.18861
799.676	138.33331
800.09	107.262
800.504	91.2205
800.918	79.18326
801.331	112.29185
801.745	42.09733
802.158	62.15544
802.572	108.26076
802.985	108.25987
803.398	60.14372
803.811	143.36346
804.224	92.22848
804.637	72.1718
805.05	96.22203
805.462	106.25921
805.875	79.20448
806.288	32.07785
806.7	82.20587
807.112	70.16273
807.525	121.29627
807.937	52.1291
808.349	83.20767
808.761	84.2064
809.173	121.29087
809.584	104.25583
809.996	38.09368
810.408	40.10377
810.819	90.21121
811.231	151.38461
811.642	198.46083
812.053	333.75248
812.464	389.86896
812.875	350.85034
813.286	226.56594
813.697	191.43708
814.108	85.20736
814.519	61.13656
814.929	115.29116
815.34	98.2367
815.75	99.25029
816.16	107.2651
816.571	97.25081
816.981	79.18652
817.391	92.22146
817.801	75.18616
818.211	61.14586
818.62	84.20182
819.03	51.12553
819.44	100.25986
819.849	72.18142
820.259	57.14626
820.668	38.09403
821.077	72.17875
821.486	75.18064
821.895	74.18284
822.304	55.14603
822.713	55.13051
823.122	38.0954
823.531	36.08597
823.939	28.06878
824.348	99.23952
824.756	64.16051
825.164	92.23065
825.573	22.05567
825.981	98.24187
826.389	90.22531
826.797	20.05054
827.205	74.16979
827.612	74.1825
828.02	27.06394
828.428	106.26813
828.835	63.16588
829.243	109.25794
829.65	46.11482
830.057	61.14831
830.464	60.14645
830.871	48.11546
831.278	53.12852
831.685	111.24583
832.092	70.17137
832.499	38.08375
832.905	84.21203
833.312	83.18895
833.718	90.22335
834.124	73.16679
834.531	63.15894
834.937	82.20986
835.343	63.1522
835.749	105.24366
836.155	64.16757
836.561	66.16236
836.966	60.14694
837.372	60.15286
837.777	69.17177
838.183	85.18848
838.588	45.11215
838.993	96.23248
839.399	46.11286
839.804	-1.00247
840.209	43.10984
840.613	47.10504
841.018	80.20201
841.423	59.15145
841.828	61.15433
842.232	118.28952
842.637	33.07837
843.041	22.05678
843.445	50.12571
843.849	13.03248
844.253	83.19664
844.657	17.04315
845.061	74.16767
845.465	45.10908
845.869	57.13269
846.272	-3.00739
846.676	46.11165
847.079	33.08432
847.483	100.24781
847.886	111.26775
848.289	47.12567
848.692	20.05102
849.095	34.08212
849.498	98.24684
849.901	60.13778
850.304	38.09126
850.707	38.09729
851.109	56.14186
851.512	43.10603
851.914	-3.00764
852.316	44.11162
852.718	-2.00522
853.121	63.15432
853.523	35.08225
853.925	45.11764
854.326	51.1277
854.728	50.12877
855.13	28.07259
855.531	44.10547
855.933	70.1678
856.334	-1.00252
856.736	13.02941
857.137	27.0632
857.538	53.13338
857.939	12.0299
858.34	82.19903
858.741	42.11008
859.142	37.08928
859.542	58.153
859.943	62.15398
860.343	41.10184
860.744	54.1319
861.144	43.10521
861.544	-5.01216
861.945	74.18806
862.345	78.1901
862.745	41.10221
863.145	76.18114
863.544	32.08124
863.944	56.13239
864.344	38.09475
864.743	74.18311
865.143	80.20467
865.542	28.06535
865.941	29.07217
866.34	98.23303
866.74	57.15296
867.139	39.09372
867.537	60.1528
867.936	45.10859
868.335	52.13243
868.734	20.05144
869.132	13.03048
869.531	70.16895
869.929	4.00922
870.327	66.15797
870.726	75.18643
871.124	54.12633
871.522	76.19293
871.92	97.23751
872.318	52.12726
872.715	55.13622
873.113	30.07347
873.511	73.18133
873.908	12.03053
874.306	41.10225
874.703	34.08542
875.1	39.10007
875.497	43.10337
875.894	-18.0447
876.291	32.07889
876.688	48.12396
877.085	49.11775
877.482	57.14267
877.878	42.10137
878.275	40.1019
878.671	54.12037
879.068	45.10888
879.464	53.12818
879.86	33.0784
880.256	77.18931
880.652	9.02308
881.048	42.10435
881.444	75.1779
881.84	35.08928
882.236	65.16316
882.631	45.11068
883.027	39.09475
883.422	69.176
883.817	60.15064
884.213	63.16143
884.608	30.07391
885.003	19.04613
885.398	31.07793
885.793	33.08316
886.188	26.06497
886.582	76.19423
886.977	73.17269
887.371	30.07621
887.766	30.07494
888.16	31.0777
888.554	70.17264
888.949	74.18519
889.343	67.16332
889.737	-3.00807
890.131	36.09061
890.525	65.16591
890.918	26.06577
891.312	42.10076
891.706	70.18316
892.099	68.17262
892.492	60.12936
892.886	46.11274
893.279	40.10216
893.672	50.12738
894.065	41.10292
894.458	45.11337
894.851	68.16623
895.244	31.07949
895.637	48.11576
896.029	50.12236
896.422	38.09313
896.814	25.06248
897.206	18.04316
897.599	68.16777
897.991	22.05352
898.383	9.02145
898.775	37.08382
899.167	-3.00707
899.559	92.23131
899.951	46.10863
900.342	62.15745
900.734	6.01502
901.125	71.18574
901.517	30.07396
901.908	47.11286
902.299	35.08586
902.69	53.12508
903.082	61.14753
903.473	15.03618
903.863	54.13776
904.254	-5.01174
904.645	100.24663
905.036	10.02441
905.426	119.26892
905.817	28.06903
906.207	-2.00482
906.597	4.00945
906.987	57.14764
907.378	63.15905
907.768	62.16366
908.158	19.04663
908.547	16.04159
908.937	81.20683
909.327	55.13352
909.717	92.23197
910.106	62.14868
910.495	52.12985
910.885	42.10658
911.274	71.17688
911.663	88.22197
912.052	83.20368
912.441	48.12216
912.83	26.06001
913.219	74.19296
913.608	13.03208
913.997	0
914.385	98.23214
914.774	65.15792
915.162	58.13808
915.55	59.14259
915.939	44.11122
916.327	54.13475
916.715	27.06911
917.103	73.17901
917.491	80.19694
917.878	31.07653
918.266	53.13742
918.654	72.1833
919.041	21.05511
919.429	35.08289
919.816	36.09152
920.203	34.08274
920.591	69.17058
920.978	88.21407
921.365	53.13903
921.752	17.04081
922.139	63.1365
922.525	27.06515
922.912	60.14612
923.299	49.12185
923.685	31.08115
924.072	47.10851
924.458	16.0399
924.844	22.05474
925.231	-6.01412
925.617	9.02306
926.003	68.1733
926.389	57.14365
926.774	43.10914
927.16	56.13898
927.546	26.06666
927.931	80.19861
928.317	44.10152
928.702	56.13239
929.088	23.0547
929.473	33.08423
929.858	19.04621
930.243	12.02902
930.628	31.07571
931.013	27.06721
931.398	62.14231
931.783	74.19408
932.167	60.14645
932.552	43.1079
932.937	84.20724
933.321	23.058
933.705	49.12357
934.09	89.22341
934.474	64.15166
934.858	48.12456
935.242	4.00936
935.626	-10.02587
936.009	49.13036
936.393	77.19502
936.777	39.10007
937.16	43.11203
937.544	50.11784
937.927	22.05611
938.311	62.15105
938.694	73.19234
939.077	53.12683
939.46	61.14953
939.843	102.21045
940.226	48.12319
940.609	44.10116
940.991	8.02052
941.374	38.0931
941.757	78.19152
942.139	12.02717
942.522	53.12523
942.904	70.16767
943.286	34.08665
943.668	52.13467
944.05	41.10117
944.432	45.11117
944.814	65.15969
945.196	-22.05434
945.578	19.04543
945.959	42.0986
946.341	88.21455
946.722	53.12435
947.104	37.08868
947.485	65.15084
947.866	38.09595
948.247	23.05832
948.628	56.13648
949.009	-5.01293
949.39	51.12696
949.771	41.09556
950.152	57.13972
950.532	-11.02736
950.913	66.15875
951.293	24.06511
951.674	42.10175
952.054	45.11162
952.434	28.06979
952.814	43.10247
953.194	80.20832
953.574	85.20805
953.954	29.06916
954.334	32.08002
954.714	16.03924
955.093	46.1132
955.473	30.07529
955.853	41.10631
956.232	38.10435
956.611	69.16493
956.99	48.12068
957.37	58.1476
957.749	14.03364
958.128	44.11098
958.506	34.08845
958.885	31.07852
959.264	0
959.643	65.14749
960.021	19.04735
960.4	36.08184
960.778	63.15483
961.156	27.06797
961.535	47.10963
961.913	64.14937
962.291	20.05158
962.669	33.08385
963.047	54.13772
963.424	10.0257
963.802	7.01735
964.18	79.19887
964.557	68.15608
964.935	51.12083
965.312	62.16112
965.69	97.24085
966.067	34.08305
966.444	81.19848
966.821	31.08019
967.198	61.1477
967.575	56.13755
967.952	65.15275
968.329	48.11686
968.705	86.18302
969.082	36.09255
969.458	3.00726
969.835	55.13377
970.211	60.15372
970.587	22.05506
970.963	61.1562
971.339	33.08642
971.715	16.0402
972.091	44.10848
972.467	89.22043
972.843	22.05488
973.219	111.26349
973.594	62.16184
973.97	95.2242
974.345	32.07685
974.721	67.16174
975.096	48.1162
975.471	62.14675
975.846	-3.00728
976.221	35.08912
976.596	25.06021
976.971	44.10876
977.346	-2.0047
977.72	50.12738
978.095	60.15479
978.469	50.11935
978.844	77.19266
979.218	4.00967
979.593	78.1859
979.967	26.06363
980.341	60.13789
980.715	40.10097
981.089	0
981.463	52.11936
981.837	31.07602
982.21	76.17598
982.584	18.04374
982.957	52.1298
983.331	41.0971
983.704	21.05188
984.078	6.01491
984.451	71.17668
984.824	12.02943
985.197	42.10217
985.57	42.10549
985.943	41.10143
986.316	64.15685
986.688	46.11102
987.061	75.17494
987.434	59.15351
987.806	29.07061
988.179	26.06164
988.551	117.29327
988.923	47.11581
989.295	73.18166
989.667	16.03847
990.039	73.17961
990.411	58.13329
990.783	37.08542
991.155	14.03387
991.527	87.21279
991.898	0
992.27	36.08928
992.641	61.15274
993.012	80.18715
993.384	28.06707
993.755	49.12494
994.126	61.14642
994.497	-11.0273
994.868	28.0646
995.239	49.11878
995.61	30.07575
995.98	5.01225
996.351	-15.03759
996.722	-12.02817
997.092	-10.02395
997.462	-26.06164
997.833	32.07612
998.203	45.1092
998.573	-6.01509
998.943	64.14967
999.313	30.07216
999.683	21.05067
1000.053	49.11276
1000.423	7.01715
1000.792	73.18843
1001.162	20.04949
1001.531	36.08898
1001.901	15.03763
1002.27	48.10735
1002.639	29.07436
1003.009	30.07161
1003.378	68.1733
1003.747	78.18326
1004.116	-9.02178
1004.485	49.11712
1004.853	36.09142
1005.222	34.08598
1005.591	68.16089
1005.959	38.08582
1006.328	2.00454
1006.696	3.0073
1007.064	70.17543
1007.433	36.09019
1007.801	76.18564
1008.169	67.16867
1008.537	63.13912
1008.905	-2.00471
1009.273	-3.00748
1009.64	-13.03138
1010.008	40.09552
1010.375	86.20741
1010.743	69.15873
1011.11	18.04285
1011.478	29.07204
1011.845	51.1199
1012.212	1.00229
1012.579	28.06901
1012.946	91.21485
1013.313	60.14251
1013.68	51.1146
1014.047	2.00481
1014.414	23.0546
1014.78	34.08472
1015.147	56.13526
1015.513	19.04604
1015.88	67.17078
1016.246	50.12341
1016.612	54.1235
1016.978	23.05663
1017.344	29.07193
1017.71	111.26754
1018.076	69.16209
1018.442	82.20971
1018.808	46.11503
1019.174	9.02274
1019.539	86.19653
1019.905	39.09215
1020.27	2.00498
1020.636	49.11748
1021.001	70.1669
1021.366	-18.04377
1021.731	45.11579
1022.096	3.00763
1022.461	17.04048
1022.826	41.09759
1023.191	12.03168
1023.556	39.09158
1023.92	41.10095
1024.285	60.14612
1024.649	68.16604
1025.014	57.14097
1025.378	63.15797
1025.742	37.09207
1026.107	7.01597
1026.471	35.08193
1026.835	21.05232
1027.199	37.08925
1027.562	23.05373
1027.926	57.13915
1028.29	59.14901
1028.654	41.09447
1029.017	52.12773
1029.381	36.0862
1029.744	4.01028
1030.107	72.16956
1030.471	56.13388
1030.834	2.00459
1031.197	59.14183
1031.56	46.10858
1031.923	38.09841
1032.286	62.14522
1032.648	24.05766
1033.011	-30.06994
1033.374	32.07545
1033.736	13.03438
1034.099	25.06119
1034.461	26.06593
1034.823	-3.00754
1035.185	30.07575
1035.548	51.12404
1035.91	-2.00484
1036.272	49.1115
1036.634	39.09557
1036.995	42.09883
1037.357	44.10712
1037.719	34.0829
1038.08	69.16316
1038.442	49.11627
1038.803	64.15318
1039.165	39.09857
1039.526	-1.00244
1039.887	32.0768
1040.248	19.04706
1040.609	59.14548
1040.97	46.11245
1041.331	42.10643
1041.692	-19.04493
1042.053	50.1138
1042.413	43.1003
1042.774	51.12395
1043.134	55.13076
1043.495	21.05304
1043.855	42.10198
1044.215	29.07222
1044.576	13.03129
1044.936	73.16652
1045.296	48.11977
1045.656	33.08119
1046.016	18.04369
1046.375	36.08751
1046.735	-23.05289
1047.095	18.04237
1047.454	32.06804
1047.814	33.07954
1048.173	44.10519
1048.533	34.0781
1048.892	-12.02913
1049.251	72.17992
1049.61	7.01736
1049.969	28.06625
1050.328	54.11692
1050.687	54.13122
1051.046	49.11927
1051.405	38.09468
1051.763	12.02779
1052.122	11.02761
1052.48	83.20217
1052.839	13.03079
1053.197	34.08023
1053.555	80.1812
1053.914	27.06628
1054.272	38.09203
1054.63	18.04425
1054.988	5.01197
1055.345	38.082
1055.703	77.18426
1056.061	61.15653
1056.419	30.07788
1056.776	50.12118
1057.134	29.06738
1057.491	28.07035
1057.848	43.10712
1058.206	52.12218
1058.563	22.04875
1058.92	62.14248
1059.277	48.11838
1059.634	65.15239
1059.991	66.15755
1060.348	-4.00913
1060.704	2.00481
1061.061	84.19374
1061.418	26.0633
1061.774	24.0595
1062.131	30.07954
1062.487	23.05403
1062.843	53.13199
1063.199	39.09712
1063.555	4.00935
1063.911	72.18103
1064.267	54.11247
1064.623	24.05854
1064.979	85.1999
1065.335	84.19936
1065.691	55.13161
1066.046	46.10117
1066.402	21.04796
1066.757	52.13112
1067.112	32.07875
1067.468	12.02852
1067.823	40.09629
1068.178	39.09447
1068.533	65.15703
1068.888	80.18994
1069.243	28.06934
1069.598	18.04397
1069.952	-16.03649
1070.307	16.03982
1070.662	35.08328
1071.016	3.00678
1071.371	2.00459
1071.725	58.13845
1072.079	64.15341
1072.434	58.14062
1072.788	28.06691
1073.142	57.13993
1073.496	39.09265
1073.85	35.08135
1074.203	51.12362
1074.557	69.18278
1074.911	54.1287
1075.265	51.11845
1075.618	66.16056
1075.971	64.15172
1076.325	48.12194
1076.678	-5.01155
1077.031	48.10859
1077.385	22.04871
1077.738	9.02047
1078.091	-16.03684
1078.444	17.0397
1078.796	57.13957
1079.149	9.02253
1079.502	27.06402
1079.855	30.07018
1080.207	54.13284
1080.56	34.08805
1080.912	61.14809
1081.264	52.12508
1081.617	58.14104
1081.969	26.06582
1082.321	27.06616
1082.673	3.00691
1083.025	45.10678
1083.377	57.12207
1083.728	42.09806
1084.08	50.12472
1084.432	43.10376
1084.783	9.02124
1085.135	56.14009
1085.486	-4.00924
1085.838	50.12304
1086.189	30.07303
1086.54	22.05278
1086.891	16.04068
1087.242	33.08053
1087.593	55.13367
1087.944	26.05908
1088.295	64.14496
1088.646	2.00489
1088.996	8.01941
1089.347	44.108
1089.698	-26.0623
1090.048	44.1143
1090.398	39.09058
1090.749	49.11717
1091.099	8.02025
1091.449	34.08487
1091.799	61.15229
1092.149	3.00737
1092.499	29.07096
1092.849	27.06885
1093.199	59.14752
1093.548	26.0627
1093.898	42.10514
1094.248	39.10032
1094.597	-10.02577
1094.947	69.18333
1095.296	14.03477
1095.645	50.12993
1095.994	27.06508
1096.343	69.17289
1096.692	-2.0053
1097.041	-6.01638
1097.39	21.0529
1097.739	10.02615
1098.088	81.21571
1098.437	-20.05311
1098.785	45.12131
1099.134	56.14842
1099.482	67.18361
1099.83	53.13908
1100.179	25.06542
1100.527	53.14063
1100.875	37.09795
1101.223	18.04801
1101.571	14.03887
1101.919	-7.01845
1102.267	43.12108
1102.615	8.02571
1102.962	20.06432
1103.31	6.01928
1103.658	20.06435
