Data from N2 R5 sample 8_Subt2__4__13-53-40-210.txt Node

Date: Fri Aug 29 13:53:40 PDT 2025
User: uwsun
Spectrometer: HDX01956
Trigger mode: 0
Integration Time (sec): 5.000000E-1
Scans to average: 1
Nonlinearity correction enabled: true
Boxcar width: 0
Storing dark spectrum: false
XAxis mode: Wavelengths
Number of Pixels in Spectrum: 2068
>>>>>Begin Spectral Data<<<<<
194.03	419.09633
194.578	431.28527
195.127	427.25326
195.676	450.32104
196.225	466.13615
196.773	516.29362
197.321	720.69591
197.87	960.94955
198.418	943.89198
198.966	913.85781
199.513	935.78376
200.061	882.73898
200.609	938.95494
201.156	904.47546
201.704	885.73144
202.251	888.85067
202.798	907.83891
203.345	1017.90211
203.892	941.82208
204.438	1028.83355
204.985	930.65748
205.532	944.92486
206.078	1008.86163
206.624	1005.84915
207.17	1014.74632
207.716	994.80741
208.262	993.40328
208.808	944.75622
209.354	995.81335
209.899	1022.96646
210.445	987.8459
210.99	1033.83918
211.535	1075.85319
212.08	1054.80099
212.625	1043.96138
213.17	968.88291
213.715	918.51511
214.259	989.7244
214.804	966.82655
215.348	995.69394
215.892	1018.82594
216.436	1009.74644
216.98	1036.68046
217.524	978.73697
218.068	996.91361
218.612	972.88085
219.155	959.70622
219.698	986.77202
220.242	963.85233
220.785	895.61181
221.328	897.74669
221.871	951.87651
222.414	907.76702
222.956	863.61518
223.499	862.49568
224.041	914.64316
224.583	917.50635
225.126	875.47706
225.668	875.65783
226.21	845.67958
226.751	832.39705
227.293	884.55908
227.835	783.52296
228.376	936.65361
228.918	890.76954
229.459	859.67576
230	892.64124
230.541	868.54992
231.082	875.65138
231.622	890.58031
232.163	896.67747
232.704	856.66319
233.244	835.63349
233.784	888.70336
234.324	845.41083
234.864	863.50494
235.404	904.66087
235.944	915.66892
236.484	888.73528
237.023	878.59928
237.563	871.54529
238.102	929.67403
238.641	918.80244
239.18	832.50537
239.719	886.73626
240.258	948.60025
240.797	896.64449
241.335	924.74189
241.874	895.25685
242.412	920.68779
242.95	864.58803
243.488	945.62065
244.026	909.58537
244.564	931.40958
245.102	1003.65181
245.64	924.70874
246.177	910.53841
246.715	970.76189
247.252	941.62927
247.789	969.3097
248.326	885.62142
248.863	959.5468
249.4	926.58332
249.936	952.42394
250.473	963.67365
251.009	929.59058
251.546	959.55639
252.082	952.53936
252.618	964.57901
253.154	931.68791
253.69	882.50061
254.226	867.58678
254.761	976.61207
255.297	918.48836
255.832	928.65221
256.367	956.6829
256.903	941.52108
257.438	1004.74373
257.972	965.57934
258.507	967.62493
259.042	940.49939
259.576	919.44367
260.111	960.65041
260.645	989.55233
261.179	954.64879
261.713	920.51339
262.247	994.6827
262.781	993.48067
263.315	956.75046
263.849	979.83091
264.382	1025.71432
264.915	971.67071
265.449	962.7279
265.982	981.63601
266.515	1008.81073
267.048	979.48084
267.58	1054.64102
268.113	963.49827
268.646	990.80831
269.178	977.57506
269.71	972.53654
270.243	1067.7392
270.775	996.88704
271.307	1038.82766
271.838	1088.86425
272.37	989.79876
272.902	1021.6732
273.433	984.54311
273.965	1057.86267
274.496	1036.89442
275.027	1041.88305
275.558	1065.85829
276.089	941.70608
276.62	1056.97568
277.15	1059.9021
277.681	1020.57308
278.211	1032.84922
278.741	978.53366
279.272	1039.67921
279.802	1030.88154
280.332	1021.72623
280.861	1061.82898
281.391	1002.61872
281.921	1046.81786
282.45	1087.9575
282.98	1094.06964
283.509	1092.70246
284.038	1073.7091
284.567	1124.83508
285.096	1129.91262
285.625	1098.72179
286.153	1070.75822
286.682	1048.67813
287.21	1078.82738
287.739	1098.80841
288.267	1106.86897
288.795	1189.21118
289.323	1060.72341
289.851	1153.84658
290.378	1215.80195
290.906	1131.881
291.433	1143.98544
291.961	1160.75472
292.488	1138.97205
293.015	1086.75896
293.542	1150.0127
294.069	1100.87786
294.596	1166.9899
295.122	1166.88282
295.649	1260.78542
296.175	1228.99905
296.702	1254.02464
297.228	1191.96392
297.754	1184.74451
298.28	1246.82096
298.806	1260.98191
299.332	1250.74891
299.857	1208.765
300.383	1271.15196
300.908	1259.97863
301.433	1243.97466
301.958	1263.88613
302.483	1241.0378
303.008	1317.11335
303.533	1302.25505
304.058	1297.96056
304.582	1214.85332
305.107	1260.17394
305.631	1373.92948
306.155	1270.86313
306.679	1328.91815
307.203	1294.87322
307.727	1378.01108
308.251	1375.12786
308.775	1362.9653
309.298	1309.94248
309.822	1442.24218
310.345	1426.02485
310.868	1416.03311
311.391	1430.14647
311.914	1369.11973
312.437	1382.8842
312.96	1473.01367
313.482	1463.02045
314.005	1447.18453
314.527	1453.32543
315.049	1564.31361
315.571	1494.81348
316.093	1584.22282
316.615	1591.12439
317.137	1572.80221
317.659	1632.19508
318.18	1634.16494
318.702	1560.97208
319.223	1666.65532
319.744	1651.88866
320.265	1591.07851
320.786	1602.13722
321.307	1685.22128
321.828	1637.88201
322.348	1729.03431
322.869	1705.00097
323.389	1516.03761
323.909	1744.94253
324.43	1871.19037
324.95	1787.91151
325.47	1826.1509
325.989	1864.00506
326.509	1820.735
327.029	1919.82517
327.548	1897.79707
328.067	1994.05282
328.587	1946.19299
329.106	1930.82435
329.625	2027.47586
330.144	2024.86053
330.662	1999.84515
331.181	2056.89497
331.7	2059.88378
332.218	2135.59123
332.736	2141.86248
333.255	2143.81168
333.773	2215.86847
334.291	2301.11683
334.808	2207.59915
335.326	2284.6355
335.844	2386.6628
336.361	2346.0022
336.879	2306.65121
337.396	2384.76418
337.913	2500.53968
338.43	2528.42992
338.947	2516.63978
339.464	2520.1974
339.981	2513.55906
340.497	2578.74172
341.014	2535.64373
341.53	2554.29365
342.046	2672.58872
342.562	2601.70092
343.078	2712.37541
343.594	2695.42971
344.11	2747.3737
344.626	2813.57057
345.141	2806.12158
345.657	2860.1095
346.172	2805.32163
346.687	2950.02836
347.202	2937.91621
347.717	2975.14171
348.232	3113.27451
348.747	3031.91015
349.261	3021.62296
349.776	3090.92766
350.29	3041.07212
350.805	3285.05372
351.319	3278.7452
351.833	3101.64867
352.347	3231.74113
352.861	3254.65937
353.374	3312.62659
353.888	3318.77624
354.401	3268.55917
354.915	3342.33653
355.428	3398.73757
355.941	3478.38833
356.454	3573.26368
356.967	3452.48246
357.48	3543.30967
357.993	3539.56115
358.505	3530.47645
359.018	3633.41651
359.53	3724.24353
360.042	3736.96049
360.554	3836.21326
361.066	3685.26569
361.578	3739.83266
362.09	3777.11381
362.602	3845.75181
363.113	3871.89212
363.625	3871.75696
364.136	4067.58525
364.647	3949.67709
365.158	4120.66797
365.669	4195.7191
366.18	4035.72615
366.691	4069.47963
367.201	4063.70353
367.712	4132.46241
368.222	4131.45563
368.733	4324.17103
369.243	4431.14841
369.753	4547.22795
370.263	4563.28089
370.773	4541.35377
371.282	4528.18535
371.792	4697.93955
372.301	4862.02867
372.811	4972.18486
373.32	4862.75005
373.829	5055.85012
374.338	5330.83951
374.847	5300.8281
375.356	5511.91491
375.865	5801.23481
376.373	5834.22482
376.882	6210.4743
377.39	6359.80779
377.898	6342.95285
378.407	6671.01124
378.915	7049.27976
379.423	7134.38173
379.93	7568.34538
380.438	7756.35637
380.946	8280.56448
381.453	8445.08812
381.96	8874.97711
382.468	9357.68172
382.975	10304.22093
383.482	10519.82418
383.989	10565.81379
384.495	10976.05015
385.002	11391.38869
385.509	12037.92768
386.015	12885.63978
386.521	13636.63339
387.028	13912.75211
387.534	14632.10988
388.04	15099.52658
388.546	15200.54584
389.051	15685.53244
389.557	17265.11823
390.063	18876.5048
390.568	19520.34996
391.073	19773.69567
391.578	20768.8522
392.084	21127.15755
392.589	21343.97619
393.093	22589.79558
393.598	25179.84487
394.103	27459.9687
394.607	30349.68244
395.112	32339.94754
395.616	34303.43424
396.12	37132.3348
396.624	40467.91151
397.128	42299.82449
397.632	40962.37582
398.136	39172.79427
398.639	36273.96993
399.143	32503.66402
399.646	28888.45294
400.15	25083.82847
400.653	20124.16724
401.156	13866.23708
401.659	5169.95759
402.162	1054.15589
402.664	0
403.167	0
403.67	0
404.172	0
404.674	0
405.176	0
405.678	0
406.18	0
406.682	0
407.184	0
407.686	0
408.187	0
408.688	0
409.19	0
409.691	0
410.192	0
410.693	0
411.194	435.30976
411.694	4082.94878
412.195	8864.71461
412.696	12089.80453
413.196	12760.96929
413.696	12863.67595
414.196	13703.56671
414.696	17261.84252
415.196	21764.24417
415.696	29583.19008
416.196	36460.31858
416.695	40057.39798
417.195	41392.74103
417.694	42311.08144
418.194	43882.52025
418.693	44704.85811
419.192	45402.14938
419.691	45678.73777
420.19	46397.77183
420.688	47048.08236
421.187	46477.81084
421.685	43862.93605
422.184	40427.46615
422.682	35131.43573
423.18	29461.20924
423.678	25732.06295
424.176	24167.72771
424.674	22557.95407
425.172	21534.33742
425.669	20534.12927
426.167	19269.30346
426.664	17475.50883
427.161	16108.46867
427.659	14765.5594
428.156	13746.75784
428.652	12989.85539
429.149	12375.71599
429.646	11806.89284
430.143	11566.77013
430.639	10691.1426
431.135	10027.26023
431.632	9477.29063
432.128	8907.10534
432.624	8393.41211
433.12	7916.43187
433.616	7668.21887
434.111	7159.83271
434.607	7087.1501
435.103	7063.24761
435.598	6859.58399
436.093	6585.29908
436.588	6224.68963
437.083	5883.21738
437.578	5689.02137
438.073	5141.81776
438.568	5191.89637
439.062	5051.75267
439.557	5018.91052
440.051	4665.87898
440.546	4521.93324
441.04	4365.14031
441.534	4376.3612
442.028	4319.29185
442.522	4224.33457
443.015	4138.16897
443.509	4090.55853
444.002	3847.69221
444.496	3811.40813
444.989	3758.8124
445.482	3745.88839
445.975	3711.57364
446.468	3788.43641
446.961	3526.59404
447.454	3515.80261
447.947	3483.94272
448.439	3447.15036
448.931	3314.92591
449.424	3405.37824
449.916	3331.27436
450.408	3225.05093
450.9	3115.38602
451.392	3105.58364
451.884	3056.32995
452.375	2950.61793
452.867	3003.38471
453.358	2982.33136
453.849	2780.27937
454.341	2848.44439
454.832	2677.39811
455.323	2757.78561
455.814	2868.58417
456.304	2759.66235
456.795	2637.70753
457.285	2770.63721
457.776	2632.81744
458.266	2575.90823
458.756	2568.01971
459.247	2436.98877
459.737	2364.0298
460.226	2350.87293
460.716	2297.12105
461.206	2204.19716
461.695	2294.38164
462.185	2312.16467
462.674	2276.12576
463.163	2202.03206
463.653	2186.88737
464.142	2101.32981
464.63	2133.43371
465.119	2091.2301
465.608	2026.24661
466.096	2002.13603
466.585	2046.34112
467.073	1928.47533
467.561	1908.49921
468.05	1989.41264
468.538	1901.60967
469.026	1841.52389
469.513	1764.15241
470.001	1811.36674
470.489	1773.49708
470.976	1763.46014
471.463	1647.68844
471.951	1610.71739
472.438	1497.472
472.925	1482.45501
473.412	1556.69367
473.899	1542.49779
474.385	1451.6551
474.872	1418.48759
475.359	1407.62322
475.845	1348.20944
476.331	1401.37869
476.817	1346.64034
477.303	1311.49604
477.789	1255.56228
478.275	1242.62573
478.761	1221.56422
479.247	1276.4462
479.732	1112.54641
480.218	1179.74501
480.703	1186.6428
481.188	1121.2735
481.673	1113.40795
482.158	982.14481
482.643	1032.59914
483.128	995.3099
483.612	984.36724
484.097	1055.55564
484.581	1013.41006
485.066	919.3905
485.55	890.17747
486.034	871.14487
486.518	815.21708
487.002	844.3258
487.486	899.3991
487.969	831.32153
488.453	790.34729
488.936	788.15284
489.42	790.13876
489.903	747.30081
490.386	754.74378
490.869	819.16351
491.352	767.29988
491.835	795.06836
492.318	753.14045
492.8	676.94527
493.283	669.21143
493.765	653.14396
494.247	626.05377
494.73	655.01171
495.212	671.1694
495.694	640.06042
496.175	547.94226
496.657	561.9829
497.139	671.78596
497.62	581.99873
498.102	625.13159
498.583	582.08872
499.064	533.86925
499.545	614.01555
500.026	492.82283
500.507	532.92301
500.988	519.98259
501.469	512.97431
501.949	555.0394
502.43	439.79823
502.91	450.69624
503.39	478.93173
503.87	454.81733
504.35	481.87684
504.83	460.76465
505.31	464.86836
505.79	394.73843
506.269	433.79011
506.749	390.69489
507.228	360.66737
507.707	440.75077
508.187	447.83881
508.666	375.73112
509.145	355.65794
509.623	318.60039
510.102	434.82868
510.581	372.72303
511.059	379.7586
511.538	363.76391
512.016	402.76422
512.494	373.7293
512.972	384.73248
513.45	334.61607
513.928	357.69603
514.406	344.66128
514.884	344.72059
515.361	355.68555
515.839	348.63579
516.316	359.69693
516.793	333.69307
517.27	322.64167
517.747	329.69237
518.224	307.58204
518.701	329.59362
519.178	283.57747
519.654	289.57041
520.131	309.62995
520.607	333.68134
521.083	287.53907
521.56	276.54002
522.036	329.58815
522.512	312.63968
522.987	273.53478
523.463	264.52242
523.939	305.62179
524.414	351.66352
524.89	260.51595
525.365	268.50375
525.84	211.42018
526.315	294.58724
526.79	281.52546
527.265	254.48402
527.74	257.52561
528.215	278.54651
528.689	224.41627
529.164	256.46461
529.638	240.52518
530.112	218.43361
530.587	273.47996
531.061	210.429
531.534	223.46062
532.008	266.536
532.482	263.50763
532.956	233.50329
533.429	270.55107
533.903	280.51801
534.376	287.52791
534.849	249.48754
535.322	211.42488
535.795	216.45147
536.268	226.46189
536.741	258.52514
537.213	232.45587
537.686	216.44807
538.158	207.39244
538.631	275.56675
539.103	213.40421
539.575	241.42392
540.047	300.54919
540.519	256.52012
540.991	235.4926
541.463	261.53621
541.934	264.5092
542.406	246.49661
542.877	284.53699
543.348	250.51442
543.82	251.52544
544.291	284.55989
544.762	231.46493
545.233	246.52397
545.703	259.47976
546.174	258.50624
546.645	252.50451
547.115	342.68089
547.585	375.70507
548.056	297.59226
548.526	345.66208
548.996	385.75562
549.466	501.97634
549.935	431.81197
550.405	492.83683
550.875	467.87376
551.344	435.83522
551.814	452.8225
552.283	489.83061
552.752	411.7587
553.221	476.79693
553.69	486.83645
554.159	495.94769
554.628	466.80587
555.096	491.97822
555.565	444.7768
556.033	466.8721
556.502	415.81296
556.97	318.58097
557.438	349.68367
557.906	328.65089
558.374	363.68923
558.842	312.62695
559.31	301.56788
559.777	198.41293
560.245	266.536
560.712	246.49045
561.18	256.48214
561.647	310.58529
562.114	256.49899
562.581	347.72414
563.048	307.60367
563.514	293.61363
563.981	287.56301
564.448	267.51461
564.914	370.72635
565.381	346.66769
565.847	346.68821
566.313	347.68554
566.779	308.5935
567.245	325.6484
567.711	370.7483
568.176	344.6514
568.642	308.66144
569.108	342.7145
569.573	418.82484
570.038	444.76781
570.504	403.74952
570.969	460.95716
571.434	413.74712
571.899	433.85464
572.363	469.87533
572.828	519.96579
573.293	494.9236
573.757	588.0734
574.222	524.9376
574.686	521.93631
575.15	544.03859
575.614	524.96905
576.078	517.9812
576.542	541.99075
577.006	578.03328
577.469	622.23033
577.933	578.02105
578.396	632.1877
578.86	572.07948
579.323	540.03543
579.786	532.92056
580.249	523.95971
580.712	575.13163
581.175	571.13324
581.637	494.93411
582.1	576.01062
582.563	595.01536
583.025	507.00225
583.487	506.82032
583.95	521.8984
584.412	579.96712
584.874	515.02
585.336	491.95457
585.797	512.89677
586.259	575.09498
586.721	459.88981
587.182	588.11028
587.643	523.96841
588.105	497.96762
588.566	486.83779
589.027	461.9176
589.488	455.86056
589.949	551.08635
590.41	481.75584
590.87	502.94367
591.331	518.91253
591.791	438.83996
592.252	454.85636
592.712	490.97328
593.172	437.81802
593.632	480.86859
594.092	433.80452
594.552	486.85748
595.011	456.86436
595.471	475.87643
595.931	407.75997
596.39	497.97821
596.849	473.91038
597.308	493.8787
597.768	437.93054
598.227	492.97999
598.685	516.97477
599.144	526.00319
599.603	497.97084
600.062	476.81617
600.52	448.82598
600.978	445.88039
601.437	501.94341
601.895	518.89013
602.353	525.9498
602.811	553.99079
603.269	570.10308
603.727	621.18676
604.184	596.06718
604.642	647.25984
605.099	609.12726
605.557	602.18014
606.014	595.01263
606.471	558.12467
606.928	626.04461
607.385	700.31962
607.842	840.43587
608.299	877.52379
608.755	867.56525
609.212	789.31923
609.668	672.14803
610.125	842.54054
610.581	879.5805
611.037	823.43577
611.493	730.35407
611.949	700.32478
612.405	675.04637
612.861	722.34186
613.316	663.25983
613.772	654.19656
614.227	637.20387
614.683	745.23934
615.138	649.21342
615.593	692.27261
616.048	725.30839
616.503	678.34191
616.958	666.34396
617.412	585.13189
617.867	664.1648
618.321	672.10438
618.776	656.16641
619.23	600.15293
619.684	631.1605
620.138	712.32783
620.592	600.20282
621.046	629.21254
621.5	598.20267
621.954	606.12756
622.407	606.11359
622.861	590.19365
623.314	561.07034
623.768	538.05595
624.221	566.92441
624.674	561.08537
625.127	509.01515
625.58	554.07103
626.033	540.01399
626.485	454.94215
626.938	530.07843
627.39	470.9488
627.843	489.97922
628.295	455.91873
628.747	458.95215
629.199	457.90837
629.651	389.7851
630.103	417.8447
630.555	411.77087
631.006	386.81034
631.458	409.85957
631.909	437.89412
632.361	407.84971
632.812	370.77025
633.263	387.75058
633.714	411.78913
634.165	370.81474
634.616	375.80894
635.067	402.80668
635.518	398.86021
635.968	308.57182
636.419	348.69348
636.869	327.7175
637.319	330.70226
637.769	318.6564
638.219	386.84355
638.669	274.61021
639.119	351.78959
639.569	271.61215
640.019	347.74149
640.468	303.6312
640.918	329.73677
641.367	334.695
641.816	359.74119
642.265	296.64115
642.714	318.68615
643.163	320.68632
643.612	256.57886
644.061	247.49462
644.51	294.62811
644.958	252.52461
645.406	293.65805
645.855	260.60368
646.303	281.62073
646.751	252.54352
647.199	261.56281
647.647	194.42901
648.095	254.55276
648.543	270.52603
648.99	258.5848
649.438	275.61357
649.885	242.57143
650.333	280.51491
650.78	222.51342
651.227	253.58592
651.674	212.4645
652.121	214.50023
652.568	219.5102
653.015	269.64783
653.461	217.49577
653.908	228.51029
654.354	224.51455
654.801	181.4112
655.247	249.52448
655.693	230.57554
656.139	225.51902
656.585	222.51301
657.031	135.30794
657.477	189.39653
657.922	205.45646
658.368	233.5537
658.813	233.52353
659.259	179.41784
659.704	202.4562
660.149	203.45874
660.594	183.42315
661.039	205.45343
661.484	194.4517
661.929	186.42453
662.373	165.40625
662.818	197.47499
663.262	185.43405
663.707	153.38004
664.151	195.4643
664.595	125.29763
665.039	209.50583
665.483	206.50971
665.927	207.4754
666.371	118.2702
666.814	197.45986
667.258	146.33994
667.701	188.39957
668.145	200.48633
668.588	184.44239
669.031	168.38777
669.474	177.41853
669.917	175.38255
670.36	178.43316
670.803	215.5068
671.245	175.36472
671.688	204.48712
672.13	146.32435
672.573	190.47339
673.015	159.37713
673.457	181.38896
673.899	188.44772
674.341	170.40454
674.783	216.50569
675.225	182.43991
675.666	122.29133
676.108	131.28443
676.549	193.44999
676.991	170.37138
677.432	174.344
677.873	168.38484
678.314	184.43297
678.755	148.35692
679.196	146.33243
679.637	179.43176
680.078	142.33115
680.518	175.40417
680.959	146.34743
681.399	127.31339
681.839	147.35525
682.28	152.37141
682.72	129.29485
683.16	169.41548
683.6	169.38285
684.039	157.32663
684.479	149.36266
684.919	58.13516
685.358	161.40442
685.798	155.4016
686.237	158.37945
686.676	165.38077
687.115	153.35758
687.554	167.39305
687.993	152.33557
688.432	142.32384
688.871	113.25724
689.309	152.36074
689.748	87.18479
690.186	186.43938
690.625	161.37465
691.063	119.28541
691.501	146.35888
691.939	115.28638
692.377	171.41278
692.815	123.29388
693.253	154.36844
693.69	129.28438
694.128	133.32105
694.565	111.26552
695.003	174.43636
695.44	135.31675
695.877	89.20931
696.314	162.34791
696.751	160.36386
697.188	139.31886
697.625	186.42367
698.061	111.26684
698.498	179.42898
698.934	124.29871
699.371	96.22722
699.807	90.2145
700.243	145.34737
700.679	202.45192
701.115	185.43168
701.551	143.33617
701.987	184.41063
702.422	91.21751
702.858	178.41983
703.294	133.30191
703.729	154.37462
704.164	137.32896
704.599	182.40214
705.035	116.2607
705.47	103.25117
705.904	122.28462
706.339	174.40226
706.774	110.25865
707.209	92.21379
707.643	139.333
708.078	158.38205
708.512	108.27007
708.946	156.37209
709.38	136.3219
709.814	144.32893
710.248	159.38497
710.682	122.29032
711.116	108.258
711.549	151.38678
711.983	95.22116
712.416	150.35352
712.85	154.38133
713.283	142.33519
713.716	181.44974
714.149	197.46383
714.582	142.31874
715.015	200.4936
715.448	179.44607
715.881	172.3748
716.313	117.27484
716.746	136.31953
717.178	133.31911
717.61	173.43409
718.043	158.39095
718.475	148.35706
718.907	166.41675
719.339	123.27921
719.77	125.29603
720.202	154.38649
720.634	133.32251
721.065	164.38591
721.497	143.34897
721.928	124.3039
722.359	94.22747
722.79	112.26847
723.221	159.3971
723.652	189.48121
724.083	117.26473
724.514	150.34347
724.945	126.29615
725.375	79.18485
725.806	149.36997
726.236	185.46787
726.666	143.33748
727.096	167.40617
727.526	150.37807
727.956	110.25097
728.386	184.44759
728.816	122.30783
729.246	166.39942
729.675	132.32363
730.105	140.34324
730.534	167.38769
730.964	175.43768
731.393	196.48034
731.822	152.38531
732.251	126.31884
732.68	185.43134
733.109	156.38147
733.537	163.3902
733.966	193.4722
734.395	186.42453
734.823	161.36146
735.251	147.35216
735.68	217.53368
736.108	213.52905
736.536	191.4448
736.964	163.37541
737.392	189.46636
737.82	173.41113
738.247	168.39886
738.675	208.48925
739.102	137.34042
739.53	142.35906
739.957	154.39259
740.384	217.52578
740.811	193.482
741.238	188.45252
741.665	148.34134
742.092	233.54474
742.519	121.29869
742.945	172.40867
743.372	189.46122
743.798	257.64297
744.225	145.343
744.651	228.55979
745.077	211.51643
745.503	240.57198
745.929	204.48134
746.355	248.60213
746.781	211.51336
747.207	143.33355
747.632	158.38147
748.058	208.50975
748.483	189.42955
748.908	185.4533
749.334	211.50875
749.759	188.43721
750.184	187.43909
750.609	262.62608
751.033	228.52813
751.458	226.49706
751.883	242.58536
752.307	186.43188
752.732	186.45736
753.156	224.54141
753.58	247.57225
754.005	241.59706
754.429	194.44903
754.853	215.52192
755.277	240.55438
755.7	259.6247
756.124	226.54831
756.548	193.45034
756.971	219.52404
757.394	251.62955
757.818	215.54198
758.241	214.53202
758.664	223.55086
759.087	201.44087
759.51	250.60584
759.933	234.54954
760.356	185.4672
760.778	258.61652
761.201	238.56525
761.623	227.53903
762.046	300.68689
762.468	261.60971
762.89	272.65121
763.312	241.57403
763.734	208.49135
764.156	244.58708
764.578	268.59833
765	248.58923
765.421	186.46461
765.843	263.66959
766.264	283.66162
766.686	261.63689
767.107	252.59389
767.528	214.52853
767.949	195.48735
768.37	215.51682
768.791	242.57077
769.212	195.48081
769.632	147.33977
770.053	241.61835
770.473	258.60944
770.894	229.56027
771.314	253.58801
771.734	221.50369
772.154	222.55732
772.575	254.57223
772.994	178.39872
773.414	213.5013
773.834	245.59607
774.254	197.47356
774.673	259.6124
775.093	208.50407
775.512	182.44124
775.931	242.59723
776.351	183.44707
776.77	170.40982
777.189	162.38091
777.607	191.47908
778.026	187.45786
778.445	151.37356
778.864	208.52256
779.282	194.45828
779.701	200.49432
780.119	130.32602
780.537	162.39894
780.955	185.46286
781.373	159.38845
781.791	116.25985
782.209	157.35798
782.627	162.42097
783.045	166.37674
783.462	159.40097
783.88	144.36852
784.297	147.3658
784.715	151.38298
785.132	160.38236
785.549	140.3468
785.966	102.25581
786.383	113.27669
786.8	149.34248
787.217	146.34249
787.633	99.24636
788.05	175.40947
788.466	164.3817
788.883	141.35571
789.299	118.28264
789.715	99.24016
790.131	101.25042
790.547	103.25641
790.963	104.25725
791.379	144.35996
791.795	156.3516
792.21	98.22881
792.626	150.35173
793.041	98.24125
793.457	121.29704
793.872	108.25295
794.287	85.20278
794.702	130.31766
795.117	92.22806
795.532	110.27408
795.947	126.30111
796.362	105.25001
796.776	166.38331
797.191	39.09624
797.605	61.1438
798.02	80.19476
798.434	130.28724
798.848	89.21881
799.262	82.20328
799.676	140.33801
800.09	107.262
800.504	113.27267
800.918	96.22194
801.331	134.34785
801.745	93.21334
802.158	75.18759
802.572	92.2228
802.985	105.2528
803.398	89.212
803.811	116.29625
804.224	102.25285
804.637	49.11744
805.05	65.15126
805.462	47.11619
805.875	65.16865
806.288	53.12842
806.7	70.17612
807.112	73.16961
807.525	62.15347
807.937	42.10446
808.349	72.18051
808.761	91.22332
809.173	61.14831
809.584	103.25342
809.996	48.11812
810.408	63.16279
810.819	80.18811
811.231	114.29226
811.642	169.39559
812.053	284.64817
812.464	309.70167
812.875	299.7334
813.286	172.43492
813.697	177.40618
814.108	95.23132
814.519	58.12992
814.929	108.27378
815.34	84.20342
815.75	89.22541
816.16	80.19919
816.571	81.21002
816.981	98.23052
817.391	60.1453
817.801	49.1222
818.211	49.11744
818.62	84.20182
819.03	73.17894
819.44	87.22659
819.849	97.24331
820.259	82.20949
820.668	51.1259
821.077	41.10236
821.486	65.15685
821.895	106.26037
822.304	72.19063
822.713	64.1516
823.122	45.11284
823.531	53.12615
823.939	79.19222
824.348	70.17029
824.756	42.10575
825.164	65.16375
825.573	51.12839
825.981	74.18344
826.389	116.28903
826.797	68.17036
827.205	51.11756
827.612	44.10912
828.02	32.07571
828.428	69.17569
828.835	66.17369
829.243	85.20208
829.65	29.07261
830.057	68.16511
830.464	66.16092
830.871	83.19831
831.278	59.14291
831.685	72.16075
832.092	116.28155
832.499	52.11427
832.905	84.21203
833.312	52.11912
833.718	75.18664
834.124	70.16003
834.531	39.09881
834.937	78.19976
835.343	55.13307
835.749	75.17508
836.155	64.16757
836.561	63.15506
836.966	62.15178
837.372	59.15033
837.777	32.0802
838.183	84.1863
838.588	49.12203
838.993	79.19193
839.399	25.06158
839.804	44.10764
840.209	36.09207
840.613	28.06283
841.018	74.18706
841.423	33.08509
841.828	15.03826
842.232	94.23166
842.637	42.09957
843.041	16.04134
843.445	43.10825
843.849	26.06481
844.253	43.10266
844.657	39.0986
845.061	31.07086
845.465	19.04628
845.869	74.17169
846.272	16.0393
846.676	55.13327
847.079	43.10968
847.483	67.16703
847.886	108.26066
848.289	52.13892
848.692	38.09664
849.095	57.13708
849.498	92.23197
849.901	65.14911
850.304	65.15531
850.707	62.15806
851.109	77.19433
851.512	28.06923
851.914	17.04316
852.316	72.18174
852.718	-5.01305
853.121	76.18571
853.523	35.08225
853.925	36.09426
854.326	58.14504
854.728	40.1032
855.13	-11.02871
855.531	56.13393
855.933	93.22195
856.334	23.05771
856.736	3.0068
857.137	22.05155
857.538	34.08585
857.939	58.14331
858.34	61.14864
858.741	58.1516
859.142	49.11797
859.542	46.12159
859.943	28.06997
860.343	23.05732
860.744	64.15604
861.144	33.08089
861.544	-7.01703
861.945	30.07683
862.345	38.09331
862.745	77.19071
863.145	73.17409
863.544	59.14906
863.944	-12.02874
864.344	64.15883
864.743	70.17334
865.143	54.13878
865.542	36.08389
865.941	53.13131
866.34	26.06268
866.74	60.16093
867.139	-14.03398
867.537	76.193
867.936	45.10859
868.335	76.19273
868.734	40.10251
869.132	59.13708
869.531	58.1403
869.929	-9.02079
870.327	34.08187
870.726	101.24987
871.124	55.12864
871.522	68.17287
871.92	55.13572
872.318	75.18276
872.715	110.26969
873.113	65.15815
873.511	52.12966
873.908	-9.02298
874.306	30.07497
874.703	48.12029
875.1	55.14074
875.497	49.11766
875.894	33.08119
876.291	30.07399
876.688	54.13931
877.085	51.12251
877.482	43.1079
877.878	43.10376
878.275	43.10949
878.671	66.14675
879.068	29.07038
879.464	31.07529
879.86	29.06895
880.256	89.21833
880.652	41.10454
881.048	40.09941
881.444	57.13567
881.84	32.08167
882.236	29.07327
882.631	31.07644
883.027	24.05847
883.422	17.04376
883.817	-7.01779
884.213	93.23705
884.608	41.1008
885.003	1.00244
885.398	21.05288
885.793	43.10817
886.188	37.09228
886.582	95.24198
886.977	90.2122
887.371	60.15161
887.766	-3.00754
888.16	75.1865
888.554	74.18237
888.949	81.20245
889.343	67.16332
889.737	5.01343
890.131	29.07308
890.525	42.10764
890.918	64.1608
891.312	50.11976
891.706	49.12867
892.099	40.10205
892.492	74.15906
892.886	35.08595
893.279	70.17783
893.672	-4.01029
894.065	45.11288
894.458	75.18793
894.851	73.17828
895.244	36.09223
895.637	25.06055
896.029	-1.00247
896.422	66.16092
896.814	42.10465
897.206	31.07415
897.599	45.11149
897.991	2.00488
898.383	25.05941
898.775	25.05677
899.167	20.04695
899.559	60.15172
899.951	61.14363
900.342	69.17501
900.734	-32.08063
901.125	63.16504
901.517	55.13497
901.908	74.17678
902.299	32.07854
902.69	5.01191
903.082	55.13317
903.473	-9.02181
903.863	60.15291
904.254	56.12993
904.645	19.04756
905.036	-13.03187
905.426	83.18895
905.817	13.03214
906.207	23.05512
906.597	19.04474
906.987	52.13481
907.378	51.12903
907.768	46.12175
908.158	34.08321
908.547	1.00261
908.937	26.06703
909.327	32.07802
909.717	72.18219
910.106	37.08915
910.495	30.07521
910.885	8.02042
911.274	49.12256
911.663	71.17963
912.052	52.12834
912.441	42.107
912.83	38.0875
913.219	80.20839
913.608	36.08846
913.997	4.01011
914.385	47.11243
914.774	29.07093
915.162	17.04079
915.55	57.13781
915.939	2.00509
916.327	35.08764
916.715	38.09708
917.103	74.18143
917.491	51.12622
917.878	77.18847
918.266	44.11426
918.654	46.11764
919.041	15.0394
919.429	38.08994
919.816	39.09909
920.203	14.0342
920.591	58.14368
920.978	7.01729
921.365	12.0317
921.752	37.08847
922.139	47.10218
922.525	53.12726
922.912	23.0564
923.299	22.05498
923.685	37.09676
924.072	78.17896
924.458	27.06719
924.844	12.02991
925.231	66.15319
925.617	2.00513
926.003	52.1329
926.389	34.08604
926.774	19.04843
927.16	29.07232
927.546	3.00772
927.931	70.1741
928.317	16.03712
928.702	3.00717
929.088	-14.03353
929.473	30.07662
929.858	-18.04408
930.243	33.07948
930.628	8.01962
931.013	34.08453
931.398	72.16493
931.783	88.23025
932.167	29.07119
932.552	48.12034
932.937	63.15603
933.321	31.07807
933.705	38.09602
934.09	109.27262
934.474	57.13525
934.858	50.12971
935.242	-24.05645
935.626	22.0566
936.009	33.08803
936.393	34.08677
936.777	10.02579
937.16	24.06273
937.544	39.09211
937.927	3.00768
938.311	32.0784
938.694	48.127
939.077	-2.00484
939.46	67.16405
939.843	50.10437
940.226	31.0798
940.609	42.0966
940.991	56.14241
941.374	-14.03463
941.757	59.14538
942.139	-26.05932
942.522	21.04993
942.904	31.07481
943.286	33.08412
943.668	38.09865
944.05	35.08646
944.432	68.16728
944.814	51.12562
945.196	-3.00738
945.578	1.0024
945.959	-3.0071
946.341	87.21216
946.722	4.00948
947.104	22.05288
947.485	19.04449
947.866	33.0834
948.247	26.06589
948.628	41.10021
949.009	13.03351
949.39	62.15403
949.771	52.12094
950.152	35.08615
950.532	9.02231
950.913	1.00243
951.293	20.05429
951.674	50.12095
952.054	-2.005
952.434	42.10442
952.814	41.09774
953.194	76.19804
953.574	76.18633
953.954	46.10934
954.334	40.09988
954.714	40.09767
955.093	6.01487
955.473	0
955.853	73.18823
956.232	32.08796
956.611	31.07464
956.99	5.01267
957.37	18.04613
957.749	22.05278
958.128	40.10097
958.506	29.0755
958.885	28.07095
959.264	23.05665
959.643	18.04123
960.021	8.01998
960.4	9.02057
960.778	61.14997
961.156	34.08549
961.535	43.10038
961.913	33.07749
962.291	29.07467
962.669	24.06108
963.047	39.09972
963.424	49.12507
963.802	35.0863
964.18	78.19639
964.557	55.12657
964.935	53.12552
965.312	38.09916
965.69	64.15987
966.067	41.10002
966.444	39.09631
966.821	33.08533
967.198	69.16682
967.575	57.13998
967.952	43.10148
968.329	50.12168
968.705	26.05605
969.082	69.17637
969.458	13.03141
969.835	48.1169
970.211	65.16638
970.587	37.09234
970.963	12.03099
971.339	18.04726
971.715	46.11495
972.091	76.18626
972.467	27.06763
972.843	15.03746
973.219	59.14146
973.594	27.0709
973.97	74.17536
974.345	30.07208
974.721	75.18077
975.096	15.03654
975.471	54.12801
975.846	17.0411
976.221	39.09923
976.596	32.07697
976.971	64.15761
977.346	36.08405
977.72	45.11474
978.095	51.13178
978.469	54.1288
978.844	70.17537
979.218	16.0386
979.593	26.06259
979.967	54.13146
980.341	40.09229
980.715	37.09345
981.089	14.03528
981.463	-5.01161
981.837	27.06626
982.21	19.04449
982.584	6.01461
982.957	14.03519
983.331	71.16717
983.704	50.12286
984.078	48.11834
984.451	78.19385
984.824	4.00983
985.197	30.07314
985.57	74.18478
985.943	104.25432
986.316	70.17137
986.688	32.07744
987.061	54.12648
987.434	62.16123
987.806	41.09961
988.179	-1.00238
988.551	106.26622
988.923	49.12069
989.295	55.13732
989.667	-10.02416
990.039	25.06205
990.411	3.00697
990.783	12.02784
991.155	-6.01457
991.527	102.24878
991.898	51.12705
992.27	27.06707
992.641	63.15769
993.012	92.21472
993.384	40.09559
993.755	5.01285
994.126	6.01455
994.497	35.08615
994.868	57.13076
995.239	57.13796
995.61	13.03293
995.98	0
996.351	-5.01251
996.722	32.07448
997.092	-4.00957
997.462	14.03293
997.833	6.01434
998.203	38.09234
998.573	8.02007
998.943	32.0753
999.313	26.06259
999.683	33.07945
1000.053	9.02088
1000.423	78.18854
1000.792	36.09352
1001.162	16.03962
1001.531	32.07915
1001.901	19.04763
1002.27	25.05617
1002.639	10.02573
1003.009	29.06924
1003.378	32.08207
1003.747	57.13447
1004.116	4.00965
1004.485	63.15018
1004.853	14.03569
1005.222	72.18083
1005.591	63.1492
1005.959	-17.03883
1006.328	4.00909
1006.696	38.09185
1007.064	45.11328
1007.433	48.11999
1007.801	71.17359
1008.169	21.0533
1008.537	10.02233
1008.905	53.12338
1009.273	54.13328
1009.64	10.02404
1010.008	-3.00722
1010.375	121.28988
1010.743	51.11774
1011.11	-2.00478
1011.478	38.09424
1011.845	66.15471
1012.212	21.04781
1012.579	37.09103
1012.946	68.16126
1013.313	76.17996
1013.68	52.11682
1014.047	38.09074
1014.414	24.05696
1014.78	34.08472
1015.147	44.10652
1015.513	-3.0073
1015.88	46.11769
1016.246	70.17213
1016.612	4.00924
1016.978	22.05418
1017.344	9.0224
1017.71	47.11466
1018.076	62.14584
1018.442	52.13369
1018.808	-16.04046
1019.174	35.08802
1019.539	83.18979
1019.905	34.08041
1020.27	11.02733
1020.636	19.04581
1021.001	45.10781
1021.366	5.01211
1021.731	41.10557
1022.096	15.03806
1022.461	47.11127
1022.826	13.03111
1023.191	37.09726
1023.556	36.08458
1023.92	62.15207
1024.285	71.17256
1024.649	40.09818
1025.014	82.20186
1025.378	21.05306
1025.742	30.07475
1026.107	40.09064
1026.471	74.1719
1026.835	58.14352
1027.199	-13.03165
1027.562	42.09776
1027.926	49.1198
1028.29	44.11142
1028.654	79.18064
1029.017	71.17378
1029.381	11.02646
1029.744	37.09454
1030.107	31.07359
1030.471	-1.00242
1030.834	26.05942
1031.197	72.17266
1031.56	30.07104
1031.923	44.11383
1032.286	45.10575
1032.648	62.14788
1033.011	-13.0302
1033.374	35.08247
1033.736	25.06598
1034.099	9.02209
1034.461	-6.0153
1034.823	44.10963
1035.185	69.17302
1035.548	56.13608
1035.91	33.07927
1036.272	3.00689
1036.634	79.19214
1036.995	13.03076
1037.357	41.09987
1037.719	80.19337
1038.08	45.1069
1038.442	43.10215
1038.803	69.16499
1039.165	25.06334
1039.526	37.08959
1039.887	55.13141
1040.248	10.02481
1040.609	63.15523
1040.97	43.10517
1041.331	21.05341
1041.692	30.07027
1042.053	41.09349
1042.413	51.11877
1042.774	23.05619
1043.134	74.17529
1043.495	65.16287
1043.855	57.13801
1044.215	55.13632
1044.576	-2.00483
1044.936	80.18223
1045.296	57.142
1045.656	63.15415
1046.016	55.13257
1046.375	62.14998
1046.735	12.0274
1047.095	26.06111
1047.454	12.02563
1047.814	25.06035
1048.173	101.23883
1048.533	61.13937
1048.892	-13.03156
1049.251	62.15521
1049.61	-22.05486
1049.969	47.11079
1050.328	23.05013
1050.687	-2.00491
1051.046	34.08299
1051.405	40.09963
1051.763	-16.03725
1052.122	-6.01511
1052.48	23.05665
1052.839	52.12222
1053.197	41.09661
1053.555	55.12521
1053.914	47.11496
1054.272	26.06311
1054.63	5.01232
1054.988	24.05727
1055.345	23.04979
1055.703	83.19839
1056.061	6.01554
1056.419	-6.01567
1056.776	54.13077
1057.134	-17.03986
1057.491	58.14494
1057.848	43.10712
1058.206	18.04257
1058.563	22.04875
1058.92	35.08087
1059.277	22.05452
1059.634	43.10125
1059.991	93.22085
1060.348	22.04997
1060.704	30.07172
1061.061	72.16646
1061.418	18.04389
1061.774	40.09887
1062.131	43.11375
1062.487	34.0797
1062.843	48.11964
1063.199	52.12919
1063.555	29.06743
1063.911	57.1437
1064.267	92.18999
1064.623	14.03421
1064.979	98.22989
1065.335	77.18299
1065.691	36.08646
1066.046	25.05523
1066.402	35.07971
1066.757	52.13112
1067.112	70.17105
1067.468	-20.04783
1067.823	76.18169
1068.178	31.0752
1068.533	63.15225
1068.888	25.05998
1069.243	35.08656
1069.598	50.12141
1069.952	-3.00682
1070.307	-17.04257
1070.662	54.12801
1071.016	0
1071.371	24.05485
1071.725	61.14553
1072.079	37.08915
1072.434	15.03666
1072.788	55.13076
1073.142	64.15691
1073.496	17.04056
1073.85	3.00702
1074.203	43.10439
1074.557	76.20108
1074.911	39.09322
1075.265	45.10463
1075.618	55.13407
1075.971	70.16575
1076.325	35.08912
1076.678	-24.05566
1077.031	7.01597
1077.385	53.11659
1077.738	21.04765
1078.091	24.05482
1078.444	20.04668
1078.796	29.07138
1079.149	95.23417
1079.502	-1.00238
1079.855	23.05388
1080.207	66.162
1080.56	50.12913
1080.912	23.05623
1081.264	65.15596
1081.617	24.05873
1081.969	12.03045
1082.321	14.03439
1082.673	-23.05323
1083.025	30.07139
1083.377	29.06248
1083.728	50.11656
1084.08	25.06264
1084.432	0
1084.783	30.07051
1085.135	57.14257
1085.486	25.05744
1085.838	50.12304
1086.189	0
1086.54	98.23169
1086.891	11.02799
1087.242	56.13608
1087.593	54.13127
1087.944	33.07488
1088.295	35.07974
1088.646	28.06809
1088.996	34.08209
1089.347	28.06893
1089.698	15.03566
1090.048	57.14774
1090.398	50.11587
1090.749	40.09581
1091.099	30.07564
1091.449	46.11458
1091.799	20.0503
1092.149	-17.04193
1092.499	8.01965
1092.849	49.12446
1093.199	93.23109
1093.548	37.08905
1093.898	62.15465
1094.248	73.18666
1094.597	0
1094.947	25.06691
1095.296	37.0915
1095.645	66.17104
1095.994	77.18384
1096.343	45.11324
1096.692	7.01851
1097.041	23.06249
1097.39	63.15752
1097.739	31.08077
1098.088	64.17092
1098.437	0
1098.785	14.03793
1099.134	52.13791
1099.482	64.17547
1099.83	39.10258
1100.179	14.03671
1100.527	43.11429
1100.875	30.07951
1101.223	44.11685
1101.571	39.10786
1101.919	-20.05283
1102.267	58.16294
1102.615	4.01286
1102.962	33.10596
1103.31	4.01285
1103.658	26.0836
