Data from N2 R5 sample 4_Subt2__0__14-06-09-193.txt Node

Date: Fri Aug 29 14:06:09 PDT 2025
User: uwsun
Spectrometer: HDX01956
Trigger mode: 0
Integration Time (sec): 5.000000E-1
Scans to average: 1
Nonlinearity correction enabled: true
Boxcar width: 0
Storing dark spectrum: false
XAxis mode: Wavelengths
Number of Pixels in Spectrum: 2068
>>>>>Begin Spectral Data<<<<<
194.03	513.32123
194.578	530.55916
195.127	536.5491
195.676	543.57321
196.225	598.42256
196.773	650.59057
197.321	907.05707
197.87	1129.2039
198.418	1217.28794
198.966	1213.3004
199.513	1157.08898
200.061	1169.15032
200.609	1227.39337
201.156	1115.71486
201.704	1151.11078
202.251	1198.32515
202.798	1126.16858
203.345	1188.12832
203.892	1160.12893
204.438	1179.0212
204.985	1175.96412
205.532	1197.3007
206.078	1274.19821
206.624	1233.14005
207.17	1239.00756
207.716	1249.12588
208.262	1190.58
208.808	1236.13458
209.354	1231.11077
209.899	1294.32844
210.445	1226.1586
210.99	1194.03779
211.535	1325.13466
212.08	1246.02066
212.625	1274.26091
213.17	1312.34539
213.715	1206.8356
214.259	1223.00253
214.804	1273.22836
215.348	1290.02492
215.892	1271.13348
216.436	1322.10174
216.98	1274.93183
217.524	1242.05691
218.068	1306.3239
218.612	1248.25676
219.155	1189.99195
219.698	1167.00053
220.242	1203.18114
220.785	1146.9337
221.328	1130.07887
221.871	1096.08852
222.414	1133.08908
222.956	1029.84808
223.499	1035.71508
224.041	1122.91146
224.583	1137.75607
225.126	1098.74365
225.668	1074.93748
226.21	1093.04718
226.751	1000.60367
227.293	1085.81506
227.835	1078.95163
228.376	1131.8985
228.918	1112.09664
229.459	1094.01545
230	1074.88731
230.541	1096.84402
231.082	1115.98253
231.622	1122.87465
232.163	1107.96624
232.704	1062.96352
233.244	1063.96879
233.784	1147.06352
234.324	1058.66546
234.864	1093.79269
235.404	1149.98331
235.944	1092.90405
236.484	1160.12149
237.023	1097.88924
237.563	1090.82594
238.102	1099.89571
238.641	1140.12136
239.18	1075.82669
239.719	1128.08448
240.258	1143.82944
240.797	1113.93316
241.335	1124.01531
241.874	1121.46437
242.412	1164.00544
242.95	1102.90644
243.488	1168.88607
244.026	1149.87974
244.564	1145.62577
245.102	1130.79677
245.64	1233.10636
246.177	1158.82895
246.715	1176.02514
247.252	1142.87394
247.789	1202.50444
248.326	1100.90799
248.863	1183.79026
249.4	1200.90434
249.936	1183.64964
250.473	1147.89834
251.009	1140.84374
251.546	1148.76643
252.082	1216.82362
252.618	1177.81609
253.154	1205.03417
253.69	1199.86971
254.226	1183.99585
254.761	1229.8913
255.297	1130.72533
255.832	1187.97455
256.367	1212.99376
256.903	1159.76101
257.438	1218.99815
257.972	1180.81809
258.507	1153.84135
259.042	1141.7181
259.576	1163.70138
260.111	1235.97081
260.645	1239.80788
261.179	1206.94775
261.713	1231.85456
262.247	1224.94596
262.781	1240.71499
263.315	1203.06692
263.849	1250.1828
264.382	1278.99312
264.915	1286.03019
265.449	1215.0423
265.982	1299.98227
266.515	1321.18555
267.048	1248.74054
267.58	1257.84447
268.113	1243.78049
268.646	1287.17686
269.178	1249.86283
269.71	1293.86081
270.243	1289.97385
270.775	1275.25281
271.307	1276.10892
271.838	1336.13984
272.37	1267.144
272.902	1261.93181
273.433	1254.81706
273.965	1257.10072
274.496	1295.21518
275.027	1274.16923
275.558	1340.17171
276.089	1264.10617
276.62	1320.31042
277.15	1357.25409
277.681	1339.87765
278.211	1344.21836
278.741	1238.79922
279.272	1297.94776
279.802	1353.27316
280.332	1338.07194
280.861	1242.03889
281.391	1319.94565
281.921	1342.15315
282.45	1330.24818
282.98	1325.36812
283.509	1360.95996
284.038	1350.98514
284.567	1382.09725
285.096	1383.18513
285.625	1328.94776
286.153	1364.06236
286.682	1371.99979
287.21	1395.1666
287.739	1378.0973
288.267	1380.16234
288.795	1444.51938
289.323	1437.09619
289.851	1404.09201
290.378	1417.97694
290.906	1379.1403
291.433	1429.29831
291.961	1429.99388
292.488	1507.36245
293.015	1473.13358
293.542	1398.29164
294.069	1470.26633
294.596	1482.31958
295.122	1498.19886
295.649	1448.93454
296.175	1516.27423
296.702	1541.2936
297.228	1543.30348
297.754	1562.04611
298.28	1474.00791
298.806	1539.23172
299.332	1536.96124
299.857	1597.06561
300.383	1628.49943
300.908	1521.21476
301.433	1522.23044
301.958	1552.12257
302.483	1595.37067
303.008	1580.35303
303.533	1676.62491
304.058	1681.26143
304.582	1558.14461
305.107	1659.56906
305.631	1647.12149
306.155	1661.15721
306.679	1674.16932
307.203	1665.14513
307.727	1744.27254
308.251	1650.35618
308.775	1596.14166
309.298	1657.20973
309.822	1809.52574
310.345	1816.27889
310.868	1746.26155
311.391	1763.3939
311.914	1786.44371
312.437	1752.11529
312.96	1789.20797
313.482	1830.24495
314.005	1806.44792
314.527	1771.58885
315.049	1893.53455
315.571	1886.98899
316.093	1920.42281
316.615	1959.31675
317.137	1944.94002
317.659	1979.37655
318.18	1960.33214
318.702	2083.19104
319.223	2033.73499
319.744	1992.00795
320.265	2051.29265
320.786	2069.36228
321.307	2128.41899
321.828	2156.03798
322.348	2131.16668
322.869	2135.1412
323.389	2164.00818
323.909	2230.06216
324.43	2300.30446
324.95	2201.00265
325.47	2245.27262
325.989	2276.08762
326.509	2302.78374
327.029	2410.85751
327.548	2348.83379
328.067	2417.10344
328.587	2476.28598
329.106	2394.85493
329.625	2540.59117
330.144	2487.86927
330.662	2548.84828
331.181	2586.89122
331.7	2550.88271
332.218	2652.51751
332.736	2677.82599
333.255	2713.75859
333.773	2720.81885
334.291	2922.05448
334.808	2748.502
335.326	2907.49767
335.844	2911.53863
336.361	2968.90605
336.879	2985.4897
337.396	3014.61755
337.913	3018.38131
338.43	3113.22589
338.947	3039.48761
339.464	3207.91882
339.981	3080.38052
340.497	3223.53932
341.014	3094.47409
341.53	3252.01564
342.046	3366.3255
342.562	3304.46252
343.078	3405.0817
343.594	3446.1152
344.11	3447.07054
344.626	3430.3181
345.141	3488.79593
345.657	3596.7468
346.172	3617.9438
346.687	3533.73531
347.202	3516.62044
347.717	3733.75636
348.232	3785.93205
348.747	3712.5498
349.261	3745.2261
349.776	3818.53742
350.29	3865.63849
350.805	3923.7074
351.319	3961.3653
351.833	3870.22378
352.347	3968.33212
352.861	4084.19624
353.374	4183.14013
353.888	4144.31572
354.401	4185.04792
354.915	4211.85392
355.428	4240.26684
355.941	4298.93387
356.454	4528.7548
356.967	4232.04677
357.48	4348.86796
357.993	4331.11971
358.505	4418.98694
359.018	4540.92561
359.53	4622.77421
360.042	4618.52386
360.554	4708.76824
361.066	4671.75319
361.578	4733.37195
362.09	4661.66598
362.602	4789.33544
363.113	4704.49755
363.625	4802.34789
364.136	4919.25969
364.647	4853.30156
365.158	5037.32348
365.669	5117.37971
366.18	5091.32457
366.691	5173.1413
367.201	5054.32522
367.712	5084.15919
368.222	5220.1428
368.733	5219.00497
369.243	5367.02716
369.753	5616.13982
370.263	5699.19184
370.773	5529.20127
371.282	5738.14842
371.792	5796.09656
372.301	6039.26191
372.811	6205.41272
373.32	6047.28912
373.829	6193.37708
374.338	6676.05641
374.847	6784.23257
375.356	6759.19397
375.865	7162.53665
376.373	7489.23357
376.882	7553.87922
377.39	7720.74555
377.898	7842.53529
378.407	8343.37178
378.915	8875.50564
379.423	9053.17944
379.93	9414.25398
380.438	9559.65752
380.946	10211.59732
381.453	10686.43444
381.96	10932.67241
382.468	11524.7344
382.975	12502.19534
383.482	13013.62719
383.989	13193.94734
384.495	13594.40325
385.002	13945.1808
385.509	15042.36038
386.015	16153.43111
386.521	16811.91461
387.028	17508.53552
387.534	18263.5507
388.04	18665.94126
388.546	19006.83756
389.051	19715.59987
389.557	21296.28953
390.063	23514.36893
390.568	24307.34977
391.073	24716.45332
391.578	25918.78294
392.084	26323.86024
392.589	26808.71561
393.093	28425.50389
393.598	31563.4954
394.103	34615.68485
394.607	38021.58578
395.112	40781.95175
395.616	42985.19942
396.12	45205.04431
396.624	44090.6988
397.128	43370.29424
397.632	41414.05101
398.136	39172.79427
398.639	36273.96993
399.143	32503.66402
399.646	28888.45294
400.15	25083.82847
400.653	20124.16724
401.156	13866.23708
401.659	5169.95759
402.162	1054.15589
402.664	0
403.167	0
403.67	0
404.172	0
404.674	0
405.176	0
405.678	0
406.18	0
406.682	0
407.184	0
407.686	0
408.187	0
408.688	0
409.19	0
409.691	0
410.192	0
410.693	0
411.194	435.30976
411.694	4082.94878
412.195	8864.71461
412.696	12089.80453
413.196	12760.96929
413.696	12863.67595
414.196	13703.56671
414.696	17261.84252
415.196	21764.24417
415.696	29583.19008
416.196	36460.31858
416.695	40057.39798
417.195	41392.74103
417.694	42311.08144
418.194	43882.52025
418.693	44704.85811
419.192	45402.14938
419.691	45678.73777
420.19	46397.77183
420.688	47237.71801
421.187	47797.94428
421.685	49412.82777
422.184	49418.41012
422.682	43189.0573
423.18	36117.12717
423.678	31781.61133
424.176	29240.47815
424.674	27579.82201
425.172	26566.07376
425.669	25278.68358
426.167	23502.88133
426.664	21667.77529
427.161	19789.28901
427.659	18136.01664
428.156	17055.47443
428.652	15982.69154
429.149	15304.17214
429.646	14864.58491
430.143	13859.76491
430.639	13134.25657
431.135	12314.85405
431.632	11597.59895
432.128	10719.4683
432.624	10236.18264
433.12	9630.77433
433.616	9682.80267
434.111	9138.35549
434.607	8669.05438
435.103	8619.10228
435.598	8510.36385
436.093	8125.37412
436.588	7703.87457
437.083	7342.64294
437.578	6899.50652
438.073	6480.72074
438.568	6430.59711
439.062	6278.55384
439.557	6138.31861
440.051	5758.06187
440.546	5491.95548
441.04	5410.01511
441.534	5342.15117
442.028	5306.08723
442.522	5039.09926
443.015	5029.9533
443.509	4978.23488
444.002	4791.28572
444.496	4722.05692
444.989	4675.38284
445.482	4732.42317
445.975	4742.14178
446.468	4573.10827
446.961	4401.17838
447.454	4348.37842
447.947	4246.53643
448.439	4294.68994
448.931	4165.46866
449.424	4219.92491
449.916	4156.81564
450.408	4044.5984
450.9	3948.91973
451.392	3914.13437
451.884	3818.90288
452.375	3649.23864
452.867	3721.98423
453.358	3646.96065
453.849	3597.82698
454.341	3576.0464
454.832	3424.99571
455.323	3411.45517
455.814	3416.29335
456.304	3357.35478
456.795	3366.34087
457.285	3275.37891
457.776	3249.52191
458.266	3192.6271
458.756	3146.76955
459.247	3092.71519
459.737	2952.80517
460.226	2895.65336
460.716	2792.95893
461.206	2880.98738
461.695	2768.25885
462.185	2760.02443
462.674	2780.96387
463.163	2700.87338
463.653	2738.69026
464.142	2615.22539
464.63	2620.3455
465.119	2548.13153
465.608	2567.13773
466.096	2473.03725
466.585	2495.26896
467.073	2495.42674
467.561	2354.48344
468.05	2405.37023
468.538	2356.61284
469.026	2211.53681
469.513	2221.11198
470.001	2197.36177
470.489	2187.52007
470.976	2134.48202
471.463	2119.78994
471.951	2049.83621
472.438	2043.58664
472.925	1889.55994
473.412	1994.82821
473.899	1866.58061
474.385	1848.81435
474.872	1804.61942
475.359	1731.77024
475.845	1699.29864
476.331	1733.48244
476.817	1685.81885
477.303	1627.64836
477.789	1563.74579
478.275	1546.82595
478.761	1557.776
479.247	1583.59719
479.732	1526.85305
480.218	1463.98509
480.703	1455.84795
481.188	1453.45412
481.673	1432.62018
482.158	1315.35252
482.643	1367.91732
483.128	1310.54944
483.612	1273.61049
484.097	1288.76834
484.581	1236.60152
485.066	1177.64748
485.55	1100.35631
486.034	1084.32601
486.518	1151.54958
487.002	1028.53083
487.486	1084.59818
487.969	1066.58392
488.453	1016.62943
488.936	1055.42026
489.42	1034.38035
489.903	989.61427
490.386	1046.90914
490.869	988.33074
491.352	971.55653
491.835	964.22513
492.318	893.29717
492.8	916.18382
493.283	887.51847
493.765	875.44511
494.247	868.3668
494.73	871.26193
495.212	824.37906
495.694	781.24459
496.175	712.17161
496.657	800.31321
497.139	794.88863
497.62	678.1341
498.102	684.22008
498.583	678.23869
499.064	672.05238
499.545	729.1681
500.026	672.06764
500.507	706.16751
500.988	708.27732
501.469	634.16924
501.949	657.19994
502.43	642.10608
502.91	596.883
503.39	684.26669
503.87	658.12164
504.35	672.16467
504.83	612.97504
505.31	589.06682
505.79	534.96634
506.269	580.01766
506.749	560.95412
507.228	523.93026
507.707	588.9636
508.187	568.03262
508.666	511.96414
509.145	506.90258
509.623	519.93176
510.102	482.90963
510.581	575.06208
511.059	482.94176
511.538	519.05289
512.016	504.93438
512.494	531.99942
512.972	478.89103
513.45	440.79009
513.928	465.88335
514.406	404.7654
514.884	511.02907
515.361	517.95968
515.839	437.78047
516.316	467.88326
516.793	439.89212
517.27	425.82664
517.747	422.86989
518.224	448.82018
518.701	416.73393
519.178	373.74555
519.654	449.85295
520.131	378.75852
520.607	432.86408
521.083	398.72715
521.56	405.76823
522.036	395.69414
522.512	444.88314
522.987	331.63951
523.463	362.69991
523.939	416.82668
524.414	425.78887
524.89	413.79029
525.365	370.67804
525.84	373.71478
526.315	379.74208
526.79	374.6833
527.265	407.7468
527.74	386.76635
528.215	389.74473
528.689	362.64966
529.164	377.6632
529.638	383.81273
530.112	340.65705
530.587	314.54613
531.061	313.62446
531.534	392.77898
532.008	301.60164
532.482	307.58631
532.956	298.63472
533.429	370.73801
533.903	369.66751
534.376	351.63527
534.849	348.66542
535.322	329.64449
535.795	309.63253
536.268	323.64561
536.741	330.66067
537.213	343.65634
537.686	321.65024
538.158	283.52658
538.631	345.69982
539.103	303.56239
539.575	356.6074
540.047	322.5862
540.519	345.6867
540.991	341.69803
541.463	310.62983
541.934	328.62292
542.406	282.56457
542.877	342.63748
543.348	387.77174
543.82	357.72979
544.291	406.77746
544.762	377.73328
545.233	404.83091
545.703	339.61543
546.174	426.80275
546.645	352.6884
547.115	439.85428
547.585	423.78594
548.056	408.79263
548.526	487.90263
548.996	523.99307
549.466	531.02574
549.935	517.95347
550.405	541.90807
550.875	565.03002
551.344	538.00575
551.814	541.9623
552.283	548.91606
552.752	544.97089
553.221	576.93812
553.69	627.03739
554.159	610.13389
554.628	638.05185
555.096	587.14173
555.565	598.00269
556.033	571.03941
556.502	497.95474
556.97	451.79633
557.438	432.82966
557.906	435.84166
558.374	407.76449
558.842	348.69348
559.31	380.70305
559.777	294.60005
560.245	332.65883
560.712	319.62519
561.18	293.54681
561.647	320.60269
562.114	318.6107
562.581	314.66008
563.048	363.70436
563.514	265.55843
563.981	300.5867
564.448	272.52362
564.914	332.6576
565.381	312.60699
565.847	325.64961
566.313	373.73241
566.779	324.62193
567.245	307.61505
567.711	305.62603
568.176	281.5403
568.642	306.65743
569.108	347.72414
569.573	384.7638
570.038	355.62842
570.504	358.67327
570.969	388.82029
571.434	415.75036
571.899	391.77935
572.363	472.88028
572.828	512.95442
573.293	386.74095
573.757	498.93108
574.222	446.81405
574.686	431.79244
575.15	452.88356
575.614	515.95454
576.078	444.85764
576.542	513.94609
577.006	459.8469
577.469	541.0901
577.933	449.82098
578.396	448.88114
578.86	465.90187
579.323	467.91267
579.786	455.80339
580.249	437.81923
580.712	446.90572
581.175	456.93067
581.637	448.85665
582.1	474.8551
582.563	460.81456
583.025	440.88497
583.487	406.6767
583.95	370.66368
584.412	444.76904
584.874	469.94048
585.336	423.83569
585.797	425.76138
586.259	477.93133
586.721	391.77029
587.182	523.00301
587.643	458.86179
588.105	416.82552
588.566	406.71479
589.027	395.79831
589.488	415.79258
589.949	413.84196
590.41	416.66597
590.87	434.82948
591.331	427.77009
591.791	340.66745
592.252	371.71404
592.712	423.85333
593.172	399.7539
593.632	455.82859
594.092	409.76446
594.552	457.8124
595.011	370.71606
595.471	456.84537
595.931	431.80001
596.39	431.86148
596.849	424.82568
597.308	426.77242
597.768	401.86057
598.227	390.79525
598.685	388.75593
599.144	446.86853
599.603	440.87111
600.062	434.75251
600.52	427.7914
600.978	415.82681
601.437	476.90183
601.895	426.75001
602.353	442.81655
602.811	448.82432
603.269	472.93622
603.727	481.95162
604.184	419.78549
604.642	483.97839
605.099	528.99842
605.557	533.06163
606.014	485.85102
606.471	496.0137
606.928	570.96698
607.385	662.25946
607.842	773.34478
608.299	828.45704
608.755	723.35272
609.212	669.15486
609.668	659.1297
610.125	768.43106
610.581	782.44063
611.037	745.32606
611.493	604.15505
611.949	524.03374
612.405	551.88604
612.861	622.18437
613.316	545.06493
613.772	594.103
614.227	579.10956
614.683	640.09499
615.138	562.07303
615.593	551.04868
616.048	614.13908
616.503	615.23493
616.958	594.21822
617.412	550.07294
617.867	513.93661
618.321	575.97151
618.776	572.03886
619.23	494.97482
619.684	506.96102
620.138	563.0882
620.592	507.03787
621.046	556.09032
621.5	478.9893
621.954	531.00612
622.407	521.97915
622.861	497.02655
623.314	493.95755
623.768	468.93522
624.221	447.7543
624.674	470.93051
625.127	410.83793
625.58	517.0082
626.033	484.92281
626.485	388.81706
626.938	408.85464
627.39	371.76597
627.843	400.8175
628.295	324.67389
628.747	392.82693
629.199	398.80198
629.651	315.64656
630.103	347.71417
630.555	347.6611
631.006	336.71316
631.458	337.7195
631.909	360.74943
632.361	282.60508
632.812	316.66574
633.263	272.54203
633.714	288.56938
634.165	297.66402
634.616	263.58098
635.067	351.71264
635.518	259.57644
635.968	303.56323
636.419	257.52299
636.869	253.56379
637.319	248.53718
637.769	256.53578
638.219	291.64873
638.669	183.41524
639.119	242.55656
639.569	217.49557
640.019	259.564
640.468	202.43026
640.918	247.56249
641.367	210.44905
641.816	227.48256
642.265	189.41874
642.714	200.44246
643.163	199.43795
643.612	150.3465
644.061	125.25739
644.51	170.37295
644.958	172.36445
645.406	181.41586
645.855	165.39031
646.303	216.48364
646.751	135.29848
647.199	192.42015
647.647	176.39067
648.095	175.38724
648.543	216.42623
648.99	161.37213
649.438	244.5479
649.885	202.48069
650.333	168.31765
650.78	150.35187
651.227	166.39108
651.674	197.433
652.121	158.37339
652.568	100.23843
653.015	174.42659
653.461	155.35855
653.908	176.39814
654.354	165.3835
654.801	108.24899
655.247	162.34776
655.693	153.38819
656.139	131.30784
656.585	173.40368
657.031	121.27679
657.477	141.29896
657.922	147.33125
658.368	159.38323
658.813	139.31834
659.259	101.23938
659.704	105.24183
660.149	81.1876
660.594	135.31514
661.039	144.32256
661.484	157.36822
661.929	153.35153
662.373	106.26383
662.818	104.25517
663.262	106.25254
663.707	99.24833
664.151	130.3134
664.595	99.2369
665.039	111.2736
665.483	119.29914
665.927	104.24378
666.371	74.17094
666.814	124.29361
667.258	86.20261
667.701	172.36684
668.145	164.40148
668.588	124.30153
669.031	74.174
669.474	100.23998
669.917	104.23076
670.36	113.27833
670.803	160.38119
671.245	146.30625
671.688	162.38995
672.13	97.21769
672.573	136.34218
673.015	123.29377
673.457	139.30141
673.899	122.29422
674.341	118.28361
674.783	64.15429
675.225	117.28627
675.666	72.17358
676.108	94.2057
676.549	128.30226
676.991	91.20212
677.432	108.21682
677.873	111.25718
678.314	119.28357
678.755	153.36863
679.196	111.25453
679.637	180.43409
680.078	150.34926
680.518	141.32785
680.959	98.23536
681.399	110.27229
681.839	161.38805
682.28	67.1663
682.72	117.26807
683.16	103.25631
683.6	119.27232
684.039	77.16305
684.479	115.28169
684.919	58.13516
685.358	117.29622
685.798	132.34337
686.237	136.32799
686.676	158.36513
687.115	97.22919
687.554	134.31741
687.993	141.31201
688.432	103.23675
688.871	86.19685
689.309	139.33071
689.748	130.27353
690.186	150.35682
690.625	86.20308
691.063	118.28307
691.501	114.28188
691.939	61.1534
692.377	87.21334
692.815	60.14509
693.253	95.22985
693.69	109.2413
694.128	111.26906
694.565	125.29821
695.003	114.28898
695.44	96.22696
695.877	72.16989
696.314	138.2979
696.751	128.29298
697.188	141.32331
697.625	115.26571
698.061	51.124
698.498	140.33801
698.934	132.3175
699.371	99.23419
699.807	131.30976
700.243	106.25583
700.679	110.25076
701.115	151.3547
701.551	123.29028
701.987	147.33057
702.422	99.23627
702.858	127.30251
703.294	102.233
703.729	133.32481
704.164	78.18939
704.599	140.31205
705.035	73.16551
705.47	106.25834
705.904	102.2389
706.339	128.29862
706.774	70.16588
707.209	96.22291
707.643	121.29087
708.078	130.316
708.512	62.15633
708.946	100.24108
709.38	121.28723
709.814	64.14855
710.248	127.30935
710.682	129.30657
711.116	47.11359
711.549	78.20235
711.983	91.21201
712.416	130.30758
712.85	122.30387
713.283	122.2891
713.716	133.33337
714.149	136.32401
714.582	81.1841
715.015	153.38087
715.448	136.34156
715.881	158.34531
716.313	126.29546
716.746	112.26438
717.178	78.18911
717.61	118.29902
718.043	96.24024
718.475	98.23867
718.907	129.32602
719.339	101.23029
719.77	81.19346
720.202	117.29559
720.634	75.18385
721.065	143.33788
721.497	113.2773
721.928	84.2074
722.359	76.18454
722.79	120.28721
723.221	131.32883
723.652	180.45903
724.083	120.27135
724.514	119.27418
724.945	99.23392
725.375	140.32366
725.806	141.35061
726.236	139.35442
726.666	132.31219
727.096	171.41558
727.526	86.21925
727.956	96.21965
728.386	149.36483
728.816	117.29548
729.246	100.24363
729.675	120.29486
730.105	213.51512
730.534	132.30856
730.964	152.38174
731.393	200.48978
731.822	164.41484
732.251	147.37058
732.68	214.4961
733.109	126.30983
733.537	154.36929
733.966	151.37233
734.395	193.43988
734.823	145.32661
735.251	101.24409
735.68	177.43852
736.108	142.35727
736.536	153.35898
736.964	130.30138
737.392	172.42575
737.82	169.40193
738.247	174.41263
738.675	208.48925
739.102	144.35736
739.53	147.37138
739.957	174.44201
740.384	204.4955
740.811	144.36282
741.238	174.41994
741.665	144.33238
742.092	194.45704
742.519	225.54475
742.945	214.50434
743.372	165.40445
743.798	207.52257
744.225	165.3888
744.651	196.48408
745.077	197.48342
745.503	198.47569
745.929	204.48134
746.355	238.57893
746.781	194.4735
747.207	178.41232
747.632	186.44669
748.058	254.61715
748.483	190.43173
748.908	228.5542
749.334	220.52954
749.759	184.42825
750.184	204.47741
750.609	244.58508
751.033	289.66131
751.458	299.6475
751.883	264.63591
752.307	243.55785
752.732	223.54458
753.156	251.60358
753.58	272.62704
754.005	277.68171
754.429	251.57437
754.853	257.61894
755.277	277.63513
755.7	276.66356
756.124	272.65419
756.548	273.62696
756.971	292.68894
757.394	271.67725
757.818	267.66678
758.241	257.6339
758.664	270.66118
759.087	267.57747
759.51	305.73145
759.933	256.59862
760.356	303.74898
760.778	315.74449
761.201	339.7894
761.623	292.68466
762.046	355.80381
762.468	326.75181
762.89	324.76798
763.312	294.69312
763.734	322.74377
764.156	300.71412
764.578	335.73753
765	319.74752
765.421	219.54375
765.843	306.77312
766.264	332.76869
766.686	327.78808
767.107	310.72231
767.528	273.66691
767.949	314.76776
768.37	302.71391
768.791	332.7693
769.212	251.61249
769.632	310.69323
770.053	277.70622
770.473	302.70728
770.894	337.80787
771.314	319.73171
771.734	264.59646
772.154	299.74018
772.575	301.67158
772.994	267.5871
773.414	310.71577
773.834	253.61461
774.254	283.66914
774.673	293.68822
775.093	253.60792
775.512	278.66176
775.931	261.64187
776.351	247.59621
776.77	245.58221
777.189	255.58868
777.607	228.56806
778.026	271.65314
778.445	205.50212
778.864	302.74582
779.282	215.50581
779.701	266.64945
780.119	219.54038
780.537	237.57553
780.955	267.65807
781.373	223.53829
781.791	252.54864
782.209	260.58047
782.627	216.55605
783.045	186.42041
783.462	187.46921
783.88	186.47249
784.297	185.45717
784.715	167.42235
785.132	196.46516
785.549	167.41163
785.966	184.45461
786.383	188.4539
786.8	232.52438
787.217	189.43962
787.633	147.3626
788.05	232.53676
788.466	173.40193
788.883	170.42664
789.299	170.40314
789.715	189.4507
790.131	203.4939
790.547	192.47019
790.963	181.44137
791.379	151.37698
791.795	162.36468
792.21	149.3444
792.626	150.35173
793.041	139.33959
793.457	144.352
793.872	108.25295
794.287	142.33506
794.702	163.39584
795.117	109.26937
795.532	138.34209
795.947	154.36605
796.362	195.45626
796.776	173.39891
797.191	118.28694
797.605	71.16704
798.02	131.31587
798.434	141.31083
798.848	151.36698
799.262	103.25435
799.676	130.31446
800.09	118.28834
800.504	144.34544
800.918	92.21286
801.331	150.38831
801.745	71.16359
802.158	86.21467
802.572	124.29848
802.985	126.30215
803.398	123.29107
803.811	150.38078
804.224	135.33264
804.637	101.23966
805.05	107.24693
805.462	111.27118
805.875	61.15838
806.288	68.16431
806.7	116.28945
807.112	110.2537
807.525	110.26989
807.937	87.21461
808.349	90.2249
808.761	125.30482
809.173	84.20335
809.584	121.29671
809.996	42.10347
810.408	85.21879
810.819	97.22732
811.231	142.36226
811.642	207.48092
812.053	356.80067
812.464	392.87511
812.875	337.82076
813.286	241.60186
813.697	164.37733
814.108	153.36849
814.519	129.28474
814.929	108.27378
815.34	110.26508
815.75	58.14771
816.16	109.26996
816.571	83.21513
816.981	96.2259
817.391	111.26623
817.801	60.14934
818.211	79.18825
818.62	53.12809
819.03	80.19585
819.44	93.24196
819.849	71.17893
820.259	105.26716
820.668	60.14787
821.077	49.12216
821.486	75.18064
821.895	88.21687
822.304	56.14866
822.713	27.06441
823.122	85.2116
823.531	78.18476
823.939	79.19222
824.348	71.17269
824.756	90.22466
825.164	109.27243
825.573	86.21514
825.981	76.18833
826.389	93.23269
826.797	75.18765
827.205	26.06023
827.612	85.20921
828.02	17.04034
828.428	78.19829
828.835	84.22038
829.243	92.21843
829.65	63.15677
830.057	41.10006
830.464	89.21606
830.871	110.26147
831.278	59.14291
831.685	84.18708
832.092	51.12529
832.499	49.10775
832.905	73.18463
833.312	58.1327
833.718	100.24771
834.124	82.18701
834.531	90.22596
834.937	50.12868
835.343	57.13786
835.749	92.21405
836.155	83.21661
836.561	39.09642
836.966	91.22158
837.372	42.10734
837.777	25.06273
838.183	26.05836
838.588	51.12696
838.993	38.09303
839.399	47.1153
839.804	-19.04702
840.209	32.0819
840.613	25.05613
841.018	28.07136
841.423	63.1616
841.828	44.11166
842.232	106.26065
842.637	53.12537
843.041	47.12077
843.445	47.11823
843.849	44.10931
844.253	52.12394
844.657	52.13116
845.061	54.12286
845.465	30.07293
845.869	46.10732
846.272	29.07106
846.676	42.10202
847.079	13.03333
847.483	73.18179
847.886	107.25829
848.289	34.0911
848.692	38.09664
849.095	57.13708
849.498	91.22949
849.901	73.16719
850.304	48.11506
850.707	51.13027
851.109	66.16689
851.512	70.17175
851.914	28.07095
852.316	18.04587
852.718	6.01563
853.121	40.0984
853.523	35.08225
853.925	32.08384
854.326	24.06039
854.728	14.03628
855.13	-1.00261
855.531	-20.04853
855.933	72.17253
856.334	10.02515
856.736	-16.03642
857.137	32.07483
857.538	53.13338
857.939	-17.04258
858.34	83.20142
858.741	39.10227
859.142	45.10842
859.542	40.10583
859.943	33.08239
860.343	27.06724
860.744	54.1319
861.144	49.11976
861.544	0
861.945	72.18304
862.345	35.08599
862.745	5.01255
863.145	101.23957
863.544	54.13655
863.944	65.1534
864.344	46.11453
864.743	111.2728
865.143	17.04397
865.542	14.03277
865.941	47.11658
866.34	51.12237
866.74	51.13699
867.139	48.11515
867.537	68.17293
867.936	47.11337
868.335	24.06142
868.734	36.09233
869.132	28.06545
869.531	72.17371
869.929	41.09379
870.327	58.13903
870.726	39.09758
871.124	57.13327
871.522	61.15527
871.92	70.17226
872.318	32.0786
872.715	60.14847
873.113	0
873.511	45.11235
873.908	-8.02042
874.306	45.11215
874.703	78.19442
875.1	78.19878
875.497	77.18391
875.894	-15.03723
876.291	31.07644
876.688	31.0803
877.085	57.13676
877.482	47.11785
877.878	67.16094
878.275	47.11959
878.671	92.20345
879.068	66.15905
879.464	46.1114
879.86	20.04763
880.256	46.11374
880.652	52.13233
881.048	124.30345
881.444	51.12153
881.84	59.14986
882.236	52.13084
882.631	38.09358
883.027	92.22129
883.422	78.19864
883.817	15.03796
884.213	68.17409
884.608	6.01485
885.003	5.01217
885.398	55.13766
885.793	43.10817
886.188	33.08236
886.582	84.21437
886.977	44.10467
887.371	33.08379
887.766	16.04007
888.16	79.1963
888.554	53.13112
888.949	54.13562
889.343	51.12469
889.737	2.00537
890.131	58.14541
890.525	61.15581
890.918	45.11345
891.312	87.20692
891.706	45.11824
892.099	45.1147
892.492	51.11017
892.886	16.03943
893.279	62.15773
893.672	0
894.065	58.14515
894.458	46.11586
894.851	69.16864
895.244	15.03857
895.637	13.03156
896.029	33.08101
896.422	50.12227
896.814	44.10959
897.206	22.05272
897.599	89.21873
897.991	54.13058
898.383	29.06887
898.775	1.00228
899.167	37.08658
899.559	52.13168
899.951	37.08753
900.342	73.18502
900.734	42.10442
901.125	66.17281
901.517	67.16405
901.908	60.14372
902.299	21.05165
902.69	26.06168
903.082	48.11637
903.473	8.01932
903.863	48.12259
904.254	49.11385
904.645	92.22723
905.036	-29.0713
905.426	32.0736
905.817	56.13735
906.207	39.09318
906.597	57.13322
906.987	54.13994
907.378	46.11649
907.768	38.10071
908.158	40.09778
908.547	42.10869
908.937	69.17656
909.327	43.10462
909.717	82.20713
910.106	27.06518
910.495	44.11003
910.885	25.06363
911.274	75.1867
911.663	48.12194
912.052	39.09649
912.441	31.07913
912.83	7.01622
913.219	63.16459
913.608	41.10065
913.997	29.07301
914.385	77.18313
914.774	35.08551
915.162	-1.00241
915.55	52.12584
915.939	26.06593
916.327	49.12238
916.715	79.20037
917.103	112.27266
917.491	71.17507
917.878	39.09613
918.266	54.13999
918.654	42.10749
919.041	23.06033
919.429	47.11105
919.816	68.17189
920.203	33.08032
920.591	48.11912
920.978	62.15156
921.365	31.08162
921.752	33.07897
922.139	42.09141
922.525	-5.01214
922.912	29.07104
923.299	23.05746
923.685	34.08896
924.072	66.1518
924.458	21.05232
924.844	47.11641
925.231	24.05617
925.617	8.0205
926.003	44.11261
926.389	60.15113
926.774	27.06872
927.16	83.20496
927.546	44.11245
927.931	57.1421
928.317	57.13118
928.702	40.09486
929.088	-16.03834
929.473	56.14236
929.858	17.04136
930.243	23.0555
930.628	54.13131
931.013	26.06474
931.398	50.11504
931.783	63.16554
932.167	21.05163
932.552	61.15257
932.937	63.15603
933.321	32.08057
933.705	34.08598
934.09	73.18377
934.474	58.1376
934.858	27.07032
935.242	31.07214
935.626	44.11277
936.009	14.03746
936.393	17.04352
936.777	55.14074
937.16	25.06534
937.544	35.08273
937.927	19.04848
938.311	62.15105
938.694	64.16888
939.077	13.03135
939.46	55.13497
939.843	73.1516
940.226	70.17896
940.609	51.11709
940.991	-9.02315
941.374	27.06628
941.757	30.07432
942.139	32.07215
942.522	57.13458
942.904	9.02181
943.286	32.08158
943.668	82.21126
944.05	31.07664
944.432	-12.02995
944.814	65.15969
945.196	6.01474
945.578	31.07396
945.959	60.14037
946.341	141.34036
946.722	36.08475
947.104	50.11954
947.485	15.03515
947.866	52.13098
948.247	22.05579
948.628	50.122
949.009	5.01291
949.39	46.11462
949.771	55.12784
950.152	32.07881
950.532	-26.06485
950.913	22.05336
951.293	18.04888
951.674	11.0268
952.054	20.04983
952.434	24.05987
952.814	86.20324
953.194	50.13087
953.574	87.21287
953.954	50.11876
954.334	53.13203
954.714	-16.03948
955.093	79.19322
955.473	-20.05065
955.853	23.05982
956.232	48.1316
956.611	54.12944
956.99	58.14557
957.37	19.04869
957.749	74.17576
958.128	11.02791
958.506	49.12714
958.885	22.05581
959.264	19.04683
959.643	54.12281
960.021	20.04983
960.4	7.01601
960.778	76.18633
961.156	27.06797
961.535	17.03989
961.913	36.08448
962.291	48.12319
962.669	28.07121
963.047	32.08193
963.424	60.15286
963.802	16.03959
964.18	73.18397
964.557	38.08775
964.935	60.14191
965.312	41.10693
965.69	98.24329
966.067	54.13141
966.444	46.11345
966.821	62.15951
967.198	65.15726
967.575	48.11808
967.952	39.09211
968.329	36.08784
968.705	36.07745
969.082	38.09766
969.458	-3.00727
969.835	50.12172
970.211	-7.01814
970.587	62.15403
970.963	38.0977
971.339	43.11241
971.715	53.13227
972.091	20.04953
972.467	85.21067
972.843	20.04991
973.219	71.16984
973.594	39.1022
973.97	52.12375
974.345	41.0983
974.721	67.16174
975.096	54.13058
975.471	51.12097
975.846	23.05554
976.221	2.00512
976.596	15.0362
976.971	61.15031
977.346	70.16235
977.72	33.08432
978.095	7.01823
978.469	91.21551
978.844	91.22711
979.218	-14.03397
979.593	73.17415
979.967	46.11215
980.341	17.0394
980.715	17.04309
981.089	39.09783
981.463	20.0462
981.837	63.15357
982.21	59.13708
982.584	12.02919
982.957	-4.01009
983.331	43.1018
983.704	32.07889
984.078	12.02978
984.451	56.13974
984.824	6.01473
985.197	32.07799
985.57	46.11545
985.943	78.19166
986.316	75.18344
986.688	53.12775
987.061	57.13343
987.434	29.07584
987.806	36.08754
988.179	46.10863
988.551	98.24648
988.923	36.08888
989.295	37.09268
989.667	1.00241
990.039	40.09901
990.411	-1.00233
990.783	39.09
991.155	0
991.527	87.21279
991.898	22.0551
992.27	19.04726
992.641	79.19716
993.012	59.13859
993.384	34.08135
993.755	24.06147
994.126	60.14405
994.497	12.02966
994.868	27.06231
995.239	41.09953
995.61	10.02534
995.98	-2.00491
996.351	32.0795
996.722	3.00702
997.092	13.031
997.462	-2.00472
997.833	38.09029
998.203	57.13801
998.573	12.03008
998.943	57.13348
999.313	20.0482
999.683	41.09856
1000.053	39.08993
1000.423	50.1215
1000.792	30.07801
1001.162	17.04209
1001.531	1.00249
1001.901	20.05012
1002.27	27.06064
1002.639	24.0616
1003.009	14.03352
1003.378	16.04115
1003.747	23.05462
1004.116	40.09588
1004.485	10.02408
1004.853	58.14672
1005.222	64.16097
1005.591	52.12341
1005.959	-10.02281
1006.328	-25.05712
1006.696	24.05817
1007.064	35.08827
1007.433	49.12247
1007.801	54.13244
1008.169	24.06088
1008.537	26.05786
1008.905	12.02816
1009.273	47.11615
1009.64	26.0623
1010.008	39.09315
1010.375	98.23581
1010.743	50.11546
1011.11	14.03335
1011.478	40.09916
1011.845	43.10125
1012.212	41.09296
1012.579	45.11055
1012.946	66.15658
1013.313	52.1237
1013.68	38.08561
1014.047	-32.07744
1014.414	-4.00954
1014.78	18.04498
1015.147	53.12809
1015.513	17.04121
1015.88	81.20595
1016.246	61.15025
1016.612	22.05064
1016.978	55.13462
1017.344	30.0744
1017.71	91.22017
1018.076	72.16903
1018.442	71.18193
1018.808	14.03521
1019.174	-1.00253
1019.539	131.29665
1019.905	-9.02146
1020.27	-3.00747
1020.636	56.13408
1021.001	90.21376
1021.366	22.0531
1021.731	-4.01038
1022.096	8.02032
1022.461	31.07362
1022.826	23.05493
1023.191	42.1103
1023.556	54.12643
1023.92	52.12778
1024.285	37.0905
1024.649	57.13947
1025.014	47.11645
1025.378	50.12567
1025.742	30.07475
1026.107	51.1153
1026.471	88.20385
1026.835	38.09437
1027.199	-10.02434
1027.562	47.10929
1027.926	51.12465
1028.29	28.07111
1028.654	8.01855
1029.017	73.17861
1029.381	-26.06299
1029.744	57.14514
1030.107	86.20198
1030.471	41.0983
1030.834	17.03892
1031.197	67.16082
1031.56	63.14822
1031.923	56.14457
1032.286	31.07305
1032.648	65.15495
1033.011	46.10563
1033.374	71.16613
1033.736	22.05809
1034.099	38.09279
1034.461	28.07098
1034.823	72.17849
1035.185	79.19773
1035.548	17.04161
1035.91	29.06971
1036.272	17.03893
1036.634	21.05163
1036.995	28.06607
1037.357	46.11194
1037.719	52.12636
1038.08	66.15616
1038.442	-14.03362
1038.803	37.08901
1039.165	10.0254
1039.526	74.17793
1039.887	26.06247
1040.248	23.05692
1040.609	53.13083
1040.97	11.02706
1041.331	51.12903
1041.692	25.05861
1042.053	46.10478
1042.413	25.05852
1042.774	58.14078
1043.134	80.18928
1043.495	54.13557
1043.855	29.07059
1044.215	19.0474
1044.576	1.00241
1044.936	72.16427
1045.296	71.17643
1045.656	40.09829
1046.016	49.11824
1046.375	26.06332
1046.735	-11.02523
1047.095	45.10538
1047.454	31.06593
1047.814	19.04592
1048.173	78.18526
1048.533	52.11902
1048.892	13.03141
1049.251	43.10802
1049.61	20.04949
1049.969	60.14108
1050.328	28.06096
1050.687	40.09745
1051.046	42.10236
1051.405	69.17096
1051.763	-12.02792
1052.122	20.05012
1052.48	25.06156
1052.839	-3.00713
1053.197	32.07554
1053.555	104.2344
1053.914	55.13432
1054.272	64.15423
1054.63	17.0418
1054.988	2.00479
1055.345	10.02171
1055.703	55.13217
1056.061	62.15906
1056.419	44.11395
1056.776	75.18091
1057.134	4.00934
1057.491	31.07784
1057.848	23.05751
1058.206	4.00949
1058.563	17.03771
1058.92	33.07628
1059.277	76.18647
1059.634	90.20997
1059.991	58.13866
1060.348	7.01595
1060.704	-2.00481
1061.061	88.2028
1061.418	45.10916
1061.774	12.02981
1062.131	17.04517
1062.487	65.15144
1062.843	46.1147
1063.199	25.06242
1063.555	35.08129
1063.911	58.14619
1064.267	68.14119
1064.623	19.04639
1064.979	110.25744
1065.335	46.10997
1065.691	8.01932
1066.046	45.099
1066.402	3.00688
1066.757	55.13861
1067.112	83.20233
1067.468	18.04274
1067.823	70.16754
1068.178	61.14714
1068.533	28.06811
1068.888	50.1194
1069.243	26.06441
1069.598	31.07554
1069.952	-39.08936
1070.307	-1.0025
1070.662	32.07618
1071.016	-5.01132
1071.371	43.09789
1071.725	53.12664
1072.079	34.08197
1072.434	33.08038
1072.788	20.04787
1073.142	51.12534
1073.496	19.04531
1073.85	23.05359
1074.203	49.11882
1074.557	35.09324
1074.911	-2.00482
1075.265	35.08154
1075.618	45.1099
1075.971	22.05258
1076.325	12.03068
1076.678	19.04369
1077.031	29.06586
1077.385	40.08824
1077.738	8.0182
1078.091	-39.09022
1078.444	40.09299
1078.796	-3.00743
1079.149	33.08227
1079.502	-14.03346
1079.855	22.05155
1080.207	52.12796
1080.56	25.06484
1080.912	8.01961
1081.264	36.08685
1081.617	23.0563
1081.969	32.08092
1082.321	14.03439
1082.673	-2.00461
1083.025	17.04056
1083.377	44.0945
1083.728	19.04456
1084.08	60.14939
1084.432	32.07738
1084.783	82.19078
1085.135	33.0829
1085.486	-12.02778
1085.838	33.08146
1086.189	33.08029
1086.54	51.12167
1086.891	-6.01531
1087.242	24.05867
1087.593	79.19114
1087.944	42.09513
1088.295	66.14943
1088.646	28.06809
1088.996	14.03393
1089.347	43.10556
1089.698	-4.00954
1090.048	58.15031
1090.398	25.05822
1090.749	16.0385
1091.099	0
1091.449	51.12691
1091.799	15.03776
1092.149	-48.11908
1092.499	28.06852
1092.849	17.04342
1093.199	50.12522
1093.548	-3.00727
1093.898	27.06778
1094.248	16.04132
1094.597	-19.04904
1094.947	36.09617
1095.296	-7.01745
1095.645	57.14795
1095.994	57.13661
1096.343	17.043
1096.692	-12.03182
1097.041	7.01907
1097.39	29.07295
1097.739	55.14271
1098.088	83.22096
1098.437	-9.02386
1098.785	66.17731
1099.134	54.14316
1099.482	46.12648
1099.83	60.15726
1100.179	21.05499
1100.527	41.10901
1100.875	11.02925
1101.223	35.09309
1101.571	36.09961
1101.919	-25.06609
1102.267	39.10989
1102.615	10.03213
1102.962	21.06753
1103.31	5.01607
1103.658	21.06756
