Data from N2 R5 sample 12_Subt2__3__13-36-30-237.txt Node

Date: Fri Aug 29 13:36:30 PDT 2025
User: uwsun
Spectrometer: HDX01956
Trigger mode: 0
Integration Time (sec): 5.000000E-1
Scans to average: 1
Nonlinearity correction enabled: true
Boxcar width: 0
Storing dark spectrum: false
XAxis mode: Wavelengths
Number of Pixels in Spectrum: 2068
>>>>>Begin Spectral Data<<<<<
194.03	169.46193
194.578	154.47768
195.127	168.51223
195.676	167.51086
196.225	186.478
196.773	233.61487
197.321	284.72623
197.87	392.89965
198.418	358.81571
198.966	361.82736
199.513	289.63814
200.061	363.80352
200.609	357.84047
201.156	317.60306
201.704	350.772
202.251	399.92249
202.798	362.82582
203.345	377.81709
203.892	361.79643
204.438	367.76689
204.985	402.81488
205.532	361.83399
206.078	392.836
206.624	354.75825
207.17	407.81502
207.716	384.80686
208.262	360.61158
208.808	376.79875
209.354	389.81826
209.899	417.91956
210.445	337.73197
210.99	390.81043
211.535	430.86924
212.08	380.76747
212.625	424.91914
213.17	395.87361
213.715	318.61277
214.259	397.80088
214.804	433.92603
215.348	395.78183
215.892	418.8659
216.436	424.84847
216.98	387.74305
217.524	375.77075
218.068	408.89539
218.612	405.89049
219.155	399.81342
219.698	389.80673
220.242	373.8198
220.785	329.67895
221.328	353.77683
221.871	406.90411
222.414	351.77469
222.956	305.65005
223.499	386.7549
224.041	388.79225
224.583	380.71817
225.126	319.62046
225.668	334.71696
226.21	299.67042
226.751	283.54703
227.293	368.73709
227.835	284.61857
228.376	365.7414
228.918	367.81914
229.459	281.62385
230	344.72059
230.541	366.73885
231.082	319.68461
231.622	384.77199
232.163	320.68484
232.704	333.72821
233.244	310.68235
233.784	365.78906
234.324	260.50437
234.864	319.63673
235.404	325.68455
235.944	312.65645
236.484	393.85867
237.023	336.69667
237.563	327.6627
238.102	338.70175
238.641	359.79831
239.18	277.57267
239.719	344.76099
240.258	367.71791
240.797	339.70996
241.335	358.76913
241.874	327.54304
242.412	339.71341
242.95	313.65551
243.488	321.6431
244.026	292.59272
244.564	387.68186
245.102	349.67978
245.64	349.73865
246.177	351.684
246.715	409.84934
247.252	340.68321
247.789	352.57312
248.326	309.64885
248.863	371.69858
249.4	372.73131
249.936	381.66883
250.473	342.69262
251.009	344.682
251.546	371.70236
252.082	394.73806
252.618	371.70889
253.154	360.7481
253.69	377.72943
254.226	387.7947
254.761	371.71611
255.297	323.61208
255.832	380.7731
256.367	384.77768
256.903	398.74261
257.438	401.80821
257.972	342.65775
258.507	341.67147
259.042	317.5963
259.576	382.69403
260.111	369.73516
260.645	371.68725
261.179	342.68787
261.713	342.65363
262.247	376.7437
262.781	368.6533
263.315	390.81657
263.849	302.65972
264.382	389.76455
264.915	354.71003
265.449	348.72413
265.982	412.79506
266.515	441.90803
267.048	381.68008
267.58	353.66272
268.113	351.64435
268.646	384.80935
269.178	345.65633
269.71	374.69367
270.243	403.77974
270.775	401.87058
271.307	409.83911
271.838	461.92315
272.37	390.81766
272.902	387.74699
273.433	397.72918
273.965	390.80754
274.496	376.80258
275.027	387.81728
275.558	437.88927
276.089	330.69187
276.62	416.9018
277.15	410.85958
277.681	395.72185
278.211	422.87536
278.741	368.67982
279.272	364.70108
279.802	414.87448
280.332	383.76021
280.861	429.86464
281.391	363.69293
281.921	409.83115
282.45	511.05457
282.98	404.89407
283.509	408.76354
284.038	449.8434
284.567	468.90487
285.096	451.9048
285.625	414.7786
286.153	397.77512
286.682	405.76786
287.21	394.79209
287.739	400.7871
288.267	390.78766
288.795	433.95723
289.323	390.75405
289.851	516.97668
290.378	415.76608
290.906	373.75039
291.433	415.86026
291.961	401.74506
292.488	450.9226
293.015	425.8172
293.542	411.85997
294.069	448.8994
294.596	481.97256
295.122	446.86729
295.649	418.75096
296.175	483.9511
296.702	452.89613
297.228	455.90397
297.754	444.80301
298.28	425.77905
298.806	389.76671
299.332	455.7992
299.857	460.82771
300.383	536.08719
300.908	405.7945
301.433	481.93157
301.958	508.93241
302.483	470.93834
303.008	528.03628
303.533	508.06409
304.058	504.94323
304.582	428.80652
305.107	425.89713
305.631	555.98363
306.155	494.89803
306.679	470.8609
307.203	500.90294
307.727	475.88741
308.251	483.94394
308.775	474.87393
309.298	469.87446
309.822	546.07017
310.345	576.03659
310.868	513.94562
311.391	548.04017
311.914	531.02329
312.437	563.97346
312.96	541.96529
313.482	575.02129
314.005	536.02923
314.527	511.03615
315.049	567.09281
315.571	530.8675
316.093	572.06101
316.615	624.10021
317.137	562.89068
317.659	655.16433
318.18	608.08144
318.702	596.00533
319.223	603.86976
319.744	641.01213
320.265	630.08998
320.786	604.07264
321.307	673.18773
321.828	636.00566
322.348	664.08756
322.869	612.00832
323.389	679.68562
323.909	658.03935
324.43	763.25822
324.95	654.0152
325.47	657.107
325.989	656.04394
326.509	665.95519
327.029	718.04166
327.548	710.023
328.067	691.09258
328.587	768.25353
329.106	726.0494
329.625	732.30724
330.144	720.05039
330.662	738.06615
331.181	727.07012
331.7	800.14678
332.218	750.97242
332.736	781.11348
333.255	807.11972
333.773	766.09784
334.291	889.33449
334.808	814.03619
335.326	843.08037
335.844	822.07611
336.361	870.26399
336.879	893.13311
337.396	864.15816
337.913	885.08959
338.43	852.01864
338.947	890.13748
339.464	967.00048
339.981	863.07967
340.497	983.26888
341.014	929.17504
341.53	906.00639
342.046	961.19144
342.562	981.25078
343.078	928.07811
343.594	976.13607
344.11	1027.15497
344.626	1046.26908
345.141	964.00833
345.657	1123.10675
346.172	1033.14412
346.687	998.01487
347.202	1038.98477
347.717	1067.11339
348.232	1184.27589
348.747	1094.03096
349.261	1024.85981
349.776	1130.07108
350.29	1098.11248
350.805	1230.23106
351.319	1255.08065
351.833	1134.93753
352.347	1194.04191
352.861	1211.01254
353.374	1286.03726
353.888	1229.09766
354.401	1211.96439
354.915	1169.85616
355.428	1259.11176
355.941	1296.95973
356.454	1315.92454
356.967	1277.9981
357.48	1304.93833
357.993	1320.08027
358.505	1250.00941
359.018	1420.05479
359.53	1305.95895
360.042	1323.80498
360.554	1352.98889
361.066	1287.95437
361.578	1399.73525
362.09	1351.91222
362.602	1360.71902
363.113	1394.81739
363.625	1393.73292
364.136	1455.68879
364.647	1311.70373
365.158	1488.76297
365.669	1469.8219
366.18	1500.77283
366.691	1508.61331
367.201	1453.76653
367.712	1445.62628
368.222	1514.61704
368.733	1495.46466
369.243	1610.45845
369.753	1619.55983
370.263	1685.59961
370.773	1623.66238
371.282	1607.51956
371.792	1608.32508
372.301	1684.43202
372.811	1771.59568
373.32	1755.03542
373.829	1732.19946
374.338	1896.97203
374.847	1895.96747
375.356	1949.94124
375.865	2012.59598
376.373	2133.5878
376.882	2197.78821
377.39	2228.5907
377.898	2082.53685
378.407	2332.18931
378.915	2538.98894
379.423	2568.00322
379.93	2643.86815
380.438	2686.81372
380.946	2986.64477
381.453	2949.64416
381.96	2951.65883
382.468	3087.77408
382.975	3542.88879
383.482	3691.27282
383.989	3600.04407
384.495	3708.66962
385.002	3850.83983
385.509	4145.38196
386.015	4348.70071
386.521	4735.89809
387.028	4924.84945
387.534	4947.25769
388.04	5339.6339
388.546	5070.33655
389.051	5203.78592
389.557	5609.70534
390.063	6641.68752
390.568	6750.78905
391.073	6797.04698
391.578	7063.24541
392.084	6984.87514
392.589	6825.68179
393.093	7282.07061
393.598	8226.9479
394.103	9112.84199
394.607	9964.77944
395.112	10810.22709
395.616	11334.22843
396.12	12087.2363
396.624	13258.2768
397.128	14322.53856
397.632	16091.23959
398.136	17893.65779
398.639	17287.75334
399.143	18044.77757
399.646	20478.63825
400.15	22516.49284
400.653	19312.82516
401.156	13663.28453
401.659	5169.95759
402.162	1054.15589
402.664	0
403.167	0
403.67	0
404.172	0
404.674	0
405.176	0
405.678	0
406.18	0
406.682	0
407.184	0
407.686	0
408.187	0
408.688	0
409.19	0
409.691	0
410.192	0
410.693	0
411.194	435.30976
411.694	4082.94878
412.195	8864.71461
412.696	12089.80453
413.196	12760.96929
413.696	12863.67595
414.196	13703.56671
414.696	17261.84252
415.196	21764.24417
415.696	29583.19008
416.196	36460.31858
416.695	31417.10584
417.195	24457.61642
417.694	22739.54116
418.194	21960.6575
418.693	19465.73891
419.192	19029.81803
419.691	18663.27894
420.19	18709.97012
420.688	18716.24218
421.187	18039.27968
421.685	17242.42877
422.184	16143.79761
422.682	13987.25435
423.18	11280.84587
423.678	9390.6357
424.176	8837.14719
424.674	8309.63112
425.172	8102.14656
425.669	7764.58881
426.167	7230.3244
426.664	6555.94754
427.161	6047.64454
427.659	5380.44138
428.156	5046.66557
428.652	4585.56808
429.149	4595.43073
429.646	4355.98869
430.143	4170.13787
430.639	3970.85881
431.135	3597.57723
431.632	3490.57086
432.128	3137.62257
432.624	2879.79186
433.12	2650.79442
433.616	2683.79565
434.111	2421.00737
434.607	2412.11205
435.103	2466.04374
435.598	2440.08935
436.093	2317.44268
436.588	2188.54871
437.083	2033.72929
437.578	1999.85756
438.073	1760.10987
438.568	1833.22254
439.062	1756.99177
439.557	1682.30642
440.051	1614.25002
440.546	1482.3108
441.04	1467.45582
441.534	1427.63194
442.028	1452.56228
442.522	1330.5695
443.015	1397.4185
443.509	1404.67853
444.002	1256.67507
444.496	1233.48946
444.989	1217.71141
445.482	1231.75231
445.975	1171.55537
446.468	1236.49978
446.961	1181.50896
447.454	1159.62199
447.947	1034.66093
448.439	1049.75556
448.931	1039.60638
449.424	1099.87146
449.916	1089.797
450.408	949.61882
450.9	939.73796
451.392	966.83465
451.884	1008.72422
452.375	938.80174
452.867	968.72233
453.358	896.66561
453.849	920.60413
454.341	866.67185
454.832	867.61615
455.323	788.74994
455.814	866.73452
456.304	817.71948
456.795	892.7554
457.285	840.72383
457.776	824.764
458.266	773.7591
458.756	756.78845
459.247	644.67763
459.737	660.69678
460.226	695.66461
460.716	622.69105
461.206	666.74815
461.695	704.85386
462.185	645.72641
462.674	669.73001
463.163	620.65227
463.653	613.59602
464.142	575.70625
464.63	591.75659
465.119	547.64743
465.608	483.58795
466.096	608.66761
466.585	651.78112
467.073	574.75279
467.561	511.69203
468.05	523.67768
468.538	600.82859
469.026	530.72371
469.513	433.51
470.001	460.59857
470.489	482.66367
470.976	497.66995
471.463	453.69574
471.951	446.69938
472.438	411.59365
472.925	297.44177
473.412	463.72248
473.899	415.6013
474.385	398.63677
474.872	351.52945
475.359	362.58312
475.845	397.51351
476.331	357.50982
476.817	355.58792
477.303	333.52226
477.789	264.44482
478.275	279.48537
478.761	297.50275
479.247	322.49899
479.732	289.50916
480.218	274.51833
480.703	279.50056
481.188	205.31512
481.673	301.48937
482.158	168.25603
482.643	201.38796
483.128	216.35977
483.612	205.357
484.097	212.39397
484.581	232.40477
485.066	157.29227
485.55	161.26571
486.034	177.28774
486.518	97.17671
487.002	115.21919
487.486	158.29962
487.969	152.28923
488.453	160.31958
488.936	140.24619
489.42	129.22476
489.903	140.28327
490.386	194.23742
490.869	162.27846
491.352	109.21797
491.835	154.25141
492.318	121.21831
492.8	150.24529
493.283	133.27411
493.765	49.09962
494.247	136.25991
494.73	76.13764
495.212	85.17132
495.694	41.07933
496.175	34.06662
496.657	95.18689
497.139	65.09344
497.62	17.03365
498.102	33.06887
498.583	10.02138
499.064	1.00188
499.545	61.11655
500.026	-14.02668
500.507	-7.01389
500.988	61.12843
501.469	-3.00642
501.949	5.01065
502.43	-28.05697
502.91	-9.01581
503.39	17.03677
503.87	-19.03836
504.35	10.02041
504.83	-29.05474
505.31	7.01458
505.79	-57.11874
506.269	7.01415
506.749	-47.09325
507.228	-18.03652
507.707	-9.01722
508.187	51.10506
508.666	-74.15968
509.145	-31.063
509.623	-47.09669
510.102	-56.11964
510.581	42.08806
511.059	-69.15243
511.538	-10.02277
512.016	-63.13334
512.494	39.08229
512.972	-63.13323
513.45	-88.17953
513.928	-73.15688
514.406	-102.21717
514.884	-7.0158
515.361	-21.04421
515.839	-29.05805
516.316	-26.05512
516.793	-40.09016
517.27	-34.07337
517.747	-25.0567
518.224	-63.13025
518.701	-34.06706
519.178	-93.20596
519.654	0
520.131	-85.1888
520.607	-32.07088
521.083	-109.22474
521.56	-49.10326
522.036	-54.10611
522.512	-60.13335
522.987	-94.20013
523.463	-76.16237
523.939	-20.04379
524.414	-32.06617
524.89	-21.04441
525.365	-99.20293
525.84	-122.26178
526.315	-38.08175
526.79	-54.10936
527.265	-33.06728
527.74	-41.08951
528.215	-94.201
528.689	-54.10731
529.164	-55.10774
529.638	-42.09737
530.112	-88.18752
530.587	-74.14197
531.061	-84.18304
531.534	-73.16079
532.008	-87.18954
532.482	-48.09957
532.956	-72.16566
533.429	-14.03042
533.903	-44.08801
534.376	-50.09978
534.849	-39.08157
535.322	-43.09165
535.795	-47.10396
536.268	-31.06705
536.741	-51.11111
537.213	-30.06259
537.686	-114.25389
538.158	-78.15819
538.631	-22.04837
539.103	-67.13585
539.575	-36.06793
540.047	0
540.519	-21.04536
540.991	-10.0221
541.463	-14.03055
541.934	-6.01232
542.406	-42.09039
542.877	-3.00607
543.348	-30.06562
543.82	1.00221
544.291	-1.0021
544.762	6.0127
545.233	22.04914
545.703	1.00197
546.174	21.04351
546.645	20.04219
547.115	60.1273
547.585	98.19684
548.056	21.04457
548.526	54.11092
548.996	106.22175
549.466	156.32896
549.935	53.10913
550.405	124.23192
550.875	99.20211
551.344	129.26598
551.814	172.33526
552.283	172.31725
552.752	176.34403
553.221	158.28762
553.69	218.40209
554.159	235.47822
554.628	263.47938
555.096	251.52799
555.565	232.42856
556.033	262.51506
556.502	269.54516
556.97	293.53868
557.438	281.55931
557.906	259.52225
558.374	283.54781
558.842	279.56491
559.31	292.55211
559.777	258.53088
560.245	390.76344
560.712	371.71817
561.18	333.61531
561.647	364.67815
562.114	391.73769
562.581	491.99187
563.048	458.86857
563.514	432.87689
563.981	512.95111
564.448	489.89233
564.914	587.09187
565.381	565.03158
565.847	653.20466
566.313	644.18238
566.779	695.21388
567.245	655.20533
567.711	650.22879
568.176	649.13634
568.642	682.3448
569.108	799.49887
569.573	860.5206
570.038	871.33644
570.504	807.35015
570.969	859.62746
571.434	870.39128
571.899	856.52137
572.363	949.5617
572.828	993.63166
573.293	1017.65737
573.757	1018.6604
574.222	935.4969
574.686	959.53113
575.15	1009.71325
575.614	1054.69352
576.078	1005.68167
576.542	1050.67849
577.006	1090.69736
577.469	1120.96122
577.933	1016.59444
578.396	973.67772
578.86	1029.72854
579.323	969.66903
579.786	990.50693
580.249	852.43384
580.712	989.75973
581.175	912.66805
581.637	917.55489
582.1	966.52526
582.563	881.39014
583.025	855.55455
583.487	824.21685
583.95	779.25061
584.412	833.29449
584.874	707.33838
585.336	692.27962
585.797	670.12375
586.259	714.31446
586.721	664.22285
587.182	701.28758
587.643	663.18346
588.105	605.14608
588.566	619.02808
589.027	520.01911
589.488	575.05412
589.949	587.1477
590.41	504.78674
590.87	542.00725
591.331	524.92166
591.791	511.96272
592.252	440.8328
592.712	487.968
593.172	436.81635
593.632	485.87652
594.092	411.76782
594.552	457.8124
595.011	435.82877
595.471	452.83879
595.931	424.78839
596.39	426.85247
596.849	423.82393
597.308	453.81574
597.768	396.85076
598.227	472.94452
598.685	417.80683
599.144	409.80348
599.603	478.93793
600.062	427.74174
600.52	395.73793
600.978	481.9436
601.437	509.9566
601.895	463.80729
602.353	489.89278
602.811	480.87612
603.269	498.98179
603.727	550.06887
604.184	559.0103
604.642	606.19135
605.099	590.09719
605.557	591.16154
606.014	591.00689
606.471	574.15274
606.928	611.02371
607.385	638.22078
607.842	762.32945
608.299	826.45427
608.755	734.36962
609.212	769.29273
609.668	713.20487
610.125	797.47455
610.581	874.5735
611.037	832.44807
611.493	808.47003
611.949	746.39618
612.405	725.10773
612.861	840.51602
613.316	787.45094
613.772	772.37104
614.227	816.47561
614.683	866.39352
615.138	805.4479
615.593	774.39452
616.048	828.45553
616.503	843.60487
616.958	770.51718
617.412	787.45022
617.867	742.27541
618.321	879.36308
618.776	789.35533
619.23	766.41392
619.684	799.40846
620.138	787.4408
620.592	747.44732
621.046	766.42874
621.5	743.44504
621.954	767.37095
622.407	672.21471
622.861	697.37604
623.314	719.32004
623.768	667.26991
624.221	677.07038
624.674	605.15837
625.127	610.18852
625.58	669.25829
626.033	613.13072
626.485	597.19763
626.938	593.18959
627.39	561.10714
627.843	549.0824
628.295	540.06737
628.747	529.08054
629.199	511.0012
629.651	420.84163
630.103	475.94943
630.555	438.81604
631.006	422.87888
631.458	403.84808
631.909	523.04748
632.361	432.8969
632.812	402.8309
633.263	424.81508
633.714	419.80294
634.165	366.80661
634.616	388.83465
635.067	401.80486
635.518	416.89564
635.968	483.85775
636.419	307.61761
636.869	376.81649
637.319	318.6785
637.769	283.58875
638.219	338.74616
638.669	275.6123
639.119	333.75186
639.569	309.69256
640.019	321.6898
640.468	268.56264
640.918	296.66738
641.367	281.59162
641.816	314.65484
642.265	301.65128
642.714	304.65791
643.163	269.58329
643.612	229.52066
644.061	273.54339
644.51	231.50026
644.958	293.60439
645.406	229.52108
645.855	304.69968
646.303	317.69498
646.751	228.49429
647.199	282.60534
647.647	254.55464
648.095	288.62222
648.543	290.56231
648.99	205.46968
649.438	303.67212
649.885	244.57593
650.333	218.40714
650.78	265.60762
651.227	238.55282
651.674	239.52067
652.121	192.45074
652.568	218.50797
653.015	257.62034
653.461	220.50232
653.908	293.64697
654.354	238.54517
654.801	201.45478
655.247	216.45828
655.693	256.63757
656.139	178.41445
656.585	200.4642
657.031	149.33891
657.477	128.27217
657.922	203.45219
658.368	216.51498
658.813	183.4154
659.259	178.41559
659.704	180.40835
660.149	157.35812
660.594	209.48077
661.039	183.40663
661.484	216.50074
661.929	230.52028
662.373	171.42056
662.818	169.40964
663.262	166.39092
663.707	209.51381
664.151	201.47803
664.595	152.36004
665.039	196.47553
665.483	181.44991
665.927	175.40449
666.371	123.28136
666.814	209.48672
667.258	100.23495
667.701	213.45023
668.145	187.45582
668.588	175.42148
669.031	134.31139
669.474	153.36346
669.917	193.42029
670.36	173.42139
670.803	191.45233
671.245	187.38869
671.688	185.44336
672.13	139.30925
672.573	192.4782
673.015	188.44342
673.457	130.28244
673.899	186.44313
674.341	124.29769
674.783	155.36722
675.225	170.41184
675.666	142.33779
676.108	110.2399
676.549	148.34813
676.991	150.32908
677.432	118.23635
677.873	149.34262
678.314	140.33226
678.755	129.31222
679.196	126.28805
679.637	161.38967
680.078	151.35152
680.518	174.40194
680.959	164.38892
681.399	150.36857
681.839	132.3199
682.28	106.26123
682.72	90.20733
683.16	116.28798
683.6	136.31016
684.039	137.28629
684.479	50.12395
684.919	110.2537
685.358	170.42633
685.798	92.24096
686.237	113.2737
686.676	131.30436
687.115	106.25002
687.554	141.33354
687.993	121.26887
688.432	106.2435
688.871	109.24833
689.309	90.21615
689.748	133.27966
690.186	115.2754
690.625	103.24242
691.063	123.29478
691.501	105.26005
691.939	115.28638
692.377	108.26381
692.815	85.20457
693.253	128.30776
693.69	113.24994
694.128	104.25243
694.565	105.25145
695.003	122.30882
695.44	109.25704
695.877	90.21162
696.314	123.26638
696.751	138.31523
697.188	95.21985
697.625	110.25441
698.061	89.21484
698.498	131.31682
698.934	137.32921
699.371	79.1876
699.807	106.25186
700.243	56.13643
700.679	152.34357
701.115	122.2882
701.551	101.23938
701.987	96.21814
702.422	79.18926
702.858	99.23709
703.294	97.2218
703.729	77.19001
704.164	92.2228
704.599	133.29688
705.035	41.09356
705.47	88.21519
705.904	47.11127
706.339	98.22998
706.774	72.17055
707.209	82.19093
707.643	107.2579
708.078	85.20836
708.512	57.14385
708.946	122.29289
709.38	83.19847
709.814	89.20555
710.248	116.28313
710.682	48.11585
711.116	51.12316
711.549	57.1484
711.983	112.25986
712.416	87.20755
712.85	127.31603
713.283	94.22395
713.716	145.36266
714.149	121.28911
714.582	72.16394
715.015	132.32985
715.448	118.29732
715.881	132.29008
716.313	79.18695
716.746	71.16893
717.178	84.20342
717.61	128.32378
718.043	98.24516
718.475	88.21471
718.907	131.33096
719.339	36.08316
719.77	51.12251
720.202	96.24344
720.634	60.14749
721.065	111.26389
721.497	77.19022
721.928	92.22681
722.359	39.09535
722.79	28.06819
723.221	96.24249
723.652	136.34952
724.083	87.19805
724.514	63.14678
724.945	63.14989
725.375	66.15483
725.806	90.22588
726.236	130.332
726.666	123.29141
727.096	116.28482
727.526	63.16126
727.956	61.14055
728.386	130.31943
728.816	60.15307
729.246	44.10832
729.675	64.15889
730.105	108.26636
730.534	80.18891
730.964	102.25847
731.393	139.34426
731.822	99.25332
732.251	90.2292
732.68	122.28798
733.109	26.06511
733.537	102.24701
733.966	68.17023
734.395	105.24357
734.823	109.24733
735.251	45.1099
735.68	107.26849
736.108	96.24353
736.536	83.1974
736.964	29.06857
737.392	106.26555
737.82	94.22678
738.247	109.26173
738.675	117.28008
739.102	63.15865
739.53	65.16661
739.957	70.18109
740.384	126.31052
740.811	103.26143
741.238	83.20376
741.665	59.13849
742.092	92.22104
742.519	21.05279
742.945	106.25506
743.372	91.22612
743.798	93.23955
744.225	86.20576
744.651	78.19681
745.077	63.15843
745.503	78.19166
745.929	58.14072
746.355	135.33472
746.781	64.15999
747.207	7.01676
747.632	65.15969
748.058	108.26958
748.483	90.20865
748.908	60.15042
749.334	85.20983
749.759	62.14777
750.184	51.12293
750.609	104.25602
751.033	156.36652
751.458	97.21912
751.883	110.27268
752.307	28.06704
752.732	66.16588
753.156	60.1495
753.58	73.17495
754.005	96.24413
754.429	64.15195
754.853	88.21871
755.277	74.17657
755.7	105.26062
756.124	80.1994
756.548	86.20489
756.971	101.24712
757.394	103.26522
757.818	52.1349
758.241	70.17858
758.664	63.16019
759.087	19.04327
759.51	99.24672
759.933	96.23152
760.356	112.28653
760.778	51.12668
761.201	107.26054
761.623	82.20015
762.046	89.21241
762.468	88.21255
762.89	99.24483
763.312	74.1819
763.734	78.18889
764.156	75.18623
764.578	83.19238
765	107.26112
765.421	23.05914
765.843	64.16865
766.264	140.33648
766.686	69.17439
767.107	67.16357
767.528	34.08674
767.949	47.1206
768.37	57.14112
768.791	72.17541
769.212	38.0964
769.632	27.06389
770.053	87.22922
770.473	88.21471
770.894	92.23081
771.314	95.22768
771.734	76.17828
772.154	83.21357
772.575	84.19582
772.994	44.10128
773.414	66.15977
773.834	93.23269
774.254	47.11619
774.673	87.21255
775.093	47.11734
775.512	11.02752
775.931	75.19077
776.351	77.19182
776.77	50.12327
777.189	30.07235
777.607	37.09537
778.026	48.12055
778.445	5.0127
778.864	81.20814
779.282	42.10213
779.701	47.11942
780.119	22.05624
780.537	23.05809
780.955	68.17372
781.373	33.08251
781.791	-3.00688
782.209	67.15554
782.627	-3.00802
783.045	52.12074
783.462	32.08253
783.88	22.0575
784.297	42.10651
784.715	-4.01042
785.132	10.02458
785.549	47.1184
785.966	32.08126
786.383	23.05726
786.8	71.16574
787.217	33.07912
787.633	-14.03555
788.05	92.21877
788.466	78.18462
788.883	41.10528
789.299	29.07064
789.715	11.02712
790.131	47.11768
790.547	26.06563
790.963	71.17668
791.379	26.06638
791.795	43.09915
792.21	54.12717
792.626	30.072
793.041	55.13647
793.457	7.01755
793.872	29.06897
794.287	-15.03647
794.702	39.09691
795.117	17.04272
795.532	-2.00508
795.947	39.09475
796.362	87.20787
796.776	96.22476
797.191	29.07169
797.605	-18.04308
798.02	50.12241
798.434	26.0587
798.848	23.05724
799.262	13.03263
799.676	64.15674
800.09	31.07698
800.504	37.09056
800.918	-11.02597
801.331	100.26111
801.745	61.14083
802.158	17.04296
802.572	55.13412
802.985	65.15768
803.398	23.05548
803.811	45.11636
804.224	20.05032
804.637	3.00725
805.05	45.10513
805.462	53.13088
805.875	-23.06058
806.288	51.12362
806.7	43.10871
807.112	50.1167
807.525	39.09695
807.937	13.0325
808.349	33.08331
808.761	69.17002
809.173	48.11699
809.584	34.08472
809.996	7.01736
810.408	6.01566
810.819	-9.02153
811.231	63.16296
811.642	15.03617
812.053	111.26217
812.464	144.33793
812.875	112.28422
813.286	111.28373
813.697	96.22388
814.108	64.15674
814.519	9.02036
814.929	48.12297
815.34	34.08311
815.75	43.1098
816.16	29.07287
816.571	18.04718
816.981	82.19349
817.391	63.15248
817.801	22.05514
818.211	57.1364
818.62	8.0195
819.03	46.11332
819.44	61.15958
819.849	38.09633
820.259	35.09016
820.668	-12.02997
821.077	40.09988
821.486	58.14014
821.895	85.20959
822.304	14.03743
822.713	18.04302
823.122	42.10537
823.531	23.05506
823.939	30.07366
824.348	46.1124
824.756	29.07319
825.164	48.12129
825.573	24.06071
825.981	69.17121
826.389	78.19569
826.797	39.09821
827.205	12.02788
827.612	47.11649
828.02	0
828.428	50.12774
828.835	35.09259
829.243	62.14805
829.65	14.03515
830.057	29.07093
830.464	11.02709
830.871	44.10591
831.278	11.02688
831.685	22.04963
832.092	51.12529
832.499	33.07281
832.905	54.13704
833.312	21.04841
833.718	39.09769
834.124	30.06914
834.531	38.0963
834.937	79.20229
835.343	38.09223
835.749	57.13353
836.155	37.09732
836.561	39.09642
836.966	69.1687
837.372	62.15789
837.777	39.09762
838.183	70.15571
838.588	5.01255
838.993	33.08086
839.399	24.05913
839.804	-20.04951
840.209	23.05896
840.613	14.0315
841.018	24.06121
841.423	67.17174
841.828	29.07379
842.232	78.19279
842.637	37.0878
843.041	8.0207
843.445	41.10325
843.849	-22.05531
844.253	59.14043
844.657	-23.05879
845.061	23.05266
845.465	67.16174
845.869	43.10038
846.272	2.00493
846.676	40.0972
847.079	8.02053
847.483	32.08028
847.886	80.1941
848.289	4.01077
848.692	31.07893
849.095	61.14659
849.498	64.16218
849.901	4.00929
850.304	74.17651
850.707	47.12014
851.109	73.18436
851.512	23.05692
851.914	-1.00255
852.316	51.12922
852.718	-5.01305
853.121	39.09596
853.523	5.01182
853.925	18.04727
854.326	6.01515
854.728	14.03628
855.13	-6.01565
855.531	10.02413
855.933	34.08206
856.334	12.03017
856.736	-5.01135
857.137	12.02817
857.538	15.038
857.939	6.01497
858.34	21.05155
858.741	43.11268
859.142	40.09647
859.542	49.12945
859.943	61.15152
860.343	-17.04267
860.744	58.14157
861.144	23.05648
861.544	-27.06594
861.945	25.06408
862.345	48.11764
862.745	26.065
863.145	88.20926
863.544	8.0204
863.944	15.03574
864.344	60.14901
864.743	48.11934
865.143	0
865.542	22.05141
865.941	58.14357
866.34	51.12237
866.74	39.10496
867.139	-23.05592
867.537	40.10223
867.936	14.03398
868.335	5.01284
868.734	5.01289
869.132	23.05382
869.531	44.10672
869.929	-24.05562
870.327	13.03143
870.726	72.17907
871.124	35.08219
871.522	42.10726
871.92	31.07683
872.318	17.04187
872.715	30.07464
873.113	0
873.511	5.01257
873.908	-20.05117
874.306	1.00251
874.703	2.00505
875.1	27.06943
875.497	23.0555
875.894	-26.06467
876.291	-10.02484
876.688	30.07772
877.085	2.00485
877.482	11.02776
877.878	-8.01949
878.275	28.07148
878.671	36.08054
879.068	-1.00244
879.464	37.08976
879.86	-28.0673
880.256	13.03234
880.652	-4.01028
881.048	35.08707
881.444	55.13096
881.84	14.03584
882.236	28.07075
882.631	-5.01241
883.027	13.03174
883.422	-19.04921
883.817	-24.06116
884.213	26.06705
884.608	-20.04972
885.003	-24.05873
885.398	-4.01012
885.793	26.06561
886.188	-27.06812
886.582	79.20179
886.977	28.06681
887.371	35.08884
887.766	-15.03777
888.16	69.17177
888.554	39.09673
888.949	59.14805
889.343	51.12469
889.737	-10.02693
890.131	30.07559
890.525	10.02577
890.918	26.06577
891.312	69.16467
891.706	50.13127
892.099	22.0563
892.492	14.03048
892.886	26.06396
893.279	15.03848
893.672	33.08432
894.065	-1.00253
894.458	-25.06377
894.851	51.12506
895.244	47.12018
895.637	23.05573
896.029	4.00987
896.422	45.11015
896.814	-17.04281
897.206	-29.07016
897.599	67.16533
897.991	-3.00733
898.383	-21.05035
898.775	23.05225
899.167	-20.04732
899.559	28.07121
899.951	1.00238
900.342	37.09438
900.734	-33.08316
901.125	37.09735
901.517	31.07641
901.908	50.11999
902.299	7.01726
902.69	27.06404
903.082	60.14514
903.473	-26.0632
903.863	45.11499
904.254	13.03042
904.645	58.14415
905.036	-7.01714
905.426	64.14625
905.817	11.0272
906.207	4.00962
906.597	-33.07849
906.987	22.05733
907.378	31.07871
907.768	19.05052
908.158	21.05152
908.547	10.02602
908.937	38.09776
909.327	30.07317
909.717	80.20215
910.106	2.00485
910.495	52.12985
910.885	31.07882
911.274	30.07529
911.663	55.13955
912.052	46.11366
912.441	46.11711
912.83	26.06001
913.219	34.08926
913.608	-23.05713
913.997	-42.10707
914.385	28.06722
914.774	15.03678
915.162	23.05512
915.55	20.04869
915.939	8.02035
916.327	26.06521
916.715	-29.07496
917.103	82.20075
917.491	44.10904
917.878	63.1546
918.266	13.03394
918.654	44.11257
919.041	11.02891
919.429	-5.01193
919.816	31.07888
920.203	15.03663
920.591	29.07222
920.978	76.1853
921.365	40.10516
921.752	18.0432
922.139	34.07412
922.525	17.0411
922.912	55.13407
923.299	45.11198
923.685	32.08376
924.072	54.12449
924.458	15.03741
924.844	22.05474
925.231	54.12564
925.617	-15.0386
926.003	18.04628
926.389	26.06589
926.774	37.09401
927.16	51.12668
927.546	-2.00515
927.931	21.0527
928.317	-12.028
928.702	-8.01915
929.088	-36.08659
929.473	19.04862
929.858	-22.05392
930.243	-27.06577
930.628	-4.00983
931.013	-6.01503
931.398	28.06471
931.783	25.06611
932.167	43.10529
932.552	27.06795
932.937	34.08466
933.321	9.02275
933.705	31.07843
934.09	98.2456
934.474	5.01198
934.858	-11.02884
935.242	-6.01406
935.626	0
936.009	-1.00268
936.393	35.08931
936.777	-6.01552
937.16	-6.01576
937.544	36.08508
937.927	-1.00256
938.311	65.15827
938.694	75.19754
939.077	7.0169
939.46	35.08621
939.843	75.15568
940.226	22.05672
940.609	20.0462
940.991	47.11972
941.374	-12.02967
941.757	25.06199
942.139	-1.00227
942.522	49.11587
942.904	39.09397
943.286	54.13713
943.668	16.04169
944.05	18.04461
944.432	27.06692
944.814	36.08892
945.196	-9.02218
945.578	-31.07483
945.959	41.09627
946.341	77.18812
946.722	38.08942
947.104	5.01206
947.485	38.08865
947.866	5.0127
948.247	26.06589
948.628	7.01722
949.009	19.04892
949.39	37.09234
949.771	52.12094
950.152	15.03706
950.532	-13.03235
950.913	43.10388
951.293	3.00817
951.674	0
952.054	15.03741
952.434	1.0025
952.814	28.06691
953.194	43.11268
953.574	47.11585
953.954	21.05016
954.334	38.09492
954.714	-2.00492
955.093	20.04945
955.473	11.0277
955.853	16.04166
956.232	50.13704
956.611	55.13182
956.99	14.03541
957.37	22.05634
957.749	30.07186
958.128	11.02791
958.506	29.0755
958.885	31.07852
959.264	9.02223
959.643	24.05491
960.021	47.11653
960.4	14.03197
960.778	23.05694
961.156	16.04036
961.535	39.09111
961.913	39.09147
962.291	-28.07281
962.669	41.10403
963.047	45.11495
963.424	52.13266
963.802	25.06176
964.18	27.0686
964.557	69.15835
964.935	61.14424
965.312	21.05496
965.69	23.05788
966.067	62.15066
966.444	36.08895
966.821	45.11612
967.198	55.13332
967.575	21.05192
967.952	75.1759
968.329	58.14094
968.705	22.04747
969.082	10.02583
969.458	-11.02669
969.835	19.04652
970.211	37.09517
970.587	23.05755
970.963	76.19409
971.339	-6.01582
971.715	32.08017
972.091	-10.0249
972.467	76.18868
972.843	28.06977
973.219	66.15803
973.594	25.06567
973.97	73.17302
974.345	-6.01451
974.721	79.19027
975.096	49.1186
975.471	3.00718
975.846	-3.00728
976.221	13.03323
976.596	4.00967
976.971	31.07681
977.346	31.07245
977.72	27.06906
978.095	44.11383
978.469	50.11935
978.844	61.15307
979.218	-64.15674
979.593	5.01208
979.967	-1.00246
980.341	35.08084
980.715	34.08591
981.089	25.06287
981.463	12.02776
981.837	-15.0371
982.21	34.07939
982.584	21.051
982.957	-27.06836
983.331	64.1509
983.704	30.07399
984.078	-11.02741
984.451	65.16193
984.824	-4.00984
985.197	35.08525
985.57	36.09051
985.943	47.11615
986.316	56.13745
986.688	40.09665
987.061	14.03305
987.434	26.06803
987.806	33.08029
988.179	14.03327
988.551	49.12433
988.923	29.07169
989.295	60.14966
989.667	-22.05328
990.039	-33.08278
990.411	27.06243
990.783	15.03478
991.155	-22.05358
991.527	36.08888
991.898	30.07502
992.27	-15.03754
992.641	45.113
993.012	38.08963
993.384	21.05037
993.755	-3.00772
994.126	8.0194
994.497	-6.01488
994.868	38.0875
995.239	16.03902
995.61	-23.05863
995.98	-9.0221
996.351	-8.02002
996.722	-15.03524
997.092	-1.00239
997.462	-51.12148
997.833	43.10207
998.203	5.01222
998.573	36.08986
998.943	15.03541
999.313	27.06498
999.683	-24.05841
1000.053	-1.00232
1000.423	-1.00245
1000.792	27.07025
1001.162	23.05688
1001.531	50.12327
1001.901	42.10484
1002.27	37.08293
1002.639	37.09474
1003.009	-18.04336
1003.378	-4.01032
1003.747	76.17863
1004.116	11.02651
1004.485	21.05046
1004.853	46.11661
1005.222	17.04312
1005.591	56.1328
1005.959	-16.03653
1006.328	2.00454
1006.696	10.0243
1007.064	21.05309
1007.433	30.07524
1007.801	87.21208
1008.169	39.09867
1008.537	50.11071
1008.905	28.0655
1009.273	34.08422
1009.64	-16.03865
1010.008	32.07653
1010.375	56.13582
1010.743	86.19716
1011.11	15.03573
1011.478	27.06709
1011.845	5.01186
1012.212	-31.07131
1012.579	-17.04224
1012.946	28.06691
1013.313	64.15189
1013.68	31.06994
1014.047	-5.01204
1014.414	-18.04307
1014.78	20.04996
1015.147	65.15673
1015.513	23.05569
1015.88	41.10499
1016.246	46.11362
1016.612	37.08491
1016.978	31.07622
1017.344	-5.01248
1017.71	68.16524
1018.076	44.10386
1018.442	30.07742
1018.808	-11.02779
1019.174	44.11047
1019.539	85.19428
1019.905	34.08041
1020.27	14.03477
1020.636	50.11986
1021.001	27.06491
1021.366	15.03625
1021.731	23.05941
1022.096	0
1022.461	11.02622
1022.826	33.07867
1023.191	27.07109
1023.556	41.09624
1023.92	6.01487
1024.285	40.09778
1024.649	25.06153
1025.014	30.07456
1025.378	14.03541
1025.742	22.0549
1026.107	35.07939
1026.471	44.10281
1026.835	44.10916
1027.199	-11.02677
1027.562	29.06767
1027.926	52.12707
1028.29	28.07111
1028.654	17.03936
1029.017	70.17137
1029.381	41.09808
1029.744	21.05381
1030.107	32.07595
1030.471	14.03374
1030.834	32.07304
1031.197	43.10368
1031.56	38.08984
1031.923	15.039
1032.286	62.14522
1032.648	32.07677
1033.011	5.01158
1033.374	22.05197
1033.736	15.03965
1034.099	12.02944
1034.461	9.02289
1034.823	-5.01257
1035.185	48.12081
1035.548	18.04405
1035.91	27.06493
1036.272	19.0435
1036.634	58.14162
1036.995	33.07779
1037.357	-26.06412
1037.719	2.00491
1038.08	24.05725
1038.442	-11.0264
1038.803	32.07706
1039.165	64.16103
1039.526	26.06308
1039.887	37.08871
1040.248	-15.03738
1040.609	107.26151
1040.97	37.0906
1041.331	49.12402
1041.692	-11.02597
1042.053	5.01148
1042.413	24.05619
1042.774	42.10225
1043.134	74.17529
1043.495	46.11566
1043.855	46.11161
1044.215	33.08212
1044.576	-14.03387
1044.936	54.12365
1045.296	13.03264
1045.656	30.07385
1046.016	31.07506
1046.375	2.00489
1046.735	7.016
1047.095	6.01416
1047.454	22.04688
1047.814	31.07475
1048.173	75.17824
1048.533	20.04607
1048.892	-18.04374
1049.251	80.19962
1049.61	10.02479
1049.969	3.00713
1050.328	19.04145
1050.687	40.09745
1051.046	22.05382
1051.405	46.11445
1051.763	-16.03725
1052.122	44.10979
1052.48	15.037
1052.839	-10.02379
1053.197	3.00712
1053.555	37.08454
1053.914	40.09796
1054.272	42.10164
1054.63	-9.02223
1054.988	7.01676
1055.345	10.02171
1055.703	17.04115
1056.061	22.05684
1056.419	-2.00522
1056.776	27.06572
1057.134	11.02565
1057.491	18.04531
1057.848	44.10959
1058.206	-7.01664
1058.563	23.05096
1058.92	20.04635
1059.277	-1.00249
1059.634	12.02843
1059.991	47.1126
1060.348	-30.06886
1060.704	20.04791
1061.061	53.12299
1061.418	-13.03188
1061.774	8.01989
1062.131	-6.016
1062.487	-18.04262
1062.843	14.03511
1063.199	40.09959
1063.555	-8.01874
1063.911	11.02796
1064.267	80.16566
1064.623	-36.08879
1064.979	54.12776
1065.335	40.09574
1065.691	32.07691
1066.046	-4.00889
1066.402	-13.02989
1066.757	45.11361
1067.112	26.06405
1067.468	-36.08636
1067.823	12.02904
1068.178	17.04135
1068.533	12.02928
1068.888	38.09095
1069.243	24.05947
1069.598	13.03178
1069.952	-17.03878
1070.307	-37.09298
1070.662	6.01436
1071.016	9.02032
1071.371	48.10916
1071.725	51.1219
1072.079	-8.01944
1072.434	9.02202
1072.788	49.11663
1073.142	62.15207
1073.496	-13.03119
1073.85	29.06748
1074.203	23.05605
1074.557	38.10118
1074.911	39.09322
1075.265	48.11154
1075.618	17.04173
1075.971	49.1165
1076.325	9.02302
1076.678	-7.01618
1077.031	19.04324
1077.385	5.01111
1077.738	-8.01826
1078.091	-35.0809
1078.444	8.01872
1078.796	33.08116
1079.149	73.18067
1079.502	-14.03346
1079.855	-20.04725
1080.207	8.01985
1080.56	7.01821
1080.912	19.04649
1081.264	25.06044
1081.617	-16.03945
1081.969	11.02792
1082.321	-15.03704
1082.673	-20.04626
1083.025	13.03104
1083.377	-205.46383
1083.728	35.08183
1084.08	6.01509
1084.432	-14.03415
1084.783	48.11243
1085.135	7.01767
1085.486	1.00231
1085.838	35.08637
1086.189	6.01467
1086.54	62.1476
1086.891	19.04828
1087.242	24.05867
1087.593	56.13608
1087.944	3.00685
1088.295	16.03659
1088.646	-5.01223
1088.996	28.06768
1089.347	24.05913
1089.698	-46.11064
1090.048	49.12718
1090.398	-16.03756
1090.749	7.01687
1091.099	11.02783
1091.449	31.07742
1091.799	21.05281
1092.149	-43.10658
1092.499	5.01229
1092.849	11.02813
1093.199	69.17221
1093.548	21.05069
1093.898	-1.00252
1094.248	30.07729
1094.597	-12.03094
1094.947	45.12004
1095.296	31.07675
1095.645	38.09895
1095.994	15.03624
1096.343	21.05307
1096.692	-15.0398
1097.041	10.02723
1097.39	10.02524
1097.739	38.09889
1098.088	61.16299
1098.437	-47.12537
1098.785	58.15602
1099.134	43.11421
1099.482	-15.04164
1099.83	54.14168
1100.179	-8.02105
1100.527	30.07991
1100.875	14.0372
1101.223	9.02404
1101.571	32.0886
1101.919	3.00789
1102.267	42.11828
1102.615	4.01286
1102.962	3.00967
1103.31	-4.01287
1103.658	13.04186
