Data from N2 R5 sample 2_Subt2__1__14-25-28-666.txt Node

Date: Fri Aug 29 14:25:28 PDT 2025
User: uwsun
Spectrometer: HDX01956
Trigger mode: 0
Integration Time (sec): 5.000000E-1
Scans to average: 1
Nonlinearity correction enabled: true
Boxcar width: 0
Storing dark spectrum: false
XAxis mode: Wavelengths
Number of Pixels in Spectrum: 2068
>>>>>Begin Spectral Data<<<<<
194.03	341.90611
194.578	356.07216
195.127	350.03803
195.676	361.07265
196.225	392.97084
196.773	435.1061
197.321	576.39426
197.87	787.6607
198.418	843.73002
198.966	793.65729
199.513	797.57082
200.061	700.43852
200.609	806.72866
201.156	716.2293
201.704	745.50533
202.251	745.60152
202.798	792.64753
203.345	825.61543
203.892	736.49425
204.438	818.53722
204.985	739.38135
205.532	812.70489
206.078	798.55034
206.624	799.54528
207.17	878.5662
207.716	786.50379
208.262	795.19283
208.808	809.55495
209.354	783.50273
209.899	847.69762
210.445	805.5725
210.99	818.53646
211.535	820.50851
212.08	906.60879
212.625	823.63048
213.17	859.71378
213.715	803.36694
214.259	816.48687
214.804	872.68628
215.348	843.49318
215.892	879.63224
216.436	825.49685
216.98	849.44858
217.524	836.53877
218.068	885.74531
218.612	849.69067
219.155	805.48864
219.698	743.41762
220.242	789.58051
220.785	779.44406
221.328	697.42109
221.871	755.55761
222.414	785.57321
222.956	701.36388
223.499	749.33802
224.041	726.36738
224.583	825.3894
225.126	746.30283
225.668	729.42988
226.21	718.46893
226.751	678.18568
227.293	685.27012
227.835	668.33443
228.376	792.45107
228.918	742.52563
229.459	740.48394
230	729.39557
230.541	801.45469
231.082	752.46153
231.622	732.35239
232.163	721.40751
232.704	719.44211
233.244	724.45315
233.784	757.49746
234.324	684.1918
234.864	730.31709
235.404	725.39124
235.944	713.3662
236.484	732.48274
237.023	731.38052
237.563	670.24998
238.102	741.39876
238.641	705.45304
239.18	693.29777
239.719	759.53155
240.258	722.29267
240.797	728.39197
241.335	812.57233
241.874	734.08278
242.412	762.45288
242.95	782.46656
243.488	770.38163
244.026	774.39737
244.564	841.30697
245.102	729.29082
245.64	771.47967
246.177	701.25144
246.715	812.5334
247.252	749.36213
247.789	794.13388
248.326	721.37491
248.863	811.36205
249.4	810.42752
249.936	749.18799
250.473	793.4394
251.009	780.38814
251.546	795.34892
252.082	791.33633
252.618	735.27987
253.154	723.37939
253.69	798.38802
254.226	795.4811
254.761	784.36289
255.297	741.26045
255.832	753.40063
256.367	822.49707
256.903	794.33596
257.438	830.50709
257.972	798.36608
258.507	768.35968
259.042	858.40013
259.576	792.28921
260.111	865.5243
260.645	873.41555
261.179	840.49518
261.713	777.32826
262.247	776.39028
262.781	757.20829
263.315	820.55232
263.849	818.59
264.382	867.51193
264.915	861.52435
265.449	801.49746
265.982	867.49049
266.515	872.62042
267.048	886.37678
267.58	864.41861
268.113	816.3232
268.646	800.53062
269.178	824.38508
269.71	891.44078
270.243	848.46589
270.775	824.62601
271.307	889.62549
271.838	878.58798
272.37	861.61619
272.902	851.45979
273.433	878.41849
273.965	837.55872
274.496	823.58494
275.027	860.62659
275.558	872.59795
276.089	804.5079
276.62	907.75866
277.15	945.74635
277.681	936.47855
278.211	851.59503
278.741	838.36662
279.272	829.41815
279.802	850.62252
280.332	873.53443
280.861	862.56373
281.391	832.40769
281.921	921.65282
282.45	910.71211
282.98	959.87465
283.509	922.50746
284.038	903.50716
284.567	890.54685
285.096	889.60261
285.625	920.51591
286.153	910.56087
286.682	924.53094
287.21	906.60629
287.739	848.49233
288.267	875.57008
288.795	908.80621
289.323	879.50072
289.851	971.63433
290.378	924.48972
290.906	951.65883
291.433	965.75412
291.961	1015.60068
292.488	955.73415
293.015	923.56256
293.542	976.78626
294.069	952.68893
294.596	968.7387
295.122	949.62493
295.649	977.50601
296.175	998.7278
296.702	985.71019
297.228	1054.80291
297.754	984.53687
298.28	1003.57349
298.806	1013.70527
299.332	1016.52566
299.857	964.51248
300.383	1069.90835
300.908	983.66626
301.433	1018.71975
301.958	1014.62621
302.483	951.68672
303.008	1003.75163
303.533	1109.01725
304.058	1064.71835
304.582	1041.66923
305.107	1049.91103
305.631	1117.69481
306.155	1098.69402
306.679	1095.69381
307.203	1140.72735
307.727	1101.74195
308.251	1115.8553
308.775	1099.71293
309.298	1081.71309
309.822	1183.97647
310.345	1151.77366
310.868	1161.79754
311.391	1263.98951
311.914	1149.89226
312.437	1196.72703
312.96	1219.80137
313.482	1187.78249
314.005	1235.98086
314.527	1203.05925
315.049	1259.03106
315.571	1238.63676
316.093	1294.97981
316.615	1267.86946
317.137	1265.6124
317.659	1344.97504
318.18	1352.95555
318.702	1322.805
319.223	1353.51476
319.744	1283.66481
320.265	1341.89595
320.786	1302.90582
321.307	1370.9916
321.828	1373.72916
322.348	1403.84224
322.869	1375.80379
323.389	1411.01976
323.909	1453.79238
324.43	1532.00884
324.95	1479.76754
325.47	1476.95434
325.989	1493.83224
326.509	1509.62411
327.029	1574.7111
327.548	1588.69729
328.067	1584.89218
328.587	1578.01657
329.106	1661.74483
329.625	1731.32693
330.144	1605.73824
330.662	1672.75604
331.181	1715.80765
331.7	1716.79799
332.218	1710.54244
332.736	1839.81043
333.255	1808.75713
333.773	1809.80355
334.291	1871.03087
334.808	1857.58071
335.326	1938.62823
335.844	1969.66448
336.361	1881.93584
336.879	1982.64866
337.396	2012.7584
337.913	2046.5788
338.43	2017.48838
338.947	2144.6723
339.464	1999.28716
339.981	2029.5971
340.497	2119.77153
341.014	2094.67755
341.53	2028.37712
342.046	2159.65736
342.562	2247.7415
343.078	2220.4777
343.594	2291.51425
344.11	2244.48374
344.626	2270.67286
345.141	2298.27099
345.657	2357.26752
346.172	2339.44258
346.687	2369.22625
347.202	2422.10742
347.717	2473.3131
348.232	2550.46843
348.747	2498.11927
349.261	2489.85513
349.776	2504.1587
350.29	2538.25901
350.805	2630.32058
351.319	2597.04938
351.833	2551.89361
352.347	2696.98659
352.861	2685.92614
353.374	2701.91806
353.888	2663.07351
354.401	2738.81789
354.915	2655.68346
355.428	2799.02517
355.941	2801.73858
356.454	2933.60895
356.967	2910.76383
357.48	2871.66653
357.993	2961.86111
358.505	2950.78083
359.018	3168.67089
359.53	3116.57972
360.042	3211.25724
360.554	3108.61618
361.066	3007.63528
361.578	2966.26538
362.09	3175.45092
362.602	3100.17026
363.113	3243.24626
363.625	3229.11793
364.136	3329.98997
364.647	3114.14328
365.158	3332.10261
365.669	3444.13156
366.18	3442.05522
366.691	3483.79291
367.201	3368.08888
367.712	3412.84698
368.222	3512.78269
368.733	3526.55306
369.243	3517.57631
369.753	3702.6138
370.263	3794.63148
370.773	3765.72107
371.282	3798.50568
371.792	3811.24925
372.301	4038.29491
372.811	4143.46884
373.32	3978.90952
373.829	4204.98294
374.338	4251.81917
374.847	4432.77504
375.356	4477.76602
375.865	4744.62424
376.373	4985.68954
376.882	5145.77435
377.39	5046.71266
377.898	5071.72472
378.407	5542.20448
378.915	5788.65892
379.423	6128.11125
379.93	6186.53865
380.438	6463.3074
380.946	6674.38428
381.453	6821.23664
381.96	7181.40604
382.468	7543.61152
382.975	8256.40178
383.482	8602.48096
383.989	8546.06903
384.495	8876.48575
385.002	9274.20052
385.509	9804.0249
386.015	10404.65487
386.521	11055.87436
387.028	11528.24173
387.534	11778.06978
388.04	12313.821
388.546	12398.8432
389.051	12852.70558
389.557	13873.2315
390.063	15495.30547
390.568	16004.78998
391.073	16216.10099
391.578	16876.27673
392.084	17040.54011
392.589	17209.4801
393.093	18179.7602
393.598	20272.37831
394.103	22263.42618
394.607	24556.94087
395.112	26399.29284
395.616	28065.67017
396.12	30085.44676
396.624	32685.24566
397.128	35965.17462
397.632	39472.29709
398.136	38422.71082
398.639	36230.89646
399.143	32503.66402
399.646	28888.45294
400.15	25083.82847
400.653	20124.16724
401.156	13866.23708
401.659	5169.95759
402.162	1054.15589
402.664	0
403.167	0
403.67	0
404.172	0
404.674	0
405.176	0
405.678	0
406.18	0
406.682	0
407.184	0
407.686	0
408.187	0
408.688	0
409.19	0
409.691	0
410.192	0
410.693	0
411.194	435.30976
411.694	4082.94878
412.195	8864.71461
412.696	12089.80453
413.196	12760.96929
413.696	12863.67595
414.196	13703.56671
414.696	17261.84252
415.196	21764.24417
415.696	29583.19008
416.196	36460.31858
416.695	40057.39798
417.195	41392.74103
417.694	42311.08144
418.194	43882.52025
418.693	43421.39382
419.192	41571.48636
419.691	41407.35174
420.19	40929.95031
420.688	39853.90166
421.187	38482.24881
421.685	36227.82101
422.184	33477.91197
422.682	29125.29965
423.18	24439.36315
423.678	21228.79233
424.176	19645.36719
424.674	18320.86143
425.172	17855.27483
425.669	16919.64693
426.167	16062.57314
426.664	14311.82137
427.161	13192.58563
427.659	12133.26571
428.156	11181.24653
428.652	10643.17915
429.149	10117.66381
429.646	9755.20196
430.143	9337.52465
430.639	8880.45375
431.135	8234.03561
431.632	7751.73159
432.128	7216.61004
432.624	6685.46628
433.12	6381.35691
433.616	6271.99516
434.111	5797.78629
434.607	5643.36491
435.103	5727.54158
435.598	5486.20116
436.093	5374.87679
436.588	5101.73014
437.083	4907.68449
437.578	4512.72129
438.073	4322.8707
438.568	4270.01838
439.062	4150.8133
439.557	3971.17574
440.051	3814.15884
440.546	3586.30687
441.04	3498.55037
441.534	3589.75484
442.028	3335.79497
442.522	3321.80591
443.015	3292.598
443.509	3350.96212
444.002	3112.10463
444.496	3041.83357
444.989	3091.18809
445.482	3030.28944
445.975	3082.92641
446.468	2995.87652
446.961	2877.95927
447.454	2882.15727
447.947	2791.32323
448.439	2751.5209
448.931	2697.26237
449.424	2715.72897
449.916	2764.5703
450.408	2586.38652
450.9	2502.67773
451.392	2416.88339
451.884	2506.59519
452.375	2357.86292
452.867	2403.66043
453.358	2290.64347
453.849	2325.48788
454.341	2284.68509
454.832	2253.57745
455.323	2186.97894
455.814	2167.85235
456.304	2157.87837
456.795	2067.89162
457.285	2128.86787
457.776	2196.95844
458.266	2104.03929
458.756	2040.14377
459.247	1947.08934
459.737	1866.11136
460.226	1882.97205
460.716	1805.17509
461.206	1746.22095
461.695	1799.39364
462.185	1783.21379
462.674	1822.17534
463.163	1844.07935
463.653	1714.95525
464.142	1623.30411
464.63	1709.40914
465.119	1627.22173
465.608	1583.22306
466.096	1588.12992
466.585	1571.29923
467.073	1558.40789
467.561	1508.41293
468.05	1545.35005
468.538	1531.51401
469.026	1457.42076
469.513	1369.09162
470.001	1365.26024
470.489	1373.37217
470.976	1302.3111
471.463	1370.5581
471.951	1304.5546
472.438	1191.31848
472.925	1136.27471
473.412	1245.51507
473.899	1218.34207
474.385	1177.47742
474.872	1072.27769
475.359	1082.39634
475.845	1091.09021
476.331	1084.20638
476.817	1081.4393
477.303	1080.33705
477.789	997.35134
478.275	939.35255
478.761	944.32226
479.247	967.22177
479.732	894.32874
480.218	889.43026
480.703	894.35291
481.188	868.07875
481.673	834.15552
482.158	719.91972
482.643	894.44037
483.128	766.08481
483.612	811.18846
484.097	772.23547
484.581	753.13433
485.066	726.16097
485.55	655.93491
486.034	649.91702
486.518	673.04753
487.002	645.07079
487.486	644.0759
487.969	590.00221
488.453	659.16297
488.936	568.88779
489.42	607.92541
489.903	586.06326
490.386	614.64124
490.869	563.86488
491.352	614.0831
491.835	576.83049
492.318	542.87329
492.8	582.83811
493.283	499.9438
493.765	504.91855
494.247	547.94175
494.73	463.75628
495.212	507.92284
495.694	419.73749
496.175	362.65434
496.657	477.85413
497.139	479.60072
497.62	390.70461
498.102	421.80288
498.583	453.87566
499.064	335.57664
499.545	397.69693
500.026	330.57639
500.507	369.66785
500.988	382.74743
501.469	333.66128
501.949	361.70952
502.43	313.58733
502.91	289.46827
503.39	351.70483
503.87	263.49667
504.35	364.68321
504.83	321.55402
505.31	317.61481
505.79	283.54493
506.269	269.51124
506.749	218.40573
507.228	300.56446
507.707	303.53607
508.187	297.57794
508.666	204.4139
509.145	240.45757
509.623	250.47988
510.102	254.50616
510.581	302.59677
511.059	216.44867
511.538	245.52899
512.016	267.52427
512.494	258.5182
512.972	261.51273
513.45	178.34117
513.928	207.41797
514.406	166.3328
514.884	217.46733
515.361	246.48748
515.839	209.39527
516.316	240.47915
516.793	223.4755
517.27	224.45656
517.747	162.35346
518.224	189.36865
518.701	230.42551
519.178	130.27449
519.654	188.37987
520.131	165.3474
520.607	226.47363
521.083	171.33037
521.56	188.37551
522.036	219.40262
522.512	214.44848
522.987	152.30628
523.463	168.33993
523.939	181.37941
524.414	240.46602
524.89	141.28759
525.365	159.30689
525.84	121.24601
526.315	164.33746
526.79	161.31001
527.265	171.33243
527.74	113.23865
528.215	179.36011
528.689	166.31294
529.164	184.34006
529.638	132.29544
530.112	105.21435
530.587	137.24946
531.061	80.16825
531.534	140.29457
532.008	89.18664
532.482	205.4012
532.956	99.21998
533.429	178.37089
533.903	157.29939
534.376	128.24486
534.849	144.28896
535.322	136.27859
535.795	154.32631
536.268	101.21228
536.741	108.22734
537.213	113.22827
537.686	133.28101
538.158	78.15254
538.631	136.28905
539.103	85.16635
539.575	137.24756
540.047	99.19044
540.519	163.3382
540.991	132.28299
541.463	110.23369
541.934	124.24722
542.406	120.24926
542.877	113.22261
543.348	171.35813
543.82	152.32517
544.291	130.26557
544.762	163.33321
545.233	151.32827
545.703	149.28359
546.174	232.45802
546.645	100.20725
547.115	239.48724
547.585	236.45891
548.056	161.33121
548.526	231.45551
548.996	247.50057
549.466	274.56279
549.935	240.47337
550.405	273.49181
550.875	318.61689
551.344	289.57443
551.814	255.48723
552.283	317.56348
552.752	288.54802
553.221	368.63431
553.69	350.62425
554.159	328.65332
554.628	362.64331
555.096	287.59893
555.565	318.5748
556.033	359.68961
556.502	254.51653
556.97	267.49409
557.438	235.47277
557.906	223.45338
558.374	178.35323
558.842	126.26406
559.31	171.33291
559.777	86.18382
560.245	121.25196
560.712	121.24825
561.18	120.23356
561.647	107.21208
562.114	99.20018
562.581	127.27797
563.048	134.27424
563.514	76.1668
563.981	112.2288
564.448	169.33341
564.914	120.24948
565.381	147.29723
565.847	156.32404
566.313	140.29003
566.779	126.25343
567.245	160.33146
567.711	106.22735
568.176	139.27641
568.642	134.29856
569.108	140.30559
569.573	189.39302
570.038	149.27793
570.504	163.32127
570.969	147.32718
571.434	138.26719
571.899	169.35425
572.363	211.419
572.828	267.52798
573.293	239.47505
573.757	227.45288
574.222	248.47535
574.686	253.48599
575.15	226.46546
575.614	236.46788
576.078	248.50157
576.542	236.46548
577.006	237.46162
577.469	299.63699
577.933	284.54093
578.396	289.58971
578.86	321.64399
579.323	259.53114
579.786	246.45807
580.249	257.5032
580.712	248.52639
581.175	242.51792
581.637	260.51981
582.1	289.54604
582.563	330.60412
583.025	219.46292
583.487	215.37719
583.95	218.40633
584.412	251.45704
584.874	238.50274
585.336	254.52171
585.797	231.43452
586.259	267.5473
586.721	147.30623
587.182	271.55223
587.643	264.52046
588.105	200.41692
588.566	248.45468
589.027	195.41219
589.488	214.42863
589.949	265.55843
590.41	196.33347
590.87	300.59199
591.331	251.47307
591.791	251.50309
592.252	180.36237
592.712	236.49655
593.172	214.42268
593.632	262.50048
594.092	233.45448
594.552	265.49455
595.011	165.335
595.471	282.54549
595.931	227.44278
596.39	235.49107
596.849	303.60704
597.308	265.5002
597.768	232.51604
598.227	274.57345
598.685	282.56327
599.144	259.52681
599.603	264.54421
600.062	229.41868
600.52	350.66114
600.978	267.55027
601.437	325.63846
601.895	350.62845
602.353	336.63718
602.811	367.68901
603.269	400.80675
603.727	340.69488
604.184	360.6847
604.642	404.83316
605.099	394.76945
605.557	444.90413
606.014	351.63754
606.471	377.79267
606.928	410.72561
607.385	494.9794
607.842	621.12319
608.299	672.23018
608.755	654.24421
609.212	567.00496
609.668	564.99258
610.125	660.26235
610.581	753.39716
611.037	691.2469
611.493	632.20053
611.949	544.06825
612.405	550.88468
612.861	598.14521
613.316	534.04611
613.772	626.15331
614.227	524.01728
614.683	640.09499
615.138	577.09773
615.593	585.10434
616.048	619.14695
616.503	630.26073
616.958	603.2342
617.412	594.14687
617.867	532.96665
618.321	619.03205
618.776	585.05902
619.23	530.03532
619.684	568.06091
620.138	618.17902
620.592	549.11335
621.046	545.07148
621.5	542.10389
621.954	542.02426
622.407	590.08848
622.861	528.08313
623.314	520.00181
623.768	502.99526
624.221	498.82877
624.674	477.94282
625.127	475.95647
625.58	461.91247
626.033	501.95129
626.485	444.92346
626.938	435.90575
627.39	457.9253
627.843	426.8655
628.295	405.82715
628.747	383.80954
629.199	421.84383
629.651	318.65227
630.103	392.79861
630.555	352.66981
631.006	346.73279
631.458	377.79791
631.909	370.76853
632.361	287.61515
632.812	277.58859
633.263	327.6433
633.714	315.61881
634.165	289.64721
634.616	309.67601
635.067	314.64291
635.518	301.66408
635.968	312.57867
636.419	265.53828
636.869	272.60374
637.319	261.56377
637.769	217.45808
638.219	302.67172
638.669	238.53399
639.119	289.65839
639.569	217.49557
640.019	235.51435
640.468	179.38318
640.918	234.53429
641.367	178.38326
641.816	251.53079
642.265	238.52191
642.714	181.40202
643.163	229.5008
643.612	218.49675
644.061	182.36994
644.51	222.48169
644.958	195.4111
645.406	204.46654
645.855	259.60148
646.303	230.5135
646.751	259.55777
647.199	246.53217
647.647	224.49224
648.095	262.5692
648.543	264.51507
648.99	223.50907
649.438	253.56706
649.885	285.66734
650.333	275.50635
650.78	230.53108
651.227	187.43875
651.674	240.52274
652.121	261.60445
652.568	246.57005
653.015	289.69335
653.461	225.51322
653.908	271.60115
654.354	227.52112
654.801	230.51732
655.247	230.48649
655.693	220.55151
656.139	283.64524
656.585	246.56576
657.031	209.4696
657.477	265.54664
657.922	260.57231
658.368	225.53551
658.813	259.57883
659.259	243.56009
659.704	198.44754
660.149	247.55316
660.594	245.55951
661.039	306.66252
661.484	314.71374
661.929	352.77641
662.373	262.63349
662.818	287.68017
663.262	272.62729
663.707	312.75236
664.151	278.65133
664.595	319.73112
665.039	294.70011
665.483	344.82951
665.927	351.78279
666.371	267.59302
666.814	367.82794
667.258	284.64321
667.701	412.83286
668.145	350.82703
668.588	346.80617
669.031	331.73911
669.474	327.75066
669.917	393.8194
670.36	372.87219
670.803	416.94209
671.245	326.65659
671.688	371.85743
672.13	351.74646
672.573	403.96493
673.015	442.99078
673.457	360.74376
673.899	393.89887
674.341	410.93039
674.783	401.90462
675.225	450.03021
675.666	416.93711
676.108	477.95917
676.549	449.99384
676.991	459.94126
677.432	473.86968
677.873	469.00714
678.314	477.056
678.755	459.03928
679.196	422.907
679.637	461.05016
680.078	522.12382
680.518	494.06617
680.959	496.09836
681.399	470.08383
681.839	501.12719
682.28	469.07572
682.72	477.01159
683.16	508.16789
683.6	476.00881
684.039	499.95904
684.479	498.13025
684.919	472.00772
685.358	524.22724
685.798	505.22611
686.237	519.15821
686.676	540.15068
687.115	605.28577
687.554	543.18187
687.993	515.04856
688.432	496.04807
688.871	528.09874
689.309	546.19469
689.748	536.02527
690.186	521.1483
690.625	537.15443
691.063	564.23517
691.501	542.23176
691.939	543.24374
692.377	551.23175
692.815	488.08196
693.253	529.17229
693.69	492.00006
694.128	555.22999
694.565	519.14198
695.003	531.24293
695.44	531.1469
695.877	534.14428
696.314	556.09083
696.751	504.06407
697.188	506.07298
697.625	510.08336
698.061	496.10247
698.498	526.17458
698.934	545.20529
699.371	447.9857
699.807	536.16537
700.243	522.15795
700.679	489.02716
701.115	551.19067
701.551	508.10674
701.987	533.10154
702.422	473.04539
702.858	532.16597
703.294	547.13507
703.729	519.17346
704.164	467.04842
704.599	517.06029
705.035	461.96244
705.47	466.05665
705.904	482.04245
706.339	484.04767
706.774	483.05062
707.209	489.04476
707.643	530.17231
708.078	483.09372
708.512	472.09968
708.946	533.17675
709.38	496.08969
709.814	490.03899
710.248	508.14646
710.682	507.1146
711.116	449.00009
711.549	539.2833
711.983	450.97382
712.416	542.17744
712.85	517.19216
713.283	525.14456
713.716	556.28399
714.149	543.18987
714.582	532.09627
715.015	526.21751
715.448	539.25233
715.881	499.00993
716.313	512.10745
716.746	526.13923
717.178	519.15105
717.61	535.25182
718.043	501.15888
718.475	517.15754
718.907	611.40751
719.339	495.03658
719.77	483.06219
720.202	533.24324
720.634	504.13418
721.065	541.17701
721.497	529.19514
721.928	496.12889
722.359	483.08041
722.79	501.10922
723.221	529.22955
723.652	565.33962
724.083	560.15045
724.514	544.14466
724.945	554.19078
725.375	538.14294
725.806	605.37372
726.236	561.32041
726.666	524.14262
727.096	562.26283
727.526	549.28161
727.956	540.12276
728.386	605.35262
728.816	526.22809
729.246	518.1605
729.675	527.19448
730.105	589.3206
730.534	559.19458
730.964	581.34312
731.393	666.48639
731.822	599.39408
732.251	612.41066
732.68	608.29693
733.109	606.35458
733.537	595.30398
733.966	573.29994
734.395	610.2708
734.823	647.30527
735.251	601.31216
735.68	640.4477
736.108	557.29369
736.536	613.30619
736.964	615.28606
737.392	610.38537
737.82	636.37373
738.247	599.30117
738.675	661.41469
739.102	655.46994
739.53	595.37933
739.957	652.51187
740.384	651.4454
740.811	629.44325
741.238	671.46393
741.665	604.26386
742.092	655.40184
742.519	585.31753
742.945	640.38061
743.372	605.35873
743.798	643.49305
744.225	673.42613
744.651	628.42456
745.077	648.45392
745.503	688.49567
745.929	683.45868
746.355	742.63091
746.781	668.48288
747.207	652.36564
747.632	694.50234
748.058	661.48038
748.483	708.43734
748.908	669.48848
749.334	683.49642
749.759	637.34741
750.184	662.40738
750.609	709.54626
751.033	757.56663
751.458	731.43516
751.883	697.53802
752.307	678.41829
752.732	605.36928
753.156	729.59058
753.58	715.50007
754.005	741.66375
754.429	695.44588
754.853	696.53357
755.277	671.41446
755.7	682.51022
756.124	654.45598
756.548	678.4283
756.971	710.53635
757.394	694.5979
757.818	683.5735
758.241	711.60353
758.664	743.65597
759.087	643.27699
759.51	667.48648
759.933	644.38866
760.356	656.51336
760.778	705.53753
761.201	648.4146
761.623	743.58558
762.046	690.45361
762.468	702.4951
762.89	689.51528
763.312	697.51173
763.734	628.3599
764.156	624.39027
764.578	654.34146
765	653.42763
765.421	575.33186
765.843	643.52355
766.264	640.38886
766.686	623.41463
767.107	602.31961
767.528	602.37766
767.949	635.45703
768.37	606.34567
768.791	581.27753
769.212	544.25226
769.632	502.07606
770.053	559.3513
770.473	588.29754
770.894	575.31344
771.314	625.34332
771.734	535.13976
772.154	571.34032
772.575	563.186
772.994	539.11545
773.414	531.16989
773.834	508.17254
774.254	517.16466
774.673	573.26994
775.093	493.12816
775.512	469.07315
775.931	517.2087
776.351	491.12807
776.77	457.03935
777.189	504.10358
777.607	474.12554
778.026	476.10031
778.445	432.01106
778.864	519.22807
779.282	454.01605
779.701	431.01757
780.119	444.04771
780.537	441.02753
780.955	477.12768
781.373	446.0288
781.791	405.85304
782.209	443.95151
782.627	433.06985
783.045	413.89014
783.462	405.97599
783.88	371.91129
784.297	398.94478
784.715	400.96923
785.132	379.86756
785.549	360.85559
785.966	400.9488
786.383	380.88398
786.8	387.84699
787.217	348.78396
787.633	312.7461
788.05	387.8677
788.466	385.85683
788.883	304.74442
789.299	285.6608
789.715	329.7634
790.131	300.71659
790.547	308.73794
790.963	295.70398
791.379	310.75149
791.795	248.54842
792.21	260.58766
792.626	296.6742
793.041	282.67051
793.457	239.57385
793.872	336.75167
794.287	220.51122
794.702	248.59263
795.117	258.62005
795.532	234.56984
795.947	274.63618
796.362	224.52113
796.776	273.61691
797.191	226.53841
797.605	202.46309
798.02	198.47135
798.434	251.54055
798.848	188.45372
799.262	184.44759
799.676	212.50487
800.09	175.42307
800.504	238.56068
800.918	183.41574
801.331	214.54784
801.745	194.43599
802.158	173.425
802.572	157.37555
802.985	174.41343
803.398	203.47293
803.811	223.55873
804.224	203.4939
804.637	150.35256
805.05	174.39618
805.462	178.42943
805.875	130.33351
806.288	109.26133
806.7	134.33327
807.112	144.32986
807.525	146.35582
807.937	99.24367
808.349	159.39234
808.761	131.31909
809.173	149.35628
809.584	143.34923
809.996	105.25567
810.408	116.29697
810.819	192.44158
811.231	145.36972
811.642	187.43617
812.053	245.56357
812.464	314.7123
812.875	347.84353
813.286	187.47158
813.697	205.46779
814.108	179.42898
814.519	144.31685
814.929	179.44801
815.34	79.1915
815.75	93.23538
816.16	101.25051
816.571	144.3693
816.981	82.19349
817.391	81.19538
817.801	90.22278
818.211	98.23267
818.62	93.22306
819.03	97.23672
819.44	126.32596
819.849	94.23591
820.259	90.2296
820.668	62.15274
821.077	90.2227
821.486	108.25849
821.895	106.26037
822.304	81.21413
822.713	115.26972
823.122	58.14509
823.531	80.18943
823.939	77.18742
824.348	82.19903
824.756	78.19512
825.164	110.27488
825.573	76.19047
825.981	93.22974
826.389	87.21791
826.797	44.11071
827.205	55.12667
827.612	128.31254
828.02	74.17366
828.428	53.13533
828.835	87.22814
829.243	96.22775
829.65	55.13707
830.057	113.27206
830.464	92.22322
830.871	116.27541
831.278	81.19538
831.685	88.19583
832.092	105.25538
832.499	70.15325
832.905	78.1971
833.312	69.15752
833.718	76.18909
834.124	81.18477
834.531	80.20121
834.937	76.19471
835.343	82.19738
835.749	68.15896
836.155	97.25254
836.561	71.17449
836.966	111.26926
837.372	42.10734
837.777	47.11747
838.183	42.09397
838.588	65.1614
838.993	78.18953
839.399	37.09093
839.804	13.03199
840.209	34.08698
840.613	32.07174
841.018	81.20449
841.423	71.18187
841.828	38.09654
842.232	91.22439
842.637	54.12772
843.041	36.09268
843.445	44.11075
843.849	31.0772
844.253	58.13808
844.657	47.11866
845.061	79.17882
845.465	27.06567
845.869	20.0469
846.272	22.05398
846.676	73.17629
847.079	14.03589
847.483	93.23075
847.886	73.17735
848.289	71.18908
848.692	49.12437
849.095	77.18447
849.498	115.28877
849.901	57.13097
850.304	42.10079
850.707	59.15049
851.109	98.24639
851.512	15.03718
851.914	54.13621
852.316	27.0687
852.718	20.05197
853.121	23.05676
853.523	31.07291
853.925	10.0263
854.326	30.0754
854.728	35.09037
855.13	26.06743
855.531	13.03135
855.933	25.06044
856.334	16.0402
856.736	34.0766
857.137	20.04688
857.538	11.02789
857.939	28.06956
858.34	74.17988
858.741	48.12568
859.142	11.02667
859.542	45.11896
859.943	44.10963
860.343	14.03495
860.744	60.1464
861.144	24.05893
861.544	1.00243
861.945	61.15538
862.345	101.2451
862.745	14.03507
863.145	69.16467
863.544	48.12151
863.944	28.06656
864.344	44.10959
864.743	51.12673
865.143	41.10561
865.542	44.10237
865.941	79.1948
866.34	40.09618
866.74	62.16624
867.139	45.10801
867.537	41.10476
867.936	43.1038
868.335	55.13999
868.734	33.08468
869.132	8.01877
869.531	98.23527
869.929	48.10965
870.327	58.13903
870.726	91.22554
871.124	70.16325
871.522	44.11233
871.92	77.18924
872.318	56.13694
872.715	34.08453
873.113	25.06128
873.511	57.142
873.908	5.01274
874.306	0
874.703	52.13022
875.1	50.12805
875.497	74.17684
875.894	-7.01735
876.291	48.11799
876.688	32.08287
877.085	62.14862
877.482	54.13523
877.878	11.0267
878.275	47.11959
878.671	57.12697
879.068	52.12565
879.464	87.20906
879.86	-2.00478
880.256	65.16016
880.652	43.1096
881.048	35.08707
881.444	49.11681
881.84	17.0435
882.236	53.13333
882.631	50.12286
883.027	73.17622
883.422	29.07449
883.817	12.03039
884.213	64.16397
884.608	-6.01488
885.003	43.10392
885.398	5.01263
885.793	28.07063
886.188	2.00502
886.582	51.13091
886.977	32.0763
887.371	52.13159
887.766	-11.02768
888.16	40.1001
888.554	81.19936
888.949	52.13065
889.343	61.14886
889.737	-8.02153
890.131	12.03033
890.525	46.11781
890.918	37.09341
891.312	46.11027
891.706	39.10258
892.099	74.18766
892.492	16.03482
892.886	59.14425
893.279	47.11988
893.672	50.12738
894.065	62.15504
894.458	5.01269
894.851	46.11291
895.244	26.06673
895.637	25.06055
896.029	32.07857
896.422	39.09557
896.814	-2.00502
897.206	11.02641
897.599	77.18966
897.991	10.02438
898.383	26.06178
898.775	-19.04353
899.167	7.01648
899.559	55.1392
899.951	88.20611
900.342	71.18002
900.734	6.01502
901.125	75.19607
901.517	28.06906
901.908	84.20028
902.299	2.00494
902.69	29.06876
903.082	51.12358
903.473	16.03859
903.863	58.14786
904.254	27.063
904.645	60.14907
905.036	32.07779
905.426	33.07588
905.817	25.06167
906.207	-14.03379
906.597	29.06815
906.987	47.12195
907.378	11.02803
907.768	40.10598
908.158	44.10748
908.547	-12.03134
908.937	65.16644
909.327	52.12631
909.717	84.21211
910.106	33.07957
910.495	45.11251
910.885	61.15428
911.274	54.13494
911.663	67.16963
912.052	61.15031
912.441	53.13476
912.83	23.05312
913.219	59.15424
913.608	15.037
913.997	29.07301
914.385	35.08391
914.774	56.13628
915.162	47.11213
915.55	39.09461
915.939	29.0735
916.327	39.09758
916.715	-1.00257
917.103	43.10603
917.491	66.16289
917.878	62.15218
918.266	28.07291
918.654	55.14044
919.041	37.09683
919.429	3.00715
919.816	60.15188
920.203	47.1141
920.591	27.06726
920.978	33.0811
921.365	24.06327
921.752	34.08135
922.139	65.14077
922.525	50.12013
922.912	20.04907
923.299	9.02254
923.685	33.08636
924.072	75.17219
924.458	55.13617
924.844	4.00998
925.231	-7.01648
925.617	-9.02313
926.003	65.16574
926.389	46.11615
926.774	67.16933
927.16	35.08719
927.546	-29.07506
927.931	57.1421
928.317	48.11066
928.702	59.13941
929.088	38.09012
929.473	27.06899
929.858	-2.00488
930.243	23.0555
930.628	32.07814
931.013	45.11166
931.398	95.21661
931.783	44.11599
932.167	55.13437
932.552	46.11537
932.937	39.09702
933.321	3.00759
933.705	44.11106
934.09	100.25052
934.474	57.13525
934.858	19.04955
935.242	24.05593
935.626	33.08474
936.009	-4.01074
936.393	62.15745
936.777	-4.01034
937.16	14.03666
937.544	35.08273
937.927	39.09916
938.311	74.17988
938.694	76.20014
939.077	32.07688
939.46	90.21943
939.843	32.06706
940.226	33.08492
940.609	22.0508
940.991	33.08426
941.374	21.05161
941.757	56.13806
942.139	-3.00681
942.522	58.13691
942.904	34.082
943.286	50.12706
943.668	32.08316
944.05	15.03719
944.432	41.10136
944.814	19.04708
945.196	12.02945
945.578	9.02156
945.959	-2.00474
946.341	88.21455
946.722	9.0213
947.104	54.129
947.485	37.08634
947.866	12.03044
948.247	58.14614
948.628	65.15815
949.009	26.06687
949.39	47.11709
949.771	34.07935
950.152	-11.0273
950.532	-13.03235
950.913	28.06783
951.293	6.01632
951.674	22.0535
952.054	13.03243
952.434	46.11428
952.814	5.012
953.194	52.13606
953.574	86.21046
953.954	20.04778
954.334	-3.00755
954.714	-5.01231
955.093	93.22687
955.473	4.01009
955.853	61.15762
956.232	78.21283
956.611	92.21893
956.99	-22.05601
957.37	31.07927
957.749	35.08375
958.128	46.11599
958.506	34.08845
958.885	44.11118
959.264	37.0909
959.643	23.05263
960.021	48.11899
960.4	25.05696
960.778	41.10117
961.156	4.01011
961.535	32.07486
961.913	74.17237
962.291	-12.03112
962.669	16.04078
963.047	48.12254
963.424	25.06408
963.802	46.1132
964.18	69.17401
964.557	87.19893
964.935	48.11379
965.312	37.09656
965.69	65.16234
966.067	43.10486
966.444	49.12078
966.821	25.06473
967.198	76.1835
967.575	89.21727
967.952	51.12018
968.329	28.06842
968.705	22.04747
969.082	33.08489
969.458	-23.05594
969.835	51.12414
970.211	22.05674
970.587	39.0973
970.963	41.10535
971.339	-10.02638
971.715	12.03017
972.091	36.08888
972.467	49.12225
972.843	19.04742
973.219	79.18868
973.594	6.01581
973.97	93.21957
974.345	16.03854
974.721	59.14264
975.096	42.10179
975.471	65.15376
975.846	40.09629
976.221	69.17463
976.596	50.11986
976.971	64.15761
977.346	55.12794
977.72	19.04867
978.095	34.08811
978.469	65.15471
978.844	33.08322
979.218	23.05542
979.593	48.11506
979.967	19.04656
980.341	41.09458
980.715	8.02031
981.089	63.15735
981.463	29.06687
981.837	7.01724
982.21	60.13938
982.584	34.08237
982.957	2.00504
983.331	34.08063
983.704	45.11068
984.078	27.06682
984.451	67.16685
984.824	11.02698
985.197	36.08767
985.57	54.13533
985.943	81.19892
986.316	103.25061
986.688	29.07022
987.061	56.13111
987.434	53.13804
987.806	0
988.179	-5.01192
988.551	40.10165
988.923	22.05446
989.295	79.19638
989.667	-3.00724
990.039	-15.0375
990.411	54.1242
990.783	57.13107
991.155	-1.00243
991.527	92.22481
991.898	29.07253
992.27	18.04478
992.641	84.20945
993.012	30.07087
993.384	33.07897
993.755	9.02311
994.126	35.08443
994.497	5.01237
994.868	47.10803
995.239	7.0171
995.61	23.05815
995.98	18.04398
996.351	21.05228
996.722	10.02338
997.092	-27.06488
997.462	18.04231
997.833	51.12088
998.203	87.20946
998.573	13.03259
998.943	40.09398
999.313	60.1435
999.683	13.03142
1000.053	70.16042
1000.423	51.1239
1000.792	49.12701
1001.162	39.09617
1001.531	56.13791
1001.901	28.07007
1002.27	51.11398
1002.639	19.04881
1003.009	40.0953
1003.378	38.09735
1003.747	52.12279
1004.116	26.06249
1004.485	34.0815
1004.853	55.1392
1005.222	20.0507
1005.591	71.16789
1005.959	36.08134
1006.328	8.01816
1006.696	2.00487
1007.064	34.08576
1007.433	33.08272
1007.801	32.07881
1008.169	61.15373
1008.537	61.13476
1008.905	23.05386
1009.273	63.15523
1009.64	15.03602
1010.008	74.17556
1010.375	81.19553
1010.743	74.17006
1011.11	41.09718
1011.478	27.06709
1011.845	43.10125
1012.212	9.02054
1012.579	27.06655
1012.946	41.09774
1013.313	72.17062
1013.68	26.05872
1014.047	14.03359
1014.414	7.01667
1014.78	34.08472
1015.147	57.13765
1015.513	30.07254
1015.88	68.1733
1016.246	58.14294
1016.612	35.08035
1016.978	72.17568
1017.344	31.07686
1017.71	67.16284
1018.076	41.09684
1018.442	33.08512
1018.808	21.05275
1019.174	68.16999
1019.539	85.19428
1019.905	9.02139
1020.27	-10.02494
1020.636	22.05302
1021.001	35.08401
1021.366	-5.01213
1021.731	61.15653
1022.096	-36.09217
1022.461	64.15101
1022.826	31.07393
1023.191	54.14153
1023.556	73.17028
1023.92	31.07647
1024.285	68.16536
1024.649	58.14189
1025.014	21.05228
1025.378	0
1025.742	77.19022
1026.107	85.19084
1026.471	49.11439
1026.835	30.07461
1027.199	11.02666
1027.562	89.20523
1027.926	59.14398
1028.29	32.08121
1028.654	41.09447
1029.017	19.04695
1029.381	-6.01448
1029.744	32.08184
1030.107	43.10184
1030.471	60.14333
1030.834	17.03892
1031.197	65.15608
1031.56	74.17373
1031.923	24.0623
1032.286	56.13132
1032.648	71.16906
1033.011	-16.0372
1033.374	43.10117
1033.736	58.15222
1034.099	56.13628
1034.461	30.07602
1034.823	18.04506
1035.185	29.07324
1035.548	28.0684
1035.91	56.13393
1036.272	56.12725
1036.634	59.14404
1036.995	2.00474
1037.357	11.02694
1037.719	30.0732
1038.08	32.07621
1038.442	32.07618
1038.803	51.12237
1039.165	16.0406
1039.526	22.05342
1039.887	11.0265
1040.248	2.00497
1040.609	71.17469
1040.97	2.00493
1041.331	14.03565
1041.692	21.04927
1042.053	49.11155
1042.413	38.08872
1042.774	65.15756
1043.134	56.13311
1043.495	65.16287
1043.855	55.13322
1044.215	27.06726
1044.576	17.04088
1044.936	36.08273
1045.296	94.2326
1045.656	40.09829
1046.016	42.10148
1046.375	6.01467
1046.735	9.02056
1047.095	25.05877
1047.454	75.15798
1047.814	48.11537
1048.173	69.16417
1048.533	38.08722
1048.892	-48.11729
1049.251	44.11051
1049.61	40.09862
1049.969	63.14805
1050.328	29.06313
1050.687	42.10229
1051.046	27.06599
1051.405	52.12924
1051.763	-14.03259
1052.122	2.00503
1052.48	32.07869
1052.839	2.00475
1053.197	29.0685
1053.555	85.19233
1053.914	60.1464
1054.272	43.10404
1054.63	63.15357
1054.988	5.01197
1055.345	14.03036
1055.703	75.17954
1056.061	42.10813
1056.419	36.09336
1056.776	49.11878
1057.134	28.06507
1057.491	52.13008
1057.848	41.10218
1058.206	31.07313
1058.563	10.02222
1058.92	71.16287
1059.277	60.14765
1059.634	71.16626
1059.991	56.13393
1060.348	-7.01599
1060.704	14.03357
1061.061	66.15277
1061.418	28.06814
1061.774	54.13313
1062.131	11.02926
1062.487	-4.00945
1062.843	53.13199
1063.199	35.08722
1063.555	4.00935
1063.911	16.04063
1064.267	65.13505
1064.623	-15.03685
1064.979	62.14647
1065.335	43.10286
1065.691	51.12214
1066.046	23.05083
1066.402	6.01374
1066.757	32.08098
1067.112	49.1202
1067.468	-15.03584
1067.823	37.08912
1068.178	60.14476
1068.533	28.06811
1068.888	68.16182
1069.243	48.11843
1069.598	35.08522
1069.952	-16.03649
1070.307	18.04478
1070.662	29.06908
1071.016	0
1071.371	62.1406
1071.725	53.12664
1072.079	71.16997
1072.434	29.07069
1072.788	18.0431
1073.142	84.20518
1073.496	-8.01918
1073.85	21.04895
1074.203	70.16907
1074.557	33.08794
1074.911	70.16633
1075.265	11.02575
1075.618	33.08077
1075.971	3.0072
1076.325	26.06631
1076.678	-4.00924
1077.031	11.02507
1077.385	24.05312
1077.738	9.02047
1078.091	-8.01839
1078.444	39.09068
1078.796	35.08605
1079.149	3.00752
1079.502	23.05458
1079.855	10.02349
1080.207	23.0569
1080.56	59.15213
1080.912	47.1144
1081.264	8.0194
1081.617	-10.02463
1081.969	26.06582
1082.321	33.08077
1082.673	-20.04626
1083.025	52.12322
1083.377	-226.51353
1083.728	12.02818
1084.08	13.03264
1084.432	27.06535
1084.783	70.16325
1085.135	29.0729
1085.486	-6.01387
1085.838	43.10595
1086.189	-2.0049
1086.54	41.098
1086.891	5.01274
1087.242	28.0684
1087.593	60.14569
1087.944	22.05003
1088.295	40.09104
1088.646	36.08741
1088.996	9.02183
1089.347	19.04685
1089.698	-17.04067
1090.048	34.08848
1090.398	33.07673
1090.749	30.072
1091.099	45.11316
1091.449	63.15643
1091.799	43.10771
1092.149	10.02454
1092.499	28.06852
1092.849	38.09671
1093.199	63.1574
1093.548	22.0531
1093.898	21.05277
1094.248	48.12328
1094.597	16.04105
1094.947	47.12533
1095.296	9.02237
1095.645	33.08601
1095.994	45.1081
1096.343	26.06565
1096.692	4.01058
1097.041	-3.00818
1097.39	50.12531
1097.739	46.11954
1098.088	19.05112
1098.437	-7.01855
1098.785	31.08376
1099.134	45.11948
1099.482	29.07995
1099.83	34.08951
1100.179	26.06803
1100.527	50.13274
1100.875	22.05838
1101.223	33.0878
1101.571	31.08584
1101.919	6.01578
1102.267	32.09026
1102.615	4.01286
1102.962	19.06111
1103.31	4.01285
1103.658	18.05793
