Data from N2 R9 sample 8_Subt2__0__18-45-55-804.txt Node

Date: Fri Aug 29 18:45:55 PDT 2025
User: uwsun
Spectrometer: HDX01956
Trigger mode: 0
Integration Time (sec): 5.000000E-1
Scans to average: 1
Nonlinearity correction enabled: true
Boxcar width: 0
Storing dark spectrum: false
XAxis mode: Wavelengths
Number of Pixels in Spectrum: 2068
>>>>>Begin Spectral Data<<<<<
194.03	214.58069
194.578	206.63468
195.127	210.63669
195.676	223.67709
196.225	246.62554
196.773	269.70555
197.321	375.94349
197.87	492.10442
198.418	494.09256
198.966	469.04947
199.513	475.00603
200.061	450.97798
200.609	546.23585
201.156	450.82842
201.704	449.96979
202.251	464.05679
202.798	463.03261
203.345	518.08699
203.892	505.07854
204.438	536.07629
204.985	453.90755
205.532	502.12506
206.078	537.10734
206.624	524.07927
207.17	548.05991
207.716	442.91684
208.262	519.84402
208.808	449.93864
209.354	505.0333
209.899	504.08918
210.445	456.9653
210.99	505.0207
211.535	512.01381
212.08	514.00448
212.625	497.05867
213.17	534.14477
213.715	434.81301
214.259	522.02111
214.804	552.14826
215.348	553.05249
215.892	509.03115
216.436	587.12872
216.98	585.06818
217.524	515.02333
218.068	515.10279
218.612	533.13844
219.155	469.94091
219.698	502.013
220.242	504.07524
220.785	412.83439
221.328	425.92111
221.871	420.93257
222.414	447.96671
222.956	346.73086
223.499	455.87531
224.041	484.96674
224.583	460.85236
225.126	443.83622
225.668	457.95494
226.21	434.94602
226.751	437.81357
227.293	419.82934
227.835	388.8264
228.376	481.95117
228.918	503.08911
229.459	383.83222
230	461.94066
230.541	433.86066
231.082	456.94968
231.622	443.87849
232.163	457.94901
232.704	378.81874
233.244	438.93814
233.784	467.9875
234.324	390.7331
234.864	415.80988
235.404	479.97473
235.944	449.91618
236.484	448.96742
237.023	447.90382
237.563	465.91264
238.102	488.97925
238.641	465.00926
239.18	399.80233
239.719	480.0297
240.258	398.77283
240.797	442.90456
241.335	501.0413
241.874	512.80717
242.412	443.91091
242.95	469.9483
243.488	460.89196
244.026	489.94797
244.564	476.81923
245.102	472.8925
245.64	479.98493
246.177	524.97922
246.715	507.02803
247.252	458.89529
247.789	454.71814
248.326	414.84918
248.863	500.91172
249.4	508.9667
249.936	472.80887
250.473	499.97429
251.009	437.84756
251.546	451.83714
252.082	481.88173
252.618	445.83506
253.154	453.92182
253.69	472.8925
254.226	471.94885
254.761	477.89733
255.297	423.78203
255.832	440.88293
256.367	488.96479
256.903	467.85649
257.438	493.97262
257.972	486.90235
258.507	484.92102
259.042	463.83974
259.576	447.79874
260.111	483.93678
260.645	452.82041
261.179	529.01649
261.713	487.89813
262.247	516.98718
262.781	423.74024
263.315	494.0087
263.849	516.07421
264.382	523.99549
264.915	483.93991
265.449	440.8968
265.982	543.01337
266.515	495.00502
267.048	454.79514
267.58	521.93776
268.113	513.90349
268.646	532.083
269.178	477.87836
269.71	490.88262
270.243	502.94831
270.775	554.16164
271.307	484.97616
271.838	461.92315
272.37	558.12467
272.902	551.02019
273.433	435.79135
273.965	470.95576
274.496	549.12604
275.027	514.05341
275.558	556.09905
276.089	473.96033
276.62	500.06254
277.15	541.0996
277.681	485.86622
278.211	539.08706
278.741	501.89481
279.272	481.9004
279.802	552.12888
280.332	516.99243
280.861	571.11161
281.391	489.90498
281.921	573.11922
282.45	523.07648
282.98	576.22698
283.509	577.03335
284.038	517.9549
284.567	557.0524
285.096	536.05251
285.625	537.97945
286.153	552.03657
286.682	595.07442
287.21	527.02531
287.739	581.09302
288.267	516.0103
288.795	629.33163
289.323	515.96597
289.851	591.0966
290.378	591.04162
290.906	533.03109
291.433	563.1267
291.961	603.06282
292.488	574.14213
293.015	557.03544
293.542	581.16816
294.069	595.15237
294.596	664.28473
295.122	618.15108
295.649	616.04931
296.175	596.14083
296.702	573.10228
297.228	622.18609
297.754	579.00978
298.28	624.0853
298.806	618.15108
299.332	638.06585
299.857	634.08877
300.383	680.33457
300.908	590.10535
301.433	632.17837
301.958	693.21165
302.483	636.2193
303.008	638.2202
303.533	700.40492
304.058	639.15464
304.582	591.06773
305.107	590.19855
305.631	629.092
306.155	655.14085
306.679	652.13831
307.203	668.15343
307.727	698.23099
308.251	605.14663
308.775	610.085
309.298	657.16668
309.822	712.34162
310.345	731.26417
310.868	710.24308
311.391	739.33847
311.914	735.34812
312.437	691.15306
312.96	639.10998
313.482	691.19103
314.005	737.34773
314.527	729.40566
315.049	747.37843
315.571	681.06682
316.093	796.39549
316.615	783.32421
317.137	801.18238
317.659	813.38699
318.18	779.32527
318.702	782.25366
319.223	771.05375
319.744	814.22255
320.265	829.35983
320.786	791.33777
321.307	852.43462
321.828	865.27961
322.348	864.33777
322.869	866.32835
323.389	585.61357
323.909	869.29103
324.43	972.51189
324.95	888.28628
325.47	849.3572
325.989	880.31259
326.509	931.22754
327.029	880.21411
327.548	901.22283
328.067	958.40111
328.587	1000.52854
329.106	931.26214
329.625	1052.72661
330.144	992.32914
330.662	1017.34536
331.181	1027.37683
331.7	1065.40373
332.218	1079.24655
332.736	1065.38685
333.255	1099.38623
333.773	1080.40038
334.291	1170.61215
334.808	1103.2689
335.326	1154.32682
335.844	1114.31963
336.361	1162.54043
336.879	1209.37278
337.396	1213.4452
337.913	1201.31948
338.43	1228.27637
338.947	1255.41077
339.464	1343.1879
339.981	1206.33481
340.497	1262.47989
341.014	1249.41139
341.53	1264.21952
342.046	1305.43013
342.562	1337.50451
343.078	1342.331
343.594	1358.36759
344.11	1338.33474
344.626	1372.47879
345.141	1403.22204
345.657	1429.23615
346.172	1462.36616
346.687	1417.20602
347.202	1409.13246
347.717	1379.26673
348.232	1544.44141
348.747	1470.17105
349.261	1509.99288
349.776	1620.23078
350.29	1586.30393
350.805	1624.37544
351.319	1648.17626
351.833	1529.03817
352.347	1628.15491
352.861	1593.10481
353.374	1639.10841
353.888	1641.20977
354.401	1646.04784
354.915	1630.92394
355.428	1646.21301
355.941	1714.01215
356.454	1828.95695
356.967	1786.06752
357.48	1743.98242
357.993	1728.15475
358.505	1648.08913
359.018	1876.09018
359.53	1902.99863
360.042	1885.79224
360.554	1958.01754
361.066	1830.00464
361.578	1902.69073
362.09	1849.9299
362.602	1815.69018
363.113	1909.79329
363.625	1865.69577
364.136	2051.59273
364.647	1910.65574
365.158	2002.69916
365.669	2056.76061
366.18	1964.7201
366.691	1974.5248
367.201	1983.70908
367.712	2052.51244
368.222	2040.50978
368.733	2156.27489
369.243	2134.30011
369.753	2254.37678
370.263	2199.45881
370.773	2221.51622
371.282	2283.31254
371.792	2266.08101
372.301	2362.18857
372.811	2343.41571
373.32	2272.79414
373.829	2491.85954
374.338	2565.63085
374.847	2617.59612
375.356	2728.53119
375.865	2700.21081
376.373	2912.15125
376.882	3109.28199
377.39	3080.11478
377.898	3082.98324
378.407	3297.70889
378.915	3483.59276
379.423	3575.58519
379.93	3756.52332
380.438	3673.52731
380.946	3935.57785
381.453	4087.6866
381.96	4218.94602
382.468	4498.6595
382.975	4960.32401
383.482	5166.41109
383.989	5205.10381
384.495	5169.20571
385.002	5601.46704
385.509	5729.97206
386.015	6215.37335
386.521	6613.57624
387.028	6838.00491
387.534	7005.25666
388.04	7341.05855
388.546	7284.35385
389.051	7586.20239
389.557	8128.93898
390.063	9375.01279
390.568	9533.2282
391.073	9647.14732
391.578	10066.58223
392.084	10120.43486
392.589	10176.71617
393.093	10750.22406
393.598	11862.32783
394.103	13372.55892
394.607	14909.62711
395.112	15668.43384
395.616	16871.90955
396.12	17954.55045
396.624	19686.53457
397.128	21338.31226
397.632	24301.35132
398.136	26112.8606
398.639	26063.05422
399.143	27858.46542
399.646	27874.06706
400.15	24899.31502
400.653	20124.16724
401.156	13866.23708
401.659	5169.95759
402.162	1054.15589
402.664	0
403.167	0
403.67	0
404.172	0
404.674	0
405.176	0
405.678	0
406.18	0
406.682	0
407.184	0
407.686	0
408.187	0
408.688	0
409.19	0
409.691	0
410.192	0
410.693	0
411.194	435.30976
411.694	4082.94878
412.195	8864.71461
412.696	12089.80453
413.196	12760.96929
413.696	12863.67595
414.196	13703.56671
414.696	17261.84252
415.196	21764.24417
415.696	29583.19008
416.196	36460.31858
416.695	39499.38463
417.195	32267.00227
417.694	30434.82665
418.194	28915.48236
418.693	25980.01322
419.192	25023.01792
419.691	24717.05008
420.19	24228.40667
420.688	24009.14892
421.187	23307.13026
421.685	22216.93537
422.184	20380.85427
422.682	17808.03404
423.18	14848.23314
423.678	12914.22053
424.176	11982.37068
424.674	11220.29339
425.172	10964.72103
425.669	10432.73865
426.167	9948.85121
426.664	8759.8899
427.161	7969.63028
427.659	7468.31037
428.156	6862.29564
428.652	6507.99137
429.149	6123.2652
429.646	5856.25234
430.143	5745.60904
430.639	5295.33235
431.135	4974.3611
431.632	4729.09971
432.128	4349.64095
432.624	4058.52143
433.12	3764.53285
433.616	3681.5282
434.111	3423.58569
434.607	3362.66234
435.103	3415.62066
435.598	3322.67143
436.093	3162.97722
436.588	3076.0543
437.083	2894.25222
437.578	2693.48495
438.073	2512.75398
438.568	2525.90954
439.062	2448.65061
439.557	2412.01113
440.051	2248.00061
440.546	2100.10298
441.04	2041.30398
441.534	2171.47851
442.028	2001.44862
442.522	1876.48851
443.015	1926.28795
443.509	1932.61228
444.002	1775.6522
444.496	1736.4216
444.989	1782.70561
445.482	1719.76511
445.975	1659.52679
446.468	1673.44967
446.961	1715.45326
447.454	1689.61152
447.947	1596.70984
448.439	1485.83581
448.931	1490.63963
449.424	1510.96775
449.916	1536.87607
450.408	1477.68947
450.9	1407.8618
451.392	1325.96276
451.884	1357.8022
452.375	1226.91211
452.867	1371.82013
453.358	1285.77023
453.849	1308.67761
454.341	1270.79392
454.832	1217.70868
455.323	1180.9405
455.814	1226.87088
456.304	1181.87354
456.795	1161.86291
457.285	1221.8734
457.776	1217.94124
458.266	1140.9527
458.756	1152.01667
459.247	998.90596
459.737	1020.92705
460.226	1089.8712
460.716	1010.96036
461.206	992.9802
461.695	1008.0925
462.185	1015.98753
462.674	902.89715
463.163	1001.89763
463.653	1005.8197
464.142	928.00018
464.63	894.02749
465.119	866.90846
465.608	815.87707
466.096	849.84717
466.585	851.94883
467.073	816.98468
467.561	798.98095
468.05	829.96484
468.538	803.03659
469.026	781.98082
469.513	719.75971
470.001	734.86804
470.489	696.89296
470.976	712.89289
471.463	728.02752
471.951	684.99945
472.438	653.87316
472.925	551.75711
473.412	688.00292
473.899	598.81781
474.385	604.91016
474.872	583.81888
475.359	548.83659
475.845	547.67177
476.331	553.74163
476.817	542.85155
477.303	525.77791
477.789	501.79004
478.275	410.68864
478.761	444.72177
479.247	432.64799
479.732	474.79489
480.218	400.7334
480.703	415.7186
481.188	398.57719
481.673	403.6365
482.158	284.41794
482.643	377.69697
483.128	358.57307
483.612	371.61783
484.097	353.63302
484.581	377.63267
485.066	298.53534
485.55	293.46592
486.034	333.51771
486.518	297.51368
487.002	253.46607
487.486	318.5795
487.969	281.51791
488.453	318.61188
488.936	257.4381
489.42	254.42797
489.903	283.55385
490.386	282.33433
490.869	284.47226
491.352	227.44151
491.835	235.37495
492.318	194.34348
492.8	167.27179
493.283	187.38071
493.765	170.33609
494.247	236.4401
494.73	205.35908
495.212	237.46096
495.694	155.2917
496.175	101.19476
496.657	190.36541
497.139	223.3048
497.62	28.05528
498.102	106.21762
498.583	133.27682
499.064	117.21315
499.545	136.25513
500.026	91.16898
500.507	84.16311
500.988	157.32357
501.469	78.16412
501.949	111.23103
502.43	14.02821
502.91	82.14064
503.39	89.18953
503.87	56.11113
504.35	100.19993
504.83	57.10532
505.31	83.16998
505.79	15.03075
506.269	45.0902
506.749	41.07967
507.228	25.05022
507.707	-16.03067
508.187	107.21764
508.666	-17.03623
509.145	41.08195
509.623	16.03245
510.102	63.13113
510.581	91.18873
511.059	35.07564
511.538	62.13911
512.016	74.15193
512.494	76.15906
512.972	32.06626
513.45	-25.05027
513.928	11.02321
514.406	-12.02505
514.884	22.04936
515.361	22.04588
515.839	46.09047
516.316	-23.04872
516.793	6.0134
517.27	-12.02577
517.747	-25.0567
518.224	-12.02453
518.701	10.01952
519.178	-32.06997
519.654	9.01893
520.131	-21.04602
520.607	-8.01763
521.083	-44.0894
521.56	0
522.036	-32.06255
522.512	27.05892
522.987	-78.16549
523.463	-28.0592
523.939	-3.00654
524.414	33.06725
524.89	25.05234
525.365	-40.0809
525.84	-34.07157
526.315	-9.01924
526.79	-11.02206
527.265	6.01212
527.74	-39.08511
528.215	-14.02942
528.689	11.02153
529.164	11.02121
529.638	-3.0069
530.112	-79.16802
530.587	-18.03407
531.061	-72.15649
531.534	-42.09191
532.008	-78.16961
532.482	33.06722
532.956	-72.16566
533.429	-17.03696
533.903	34.06678
534.376	13.02556
534.849	22.04539
535.322	-28.05948
535.795	-36.07945
536.268	-3.00645
536.741	13.02794
537.213	-30.06259
537.686	-41.08993
538.158	-36.07231
538.631	-56.124
539.103	-62.12556
539.575	-24.04516
540.047	-43.08555
540.519	-42.09113
540.991	-9.01988
541.463	-14.03055
541.934	-19.03914
542.406	-108.23574
542.877	9.01816
543.348	-43.09432
543.82	-5.01106
544.291	27.05645
544.762	-10.02124
545.233	13.02909
545.703	-16.03168
546.174	40.08253
546.645	-20.04256
547.115	-15.03235
547.585	31.06323
548.056	-17.03638
548.526	86.17537
548.996	55.11636
549.466	102.21764
549.935	85.17376
550.405	136.25361
550.875	94.19212
551.344	96.19941
551.814	44.08838
552.283	145.26926
552.752	89.17756
553.221	132.24188
553.69	166.31017
554.159	153.31717
554.628	134.25224
555.096	117.25338
555.565	116.22051
556.033	146.29487
556.502	93.19607
556.97	50.09755
557.438	98.20338
557.906	88.18442
558.374	47.09612
558.842	41.08754
559.31	80.15912
559.777	-8.01745
560.245	48.10157
560.712	38.07943
561.18	48.09503
561.647	98.19465
562.114	36.07384
562.581	56.12441
563.048	114.23437
563.514	8.01781
563.981	83.17067
564.448	86.17297
564.914	135.27973
565.381	167.33612
565.847	156.32404
566.313	130.26991
566.779	159.31737
567.245	108.22634
567.711	155.32893
568.176	150.29752
568.642	204.44792
569.108	187.40411
569.573	251.51473
570.038	239.43586
570.504	210.40933
570.969	281.60801
571.434	222.42119
571.899	253.52048
572.363	301.58517
572.828	342.66441
573.293	318.62043
573.757	310.60655
574.222	312.58878
574.686	304.57677
575.15	306.61887
575.614	366.70357
576.078	322.64018
576.542	362.69286
577.006	363.68587
577.469	411.85426
577.933	355.66451
578.396	372.74476
578.86	422.82687
579.323	351.70483
579.786	384.69057
580.249	328.63143
580.712	352.73017
581.175	337.70639
581.637	339.66533
582.1	348.64802
582.563	343.62586
583.025	288.59955
583.487	290.49877
583.95	253.46747
584.412	297.5345
584.874	286.59777
585.336	244.5023
585.797	249.46631
586.259	278.56843
586.721	187.38609
587.182	295.59785
587.643	292.57187
588.105	213.44273
588.566	270.49227
589.027	200.42229
589.488	234.46652
589.949	247.52256
590.41	201.34152
590.87	210.42316
591.331	239.45178
591.791	174.35497
592.252	196.39313
592.712	206.4363
593.172	156.31232
593.632	209.40437
594.092	168.33276
594.552	139.26752
595.011	201.40474
595.471	205.40386
595.931	152.30177
596.39	141.30079
596.849	170.35107
597.308	205.39264
597.768	159.35902
598.227	243.51207
598.685	241.48596
599.144	217.44561
599.603	243.50328
600.062	195.35958
600.52	206.40287
600.978	283.58114
601.437	252.50358
601.895	220.40823
602.353	230.44746
602.811	233.45189
603.269	255.53145
603.727	268.55668
604.184	295.56995
604.642	331.69382
605.099	320.6359
605.557	310.65052
606.014	309.56724
606.471	326.69315
606.928	334.6028
607.385	410.82882
607.842	482.90384
608.299	539.01932
608.755	508.00024
609.212	507.91395
609.668	403.73908
610.125	515.01905
610.581	585.13027
611.037	539.00987
611.493	463.91686
611.949	475.94943
612.405	469.77167
612.861	533.03651
613.316	480.95386
613.772	538.01271
614.227	497.97268
614.683	546.95887
615.138	461.90308
615.593	458.89275
616.048	525.99687
616.503	548.11715
616.958	529.10058
617.412	510.00419
617.867	454.84124
618.321	608.01672
618.776	554.01069
619.23	569.1014
619.684	527.99579
620.138	561.08485
620.592	538.09374
621.046	513.01603
621.5	488.00589
621.954	494.946
622.407	498.94122
622.861	455.95034
623.314	463.90571
623.768	440.88497
624.221	414.70487
624.674	497.97775
625.127	408.83422
625.58	457.9054
626.033	385.75169
626.485	413.86492
626.938	371.78349
627.39	383.78861
627.843	416.84711
628.295	391.8011
628.747	378.79985
629.199	348.70929
629.651	328.67127
630.103	330.68178
630.555	290.56015
631.006	310.66171
631.458	296.63759
631.909	314.66037
632.361	273.58691
632.812	278.59058
633.263	235.47233
633.714	307.60423
634.165	254.57293
634.616	282.62047
635.067	333.67887
635.518	278.61629
635.968	301.55979
636.419	205.42211
636.869	237.52989
637.319	214.46691
637.769	190.40347
638.219	260.58335
638.669	177.40211
639.119	253.58057
639.569	200.45832
640.019	221.48514
640.468	163.35013
640.918	232.52993
641.367	152.32911
641.816	209.44604
642.265	233.51148
642.714	165.3677
643.163	224.49038
643.612	160.36887
644.061	137.28133
644.51	185.40458
644.958	146.31112
645.406	179.41143
645.855	173.4086
646.303	221.49432
646.751	167.36676
647.199	186.40754
647.647	168.37353
648.095	190.41911
648.543	214.42248
648.99	186.42778
649.438	205.46402
649.885	160.38382
650.333	207.38765
650.78	180.41977
651.227	191.44778
651.674	175.38643
652.121	177.41675
652.568	132.31279
653.015	212.51608
653.461	143.33158
653.908	224.50176
654.354	187.43274
654.801	117.26925
655.247	185.39516
655.693	184.46426
656.139	163.38065
656.585	191.4441
657.031	162.36751
657.477	161.33987
657.922	144.32469
658.368	156.37622
658.813	176.40008
659.259	145.34074
659.704	145.33129
660.149	162.36915
660.594	170.39411
661.039	132.29642
661.484	155.36367
661.929	162.37154
662.373	125.31004
662.818	137.33408
663.262	121.28745
663.707	153.38004
664.151	168.40209
664.595	114.27202
665.039	153.37421
665.483	87.21996
665.927	134.31225
666.371	45.10455
666.814	135.31897
667.258	89.20956
667.701	188.39957
668.145	182.44405
668.588	149.36063
669.031	102.23853
669.474	132.31484
669.917	141.31044
670.36	124.3048
670.803	154.36732
671.245	112.23669
671.688	121.29352
672.13	106.23745
672.573	115.29043
673.015	171.40465
673.457	96.21008
673.899	139.33414
674.341	127.30472
674.783	112.26755
675.225	104.25508
675.666	67.16168
676.108	98.21427
676.549	107.2537
676.991	94.20866
677.432	76.15371
677.873	69.1612
678.314	66.15887
678.755	107.26005
679.196	56.12983
679.637	94.23038
680.078	116.2719
680.518	159.36839
680.959	87.20938
681.399	104.25772
681.839	102.24859
682.28	66.16385
682.72	49.1138
683.16	131.32432
683.6	77.1777
684.039	82.17345
684.479	66.16313
684.919	20.04695
685.358	108.27387
685.798	95.24869
686.237	107.25946
686.676	92.2154
687.115	68.16157
687.554	89.21265
687.993	75.16825
688.432	102.2345
688.871	52.11984
689.309	114.27254
689.748	99.20972
690.186	80.19286
690.625	61.14475
691.063	75.18139
691.501	130.32049
691.939	59.14842
692.377	78.19159
692.815	73.17609
693.253	105.25356
693.69	70.15622
694.128	35.08605
694.565	78.18776
695.003	91.23162
695.44	77.18271
695.877	77.18151
696.314	87.18986
696.751	79.1826
697.188	69.1605
697.625	104.24082
698.061	41.09987
698.498	106.25757
698.934	74.17995
699.371	57.13593
699.807	114.27045
700.243	40.09774
700.679	63.14498
701.115	81.19287
701.551	76.181
701.987	97.22037
702.422	48.11567
702.858	51.12325
703.294	109.24864
703.729	63.15586
704.164	32.07837
704.599	95.21373
705.035	46.10487
705.47	65.15963
705.904	42.09953
706.339	93.21846
706.774	42.10006
707.209	75.17487
707.643	80.19381
708.078	67.16479
708.512	23.0584
708.946	61.14814
709.38	71.17016
709.814	59.13708
710.248	49.12109
710.682	43.10388
711.116	22.05342
711.549	92.23809
711.983	68.15914
712.416	57.13676
712.85	70.176
713.283	74.17698
713.716	105.26451
714.149	105.25165
714.582	88.19972
715.015	107.26859
715.448	59.15023
715.881	76.16898
716.313	74.17529
716.746	71.16893
717.178	65.15797
717.61	42.10787
718.043	69.17351
718.475	40.09847
718.907	109.27646
719.339	22.05096
719.77	51.12251
720.202	66.16826
720.634	23.05692
721.065	56.13454
721.497	57.14133
721.928	14.03501
722.359	13.03194
722.79	48.11646
723.221	94.23753
723.652	79.20505
724.083	18.04155
724.514	67.15597
724.945	11.02643
725.375	47.11066
725.806	95.23821
726.236	126.32201
726.666	79.18876
727.096	83.20504
727.526	40.1028
727.956	67.15419
728.386	48.11973
728.816	31.07949
729.246	76.18599
729.675	40.09974
730.105	61.15174
730.534	58.13755
730.964	112.28331
731.393	132.32734
731.822	107.27341
732.251	111.28163
732.68	95.22542
733.109	90.22278
733.537	68.16573
733.966	57.14298
734.395	43.10097
734.823	60.1375
735.251	42.10263
735.68	121.30285
736.108	68.17336
736.536	78.18569
736.964	94.21947
737.392	74.18646
737.82	95.22915
738.247	72.1741
738.675	112.26837
739.102	36.0911
739.53	97.24724
739.957	51.13237
740.384	113.27915
740.811	76.19382
741.238	31.07683
741.665	63.14776
742.092	65.15697
742.519	55.13741
742.945	37.09019
743.372	70.17461
743.798	109.27998
744.225	59.14189
744.651	72.18187
745.077	86.21537
745.503	87.21342
745.929	84.20281
746.355	121.30077
746.781	99.24591
747.207	63.14926
747.632	77.18875
748.058	111.27692
748.483	48.11221
748.908	66.16529
749.334	86.21226
749.759	92.21801
750.184	58.13961
750.609	110.27049
751.033	121.28623
751.458	117.26322
751.883	121.29935
752.307	45.1074
752.732	74.18572
753.156	102.25221
753.58	131.31048
754.005	111.28153
754.429	52.12375
754.853	52.13008
755.277	86.20474
755.7	122.30188
756.124	84.20922
756.548	94.22361
756.971	101.24712
757.394	113.29046
757.818	71.18358
758.241	82.20875
758.664	111.27983
759.087	32.07269
759.51	112.27845
759.933	19.04649
760.356	114.29155
760.778	99.24376
761.201	120.29148
761.623	133.32154
762.046	118.28005
762.468	125.2998
762.89	94.23268
763.312	78.19159
763.734	86.20795
764.156	97.23989
764.578	99.22874
765	91.22274
765.421	40.10255
765.843	133.34639
766.264	102.24692
766.686	109.27351
767.107	100.24263
767.528	50.1272
767.949	52.13332
768.37	53.13131
768.791	134.32267
769.212	54.1366
769.632	51.12013
770.053	76.20061
770.473	106.25776
770.894	98.2456
771.314	112.26755
771.734	64.15049
772.154	73.18817
772.575	47.11036
772.994	34.07842
773.414	88.21215
773.834	72.18083
774.254	69.16989
774.673	76.18606
775.093	69.17158
775.512	22.05494
775.931	116.2929
776.351	37.09284
776.77	4.00994
777.189	44.10583
777.607	43.11072
778.026	39.09811
778.445	14.0355
778.864	83.2132
779.282	55.13342
779.701	71.17963
780.119	24.06134
780.537	39.09821
780.955	86.21901
781.373	46.11474
781.791	49.11128
782.209	53.12338
782.627	57.15079
783.045	61.14139
783.462	57.14636
783.88	50.13007
784.297	62.15667
784.715	21.05449
785.132	0
785.549	24.06071
785.966	10.02549
786.383	61.1508
786.8	57.13343
787.217	30.07197
787.633	-9.02284
788.05	83.19771
788.466	51.12134
788.883	13.03354
789.299	59.14291
789.715	30.07372
790.131	50.12513
790.547	57.14308
790.963	22.05523
791.379	14.03582
791.795	33.07625
792.21	17.04032
792.626	25.06005
793.041	2.00501
793.457	47.11696
793.872	44.10435
794.287	2.00485
794.702	37.09197
795.117	-9.02272
795.532	-15.03822
795.947	54.13082
796.362	61.14647
796.776	93.21787
797.191	43.10603
797.605	-17.04068
798.02	10.02466
798.434	18.0407
798.848	22.05476
799.262	-10.02521
799.676	60.14705
800.09	5.01247
800.504	25.06133
800.918	15.03524
801.331	32.08453
801.745	16.03727
802.158	21.05304
802.572	60.14618
802.985	49.11922
803.398	26.06268
803.811	73.18784
804.224	50.12513
804.637	-11.02666
805.05	17.03993
805.462	66.1626
805.875	10.02619
806.288	13.03174
806.7	43.10871
807.112	20.04695
807.525	34.08459
807.937	-13.03266
808.349	7.01775
808.761	24.05963
809.173	-23.0568
809.584	34.08472
809.996	-5.01242
810.408	9.02347
810.819	23.05468
811.231	39.1013
811.642	44.10551
812.053	127.29903
812.464	186.4329
812.875	143.36088
813.286	93.23847
813.697	129.29888
814.108	41.10084
814.519	37.08324
814.929	41.10517
815.34	8.01965
815.75	40.10219
816.16	62.15488
816.571	23.06023
816.981	15.03585
817.391	48.11651
817.801	-11.02773
818.211	7.01691
818.62	-26.06377
819.03	25.06183
819.44	48.12585
819.849	78.19632
820.259	45.11571
820.668	-23.05755
821.077	-12.03025
821.486	87.20906
821.895	56.13882
822.304	28.07468
822.713	24.05729
823.122	-9.02279
823.531	18.04313
823.939	11.0271
824.348	39.09542
824.756	29.07319
825.164	44.11126
825.573	54.13587
825.981	73.181
826.389	61.15351
826.797	17.04298
827.205	13.03019
827.612	40.09927
828.02	-1.00238
828.428	30.07691
828.835	14.03717
829.243	45.10781
829.65	27.06763
830.057	63.15311
830.464	12.02955
830.871	61.14636
831.278	17.0415
831.685	59.13208
832.092	-3.00744
832.499	-10.02226
832.905	59.14959
833.312	39.08957
833.718	38.0952
834.124	16.03698
834.531	40.10133
834.937	12.03109
835.343	79.19027
835.749	61.14279
836.155	-9.02386
836.561	6.01492
836.966	28.06898
837.372	52.13266
837.777	44.11003
838.183	64.14254
838.588	14.03509
838.993	15.03688
839.399	-3.00743
839.804	-1.00247
840.209	3.00772
840.613	18.04047
841.018	18.04595
841.423	11.02847
841.828	20.05097
842.232	54.13406
842.637	16.03812
843.041	15.03876
843.445	33.08322
843.849	-29.07301
844.253	41.09793
844.657	-20.0511
845.061	32.07313
845.465	4.00977
845.869	38.08879
846.272	-18.04449
846.676	54.13087
847.079	-5.01286
847.483	61.15224
847.886	51.12441
848.289	0
848.692	8.02045
849.095	10.02426
849.498	43.10937
849.901	53.12187
850.304	13.03137
850.707	37.09474
851.109	29.07382
851.512	2.00497
851.914	-21.05368
852.316	19.04841
852.718	-18.04708
853.121	10.02474
853.523	10.02361
853.925	-7.01846
854.326	-5.01265
854.728	4.01038
855.13	-8.02087
855.531	25.06014
855.933	-1.00243
856.334	34.08515
856.736	10.02264
857.137	14.03285
857.538	-11.028
857.939	-2.005
858.34	57.139
858.741	27.07095
859.142	26.06287
859.542	43.11371
859.943	36.08983
860.343	-20.05023
860.744	27.06628
861.144	43.10521
861.544	-37.09053
861.945	29.07428
862.345	52.12735
862.745	26.065
863.145	69.16467
863.544	17.04327
863.944	23.05472
864.344	6.01505
864.743	49.1218
865.143	30.07742
865.542	-11.02587
865.941	16.03991
866.34	73.17442
866.74	21.05669
867.139	-2.00484
867.537	69.17544
867.936	50.12054
868.335	18.04612
868.734	51.13045
869.132	19.04449
869.531	31.07537
869.929	-4.00923
870.327	23.0555
870.726	25.06271
871.124	5.01181
871.522	-8.02061
871.92	30.07437
872.318	30.07372
872.715	85.20936
873.113	4.00984
873.511	-7.01764
873.908	-26.06659
874.306	-15.03779
874.703	44.11035
875.1	45.11535
875.497	26.0627
875.894	27.0665
876.291	6.01486
876.688	25.06482
877.085	15.03628
877.482	48.12034
877.878	6.01458
878.275	11.02817
878.671	26.05829
879.068	38.09206
879.464	39.09457
879.86	6.01433
880.256	12.02986
880.652	1.00257
881.048	28.06974
881.444	64.15213
881.84	4.01026
882.236	50.12585
882.631	45.11068
883.027	-1.00245
883.422	-16.04142
883.817	-13.03307
884.213	28.07219
884.608	-32.07973
885.003	22.05338
885.398	16.04033
885.793	15.03792
886.188	-2.00502
886.582	28.07216
886.977	-4.0096
887.371	41.10395
887.766	-20.05041
888.16	23.05773
888.554	12.02991
888.949	57.14308
889.343	64.1561
889.737	-42.11368
890.131	23.05803
890.525	7.01805
890.918	22.05569
891.312	55.13161
891.706	6.01587
892.099	4.01027
892.492	-6.01312
892.886	-2.00495
893.279	4.01028
893.672	-14.03607
894.065	24.06043
894.458	29.07327
894.851	17.04195
895.244	10.02574
895.637	23.05573
896.029	43.10537
896.422	18.04428
896.814	5.01254
897.206	-25.06044
897.599	41.10166
897.991	-30.07369
898.383	-8.01913
898.775	2.00456
899.167	23.05397
899.559	57.14421
899.951	9.02141
900.342	19.04862
900.734	-2.00501
901.125	35.09212
901.517	-27.06726
901.908	54.12949
902.299	-18.04459
902.69	16.03803
903.082	2.00489
903.473	-26.0632
903.863	41.10484
904.254	-21.04947
904.645	44.10963
905.036	-24.05895
905.426	8.01849
905.817	14.0346
906.207	-10.02412
906.597	2.00472
906.987	61.15789
907.378	13.03311
907.768	8.02131
908.158	3.00738
908.547	-4.01043
908.937	39.10032
909.327	45.10945
909.717	80.20215
910.106	32.07717
910.495	5.01259
910.885	-5.01279
911.274	40.10021
911.663	2.00512
912.052	22.0546
912.441	12.03073
912.83	24.05542
913.219	41.10751
913.608	28.0689
913.997	-35.08912
914.385	22.05288
914.774	38.09279
915.162	3.00722
915.55	45.10904
915.939	-23.05883
916.327	34.08515
916.715	21.05381
917.103	18.04459
917.491	51.12622
917.878	35.08634
918.266	-1.00262
918.654	25.06417
919.041	-11.02902
919.429	-18.04307
919.816	26.06621
920.203	-15.03684
920.591	35.08707
920.978	47.11521
921.365	7.01851
921.752	15.03602
922.139	14.03065
922.525	12.02904
922.912	45.1099
923.299	24.05995
923.685	45.11752
924.072	36.08329
924.458	29.07214
924.844	7.01746
925.231	-6.01412
925.617	-33.08518
926.003	1.00258
926.389	4.01018
926.774	16.0408
927.16	27.06736
927.546	-3.00773
927.931	2.00504
928.317	11.02555
928.702	77.1813
929.088	-54.13033
929.473	-6.01542
929.858	-32.07857
930.243	-8.01942
930.628	-12.02954
931.013	-23.05778
931.398	44.10136
931.783	51.13428
932.167	32.07851
932.552	26.06544
932.937	31.07723
933.321	-27.0687
933.705	17.04312
934.09	71.1788
934.474	17.04065
934.858	12.03133
935.242	-33.07776
935.626	18.04634
936.009	1.00268
936.393	25.0639
936.777	-3.00775
937.16	22.05752
937.544	19.04505
937.927	-50.12913
938.311	24.05889
938.694	38.10071
939.077	-4.00968
939.46	29.07151
939.843	2.00422
940.226	-16.04152
940.609	-8.01858
940.991	-7.018
941.374	-6.01482
941.757	45.11117
942.139	-15.03415
942.522	40.09475
942.904	0
943.286	60.15221
943.668	29.0754
944.05	24.05941
944.432	23.05705
944.814	3.00745
945.196	-54.13416
945.578	-18.04335
945.959	9.02127
946.341	83.20255
946.722	29.06836
947.104	12.0289
947.485	27.06313
947.866	15.03803
948.247	8.02034
948.628	47.11474
949.009	20.05149
949.39	21.05256
949.771	3.00704
950.152	24.05919
950.532	-3.00745
950.913	16.03885
951.293	-2.00545
951.674	15.03652
952.054	-42.10583
952.434	29.07227
952.814	23.05502
953.194	35.09184
953.574	22.05448
953.954	-15.03607
954.334	-22.05555
954.714	-20.04938
955.093	28.06913
955.473	-19.04811
955.853	27.07018
956.232	12.03309
956.611	53.12707
956.99	-17.04324
957.37	8.02054
957.749	43.10274
958.128	8.02031
958.506	14.03654
958.885	38.09612
959.264	-5.01238
959.643	23.05263
960.021	5.01249
960.4	-36.08303
960.778	65.15969
961.156	15.03784
961.535	22.05157
961.913	28.06581
962.291	-17.04412
962.669	-34.08741
963.047	18.0462
963.424	6.01543
963.802	-19.04732
964.18	62.15655
964.557	-5.01164
964.935	21.05004
965.312	7.01836
965.69	30.0754
966.067	18.0441
966.444	21.05203
966.821	47.12123
967.198	43.10447
967.575	23.05684
967.952	20.04741
968.329	50.12168
968.705	8.01731
969.082	-7.01813
969.458	-21.05106
969.835	28.06845
970.211	-10.02593
970.587	45.11215
970.963	19.04901
971.339	4.01053
971.715	1.00252
972.091	48.11825
972.467	15.03765
972.843	0
973.219	50.12008
973.594	-4.01056
973.97	52.12375
974.345	-5.01209
974.721	19.04628
975.096	11.02681
975.471	-6.01439
975.846	2.00485
976.221	9.02302
976.596	34.08175
976.971	13.03232
977.346	26.06083
977.72	15.03845
978.095	8.02083
978.469	39.09329
978.844	48.12073
979.218	4.00967
979.593	2.00484
979.967	-23.0568
980.341	3.00697
980.715	0
981.089	37.09284
981.463	-21.04891
981.837	-1.00247
982.21	25.05847
982.584	-27.06616
982.957	4.01007
983.331	29.06884
983.704	-7.01738
984.078	-19.04742
984.451	39.09762
984.824	24.05873
985.197	8.01959
985.57	31.07801
985.943	37.09161
986.316	85.20751
986.688	14.03399
987.061	31.07293
987.434	17.04455
987.806	9.022
988.179	1.00238
988.551	28.07131
988.923	7.01738
989.295	25.06276
989.667	-32.07764
990.039	24.05958
990.411	26.06013
990.783	33.07625
991.155	-5.01214
991.527	45.11092
991.898	29.07253
992.27	-31.07782
992.641	29.07303
993.012	42.09899
993.384	-27.06535
993.755	-1.00257
994.126	-9.02189
994.497	18.04444
994.868	0
995.239	24.05845
995.61	21.05311
995.98	-8.01964
996.351	-38.09561
996.722	-24.05648
997.092	-9.02155
997.462	-35.08312
997.833	18.04293
998.203	40.09716
998.573	6.01506
998.943	-1.00237
999.313	-26.0632
999.683	17.04105
1000.053	28.06471
1000.423	27.06589
1000.792	25.06507
1001.162	-15.03735
1001.531	33.08161
1001.901	22.05512
1002.27	8.01804
1002.639	-11.0284
1003.009	-24.05788
1003.378	12.03088
1003.747	35.08292
1004.116	-2.00483
1004.485	0
1004.853	-3.00767
1005.222	12.03046
1005.591	17.04062
1005.959	-46.10567
1006.328	-45.10323
1006.696	-13.03173
1007.064	-1.00254
1007.433	24.06026
1007.801	73.17841
1008.169	28.07098
1008.537	-13.02916
1008.905	-9.02121
1009.273	36.08915
1009.64	-13.03138
1010.008	43.10262
1010.375	68.16455
1010.743	82.18814
1011.11	-27.06483
1011.478	19.04728
1011.845	-9.02141
1012.212	-38.08754
1012.579	20.04936
1012.946	26.06216
1013.313	49.11663
1013.68	22.04973
1014.047	-22.05314
1014.414	-25.05989
1014.78	6.01503
1015.147	27.06557
1015.513	-1.00243
1015.88	40.10244
1016.246	52.12829
1016.612	-7.01621
1016.978	-10.02477
1017.344	27.06699
1017.71	20.04904
1018.076	50.11789
1018.442	22.05686
1018.808	2.00504
1019.174	9.02274
1019.539	56.12875
1019.905	-44.10563
1020.27	-3.00747
1020.636	35.08414
1021.001	16.03854
1021.366	-21.0511
1021.731	8.02072
1022.096	5.01271
1022.461	28.06653
1022.826	5.01198
1023.191	-3.00794
1023.556	-13.03084
1023.92	19.04697
1024.285	-3.00739
1024.649	15.03699
1025.014	-29.07285
1025.378	13.03289
1025.742	44.10935
1026.107	62.13986
1026.471	42.09818
1026.835	12.02994
1027.199	-15.03654
1027.562	12.0281
1027.926	36.08823
1028.29	16.04072
1028.654	46.10588
1029.017	6.01486
1029.381	0
1029.744	26.06656
1030.107	55.12995
1030.471	33.07924
1030.834	22.05032
1031.197	2.00486
1031.56	-26.06223
1031.923	-10.02611
1032.286	-2.00474
1032.648	26.06244
1033.011	16.03696
1033.374	39.09183
1033.736	1.00265
1034.099	-12.02957
1034.461	13.03304
1034.823	-34.08591
1035.185	-10.02543
1035.548	54.13127
1035.91	-34.08271
1036.272	23.05261
1036.634	37.0907
1036.995	25.05902
1037.357	4.00981
1037.719	-14.03444
1038.08	5.01197
1038.442	-2.00479
1038.803	-25.06085
1039.165	18.04566
1039.526	11.02676
1039.887	15.03611
1040.248	-21.05239
1040.609	15.03729
1040.97	-16.03956
1041.331	37.09385
1041.692	-27.06394
1042.053	-11.02534
1042.413	28.0655
1042.774	15.0367
1043.134	34.08116
1043.495	37.09318
1043.855	5.01222
1044.215	-1.0025
1044.576	-2.00483
1044.936	2.00463
1045.296	41.10244
1045.656	51.12506
1046.016	19.04611
1046.375	-10.02452
1046.735	-12.02753
1047.095	29.06812
1047.454	-5.01072
1047.814	16.03869
1048.173	27.06476
1048.533	-6.01389
1048.892	-18.04374
1049.251	48.12047
1049.61	-29.0724
1049.969	-6.01429
1050.328	41.08902
1050.687	0
1051.046	0
1051.405	-18.04531
1051.763	7.01623
1052.122	-12.03025
1052.48	26.06401
1052.839	-9.02141
1053.197	-24.05727
1053.555	53.1207
1053.914	21.05161
1054.272	19.04618
1054.63	-20.04951
1054.988	-4.0096
1055.345	5.01087
1055.703	26.06282
1056.061	38.0979
1056.419	6.01564
1056.776	85.20464
1057.134	5.01167
1057.491	17.0428
1057.848	51.12687
1058.206	43.10121
1058.563	-18.04022
1058.92	33.07628
1059.277	32.07915
1059.634	85.1985
1059.991	26.06254
1060.348	-23.05272
1060.704	-19.04585
1061.061	51.1184
1061.418	-23.05651
1061.774	0
1062.131	-5.01333
1062.487	-3.00708
1062.843	6.01507
1063.199	-14.0352
1063.555	-22.05167
1063.911	-26.06652
1064.267	73.1514
1064.623	-17.04178
1064.979	41.09725
1065.335	34.08147
1065.691	45.10789
1066.046	-6.01334
1066.402	-29.0669
1066.757	-2.00509
1067.112	41.10073
1067.468	-51.12269
1067.823	30.07235
1068.178	32.07761
1068.533	-1.00245
1068.888	40.0957
1069.243	28.06934
1069.598	-26.06403
1069.952	-29.06631
1070.307	-3.00749
1070.662	-5.01199
1071.016	-32.07286
1071.371	-14.03224
1071.725	-2.00483
1072.079	-30.0732
1072.434	-41.10125
1072.788	-2.00481
1073.142	75.18351
1073.496	-25.06012
1073.85	-1.00234
1074.203	1.00245
1074.557	10.02675
1074.911	41.09796
1075.265	44.10233
1075.618	21.05152
1075.971	37.08817
1076.325	-15.03853
1076.678	-38.08838
1077.031	-11.02518
1077.385	31.06851
1077.738	-17.03887
1078.091	-50.11592
1078.444	34.07914
1078.796	20.04931
1079.149	3.00752
1079.502	-14.03346
1079.855	9.02114
1080.207	19.04704
1080.56	-41.10755
1080.912	29.07082
1081.264	10.02424
1081.617	21.05142
1081.969	-13.03314
1082.321	26.06372
1082.673	-19.04393
1083.025	-1.00239
1083.377	-196.44265
1083.728	53.12348
1084.08	2.00503
1084.432	-8.01949
1084.783	9.02124
1085.135	18.04534
1085.486	-7.01619
1085.838	11.02726
1086.189	9.022
1086.54	32.07662
1086.891	23.0584
1087.242	48.11681
1087.593	63.15288
1087.944	27.06134
1088.295	26.05934
1088.646	11.02683
1088.996	3.00729
1089.347	5.01236
1089.698	-4.00954
1090.048	40.10398
1090.398	-3.00703
1090.749	10.02409
1091.099	-6.01523
1091.449	13.03257
1091.799	43.10771
1092.149	-55.13662
1092.499	17.04169
1092.849	6.01536
1093.199	36.09038
1093.548	-11.02671
1093.898	11.02769
1094.248	35.09009
1094.597	-46.11929
1094.947	5.01343
1095.296	5.01244
1095.645	17.04443
1095.994	0
1096.343	-9.02287
1096.692	3.00794
1097.041	-19.05197
1097.39	34.08545
1097.739	24.0626
1098.088	59.1577
1098.437	-37.09854
1098.785	-6.01631
1099.134	40.10629
1099.482	37.10188
1099.83	54.14168
1100.179	-2.00526
1100.527	13.03472
1100.875	-35.09377
1101.223	15.04003
1101.571	21.05824
1101.919	-2.00527
1102.267	12.03395
1102.615	-1.00322
1102.962	11.03541
1103.31	4.01285
1103.658	17.05472
