Data from N2 R9 sample 12_Subt2__0__18-39-33-813.txt Node

Date: Fri Aug 29 18:39:33 PDT 2025
User: uwsun
Spectrometer: HDX01956
Trigger mode: 0
Integration Time (sec): 5.000000E-1
Scans to average: 1
Nonlinearity correction enabled: true
Boxcar width: 0
Storing dark spectrum: false
XAxis mode: Wavelengths
Number of Pixels in Spectrum: 2068
>>>>>Begin Spectral Data<<<<<
194.03	237.6407
194.578	230.70639
195.127	243.73345
195.676	259.78256
196.225	274.69327
196.773	309.80492
197.321	399.99953
197.87	585.28849
198.418	546.19469
198.966	535.18118
199.513	478.01173
200.061	485.04425
200.609	541.22576
201.156	476.87058
201.704	482.03178
202.251	531.19332
202.798	478.06283
203.345	543.13327
203.892	553.16898
204.438	553.10615
204.985	510.00654
205.532	552.2246
206.078	588.19883
206.624	545.11731
207.17	581.11501
207.716	533.08134
208.262	554.89214
208.808	504.03894
209.354	533.0838
209.899	615.29798
210.445	522.0872
210.99	559.1161
211.535	560.09662
212.08	545.05737
212.625	577.20808
213.17	594.25716
213.715	517.94869
214.259	580.11925
214.804	636.29861
215.348	589.11136
215.892	611.20939
216.436	664.25347
216.98	581.06193
217.524	560.10128
218.068	521.11421
218.612	555.17988
219.155	579.13042
219.698	564.12219
220.242	549.16001
220.785	569.10929
221.328	484.03383
221.871	526.1402
222.414	520.10511
222.956	449.92699
223.499	460.88386
224.041	508.00728
224.583	532.96812
225.126	525.97114
225.668	503.0385
226.21	490.05346
226.751	402.75491
227.293	482.93998
227.835	474.99067
228.376	533.03946
228.918	494.07164
229.459	475.00997
230	506.02015
230.541	491.96276
231.082	469.97393
231.622	467.92089
232.163	474.98058
232.704	469.99607
233.244	450.96134
233.784	488.02528
234.324	446.82683
234.864	446.86398
235.404	491.99642
235.944	490.99053
236.484	536.13373
237.023	477.95784
237.563	459.90214
238.102	463.93445
238.641	493.06378
239.18	472.93315
239.719	494.0566
240.258	512.96721
240.797	508.02231
241.335	521.07814
241.874	504.79638
242.412	535.07552
242.95	518.03386
243.488	496.9535
244.026	490.94968
244.564	508.86686
245.102	500.93898
245.64	522.06115
246.177	474.89673
246.715	557.11674
247.252	537.02843
247.789	511.79512
248.326	506.01454
248.863	514.93393
249.4	531.00318
249.936	535.90142
250.473	480.94141
251.009	492.94171
251.546	516.94233
252.082	559.0031
252.618	517.95299
253.154	532.06136
253.69	554.02499
254.226	525.04276
254.761	528.98084
255.297	491.89235
255.832	487.96665
256.367	536.04607
256.903	507.9205
257.438	591.13751
257.972	562.02221
258.507	453.86852
259.042	527.9403
259.576	487.86127
260.111	545.03975
260.645	509.91051
261.179	543.03994
261.713	518.9479
262.247	546.03536
262.781	473.81689
263.315	520.05564
263.849	567.16721
264.382	530.00545
264.915	538.03159
265.449	510.02116
265.982	555.03274
266.515	582.15861
267.048	545.9318
267.58	588.03875
268.113	511.90043
268.646	541.0991
269.178	524.95356
269.71	568.00125
270.243	520.97799
270.775	572.19469
271.307	611.19471
271.838	582.13118
272.37	567.14049
272.902	597.09289
273.433	592.03278
273.965	531.06304
274.496	603.22194
275.027	586.18175
275.558	597.16894
276.089	533.06558
276.62	550.15629
277.15	613.22581
277.681	567.99133
278.211	577.15371
278.741	496.88702
279.272	545.00253
279.802	616.24178
280.332	572.08371
280.861	598.15681
281.391	546.99613
281.921	614.18782
282.45	632.26941
282.98	608.28627
283.509	554.99948
284.038	585.06063
284.567	635.17724
285.096	599.15903
285.625	574.03562
286.153	642.17929
286.682	609.09583
287.21	623.18484
287.739	581.09302
288.267	621.18619
288.795	630.33346
289.323	619.12983
289.851	677.22969
290.378	613.07429
290.906	566.08643
291.433	616.21788
291.961	638.1144
292.488	603.19185
293.015	599.10208
293.542	593.18904
294.069	636.21989
294.596	692.33005
295.122	679.24584
295.649	639.08186
296.175	657.23932
296.702	656.23713
297.228	694.3006
297.754	645.10564
298.28	704.19897
298.806	667.22746
299.332	637.06447
299.857	725.21525
300.383	742.43522
300.908	640.18446
301.433	674.24379
301.958	715.24299
302.483	684.29634
303.008	708.33146
303.533	746.48153
304.058	745.31032
304.582	671.1879
305.107	648.29921
305.631	816.34775
306.155	764.29304
306.679	697.20267
307.203	768.29139
307.727	801.37526
308.251	713.31623
308.775	677.18361
309.298	773.33203
309.822	779.44406
310.345	820.38508
310.868	808.37881
311.391	802.4296
311.914	772.40298
312.437	819.31951
312.96	813.34834
313.482	799.33819
314.005	812.45716
314.527	791.50279
315.049	856.53709
315.571	822.2361
316.093	873.50003
316.615	830.38609
317.137	854.24063
317.659	889.48615
318.18	886.46455
318.702	854.34157
319.223	874.1554
319.744	883.29922
320.265	824.35348
320.786	904.48287
321.307	936.54066
321.828	917.33549
322.348	900.37909
322.869	970.44314
323.389	722.71625
323.909	967.39484
324.43	991.53307
324.95	954.35423
325.47	1013.54532
325.989	1029.46733
326.509	1034.31755
327.029	1053.37388
327.548	1069.37332
328.067	1102.5422
328.587	1070.60239
329.106	1051.37032
329.625	1212.90268
330.144	1067.39511
330.662	1071.39191
331.181	1138.47129
331.7	1148.47227
332.218	1257.35958
332.736	1251.53006
333.255	1159.43236
333.773	1195.49089
334.291	1230.66294
334.808	1211.33888
335.326	1296.41404
335.844	1229.39687
336.361	1304.64964
336.879	1295.42448
337.396	1255.47319
337.913	1327.38963
338.43	1334.32956
338.947	1400.49069
339.464	1377.19984
339.981	1403.44033
340.497	1460.59299
341.014	1397.4939
341.53	1393.27311
342.046	1461.50865
342.562	1506.59101
343.078	1499.3938
343.594	1568.44918
344.11	1543.4146
344.626	1581.5715
345.141	1555.26441
345.657	1620.28429
346.172	1582.40469
346.687	1582.24781
347.202	1552.16455
347.717	1671.34849
348.232	1667.47713
348.747	1595.19651
349.261	1602.00115
349.776	1660.23681
350.29	1678.32193
350.805	1801.40657
351.319	1761.18571
351.833	1680.05073
352.347	1812.16702
352.861	1815.11673
353.374	1934.11026
353.888	1804.22431
354.401	1896.04467
354.915	1788.9184
355.428	1875.2286
355.941	1885.00446
356.454	1979.93883
356.967	1930.05983
357.48	1911.97025
357.993	1989.15038
358.505	1907.08968
359.018	2050.07307
359.53	2072.97424
360.042	2123.73896
360.554	2133.98888
361.066	2042.97956
361.578	1996.66876
362.09	2149.87739
362.602	2092.62344
363.113	2114.74704
363.625	2170.61559
364.136	2257.52385
364.647	2074.61261
365.158	2239.62933
365.669	2248.7058
366.18	2280.62809
366.691	2328.39826
367.201	2187.65217
367.712	2280.43026
368.222	2264.42975
368.733	2376.17808
369.243	2407.1807
369.753	2484.27595
370.263	2504.33068
370.773	2552.37852
371.282	2628.15042
371.792	2422.00484
372.301	2635.05343
372.811	2686.25746
373.32	2546.64592
373.829	2695.74843
374.338	2895.44426
374.847	2923.42275
375.356	3001.37646
375.865	3061.01505
376.373	3287.95576
376.882	3449.10183
377.39	3414.94581
377.898	3481.79842
378.407	3697.58508
378.915	3900.52359
379.423	4054.52326
379.93	4159.5416
380.438	4259.58591
380.946	4482.79311
381.453	4598.98953
381.96	4665.33335
382.468	4989.37983
382.975	5500.39038
383.482	5771.96588
383.989	5672.20592
384.495	5843.18541
385.002	6019.1295
385.509	6446.08926
386.015	7042.27181
386.521	7379.4959
387.028	7526.89311
387.534	7907.34758
388.04	8317.10303
388.546	8139.9315
389.051	8321.38826
389.557	9086.43234
390.063	10368.2751
390.568	10470.20259
391.073	10538.9839
391.578	11056.11179
392.084	11103.20414
392.589	10949.75626
393.093	11809.62234
393.598	13075.62822
394.103	14377.88281
394.607	16090.08642
395.112	17231.35764
395.616	18181.60518
396.12	19148.09508
396.624	20794.06525
397.128	22604.7811
397.632	25366.15975
398.136	27529.40443
398.639	28007.29539
399.143	29534.59607
399.646	28079.15251
400.15	25083.82847
400.653	20124.16724
401.156	13866.23708
401.659	5169.95759
402.162	1054.15589
402.664	0
403.167	0
403.67	0
404.172	0
404.674	0
405.176	0
405.678	0
406.18	0
406.682	0
407.184	0
407.686	0
408.187	0
408.688	0
409.19	0
409.691	0
410.192	0
410.693	0
411.194	435.30976
411.694	4082.94878
412.195	8864.71461
412.696	12089.80453
413.196	12760.96929
413.696	12863.67595
414.196	13703.56671
414.696	17261.84252
415.196	21764.24417
415.696	29583.19008
416.196	36460.31858
416.695	40057.39798
417.195	36318.01332
417.694	34298.16333
418.194	32616.37153
418.693	29944.11413
419.192	28538.06203
419.691	28155.17995
420.19	27771.21092
420.688	27402.98692
421.187	26869.62411
421.685	25553.53045
422.184	23373.70154
422.682	20126.78241
423.18	16606.10473
423.678	14368.31982
424.176	13262.83449
424.674	12309.50407
425.172	12050.28572
425.669	11524.38494
426.167	10729.79655
426.664	9579.82248
427.161	8932.5334
427.659	8202.19254
428.156	7629.85905
428.652	7217.16992
429.149	6920.40616
429.646	6529.5856
430.143	6363.32148
430.639	5917.63492
431.135	5503.1
431.632	5228.66917
432.128	4917.98862
432.624	4468.59871
433.12	4236.61903
433.616	4158.5769
434.111	3875.51914
434.607	3797.55097
435.103	3775.54026
435.598	3639.5784
436.093	3561.79624
436.588	3474.86133
437.083	3208.08219
437.578	3043.28733
438.073	2753.61993
438.568	2840.73699
439.062	2750.48091
439.557	2623.90064
440.051	2511.86601
440.546	2340.98973
441.04	2357.16992
441.534	2384.39418
442.028	2269.34915
442.522	2090.42088
443.015	2243.15969
443.509	2048.5804
444.002	2030.59228
444.496	2036.32776
444.989	1980.66489
445.482	2000.7157
445.975	1937.4588
446.468	1906.38677
446.961	1879.40925
447.454	1885.57139
447.947	1765.69007
448.439	1772.8271
448.931	1788.60059
449.424	1740.97611
449.916	1778.86939
450.408	1669.67527
450.9	1633.87249
451.392	1619.00456
451.884	1602.81218
452.375	1416.95422
452.867	1523.83057
453.358	1483.78667
453.849	1444.68165
454.341	1450.81437
454.832	1427.727
455.323	1320.98224
455.814	1488.91581
456.304	1419.92541
456.795	1354.90965
457.285	1408.91093
457.776	1350.97684
458.266	1282.00132
458.756	1302.07345
459.247	1227.00359
459.737	1168.99358
460.226	1164.89783
460.716	1111.01112
461.206	1113.04503
461.695	1089.14401
462.185	1120.04202
462.674	1152.02982
463.163	1060.92583
463.653	1146.87272
464.142	1032.06813
464.63	1001.10573
465.119	995.99111
465.608	1009.00463
466.096	1031.9529
466.585	1031.07187
467.073	937.08178
467.561	920.08225
468.05	968.06932
468.538	935.15406
469.026	922.10139
469.513	858.8573
470.001	956.04043
470.489	906.07977
470.976	869.03045
471.463	830.13444
471.951	782.10757
472.438	674.89504
472.925	690.90596
473.412	750.0728
473.899	707.93305
474.385	667.98628
474.872	702.94917
475.359	637.94702
475.845	645.76492
476.331	636.8298
476.817	629.96356
477.303	617.88888
477.789	565.87462
478.275	587.93864
478.761	590.92007
479.247	525.7656
479.732	534.88089
480.218	586.02282
480.703	546.91271
481.188	529.73629
481.673	486.74934
482.158	426.59983
482.643	529.94094
483.128	433.67839
483.612	409.67402
484.097	507.87331
484.581	473.77306
485.066	376.66196
485.55	336.52773
486.034	350.54144
486.518	350.59684
487.002	363.65029
487.486	357.64415
487.969	363.65531
488.453	329.63137
488.936	302.50858
489.42	348.57138
489.903	353.6794
490.386	327.38132
490.869	326.53585
491.352	304.58044
491.835	317.49398
492.318	256.44594
492.8	300.47007
493.283	261.52241
493.765	274.52849
494.247	294.54038
494.73	220.38383
495.212	241.4683
495.694	207.38458
496.175	176.33326
496.657	315.58758
497.139	220.30099
497.62	172.32808
498.102	177.35756
498.583	177.36479
499.064	173.31069
499.545	170.31623
500.026	152.27796
500.507	152.29035
500.988	201.41015
501.469	133.27645
501.949	179.36692
502.43	87.17236
502.91	139.23476
503.39	151.31722
503.87	129.25162
504.35	108.21552
504.83	173.31037
505.31	98.20002
505.79	121.24208
506.269	194.37544
506.749	90.17284
507.228	82.16257
507.707	73.13691
508.187	113.22953
508.666	68.14226
509.145	26.05215
509.623	76.15201
510.102	56.11674
510.581	137.28121
511.059	99.21101
511.538	85.18982
512.016	98.20011
512.494	98.20411
512.972	117.23766
513.45	2.004
513.928	74.15399
514.406	56.11513
514.884	121.26596
515.361	78.16065
515.839	53.10407
516.316	78.16159
516.793	74.16289
517.27	131.27266
517.747	30.06729
518.224	41.08279
518.701	59.11382
519.178	23.0497
519.654	50.10423
520.131	49.1058
520.607	37.08078
521.083	8.01606
521.56	19.03944
522.036	44.08446
522.512	72.15563
522.987	22.04566
523.463	11.02306
523.939	76.16301
524.414	139.27641
524.89	51.10615
525.365	27.05377
525.84	-18.03776
526.315	13.02766
526.79	82.1609
527.265	14.02824
527.74	16.03451
528.215	36.07481
528.689	15.02933
529.164	119.22351
529.638	42.09575
530.112	-7.01465
530.587	-7.01321
531.061	10.02136
531.534	57.12212
532.008	41.08689
532.482	73.14733
532.956	10.02263
533.429	27.05815
533.903	47.09202
534.376	55.10708
534.849	37.07608
535.322	31.06501
535.795	65.14041
536.268	51.10837
536.741	41.08758
537.213	71.14481
537.686	11.02386
538.158	-10.01996
538.631	91.19531
539.103	17.03381
539.575	125.22656
540.047	55.10692
540.519	137.28591
540.991	89.19258
541.463	121.25644
541.934	72.14528
542.406	63.13253
542.877	83.16467
543.348	116.2459
543.82	112.24167
544.291	125.25565
544.762	46.09653
545.233	111.24337
545.703	94.1813
546.174	226.4468
546.645	125.25762
547.115	172.356
547.585	154.30531
548.056	239.48303
548.526	281.54759
548.996	285.57256
549.466	328.66549
549.935	272.53245
550.405	306.5466
550.875	305.59351
551.344	339.66596
551.814	348.64995
552.283	412.71435
552.752	391.72539
553.221	476.79693
553.69	482.83045
554.159	500.9561
554.628	510.87168
555.096	467.9356
555.565	521.89313
556.033	550.00642
556.502	522.99673
556.97	599.01562
557.438	562.04398
557.906	619.14352
558.374	580.04167
558.842	580.09193
559.31	616.07135
559.777	592.12495
560.245	654.19897
560.712	710.26199
561.18	704.17964
561.647	784.30834
562.114	765.31049
562.581	820.53041
563.048	845.45102
563.514	847.55555
563.981	938.55849
564.448	1014.6069
564.914	994.66547
565.381	1112.75592
565.847	1104.81131
566.313	1118.81306
566.779	1219.84292
567.245	1281.9961
567.711	1282.05623
568.176	1253.85537
568.642	1310.20824
569.108	1381.22677
569.573	1442.17369
570.038	1530.91092
570.504	1495.0468
570.969	1573.47397
571.434	1572.03201
571.899	1683.37356
572.363	1634.19782
572.828	1765.30585
573.293	1869.35597
573.757	1852.35077
574.222	1880.24526
574.686	1817.2278
575.15	1842.45596
575.614	1890.35467
576.078	1918.44832
576.542	1888.33589
577.006	1961.32419
577.469	1988.72451
577.933	1966.28776
578.396	1950.53067
578.86	1849.44378
579.323	1868.48164
579.786	1799.11589
580.249	1785.27683
580.712	1691.48071
581.175	1689.50322
581.637	1648.26323
582.1	1674.12863
582.563	1636.04533
583.025	1510.30156
583.487	1530.79618
583.95	1477.92013
584.412	1480.88343
584.874	1420.23065
585.336	1323.06936
585.797	1386.88605
586.259	1311.0599
586.721	1263.98495
587.182	1299.03505
587.643	1219.87143
588.105	1180.92802
588.566	1164.6514
589.027	1101.86702
589.488	1092.74693
589.949	1097.89024
590.41	1027.36413
590.87	1059.72033
591.331	974.51325
591.791	969.62123
592.252	989.62237
592.712	899.6149
593.172	904.4977
593.632	951.51571
594.092	913.49477
594.552	969.49625
595.011	879.49428
595.471	905.4907
595.931	853.41722
596.39	869.56009
596.849	891.54247
597.308	907.4445
597.768	800.56751
598.227	860.56563
598.685	930.57912
599.144	913.58066
599.603	916.61147
600.062	864.32839
600.52	916.49177
600.978	899.58932
601.437	957.60108
601.895	927.42023
602.353	951.53472
602.811	966.54805
603.269	997.73565
603.727	1040.78934
604.184	986.59187
604.642	1069.87605
605.099	1029.70885
605.557	1102.90946
606.014	1043.56596
606.471	1165.02471
606.928	1128.63015
607.385	1187.97563
607.842	1283.93924
608.299	1387.09311
608.755	1344.13698
609.212	1404.96543
609.668	1389.93129
610.125	1516.31487
610.581	1481.26288
611.037	1437.11283
611.493	1409.1822
611.949	1321.12817
612.405	1440.75427
612.861	1436.20699
613.316	1402.19583
613.772	1446.13201
614.227	1396.16001
614.683	1459.96803
615.138	1421.16271
615.593	1423.14923
616.048	1489.17821
616.503	1468.3794
616.958	1426.3843
617.412	1404.19647
617.867	1358.96189
618.321	1396.84946
618.776	1370.99893
619.23	1410.19326
619.684	1385.07766
620.138	1365.14295
620.592	1307.199
621.046	1263.07071
621.5	1287.18387
621.954	1266.97885
622.407	1274.95816
622.861	1249.15089
623.314	1176.91611
623.768	1161.95013
624.221	1122.55345
624.674	1130.89425
625.127	1092.88808
625.58	1137.89723
626.033	1114.8025
626.485	994.8138
626.938	1093.9433
627.39	1020.79962
627.843	972.72896
628.295	928.6701
628.747	981.80129
629.199	926.63929
629.651	830.5048
630.103	852.55339
630.555	838.40638
631.006	889.6582
631.458	873.64599
631.909	844.56673
632.361	785.50006
632.812	796.49873
633.263	773.36039
633.714	762.33854
634.165	734.49087
634.616	655.32627
635.067	734.35879
635.518	720.44711
635.968	677.14078
636.419	692.26751
636.869	662.34811
637.319	672.32195
637.769	608.1717
638.219	642.32511
638.669	608.25821
639.119	619.31385
639.569	634.3238
640.019	647.29092
640.468	603.17068
640.918	641.34109
641.367	577.13398
641.816	581.13809
642.265	608.22731
642.714	542.1114
643.163	569.15293
643.612	512.09517
644.061	479.90774
644.51	531.07433
644.958	536.04359
645.406	537.14353
645.855	523.14887
646.303	546.13728
646.751	494.00824
647.199	536.0857
647.647	522.07322
648.095	494.01828
648.543	527.96413
648.99	472.02122
649.438	500.06161
649.885	547.21274
650.333	494.85977
650.78	513.11552
651.227	542.18093
651.674	454.94383
652.121	520.14011
652.568	503.10394
653.015	503.15522
653.461	499.07307
653.908	541.13059
654.354	504.09058
654.801	467.99916
655.247	475.95075
655.693	440.05669
656.139	461.01118
656.585	479.04809
657.031	400.86342
657.477	424.84336
657.922	457.96424
658.368	416.95357
658.813	439.94454
659.259	430.95398
659.704	411.88849
660.149	408.88333
660.594	376.83593
661.039	369.78815
661.484	461.01457
661.929	390.85337
662.373	368.87191
662.818	347.8128
663.262	376.8491
663.707	376.89567
664.151	348.80413
664.595	350.79717
665.039	353.83105
665.483	371.89003
665.927	429.94127
666.371	295.65138
666.814	304.69465
667.258	318.71522
667.701	382.77753
668.145	406.94891
668.588	359.83432
669.031	313.70152
669.474	351.80187
669.917	322.68196
670.36	316.74902
670.803	343.78832
671.245	265.54123
671.688	315.73613
672.13	278.60062
672.573	345.83522
673.015	303.69863
673.457	254.53725
673.899	354.81604
674.341	286.66535
674.783	276.63854
675.225	272.64624
675.666	251.58451
676.108	291.61025
676.549	285.65242
676.991	224.48375
677.432	212.41539
677.873	286.63956
678.314	255.59172
678.755	247.58448
679.196	204.45903
679.637	253.60168
680.078	260.59221
680.518	302.67979
680.959	274.63593
681.399	179.43747
681.839	226.538
682.28	243.58368
682.72	213.47859
683.16	242.5869
683.6	254.56543
684.039	195.40224
684.479	227.54442
684.919	173.39398
685.358	239.59189
685.798	223.57097
686.237	227.53799
686.676	237.53906
687.115	195.45197
687.554	224.52134
687.993	202.44129
688.432	191.43128
688.871	177.39771
689.309	230.53762
689.748	198.41036
690.186	213.50052
690.625	176.40834
691.063	189.44725
691.501	221.53567
691.939	200.49033
692.377	175.42211
692.815	166.39336
693.253	196.46516
693.69	170.37154
694.128	141.33985
694.565	214.50179
695.003	168.42177
695.44	146.34182
695.877	142.3305
696.314	181.38712
696.751	159.36166
697.188	160.36548
697.625	229.51707
698.061	156.3718
698.498	209.49801
698.934	184.43819
699.371	153.35814
699.807	169.39667
700.243	143.34271
700.679	144.32602
701.115	172.40237
701.551	170.39754
701.987	166.37184
702.422	155.36594
702.858	148.35111
703.294	159.35902
703.729	192.46373
704.164	149.35696
704.599	175.38724
705.035	106.23872
705.47	103.25117
705.904	143.33224
706.339	195.44892
706.774	161.37479
707.209	102.23656
707.643	132.31665
708.078	108.26361
708.512	111.27742
708.946	128.30694
709.38	118.28027
709.814	133.30448
710.248	126.30697
710.682	128.30425
711.116	73.17555
711.549	123.3166
711.983	121.28024
712.416	146.34436
712.85	146.36205
713.283	138.326
713.716	194.4809
714.149	177.41837
714.582	116.26177
715.015	138.34447
715.448	171.42675
715.881	191.41452
716.313	140.32739
716.746	72.17128
717.178	83.20104
717.61	166.41705
718.043	133.3306
718.475	137.33121
718.907	195.487
719.339	124.28142
719.77	111.26359
720.202	167.41813
720.634	124.30119
721.065	100.23825
721.497	162.39393
721.928	109.26788
722.359	89.21557
722.79	120.28721
723.221	157.39224
723.652	161.41195
724.083	83.1891
724.514	129.29663
724.945	132.30989
725.375	117.27172
725.806	147.36513
726.236	171.43354
726.666	168.39456
727.096	147.35886
727.526	126.31895
727.956	105.2398
728.386	173.4217
728.816	116.29301
729.246	100.24363
729.675	111.2732
730.105	135.33129
730.534	146.34035
730.964	161.40369
731.393	201.49214
731.822	172.43445
732.251	173.43409
732.68	187.43583
733.109	151.36959
733.537	130.31316
733.966	114.28301
734.395	116.2685
734.823	182.40684
735.251	115.27719
735.68	184.45528
736.108	196.48834
736.536	203.47163
736.964	135.31266
737.392	175.43293
737.82	174.41343
738.247	175.41492
738.675	188.44393
739.102	130.32344
739.53	110.27974
739.957	142.36277
740.384	226.54666
740.811	141.35546
741.238	165.3989
741.665	138.31891
742.092	214.50219
742.519	108.26724
742.945	158.37642
743.372	152.37349
743.798	173.43939
744.225	167.39335
744.651	232.56919
745.077	146.36166
745.503	147.35659
745.929	157.37383
746.355	203.49704
746.781	200.4876
747.207	120.28117
747.632	134.32499
748.058	146.36192
748.483	178.40545
748.908	161.39626
749.334	178.43186
749.759	161.37642
750.184	157.37081
750.609	165.4016
751.033	218.50597
751.458	163.36324
751.883	210.51102
752.307	148.34623
752.732	155.38332
753.156	164.40088
753.58	148.34962
754.005	180.45092
754.429	198.45792
754.853	176.43037
755.277	186.43427
755.7	211.51355
756.124	134.33072
756.548	190.44361
756.971	228.54463
757.394	150.38307
757.818	174.44185
758.241	212.52724
758.664	187.46499
759.087	158.34969
759.51	239.58039
759.933	129.30916
760.356	172.43538
760.778	202.48788
761.201	181.4346
761.623	197.4705
762.046	168.39486
762.468	246.57637
762.89	252.60564
763.312	195.46857
763.734	154.3676
764.156	172.4195
764.578	206.46581
765	163.39362
765.421	145.36488
765.843	183.4725
766.264	187.44542
766.686	174.43148
767.107	163.39079
767.528	141.35291
767.949	182.45593
768.37	162.39334
768.791	180.42965
769.212	112.28038
769.632	89.20809
770.053	127.33235
770.473	163.39213
770.894	153.37962
771.314	207.48548
771.734	123.28589
772.154	162.41109
772.575	139.32052
772.994	102.23206
773.414	139.33186
773.834	163.40266
774.254	132.32123
774.673	138.33394
775.093	131.32207
775.512	91.22439
775.931	150.37645
776.351	124.30626
776.77	122.29678
777.189	123.29141
777.607	90.22985
778.026	116.28777
778.445	79.19802
778.864	123.31373
779.282	116.27817
779.701	141.35227
780.119	84.21241
780.537	90.22457
780.955	130.32849
781.373	97.23971
781.791	86.19383
782.209	129.2958
782.627	101.26521
783.045	56.12993
783.462	81.20712
783.88	69.17891
784.297	66.16666
784.715	65.16737
785.132	47.11474
785.549	81.20281
785.966	93.23361
786.383	44.10912
786.8	83.1933
787.217	45.10764
787.633	59.14789
788.05	165.38683
788.466	79.18695
788.883	40.10273
789.299	78.18825
789.715	61.14903
790.131	109.26986
790.547	59.14805
790.963	88.21831
791.379	84.21226
791.795	46.10601
792.21	21.04977
792.626	25.06005
793.041	10.02502
793.457	70.17347
793.872	50.11844
794.287	37.08908
794.702	66.16319
795.117	35.08767
795.532	60.15086
795.947	75.18098
796.362	77.18433
796.776	77.18095
797.191	43.10603
797.605	-19.04548
798.02	24.05904
798.434	57.12787
798.848	32.0795
799.262	16.04014
799.676	58.1422
800.09	64.15796
800.504	41.10028
800.918	8.01882
801.331	68.17853
801.745	5.01167
802.158	47.11815
802.572	30.0735
802.985	24.05867
803.398	10.02418
803.811	72.1853
804.224	52.13008
804.637	28.06737
805.05	58.13516
805.462	56.13821
805.875	4.01049
806.288	2.00489
806.7	23.05836
807.112	25.05864
807.525	65.16081
807.937	-39.09843
808.349	28.07075
808.761	-4.00999
809.173	-6.01477
809.584	54.13406
809.996	7.01736
810.408	27.0702
810.819	17.04046
811.231	44.11418
811.642	50.11976
812.053	137.32194
812.464	185.43066
812.875	152.38298
813.286	55.14197
813.697	149.34385
814.108	35.08618
814.519	61.13656
814.929	71.18117
815.34	17.04169
815.75	-6.01545
816.16	38.09534
816.571	77.19979
816.981	22.05252
817.391	13.03176
817.801	2.00503
818.211	36.08649
818.62	44.10652
819.03	51.12553
819.44	52.13624
819.849	9.02293
820.259	46.11826
820.668	-19.04751
821.077	5.01256
821.486	3.00732
821.895	46.11424
822.304	22.05873
822.713	8.01915
823.122	21.05288
823.531	20.04791
823.939	30.07366
824.348	11.02705
824.756	41.10325
825.164	9.0229
825.573	18.04558
825.981	51.12696
826.389	44.11106
826.797	-22.05601
827.205	-10.02333
827.612	48.11895
828.02	-2.00476
828.428	-5.0129
828.835	26.06888
829.243	22.05294
829.65	-3.00755
830.057	1.00246
830.464	16.03937
830.871	48.11546
831.278	37.08999
831.685	5.01132
832.092	21.05188
832.499	2.00444
832.905	43.10933
833.312	42.0964
833.718	35.08773
834.124	4.00927
834.531	3.00765
834.937	11.0285
835.343	37.08982
835.749	18.04249
836.155	26.06852
836.561	1.00249
836.966	35.08611
837.372	35.08956
837.777	9.02265
838.183	12.02701
838.588	-16.04031
838.993	13.03197
839.399	-17.0422
839.804	-52.12947
840.209	22.0564
840.613	-7.01582
841.018	31.07896
841.423	18.04653
841.828	-8.02049
842.232	69.17083
842.637	5.01194
843.041	5.01294
843.445	24.06062
843.849	-21.05279
844.253	66.15688
844.657	0
845.061	4.00919
845.465	3.00733
845.869	26.0609
846.272	-6.0148
846.676	32.07787
847.079	-7.01801
847.483	48.12008
847.886	5.0123
848.289	42.11239
848.692	16.04085
849.095	33.07972
849.498	32.08155
849.901	37.08535
850.304	19.0458
850.707	6.01545
851.109	44.1117
851.512	40.09869
851.914	-17.04342
852.316	39.09902
852.718	-48.12619
853.121	0
853.523	-19.04512
853.925	30.07863
854.326	20.05036
854.728	-15.03907
855.13	2.00521
855.531	-44.10724
855.933	3.00728
856.334	-3.00756
856.736	-74.1704
857.137	-12.0283
857.538	-11.028
857.939	0
858.34	39.09542
858.741	24.0631
859.142	-1.00243
859.542	5.01331
859.943	-8.02012
860.343	-4.01002
860.744	36.08823
861.144	20.04914
861.544	-19.04633
861.945	-6.01546
862.345	29.07133
862.745	23.05753
863.145	54.12925
863.544	6.0153
863.944	26.06183
864.344	44.10959
864.743	37.09218
865.143	21.05428
865.542	-11.02587
865.941	19.04737
866.34	52.12474
866.74	32.08622
867.139	-11.02668
867.537	43.10984
867.936	21.0509
868.335	18.04612
868.734	3.00774
869.132	-25.05905
869.531	74.17847
869.929	-57.13296
870.327	9.02178
870.726	21.05271
871.124	42.09849
871.522	31.07932
871.92	23.05709
872.318	51.12483
872.715	43.10673
873.113	30.07347
873.511	-8.02016
873.908	-23.05887
874.306	32.07994
874.703	24.06041
875.1	38.09753
875.497	23.0555
875.894	-23.05717
876.291	10.02475
876.688	16.04155
877.085	61.14625
877.482	30.07546
877.878	22.0533
878.275	43.10949
878.671	40.08942
879.068	6.01462
879.464	-9.02202
879.86	2.00478
880.256	80.19658
880.652	21.05374
881.048	28.06974
881.444	7.01682
881.84	46.11711
882.236	21.05313
882.631	44.10824
883.027	31.07543
883.422	23.05914
883.817	-33.08423
884.213	34.08756
884.608	-16.03975
885.003	6.0146
885.398	18.04535
885.793	36.09068
886.188	5.01254
886.582	54.13854
886.977	36.08577
887.371	25.06357
887.766	-17.04283
888.16	12.03018
888.554	30.07453
888.949	17.04298
889.343	56.13679
889.737	-15.04042
890.131	32.0806
890.525	30.07705
890.918	45.11345
891.312	60.14344
891.706	29.07641
892.099	56.14246
892.492	27.05862
892.886	15.03697
893.279	23.05892
893.672	-12.03091
894.065	31.07796
894.458	9.02282
894.851	52.12749
895.244	-34.08817
895.637	24.05814
896.029	7.01727
896.422	6.01479
896.814	12.03006
897.206	-11.02652
897.599	50.12377
897.991	-1.00244
898.383	23.05468
898.775	14.03186
899.167	-5.0118
899.559	41.10403
899.951	-5.01192
900.342	30.07662
900.734	-27.06797
901.125	68.17798
901.517	33.08131
901.908	47.11286
902.299	-16.03962
902.69	-5.01193
903.082	32.07782
903.473	-43.10486
903.863	2.00515
904.254	-6.01409
904.645	25.06251
905.036	-17.0417
905.426	24.05529
905.817	40.0984
906.207	-25.06046
906.597	19.04474
906.987	37.09617
907.378	-15.0384
907.768	-3.00801
908.158	6.01476
908.547	-2.00522
908.937	77.19675
909.327	7.01715
909.717	55.1396
910.106	2.00485
910.495	36.09016
910.885	39.09902
911.274	13.03273
911.663	18.04597
912.052	40.09894
912.441	-9.02313
912.83	-40.09354
913.219	42.11012
913.608	18.04438
913.997	-2.00506
914.385	15.0361
914.774	27.06606
915.162	4.00962
915.55	6.01465
915.939	-15.03832
916.327	39.09758
916.715	-8.0206
917.103	68.1669
917.491	43.10658
917.878	36.08879
918.266	4.01046
918.654	39.09986
919.041	-36.09538
919.429	2.00477
919.816	10.02554
920.203	-9.02208
920.591	-7.01755
920.978	32.07866
921.365	20.05276
921.752	2.00481
922.139	18.03937
922.525	7.01696
922.912	35.08564
923.299	-8.0201
923.685	17.04461
924.072	15.03485
924.458	1.0025
924.844	0
925.231	39.09101
925.617	-6.01541
926.003	45.11515
926.389	5.01272
926.774	10.02553
927.16	20.04996
927.546	9.02314
927.931	32.08014
928.317	20.04637
928.702	66.15573
929.088	-24.0576
929.473	16.04096
929.858	-7.01711
930.243	-1.00242
930.628	5.01227
931.013	-1.0025
931.398	48.11049
931.783	26.06875
932.167	9.02218
932.552	-16.04057
932.937	45.11182
933.321	-1.00253
933.705	-8.02038
934.09	50.12639
934.474	18.04303
934.858	24.06254
935.242	5.01169
935.626	-9.02328
936.009	6.01608
936.393	-8.02057
936.777	-23.05966
937.16	-9.02366
937.544	29.06863
937.927	-2.00512
938.311	50.12209
938.694	30.07961
939.077	7.0169
939.46	29.07151
939.843	-20.0424
940.226	40.1028
940.609	-18.0419
940.991	-2.00514
941.374	-2.00494
941.757	16.03974
942.139	-19.04329
942.522	2.00477
942.904	-3.00729
943.286	34.08665
943.668	17.04429
944.05	40.09872
944.432	5.01244
944.814	22.05448
945.196	-71.17694
945.578	-30.07241
945.959	32.07527
946.341	50.12277
946.722	0
947.104	19.04569
947.485	18.04216
947.866	8.02031
948.247	10.02541
948.628	-10.02467
949.009	4.01033
949.39	40.09978
949.771	-26.0614
950.152	-2.00496
950.532	-35.08745
950.913	60.14448
951.293	-18.04916
951.674	26.06318
952.054	18.04487
952.434	22.0549
952.814	18.0431
953.194	47.12308
953.574	24.05941
953.954	-14.03366
954.334	7.01758
954.714	-15.037
955.093	41.10099
955.473	-16.04049
955.853	10.02607
956.232	29.07975
956.611	22.05306
956.99	-18.04579
957.37	14.03591
957.749	32.07662
958.128	27.06831
958.506	0
958.885	37.09361
959.264	-38.09465
959.643	27.06174
960.021	18.04487
960.4	-39.09
960.778	31.07664
961.156	-7.01773
961.535	31.07254
961.913	19.04474
962.291	-25.06498
962.669	-7.01791
963.047	-9.02321
963.424	10.0257
963.802	38.09365
964.18	60.15156
964.557	22.05096
964.935	36.08554
965.312	29.07579
965.69	12.03026
966.067	31.07577
966.444	36.08895
966.821	47.12123
967.198	25.06094
967.575	62.15212
967.952	11.02612
968.329	2.00491
968.705	22.04747
969.082	17.04385
969.458	-30.07306
969.835	-13.03202
970.211	-8.02074
970.587	47.11709
970.963	15.03872
971.339	9.02366
971.715	-2.00504
972.091	-1.00249
972.467	43.10739
972.843	-10.02509
973.219	52.12484
973.594	-9.02378
973.97	69.16367
974.345	-9.02178
974.721	25.06083
975.096	26.0632
975.471	-3.00719
975.846	2.00485
976.221	-20.05142
976.596	-13.03154
976.971	8.0199
977.346	2.0047
977.72	19.04867
978.095	21.05454
978.469	34.08141
978.844	35.08824
979.218	-29.07056
979.593	-2.00484
979.967	30.07336
980.341	31.07165
980.715	39.09846
981.089	43.10778
981.463	0
981.837	33.08089
982.21	24.05615
982.584	0
982.957	-8.02019
983.331	23.05466
983.704	-7.01738
984.078	-16.03991
984.451	51.12737
984.824	-44.10904
985.197	-6.01473
985.57	38.09551
985.943	9.0224
986.316	74.18103
986.688	40.09665
987.061	2.00473
987.434	17.04455
987.806	22.05364
988.179	3.00714
988.551	23.05863
988.923	8.01985
989.295	37.09268
989.667	-33.08008
990.039	-16.04001
990.411	34.07851
990.783	29.06706
991.155	-25.06092
991.527	27.06677
991.898	9.02259
992.27	-19.04759
992.641	26.06551
993.012	56.13162
993.384	4.00962
993.755	-11.02834
994.126	25.06042
994.497	-28.06972
994.868	20.04622
995.239	23.05602
995.61	-11.02798
995.98	-57.14122
996.351	5.01248
996.722	-24.05648
997.092	-32.07697
997.462	-36.08551
997.833	10.02389
998.203	6.01467
998.573	-15.03779
998.943	31.07296
999.313	-5.01211
999.683	-12.02914
1000.053	-20.04666
1000.423	25.06103
1000.792	8.02088
1001.162	2.00497
1001.531	24.05945
1001.901	16.04013
1002.27	59.13165
1002.639	14.03599
1003.009	-21.05062
1003.378	-3.00774
1003.747	46.10875
1004.116	-37.08999
1004.485	78.18541
1004.853	7.01787
1005.222	17.04312
1005.591	-1.0024
1005.959	-24.05489
1006.328	-8.01822
1006.696	-15.03662
1007.064	40.10079
1007.433	32.08023
1007.801	30.07391
1008.169	49.12375
1008.537	0
1008.905	23.05386
1009.273	21.05214
1009.64	-42.10194
1010.008	12.02881
1010.375	61.14781
1010.743	75.17232
1011.11	36.08541
1011.478	-6.015
1011.845	16.03787
1012.212	-10.02291
1012.579	9.02226
1012.946	12.02877
1013.313	38.09064
1013.68	3.00681
1014.047	0
1014.414	-13.03107
1014.78	9.02253
1015.147	15.03651
1015.513	-33.08074
1015.88	42.10753
1016.246	19.04716
1016.612	32.07351
1016.978	0
1017.344	11.02737
1017.71	33.08071
1018.076	46.10854
1018.442	43.11072
1018.808	-5.01262
1019.174	-3.0076
1019.539	29.06703
1019.905	-10.02385
1020.27	9.02237
1020.636	36.08653
1021.001	7.01689
1021.366	15.03625
1021.731	38.0979
1022.096	-61.15685
1022.461	-4.00956
1022.826	11.02633
1023.191	11.02904
1023.556	16.03774
1023.92	2.00496
1024.285	23.0564
1024.649	53.12977
1025.014	3.00749
1025.378	7.01773
1025.742	14.03498
1026.107	-19.04357
1026.471	38.0889
1026.835	18.04487
1027.199	2.00486
1027.562	11.02576
1027.926	28.06873
1028.29	24.06099
1028.654	0
1029.017	-4.00993
1029.381	-24.05812
1029.744	13.03336
1030.107	32.07595
1030.471	8.0193
1030.834	-13.02994
1031.197	46.11085
1031.56	2.00476
1031.923	0
1032.286	19.04488
1032.648	44.10531
1033.011	-44.10285
1033.374	8.01895
1033.736	4.01059
1034.099	40.09763
1034.461	2.00509
1034.823	0
1035.185	5.01268
1035.548	7.01717
1035.91	35.08404
1036.272	-22.05078
1036.634	37.0907
1036.995	11.02604
1037.357	1.00245
1037.719	11.02693
1038.08	20.04774
1038.442	5.01197
1038.803	35.08423
1039.165	21.05324
1039.526	-11.02687
1039.887	-40.09731
1040.248	-24.05991
1040.609	33.08176
1040.97	32.07843
1041.331	9.02294
1041.692	-38.09019
1042.053	39.08896
1042.413	28.0655
1042.774	19.04645
1043.134	52.1237
1043.495	10.02531
1043.855	-5.01225
1044.215	31.07717
1044.576	-14.03387
1044.936	15.03462
1045.296	19.04766
1045.656	29.0714
1046.016	0
1046.375	41.09957
1046.735	-28.06445
1047.095	-20.04743
1047.454	12.02563
1047.814	35.08433
1048.173	49.11703
1048.533	32.07354
1048.892	-32.07796
1049.251	30.07554
1049.61	-2.00497
1049.969	8.019
1050.328	43.09332
1050.687	24.05865
1051.046	-6.01475
1051.405	17.04252
1051.763	-23.05363
1052.122	7.01758
1052.48	25.06156
1052.839	-33.07885
1053.197	4.00949
1053.555	30.06864
1053.914	44.10768
1054.272	5.01218
1054.63	23.05648
1054.988	15.03585
1055.345	22.04763
1055.703	38.09161
1056.061	-8.02078
1056.419	21.0546
1056.776	40.09712
1057.134	-15.03515
1057.491	4.01009
1057.848	35.08732
1058.206	8.01896
1058.563	8.01778
1058.92	27.06248
1059.277	5.01243
1059.634	24.05672
1059.991	53.12683
1060.348	-14.03203
1060.704	-38.09203
1061.061	34.0792
1061.418	-13.03188
1061.774	7.01741
1062.131	-14.03739
1062.487	-6.01417
1062.843	50.12458
1063.199	46.11441
1063.555	-31.07293
1063.911	11.02796
1064.267	45.09391
1064.623	8.01957
1064.979	70.16511
1065.335	11.02647
1065.691	28.06735
1066.046	-13.02895
1066.402	-3.00688
1066.757	26.06586
1067.112	27.0665
1067.468	-27.06466
1067.823	-2.00485
1068.178	3.00732
1068.533	9.02197
1068.888	38.09095
1069.243	12.0298
1069.598	9.02202
1069.952	-41.09398
1070.307	4.00998
1070.662	-21.0505
1071.016	-50.11426
1071.371	-7.0161
1071.725	29.06961
1072.079	20.04834
1072.434	15.03666
1072.788	47.11191
1073.142	26.06419
1073.496	-11.02638
1073.85	-2.00468
1074.203	45.1092
1074.557	0
1074.911	28.06707
1075.265	38.08848
1075.618	69.16776
1075.971	1.0024
1076.325	26.06631
1076.678	0
1077.031	2.00457
1077.385	10.0222
1077.738	0
1078.091	-48.11124
1078.444	6.01404
1078.796	10.0247
1079.149	30.07483
1079.502	-5.01193
1079.855	-10.02358
1080.207	39.0962
1080.56	26.06743
1080.912	11.02695
1081.264	5.01213
1081.617	12.02943
1081.969	-6.01527
1082.321	-11.02714
1082.673	-90.21104
1083.025	-23.05529
1083.377	2.00433
1083.728	19.04456
1084.08	10.02512
1084.432	-39.09557
1084.783	60.1402
1085.135	8.02019
1085.486	-57.13311
1085.838	-26.06488
1086.189	-4.0098
1086.54	-12.02897
1086.891	-10.02554
1087.242	12.0294
1087.593	69.16726
1087.944	-6.01372
1088.295	26.05934
1088.646	26.06325
1088.996	-39.09546
1089.347	39.09581
1089.698	-47.11307
1090.048	13.03395
1090.398	13.03035
1090.749	44.10531
1091.099	31.07815
1091.449	19.04756
1091.799	0
1092.149	-48.11908
1092.499	-18.04443
1092.849	-12.03081
1093.199	7.01767
1093.548	-2.00485
1093.898	-23.05825
1094.248	25.06446
1094.597	-37.0958
1094.947	29.07756
1095.296	16.03972
1095.645	30.07823
1095.994	48.11524
1096.343	35.08824
1096.692	5.01322
1097.041	0
1097.39	-17.04312
1097.739	30.07817
1098.088	45.12056
1098.437	0
1098.785	46.12398
1099.134	20.05332
1099.482	19.05247
1099.83	50.13127
1100.179	1.00263
1100.527	58.15377
1100.875	-6.016
1101.223	11.02937
1101.571	42.11611
1101.919	20.05247
1102.267	25.07059
1102.615	0
1102.962	14.04506
1103.31	6.01928
1103.658	18.05793
