Data from N2 R9 sample 6_Subt2__5__18-48-14-306.txt Node

Date: Fri Aug 29 18:48:14 PDT 2025
User: uwsun
Spectrometer: HDX01956
Trigger mode: 0
Integration Time (sec): 5.000000E-1
Scans to average: 1
Nonlinearity correction enabled: true
Boxcar width: 0
Storing dark spectrum: false
XAxis mode: Wavelengths
Number of Pixels in Spectrum: 2068
>>>>>Begin Spectral Data<<<<<
194.03	203.55183
194.578	212.65265
195.127	210.63669
195.676	200.60913
196.225	240.61094
196.773	220.58184
197.321	369.9294
197.87	486.09227
198.418	468.04056
198.966	455.02101
199.513	447.95431
200.061	460.99758
200.609	486.11322
201.156	427.79061
201.704	451.97369
202.251	445.01732
202.798	485.07686
203.345	521.09257
203.892	438.95069
204.438	469.95786
204.985	448.89857
205.532	483.08662
206.078	528.09094
206.624	454.9514
207.17	488.95891
207.716	467.96329
208.262	503.82166
208.808	439.91977
209.354	456.94503
209.899	577.22778
210.445	491.02955
210.99	492.99913
211.535	512.01381
212.08	512.00103
212.625	503.07008
213.17	547.1694
213.715	496.91496
214.259	525.02626
214.804	538.12257
215.348	486.94148
215.892	507.02756
216.436	597.14522
216.98	561.03047
217.524	459.92553
218.068	523.11802
218.612	550.1705
219.155	433.87591
219.698	491.99505
220.242	533.13008
220.785	429.86543
221.328	462.99338
221.871	471.03272
222.414	471.01145
222.956	392.81967
223.499	427.82697
224.041	456.91673
224.583	482.88824
225.126	430.81427
225.668	404.85411
226.21	415.90826
226.751	370.70029
227.293	440.86663
227.835	414.87678
228.376	484.95643
228.918	481.04627
229.459	472.00423
230	469.95525
230.541	433.86066
231.082	399.84151
231.622	447.88559
232.163	472.97688
232.704	440.94039
233.244	445.95169
233.784	445.94552
234.324	372.70236
234.864	426.82918
235.404	488.99101
235.944	445.90884
236.484	460.99078
237.023	507.00928
237.563	442.8722
238.102	419.85419
238.641	435.95202
239.18	396.79684
239.719	483.03548
240.258	503.9523
240.797	441.90272
241.335	482.00597
241.874	494.78282
242.412	453.92938
242.95	434.88457
243.488	519.9922
244.026	432.84887
244.564	439.763
245.102	493.92743
245.64	455.94064
246.177	465.88163
246.715	479.97917
247.252	455.89006
247.789	473.74413
248.326	406.83427
248.863	492.89894
249.4	435.84247
249.936	451.77722
250.473	456.89941
251.009	455.87868
251.546	461.85358
252.082	455.83952
252.618	470.87655
253.154	462.93821
253.69	483.91085
254.226	461.93084
254.761	440.83524
255.297	443.81492
255.832	442.88654
256.367	463.92072
256.903	450.82884
257.438	530.03483
257.972	437.82126
258.507	451.86511
259.042	480.86681
259.576	462.82236
260.111	495.95731
260.645	484.87136
261.179	467.91224
261.713	501.92071
262.247	515.98551
262.781	436.76039
263.315	515.04666
263.849	523.08711
264.382	500.95703
264.915	474.92437
265.449	464.94055
265.982	487.9229
266.515	526.06055
267.048	505.87265
267.58	561.99944
268.113	468.83391
268.646	535.08837
269.178	463.85557
269.71	510.91395
270.243	561.04289
270.775	564.18004
271.307	554.09765
271.838	532.04612
272.37	497.01552
272.902	506.94885
273.433	485.87115
273.965	529.05952
274.496	542.11341
275.027	513.0516
275.558	550.0887
276.089	456.92941
276.62	509.07958
277.15	553.12097
277.681	569.99431
278.211	546.09944
278.741	511.91032
279.272	524.9705
279.802	542.1109
280.332	535.02261
280.861	569.10823
281.391	547.9977
281.921	470.94183
282.45	561.14499
282.98	539.15725
283.509	553.99793
284.038	564.02794
284.567	562.06057
285.096	543.06453
285.625	525.96047
286.153	540.01698
286.682	536.98382
287.21	508.99445
287.739	530.00936
288.267	515.00858
288.795	530.14596
289.323	517.96924
289.851	556.0405
290.378	566.00397
290.906	570.09307
291.433	565.13019
291.961	576.02227
292.488	597.18163
293.015	500.94407
293.542	588.18036
294.069	600.16069
294.596	621.21372
295.122	600.12246
295.649	575.99158
296.175	561.08278
296.702	654.23395
297.228	637.21034
297.754	618.0669
298.28	621.08093
298.806	598.11927
299.332	636.06308
299.857	661.12707
300.383	658.29801
300.908	520.99243
301.433	604.13386
301.958	627.11502
302.483	637.22093
303.008	643.22829
303.533	630.2846
304.058	634.14704
304.582	628.12403
305.107	585.18973
305.631	679.16344
306.155	663.15238
306.679	622.09439
307.203	710.21247
307.727	653.16497
308.251	697.29178
308.775	631.11635
309.298	644.14739
309.822	695.31498
310.345	763.30846
310.868	666.17933
311.391	705.28779
311.914	739.35411
312.437	732.20795
312.96	766.28662
313.482	717.22741
314.005	678.25806
314.527	740.42315
315.049	759.39643
315.571	738.13735
316.093	732.30455
316.615	742.26862
317.137	827.21126
317.659	823.40033
318.18	804.35872
318.702	792.26614
319.223	798.08126
319.744	767.16797
320.265	807.33173
320.786	807.35901
321.307	846.42681
321.828	853.26639
322.348	878.35397
322.869	886.35115
323.389	940.84954
323.909	854.27441
324.43	972.51189
324.95	852.24766
325.47	948.47354
325.989	922.35812
326.509	882.18165
327.029	930.26284
327.548	931.25142
328.067	959.40215
328.587	1050.58172
329.106	974.30227
329.625	1064.74058
330.144	978.31631
330.662	990.32119
331.181	1002.35417
331.7	1017.36153
332.218	1026.20813
332.736	1065.38685
333.255	1122.40425
333.773	1122.43467
334.291	1112.56025
334.808	1118.27916
335.326	1215.36618
335.844	1178.36388
336.361	1233.59705
336.879	1089.29111
337.396	1195.43278
337.913	1190.31279
338.43	1269.29792
338.947	1235.3985
339.464	1208.13248
339.981	1210.33725
340.497	1338.5268
341.014	1271.4247
341.53	1355.25855
342.046	1310.43292
342.562	1296.48032
343.078	1327.32409
343.594	1368.37219
344.11	1346.33842
344.626	1339.46125
345.141	1370.21078
345.657	1455.24413
346.172	1385.33618
346.687	1410.20385
347.202	1423.13619
347.717	1466.29708
348.232	1446.40556
348.747	1457.16782
349.261	1483.98962
349.776	1473.19988
350.29	1469.27308
350.805	1631.37705
351.319	1581.167
351.833	1522.03726
352.347	1588.14959
352.861	1573.1023
353.374	1673.11116
353.888	1603.20406
354.401	1633.04704
354.915	1626.9239
355.428	1699.21939
355.941	1733.01208
356.454	1769.96085
356.967	1779.06761
357.48	1674.98301
357.993	1806.15741
358.505	1741.09367
359.018	1804.0926
359.53	1793.00662
360.042	1873.79424
360.554	1790.03042
361.066	1893.99952
361.578	1834.70415
362.09	1904.9235
362.602	1899.67348
363.113	1871.79976
363.625	1937.68041
364.136	1967.61613
364.647	1866.66534
365.158	2056.68524
365.669	2060.75963
366.18	2045.70038
366.691	2015.51247
367.201	2058.69014
367.712	1951.54273
368.222	2043.50883
368.733	2090.30119
369.243	2062.32792
369.753	2292.36115
370.263	2286.42511
370.773	2296.48796
371.282	2302.30439
371.792	2270.07913
372.301	2368.18577
372.811	2469.36105
373.32	2425.71252
373.829	2456.87805
374.338	2681.56567
374.847	2628.58994
375.356	2689.55327
375.865	2781.16563
376.373	3043.08056
376.882	3172.24741
377.39	3075.11745
377.898	2983.03501
378.407	3222.73856
378.915	3516.58433
379.423	3541.59374
379.93	3748.5239
380.438	3630.53089
380.946	4109.62301
381.453	4190.73128
381.96	4162.90931
382.468	4551.7259
382.975	4865.16845
383.482	4986.02946
383.989	5147.986
384.495	5336.64625
385.002	5405.76577
385.509	5808.27991
386.015	6323.96289
386.521	6534.11222
387.028	6860.15189
387.534	7042.52772
388.04	7236.27126
388.546	7211.75523
389.051	7518.57538
389.557	8293.67068
390.063	9295.06586
390.568	9515.00262
391.073	9662.3442
391.578	10039.21656
392.084	10241.1008
392.589	10266.99518
393.093	10819.22483
393.598	11977.99456
394.103	13356.33932
394.607	14690.01339
395.112	15821.06292
395.616	16731.60171
396.12	17929.34655
396.624	19734.93999
397.128	21590.89357
397.632	24327.73226
398.136	26133.19794
398.639	26188.0657
399.143	28231.26492
399.646	27930.16522
400.15	25049.98397
400.653	20124.16724
401.156	13866.23708
401.659	5169.95759
402.162	1054.15589
402.664	0
403.167	0
403.67	0
404.172	0
404.674	0
405.176	0
405.678	0
406.18	0
406.682	0
407.184	0
407.686	0
408.187	0
408.688	0
409.19	0
409.691	0
410.192	0
410.693	0
411.194	435.30976
411.694	4082.94878
412.195	8864.71461
412.696	12089.80453
413.196	12760.96929
413.696	12863.67595
414.196	13703.56671
414.696	17261.84252
415.196	21764.24417
415.696	29583.19008
416.196	36460.31858
416.695	39373.69969
417.195	31860.64983
417.694	29857.21999
418.194	28598.46536
418.693	26299.21529
419.192	25033.13442
419.691	24764.57381
420.19	24029.42871
420.688	23941.52324
421.187	23240.55997
421.685	22013.31798
422.184	20499.90519
422.682	17697.76191
423.18	14773.1812
423.678	12965.97315
424.176	11971.21156
424.674	11254.76566
425.172	10908.99539
425.669	10260.68703
426.167	9792.13507
426.664	8752.82523
427.161	8066.36786
427.659	7346.57245
428.156	6783.87507
428.652	6269.07017
429.149	6046.00431
429.646	5858.25844
430.143	5575.21562
430.639	5329.39268
431.135	4860.23692
431.632	4597.9877
432.128	4326.63212
432.624	3997.51895
433.12	3719.53189
433.616	3730.52693
434.111	3383.59618
434.607	3333.67247
435.103	3557.58207
435.598	3373.65381
436.093	3231.94312
436.588	3053.0664
437.083	2887.25613
437.578	2789.43043
438.073	2409.80943
438.568	2462.94252
439.062	2390.68241
439.557	2333.05019
440.051	2196.02546
440.546	2044.12715
441.04	2081.28867
441.534	2012.53133
442.028	2165.39061
442.522	2008.44885
443.015	1879.30416
443.509	1861.62898
444.002	1915.6228
444.496	1897.37552
444.989	1794.70366
445.482	1714.76565
445.975	1704.51809
446.468	1688.44631
446.961	1655.46649
447.454	1689.61152
447.947	1530.71355
448.439	1570.83796
448.931	1479.64021
449.424	1549.97133
449.916	1444.86993
450.408	1339.68726
450.9	1424.86365
451.392	1431.98404
451.884	1448.80997
452.375	1236.91492
452.867	1357.81848
453.358	1368.77997
453.849	1285.67587
454.341	1235.78762
454.832	1176.70197
455.323	1217.95282
455.814	1220.86933
456.304	1267.89652
456.795	1188.87093
457.285	1222.87366
457.776	1221.94248
458.266	1155.95852
458.756	1154.01753
459.247	1049.93104
459.737	972.90205
460.226	1015.84106
460.716	969.9374
461.206	1053.01395
461.695	986.07763
462.185	936.94073
462.674	955.92927
463.163	981.88749
463.653	1004.81927
464.142	913.99039
464.63	889.02361
465.119	870.91121
465.608	819.88001
466.096	820.82798
466.585	924.00133
467.073	826.99322
467.561	847.02256
468.05	811.95009
468.538	819.05159
469.026	735.93768
469.513	764.79297
470.001	709.84605
470.489	699.8959
470.976	735.91443
471.463	664.95703
471.951	648.95726
472.438	550.7604
472.925	551.75711
473.412	692.00753
473.899	617.83863
474.385	580.88025
474.872	597.83484
475.359	570.86453
475.845	521.64571
476.331	564.75365
476.817	485.77451
477.303	507.75533
477.789	465.74086
478.275	437.7286
478.761	482.77522
479.247	480.70965
479.732	443.74918
480.218	474.85291
480.703	377.65937
481.188	473.67011
481.673	402.63511
482.158	360.5175
482.643	418.76486
483.128	356.5702
483.612	343.5756
484.097	383.68153
484.581	384.64319
485.066	349.61876
485.55	248.39944
486.034	319.49797
486.518	312.53748
487.002	247.4557
487.486	319.58118
487.969	257.47653
488.453	293.56717
488.936	262.44602
489.42	305.50677
489.903	227.45015
490.386	250.29986
490.869	264.44142
491.352	290.55559
491.835	296.46407
492.318	230.4034
492.8	230.36771
493.283	186.37876
493.765	192.37762
494.247	179.33853
494.73	161.28527
495.212	208.40736
495.694	134.25348
496.175	54.1053
496.657	210.40193
497.139	211.28952
497.62	154.29503
498.102	119.2436
498.583	175.36083
499.064	107.19542
499.545	142.26599
500.026	94.17442
500.507	62.12102
500.988	157.32357
501.469	107.2237
501.949	164.33731
502.43	44.08805
502.91	79.13561
503.39	106.2249
503.87	61.12091
504.35	54.10911
504.83	41.07606
505.31	58.11945
505.79	59.11974
506.269	71.14145
506.749	25.04876
507.228	25.05022
507.707	12.02284
508.187	86.17577
508.666	27.057
509.145	24.04816
509.623	-4.00815
510.102	26.05456
510.581	84.17448
511.059	-21.04593
511.538	107.23786
512.016	50.10321
512.494	56.11772
512.972	7.01458
513.45	-18.03614
513.928	33.0693
514.406	14.02905
514.884	17.03818
515.361	33.06865
515.839	36.07097
516.316	3.00632
516.793	9.02008
517.27	16.03415
517.747	-4.00903
518.224	-31.06363
518.701	-40.07901
519.178	-46.10088
519.654	8.01683
520.131	-1.00218
520.607	8.01757
521.083	-51.10378
521.56	-24.0503
522.036	-29.05665
522.512	34.07409
522.987	-64.13537
523.463	21.04392
523.939	44.09502
524.414	13.02661
524.89	-52.11071
525.365	-3.00602
525.84	-59.12488
526.315	-23.04932
526.79	-20.04019
527.265	0
527.74	1.00216
528.215	-5.01049
528.689	-80.15994
529.164	-25.04862
529.638	-18.04153
530.112	-50.10567
530.587	-80.15371
531.061	-81.17639
531.534	-2.00434
532.008	-4.00856
532.482	-20.04123
532.956	-54.1238
533.429	1.00217
533.903	-7.01388
534.376	-5.00987
534.849	-49.10271
535.322	-7.0148
535.795	-32.07056
536.268	-52.11298
536.741	-32.06943
537.213	9.01862
537.686	-75.16568
538.158	-86.17473
538.631	20.04358
539.103	-75.15234
539.575	-24.04516
540.047	-11.02172
540.519	-3.00646
540.991	1.0022
541.463	-3.00653
541.934	-65.13529
542.406	-14.02995
542.877	-13.02637
543.348	2.00435
543.82	-12.02658
544.291	37.07718
544.762	12.02537
545.233	-2.00449
545.703	-20.03963
546.174	33.0682
546.645	13.02747
547.115	87.1835
547.585	58.11757
548.056	27.05722
548.526	42.0865
548.996	52.11009
549.466	97.2072
549.935	45.09283
550.405	88.16606
550.875	109.22201
551.344	138.28396
551.814	51.10227
552.283	116.21696
552.752	132.26072
553.221	47.08797
553.69	135.25419
554.159	120.2506
554.628	92.17497
555.096	151.32464
555.565	176.32967
556.033	196.39131
556.502	77.16291
556.97	116.22277
557.438	111.22969
557.906	111.23144
558.374	125.25112
558.842	69.14643
559.31	85.16887
559.777	-3.00654
560.245	68.14327
560.712	88.18189
561.18	54.10676
561.647	128.25246
562.114	48.09819
562.581	145.31617
563.048	94.19412
563.514	67.14733
563.981	94.19281
564.448	128.25495
564.914	150.30977
565.381	148.29919
565.847	175.36196
566.313	158.326
566.779	164.32696
567.245	222.45351
567.711	150.31867
568.176	156.30899
568.642	228.49808
569.108	211.45363
569.573	242.49729
570.038	242.44099
570.504	205.40005
570.969	236.51556
571.434	232.43909
571.899	298.60683
572.363	287.55981
572.828	326.63574
573.293	352.68122
573.757	294.57742
574.222	347.64921
574.686	270.51652
575.15	312.63013
575.614	323.62734
576.078	345.68223
576.542	358.68587
577.006	337.64079
577.469	399.83154
577.933	315.59546
578.396	349.70243
578.86	403.79319
579.323	286.58293
579.786	328.59833
580.249	278.54161
580.712	312.65298
581.175	264.56231
581.637	329.64723
582.1	337.62925
582.563	314.57715
583.025	311.64412
583.487	269.46525
583.95	199.37267
584.412	307.55108
584.874	276.57815
585.336	261.53524
585.797	238.44692
586.259	282.57608
586.721	186.38411
587.182	329.66157
587.643	218.43442
588.105	225.46642
588.566	221.40793
589.027	179.37969
589.488	157.31862
589.949	280.58809
590.41	149.25673
590.87	238.47648
591.331	245.46245
591.791	158.3235
592.252	156.31579
592.712	182.38749
593.172	176.35073
593.632	225.43366
594.092	164.32514
594.552	199.37746
595.011	126.2581
595.471	179.35479
595.931	224.43724
596.39	221.46325
596.849	199.40828
597.308	248.47006
597.768	180.4047
598.227	241.50808
598.685	258.5182
599.144	210.43192
599.603	271.55776
600.062	247.44953
600.52	267.51461
600.978	230.47796
601.437	300.59282
601.895	285.52028
602.353	293.56147
602.811	272.52261
603.269	309.63625
603.727	294.60714
604.184	302.58249
604.642	325.68214
605.099	387.75703
605.557	380.78508
606.014	328.59924
606.471	377.79267
606.928	387.689
607.385	422.85073
607.842	460.86726
608.299	545.02918
608.755	505.99676
609.212	524.9405
609.668	506.90398
610.125	609.17898
610.581	593.14356
611.037	621.14035
611.493	535.03991
611.949	500.99361
612.405	498.81281
612.861	555.07374
613.316	497.98373
613.772	535.00779
614.227	522.01387
614.683	637.09072
615.138	531.02133
615.593	530.01377
616.048	574.07532
616.503	577.16864
616.958	563.1626
617.412	546.06613
617.867	555.00101
618.321	585.98574
618.776	541.99175
619.23	494.97482
619.684	637.1698
620.138	573.10492
620.592	553.12046
621.046	579.12935
621.5	505.03703
621.954	561.05532
622.407	492.93124
622.861	488.00995
623.314	530.01867
623.768	483.96184
624.221	448.75579
624.674	484.95509
625.127	503.00456
625.58	484.95284
626.033	501.95129
626.485	460.95332
626.938	492.00961
627.39	449.91077
627.843	452.91288
628.295	411.83826
628.747	432.9033
629.199	372.75407
629.651	359.72955
630.103	350.71986
630.555	400.75227
631.006	356.75231
631.458	395.83271
631.909	375.77805
632.361	361.76138
632.812	312.65789
633.263	291.57733
633.714	285.56384
634.165	296.66192
634.616	305.66783
635.067	304.62384
635.518	310.68264
635.968	312.57867
636.419	281.5687
636.869	268.59536
637.319	252.54538
637.769	251.5259
638.219	301.66963
638.669	217.48898
639.119	232.53463
639.569	195.44731
640.019	268.58248
640.468	238.50296
640.918	273.61842
641.367	271.57182
641.816	230.48862
642.265	276.60038
642.714	206.45516
643.163	226.49455
643.612	189.4332
644.061	224.45095
644.51	240.51875
644.958	182.38479
645.406	217.49498
645.855	256.59486
646.303	266.58944
646.751	236.51076
647.199	228.49513
647.647	219.48176
648.095	222.48641
648.543	261.50958
648.99	254.57621
649.438	241.5415
649.885	261.61402
650.333	254.47014
650.78	236.54428
651.227	229.53287
651.674	276.59655
652.121	241.56035
652.568	242.56123
653.015	278.66836
653.461	245.55658
653.908	247.55065
654.354	278.63167
654.801	232.5216
655.247	222.47039
655.693	244.60902
656.139	217.50136
656.585	227.52405
657.031	192.43291
657.477	214.4465
657.922	170.38127
658.368	231.54916
658.813	265.59151
659.259	185.43134
659.704	167.37986
660.149	207.4674
660.594	184.42538
661.039	177.39379
661.484	248.57127
661.929	236.5332
662.373	204.49865
662.818	157.38142
663.262	168.39548
663.707	198.48776
664.151	194.46201
664.595	152.36004
665.039	185.44977
665.483	169.421
665.927	150.34843
666.371	127.29028
666.814	186.43512
667.258	164.3805
667.701	207.43813
668.145	192.46757
668.588	211.5047
669.031	133.30913
669.474	183.43221
669.917	200.43488
670.36	139.34072
670.803	200.47282
671.245	177.36873
671.688	184.44105
672.13	130.28977
672.573	205.50937
673.015	147.34948
673.457	149.32241
673.899	163.39005
674.341	166.39533
674.783	102.24413
675.225	159.38599
675.666	109.26093
676.108	114.24841
676.549	132.31146
676.991	113.24984
677.432	106.2129
677.873	148.34039
678.314	128.30448
678.755	134.32402
679.196	96.22079
679.637	175.42243
680.078	145.33795
680.518	162.37511
680.959	112.26827
681.399	126.31098
681.839	144.3482
682.28	110.27089
682.72	115.26359
683.16	124.30739
683.6	166.37628
684.039	117.24558
684.479	88.21663
684.919	61.14206
685.358	106.2689
685.798	113.29491
686.237	133.32093
686.676	125.29076
687.115	138.32347
687.554	98.23375
687.993	82.18368
688.432	120.27489
688.871	71.163
689.309	120.28655
689.748	101.21387
690.186	138.32903
690.625	88.20772
691.063	132.31581
691.501	111.27461
691.939	114.28394
692.377	88.21575
692.815	96.23056
693.253	133.31948
693.69	87.19348
694.128	87.21184
694.565	83.1996
695.003	104.2641
695.44	49.1169
695.877	68.16058
696.314	120.26005
696.751	87.20077
697.188	61.14212
697.625	98.22719
698.061	36.08777
698.498	103.25042
698.934	84.20388
699.371	45.10756
699.807	76.18162
700.243	33.08074
700.679	85.19475
701.115	116.27435
701.551	89.21143
701.987	92.20922
702.422	70.16799
702.858	78.18754
703.294	62.14277
703.729	64.15831
704.164	38.09296
704.599	49.11128
705.035	39.08903
705.47	29.07169
705.904	41.09718
706.339	111.25983
706.774	58.13776
707.209	34.07992
707.643	57.13869
708.078	71.17449
708.512	2.0051
708.946	83.20074
709.38	33.07966
709.814	60.13938
710.248	77.18931
710.682	44.10628
711.116	26.06308
711.549	80.20746
711.983	44.10346
712.416	50.12013
712.85	82.20572
713.283	51.12251
713.716	99.24967
714.149	90.21631
714.582	46.10529
715.015	117.29316
715.448	59.15023
715.881	88.19518
716.313	28.06691
716.746	42.10049
717.178	27.06609
717.61	92.23421
718.043	73.18344
718.475	78.19067
718.907	97.24655
719.339	36.08316
719.77	28.06755
720.202	66.16826
720.634	69.16933
721.065	96.22889
721.497	54.13396
721.928	40.09956
722.359	-5.01232
722.79	51.12367
723.221	64.16259
723.652	101.26115
724.083	27.06221
724.514	36.08432
724.945	44.10507
725.375	28.06617
725.806	42.10632
726.236	150.38172
726.666	43.10345
727.096	79.1953
727.526	17.04387
727.956	51.11774
728.386	67.16655
728.816	67.17072
729.246	19.04699
729.675	58.14415
730.105	82.2032
730.534	58.13755
730.964	86.21855
731.393	77.19287
731.822	87.22308
732.251	60.15361
732.68	109.25794
733.109	87.21547
733.537	47.115
733.966	45.11312
734.395	52.12189
734.823	84.19157
735.251	9.02213
735.68	91.229
736.108	71.18091
736.536	53.12678
736.964	64.15031
737.392	69.17401
737.82	71.17204
738.247	61.14781
738.675	66.15953
739.102	43.10868
739.53	55.14123
739.957	43.11176
740.384	93.23059
740.811	69.17619
741.238	48.1186
741.665	18.04259
742.092	83.19975
742.519	39.09772
742.945	34.08293
743.372	62.15488
743.798	86.22179
744.225	12.02912
744.651	60.15188
745.077	62.15594
745.503	63.15523
745.929	29.07075
746.355	82.20528
746.781	56.14019
747.207	4.00958
747.632	8.01986
748.058	56.1411
748.483	55.12839
748.908	59.14794
749.334	63.15615
749.759	62.14777
750.184	20.04849
750.609	74.18318
751.033	87.20716
751.458	121.27199
751.883	68.16986
752.307	44.10503
752.732	48.12103
753.156	75.18636
753.58	29.07009
754.005	75.19144
754.429	34.08119
754.853	41.10277
755.277	29.06979
755.7	43.10794
756.124	55.13771
756.548	33.07942
756.971	78.19166
757.394	52.13508
757.818	77.19889
758.241	50.12801
758.664	26.06654
759.087	-1.00229
759.51	51.1282
759.933	11.02695
760.356	47.12161
760.778	49.12176
761.201	88.21503
761.623	80.19534
762.046	59.14162
762.468	103.24807
762.89	75.1863
763.312	40.09894
763.734	66.16019
764.156	48.11977
764.578	38.08886
765	38.09393
765.421	-10.02586
765.843	100.26191
766.264	83.20165
766.686	73.18436
767.107	-10.02476
767.528	20.05115
767.949	57.14601
768.37	30.07464
768.791	71.17301
769.212	-16.04098
769.632	42.0991
770.053	44.11677
770.473	43.1058
770.894	62.15639
771.314	54.13043
771.734	37.08746
772.154	60.15501
772.575	37.08705
772.994	36.083
773.414	72.1741
773.834	12.03046
774.254	38.0941
774.673	44.10836
775.093	53.13218
775.512	28.06984
775.931	32.08201
776.351	17.04281
776.77	-9.02243
777.189	12.02904
777.607	36.09281
778.026	33.0831
778.445	-31.07924
778.864	39.10095
779.282	8.01958
779.701	46.1169
780.119	-4.01027
780.537	14.03541
780.955	53.13576
781.373	8.02009
781.791	18.04113
782.209	82.1898
782.627	36.09557
783.045	-10.0235
783.462	4.01037
783.88	9.02358
784.297	3.00766
784.715	5.01301
785.132	20.04907
785.549	13.03295
785.966	26.0661
786.383	38.09434
786.8	-3.0071
787.217	4.00964
787.633	-7.01775
788.05	74.17657
788.466	85.20092
788.883	18.04641
789.299	32.0779
789.715	39.09567
790.131	34.08533
790.547	9.02279
790.963	22.05523
791.379	21.05366
791.795	77.17635
792.21	2.00476
792.626	34.08153
793.041	-11.02762
793.457	41.10214
793.872	-11.02636
794.287	8.01937
794.702	17.04241
795.117	14.0352
795.532	-16.04078
795.947	71.17146
796.362	73.17489
796.776	95.22246
797.191	1.00248
797.605	-49.11797
798.02	21.05169
798.434	12.02717
798.848	24.05971
799.262	-9.02268
799.676	58.1422
800.09	18.0448
800.504	39.09542
800.918	20.04694
801.331	41.10813
801.745	5.01167
802.158	21.05304
802.572	28.06862
802.985	23.05623
803.398	38.0914
803.811	77.198
804.224	37.09281
804.637	41.09841
805.05	31.07262
805.462	42.10393
805.875	-2.00525
806.288	-12.02943
806.7	36.09113
807.112	21.04929
807.525	11.02748
807.937	13.0325
808.349	25.06321
808.761	22.05468
809.173	25.06119
809.584	27.06736
809.996	-20.04983
810.408	-2.00523
810.819	7.01669
811.231	-7.01833
811.642	5.01208
812.053	123.28983
812.464	189.43962
812.875	150.37807
813.286	73.18784
813.697	97.22617
814.108	67.16399
814.519	56.1255
814.929	69.17612
815.34	32.07825
815.75	17.04361
816.16	64.15981
816.571	36.09407
816.981	-6.0144
817.391	40.09723
817.801	13.03263
818.211	2.00484
818.62	20.04864
819.03	38.09375
819.44	63.16476
819.849	14.03564
820.259	17.04393
820.668	9.02239
821.077	-25.06316
821.486	35.08494
821.895	78.19258
822.304	21.05607
822.713	18.04302
823.122	7.01767
823.531	34.08122
823.939	14.03448
824.348	36.08813
824.756	25.06314
825.164	33.08361
825.573	5.01269
825.981	63.15649
826.389	51.12857
826.797	-2.00507
827.205	-14.03269
827.612	22.05478
828.02	-24.0574
828.428	44.11253
828.835	8.02126
829.243	78.18569
829.65	21.05266
830.057	7.01719
830.464	7.01725
830.871	64.15347
831.278	45.10929
831.685	10.02261
832.092	50.12286
832.499	15.03322
832.905	23.05869
833.312	22.0507
833.718	46.11507
834.124	46.10567
834.531	36.09126
834.937	37.09544
835.343	72.17364
835.749	71.16587
836.155	17.04487
836.561	2.00498
836.966	43.10564
837.372	29.07428
837.777	21.05273
838.183	29.06506
838.588	6.01506
838.993	-12.02965
839.399	2.00495
839.804	4.00986
840.209	26.06661
840.613	-17.0385
841.018	46.11686
841.423	28.07226
841.828	-13.03332
842.232	50.12422
842.637	67.15806
843.041	-10.02595
843.445	29.07319
843.849	19.04742
844.253	37.08844
844.657	3.00763
845.061	28.06404
845.465	16.039
845.869	3.00706
846.272	-2.00493
846.676	41.09961
847.079	-7.01801
847.483	75.1867
847.886	36.08807
848.289	16.043
848.692	24.06119
849.095	46.11085
849.498	69.1747
849.901	4.00929
850.304	38.09126
850.707	36.0922
851.109	53.13433
851.512	9.02233
851.914	13.03303
852.316	1.00256
852.718	3.00782
853.121	17.042
853.523	-14.03321
853.925	14.03679
854.326	-28.07111
854.728	12.03111
855.13	3.00781
855.531	-4.00968
855.933	29.07006
856.334	-4.01009
856.736	-32.07307
857.137	4.00941
857.538	-8.02035
857.939	0
858.34	76.18467
858.741	23.06048
859.142	21.05083
859.542	61.16083
859.943	10.02507
860.343	-10.02507
860.744	-2.00494
861.144	3.00739
861.544	-29.07085
861.945	9.02313
862.345	20.04927
862.745	14.03507
863.145	-7.01695
863.544	17.04327
863.944	31.07364
864.344	23.05751
864.743	50.12427
865.143	7.01814
865.542	17.03976
865.941	39.09687
866.34	14.03383
866.74	38.10229
867.139	-18.04372
867.537	3.00772
867.936	7.01701
868.335	23.05887
868.734	23.05912
869.132	4.00939
869.531	18.04387
869.929	-13.03006
870.327	37.08905
870.726	53.13227
871.124	72.16784
871.522	23.05894
871.92	50.1235
872.318	-5.01237
872.715	50.12395
873.113	16.03929
873.511	49.12225
873.908	-31.07946
874.306	25.06253
874.703	1.00253
875.1	0
875.497	11.0266
875.894	-13.03226
876.291	36.08869
876.688	23.05966
877.085	31.07475
877.482	24.06043
877.878	-1.00243
878.275	7.01794
878.671	49.10933
879.068	50.12086
879.464	32.0777
879.86	17.04051
880.256	16.03978
880.652	11.0282
881.048	47.11666
881.444	13.0312
881.84	16.04095
882.236	24.06069
882.631	-7.01738
883.027	20.04876
883.422	10.02577
883.817	-21.05349
884.213	21.05421
884.608	-18.04474
885.003	29.07027
885.398	-37.09414
885.793	19.048
886.188	-17.04281
886.582	54.13854
886.977	36.08577
887.371	14.03567
887.766	-51.12926
888.16	50.1249
888.554	66.16289
888.949	24.0606
889.343	18.04428
889.737	-15.04042
890.131	20.05048
890.525	28.07194
890.918	-32.08178
891.312	14.03376
891.706	32.08427
892.099	44.11217
892.492	-1.00218
892.886	2.00494
893.279	29.07421
893.672	28.07161
894.065	14.03531
894.458	11.02788
894.851	65.15898
895.244	4.01031
895.637	10.02429
896.029	8.01973
896.422	9.02218
896.814	40.0997
897.206	-36.08722
897.599	43.10658
897.991	-45.11084
898.383	-14.03352
898.775	-6.01371
899.167	-55.13101
899.559	41.10403
899.951	10.02378
900.342	34.08677
900.734	-57.14426
901.125	14.03698
901.517	-16.03978
901.908	46.11048
902.299	12.02956
902.69	12.02855
903.082	19.04632
903.473	-9.02181
903.863	26.06666
904.254	-6.01409
904.645	40.09974
905.036	-24.05895
905.426	57.13044
905.817	48.1179
906.207	-28.06776
906.597	-1.00236
906.987	72.18601
907.378	63.15905
907.768	20.05317
908.158	25.06128
908.547	12.03122
908.937	37.09521
909.327	45.10945
909.717	95.23941
910.106	6.01454
910.495	19.04773
910.885	59.14927
911.274	17.04277
911.663	25.06377
912.052	7.01742
912.441	26.06642
912.83	5.01159
913.219	51.13351
913.608	18.04438
913.997	13.03282
914.385	42.10056
914.774	36.08794
915.162	15.036
915.55	35.08497
915.939	-14.03575
916.327	33.08266
916.715	26.06656
917.103	30.07415
917.491	43.10658
917.878	59.1449
918.266	18.04695
918.654	-9.02324
919.041	-17.0449
919.429	19.04514
919.816	45.11422
920.203	23.05609
920.591	33.08212
920.978	7.01729
921.365	16.04223
921.752	27.06468
922.139	30.06546
922.525	7.01696
922.912	24.05884
923.299	14.03504
923.685	16.04199
924.072	8.01861
924.458	34.0845
924.844	14.03488
925.231	57.13254
925.617	-28.07221
926.003	25.0642
926.389	12.03048
926.774	21.05351
927.16	-4.01004
927.546	-11.02838
927.931	46.11491
928.317	11.02555
928.702	-1.00239
929.088	-23.05519
929.473	7.01795
929.858	-9.022
930.243	-41.10013
930.628	-30.0741
931.013	-14.03511
931.398	74.16945
931.783	26.06875
932.167	-4.00988
932.552	22.05541
932.937	25.06235
933.321	-5.01267
933.705	-42.10764
934.09	44.11134
934.474	18.04303
934.858	2.00523
935.242	-26.06118
935.626	5.0129
936.009	-9.02417
936.393	46.11715
936.777	14.03608
937.16	24.06273
937.544	11.02612
937.927	-1.00256
938.311	59.14382
938.694	38.10071
939.077	2.00483
939.46	10.02474
939.843	20.04203
940.226	33.08492
940.609	-14.03256
940.991	3.0077
941.374	-5.01235
941.757	59.14538
942.139	-2.00454
942.522	36.08534
942.904	-37.09043
943.286	63.15973
943.668	28.07281
944.05	-8.01992
944.432	1.00249
944.814	4.00994
945.196	-31.07669
945.578	-23.05544
945.959	-6.01422
946.341	18.04446
946.722	44.10342
947.104	21.05048
947.485	-10.02355
947.866	5.0127
948.247	-11.02806
948.628	3.00738
949.009	24.06175
949.39	51.12696
949.771	6.01408
950.152	22.05428
950.532	-63.1582
950.913	14.03401
951.293	-10.02728
951.674	3.00732
952.054	13.03243
952.434	4.01001
952.814	26.06216
953.194	44.11528
953.574	39.09627
953.954	38.09047
954.334	12.03012
954.714	-29.07172
955.093	29.07159
955.473	-3.00757
955.853	-15.03927
956.232	38.10435
956.611	60.14366
956.99	31.07818
957.37	9.0231
957.749	8.01924
958.128	-7.01782
958.506	-21.05514
958.885	-16.04086
959.264	-12.02975
959.643	-36.08336
960.021	18.04487
960.4	-21.04829
960.778	64.15726
961.156	3.00758
961.535	-1.00235
961.913	37.08681
962.291	1.00259
962.669	-13.0333
963.047	30.07683
963.424	26.06663
963.802	-7.01739
964.18	50.12652
964.557	30.06938
964.935	37.0879
965.312	-25.06594
965.69	61.15246
966.067	3.00737
966.444	30.07421
966.821	17.04408
967.198	47.1141
967.575	35.0863
967.952	43.10148
968.329	30.07328
968.705	6.01299
969.082	-2.00518
969.458	3.00726
969.835	-1.00246
970.211	1.00259
970.587	14.03509
970.963	39.10025
971.339	-2.00527
971.715	39.09758
972.091	6.0149
972.467	43.10739
972.843	15.03746
973.219	55.13197
973.594	-9.02378
973.97	5.01201
974.345	-11.02663
974.721	25.06083
975.096	14.03411
975.471	24.05722
975.846	17.0411
976.221	3.00768
976.596	26.06261
976.971	25.06201
977.346	27.06315
977.72	14.03589
978.095	19.04937
978.469	21.05041
978.844	23.05811
979.218	-9.02182
979.593	39.09365
979.967	6.01474
980.341	14.03247
980.715	41.10347
981.089	53.13261
981.463	-38.08879
981.837	-6.01481
982.21	37.08634
982.584	-25.06124
982.957	-6.01513
983.331	22.05229
983.704	8.01981
984.078	-18.04492
984.451	48.11995
984.824	-52.12905
985.197	42.10217
985.57	5.01264
985.943	37.09161
986.316	73.17861
986.688	-9.02195
987.061	31.07293
987.434	-8.02105
987.806	31.07546
988.179	-14.03344
988.551	43.10922
988.923	3.00745
989.295	50.12495
989.667	-51.12418
990.039	-10.02498
990.411	-32.07486
990.783	19.04402
991.155	-32.07808
991.527	61.14992
991.898	-13.03276
992.27	2.00499
992.641	22.05547
993.012	42.09899
993.384	37.08847
993.755	-8.0206
994.126	-9.02189
994.497	29.07146
994.868	39.08979
995.239	-4.00979
995.61	-6.01525
995.98	-7.01718
996.351	-32.08043
996.722	-30.07068
997.092	8.0191
997.462	-16.03786
997.833	24.05718
998.203	32.07785
998.573	-21.05296
998.943	8.01891
999.313	-13.03152
999.683	-28.06819
1000.053	-6.01396
1000.423	54.13112
1000.792	-12.03143
1001.162	14.03468
1001.531	1.00249
1001.901	20.05012
1002.27	10.02254
1002.639	23.05904
1003.009	10.02396
1003.378	4.01031
1003.747	6.01429
1004.116	19.04573
1004.485	-4.00966
1004.853	31.07879
1005.222	14.03553
1005.591	7.01676
1005.959	-45.10335
1006.328	-9.0205
1006.696	-6.01462
1007.064	26.06568
1007.433	26.06525
1007.801	37.09103
1008.169	43.10871
1008.537	3.00671
1008.905	-2.00471
1009.273	24.05956
1009.64	-9.02171
1010.008	40.09552
1010.375	71.17172
1010.743	88.20167
1011.11	-27.06483
1011.478	12.0299
1011.845	39.0919
1012.212	-7.01603
1012.579	22.05428
1012.946	16.03832
1013.313	37.08827
1013.68	22.04973
1014.047	-16.0386
1014.414	-10.02389
1014.78	-25.06296
1015.147	21.05106
1015.513	9.02185
1015.88	55.14049
1016.246	16.03974
1016.612	15.03458
1016.978	28.06888
1017.344	8.01992
1017.71	71.17243
1018.076	22.05215
1018.442	64.1642
1018.808	43.10759
1019.174	-23.05844
1019.539	77.17628
1019.905	3.00714
1020.27	0
1020.636	19.04581
1021.001	34.08163
1021.366	-19.04621
1021.731	46.11835
1022.096	-9.02293
1022.461	27.06417
1022.826	1.0024
1023.191	18.04747
1023.556	8.0189
1023.92	35.08627
1024.285	21.05152
1024.649	24.05908
1025.014	49.12136
1025.378	10.02531
1025.742	37.09207
1026.107	-2.00457
1026.471	30.07029
1026.835	8.01998
1027.199	-14.0341
1027.562	12.0281
1027.926	41.10039
1028.29	1.00255
1028.654	34.07845
1029.017	38.09358
1029.381	-8.01932
1029.744	-2.00515
1030.107	26.06178
1030.471	23.05533
1030.834	2.00459
1031.197	30.07252
1031.56	-14.03343
1031.923	16.04159
1032.286	19.04488
1032.648	22.05288
1033.011	14.03235
1033.374	29.06842
1033.736	3.00795
1034.099	15.03678
1034.461	23.05836
1034.823	7.01756
1035.185	47.11832
1035.548	-11.02706
1035.91	30.07211
1036.272	5.01148
1036.634	23.05653
1036.995	0
1037.357	-9.02213
1037.719	15.0367
1038.08	30.07147
1038.442	-24.05775
1038.803	-4.0097
1039.165	12.03047
1039.526	22.05342
1039.887	8.01929
1040.248	-8.01991
1040.609	52.12839
1040.97	16.03933
1041.331	45.11397
1041.692	-21.04968
1042.053	40.09122
1042.413	24.05619
1042.774	51.12395
1043.134	78.18462
1043.495	7.01772
1043.855	21.05119
1044.215	41.10188
1044.576	4.00964
1044.936	13.03001
1045.296	63.15677
1045.656	-21.05218
1046.016	2.00487
1046.375	-26.06393
1046.735	-24.0552
1047.095	46.1077
1047.454	30.06382
1047.814	10.02421
1048.173	52.12413
1048.533	9.02078
1048.892	-48.11729
1049.251	12.03031
1049.61	24.05934
1049.969	18.04267
1050.328	39.08471
1050.687	18.04403
1051.046	42.10236
1051.405	21.05249
1051.763	-24.05597
1052.122	-8.02015
1052.48	-8.01982
1052.839	-13.03094
1053.197	-23.05487
1053.555	23.0527
1053.914	40.09796
1054.272	43.10404
1054.63	1.00247
1054.988	-12.02883
1055.345	9.01954
1055.703	35.08443
1056.061	20.05169
1056.419	65.16772
1056.776	38.0923
1057.134	-11.02576
1057.491	5.01261
1057.848	20.05003
1058.206	32.07548
1058.563	-22.0492
1058.92	32.07398
1059.277	24.05945
1059.634	61.14313
1059.991	54.1292
1060.348	-9.02057
1060.704	-19.04585
1061.061	29.06762
1061.418	7.0171
1061.774	-17.04246
1062.131	-20.05347
1062.487	0
1062.843	41.10233
1063.199	38.09465
1063.555	-1.00234
1063.911	48.1212
1064.267	3.00632
1064.623	-3.00735
1064.979	39.09254
1065.335	47.11234
1065.691	28.06735
1066.046	23.05083
1066.402	11.02517
1066.757	-5.01274
1067.112	12.02964
1067.468	-31.0743
1067.823	14.03387
1068.178	49.11846
1068.533	30.07295
1068.888	27.06476
1069.243	-10.02493
1069.598	14.03422
1069.952	-75.17308
1070.307	8.01994
1070.662	-18.04326
1071.016	-24.05456
1071.371	20.04574
1071.725	32.07677
1072.079	17.04112
1072.434	37.09006
1072.788	17.04071
1073.142	40.09851
1073.496	-29.06979
1073.85	16.03733
1074.203	15.03661
1074.557	31.08264
1074.911	17.04081
1075.265	37.08617
1075.618	4.00984
1075.971	-14.03369
1076.325	8.02047
1076.678	-13.03008
1077.031	12.02735
1077.385	33.0729
1077.738	-9.02055
1078.091	-44.10189
1078.444	10.02339
1078.796	-33.08215
1079.149	38.09465
1079.502	-8.0191
1079.855	-9.02122
1080.207	38.09375
1080.56	-29.07592
1080.912	37.09023
1081.264	-12.02921
1081.617	-10.02463
1081.969	-4.01018
1082.321	15.03684
1082.673	-64.14931
1083.025	-5.01198
1083.377	33.07104
1083.728	55.12809
1084.08	25.06264
1084.432	19.04606
1084.783	28.06584
1085.135	-4.01011
1085.486	-39.09076
1085.838	-10.02488
1086.189	2.00489
1086.54	0
1086.891	4.01019
1087.242	-52.12891
1087.593	64.15528
1087.944	-15.03437
1088.295	4.00917
1088.646	4.00977
1088.996	-29.07085
1089.347	18.04439
1089.698	-35.08401
1090.048	-4.01048
1090.398	15.035
1090.749	66.1573
1091.099	-11.02794
1091.449	-13.03273
1091.799	32.08031
1092.149	-18.04441
1092.499	22.0539
1092.849	-8.02052
1093.199	24.06039
1093.548	-39.09521
1093.898	1.00252
1094.248	13.03359
1094.597	-39.10102
1094.947	-15.04041
1095.296	14.03477
1095.645	38.09895
1095.994	-1.00242
1096.343	16.04047
1096.692	8.02115
1097.041	3.00818
1097.39	15.03783
1097.739	2.00524
1098.088	56.14975
1098.437	-35.09318
1098.785	50.13468
1099.134	22.05864
1099.482	27.07446
1099.83	14.03698
1100.179	12.03147
1100.527	9.02406
1100.875	-9.02401
1101.223	21.05598
1101.571	21.05824
1101.919	-26.06875
1102.267	1.00283
1102.615	-4.01287
1102.962	7.02255
1103.31	0
1103.658	13.04186
