Data from N2 R9 sample 7_Subt2__4__18-46-28-807.txt Node

Date: Fri Aug 29 18:46:28 PDT 2025
User: uwsun
Spectrometer: HDX01956
Trigger mode: 0
Integration Time (sec): 5.000000E-1
Scans to average: 1
Nonlinearity correction enabled: true
Boxcar width: 0
Storing dark spectrum: false
XAxis mode: Wavelengths
Number of Pixels in Spectrum: 2068
>>>>>Begin Spectral Data<<<<<
194.03	219.59378
194.578	237.72722
195.127	217.65729
195.676	224.68003
196.225	214.54726
196.773	254.66791
197.321	349.88219
197.87	544.20833
198.418	492.08859
198.966	500.11183
199.513	463.98504
200.061	455.98779
200.609	519.18108
201.156	431.79722
201.704	459.98926
202.251	441.00896
202.798	513.13253
203.345	486.0269
203.892	463.9996
204.438	490.99598
204.985	426.85879
205.532	479.07849
206.078	479.00036
206.624	516.06467
207.17	530.02944
207.716	493.00916
208.262	505.82447
208.808	442.92544
209.354	450.93385
209.899	585.24267
210.445	497.04078
210.99	455.93179
211.535	542.06582
212.08	534.0387
212.625	597.2445
213.17	583.2368
213.715	477.88409
214.259	501.98655
214.804	509.06877
215.348	559.06238
215.892	545.09515
216.436	545.05838
216.98	552.0162
217.524	517.02684
218.068	546.16147
218.612	507.0889
219.155	534.05351
219.698	463.94432
220.242	457.98664
220.785	485.96582
221.328	461.99144
221.871	440.97291
222.414	456.98428
222.956	355.74839
223.499	405.78849
224.041	523.03346
224.583	517.9444
225.126	440.83117
225.668	441.92477
226.21	459.9952
226.751	440.81855
227.293	391.77899
227.835	412.87293
228.376	465.92298
228.918	492.06774
229.459	439.94251
230	473.96252
230.541	445.88204
231.082	459.95529
231.622	460.90858
232.163	447.93032
232.704	427.91518
233.244	442.94589
233.784	512.07012
234.324	371.70064
234.864	423.82393
235.404	443.90886
235.944	477.96712
236.484	511.08666
237.023	461.92913
237.563	420.83307
238.102	466.93986
238.641	474.02686
239.18	395.79502
239.719	506.07951
240.258	449.86127
240.797	445.91008
241.335	504.04685
241.874	418.67681
242.412	480.97876
242.95	444.90289
243.488	475.91775
244.026	443.86822
244.564	470.8102
245.102	508.95213
245.64	501.02325
246.177	488.92005
246.715	493.00278
247.252	470.91614
247.789	515.80042
248.326	417.85475
248.863	449.82928
249.4	482.92302
249.936	474.81186
250.473	444.87821
251.009	441.8545
251.546	458.84866
252.082	535.96741
252.618	510.94174
253.154	466.94547
253.69	478.90252
254.226	460.92903
254.761	450.85215
255.297	436.80345
255.832	493.97719
256.367	492.97178
256.903	477.87263
257.438	492.97087
257.972	448.83965
258.507	427.82381
259.042	446.8124
259.576	454.80979
260.111	520.99965
260.645	464.83962
261.179	485.94336
261.713	502.92232
262.247	470.90917
262.781	482.83045
263.315	474.97399
263.849	510.06311
264.382	571.07258
264.915	506.97929
265.449	458.92966
265.982	529.99223
266.515	506.02483
267.048	530.90979
267.58	524.94243
268.113	487.86351
268.646	496.01783
269.178	490.89936
269.71	531.94646
270.243	540.009
270.775	563.1782
271.307	553.09592
271.838	588.14124
272.37	523.06247
272.902	521.97337
273.433	488.87586
273.965	485.98289
274.496	534.09892
275.027	472.97819
275.558	540.07136
276.089	488.98739
276.62	533.12467
277.15	581.17031
277.681	549.96439
278.211	584.16584
278.741	537.95023
279.272	498.92832
279.802	546.11811
280.332	519.99748
280.861	516.01745
281.391	523.95971
281.921	574.12091
282.45	565.15212
282.98	581.23631
283.509	536.97144
284.038	541.99325
284.567	553.04585
285.096	591.1457
285.625	493.9092
286.153	522.989
286.682	559.01855
287.21	581.11608
287.739	528.00603
288.267	549.06667
288.795	609.29485
289.323	591.08624
289.851	590.09501
290.378	570.01003
290.906	538.03954
291.433	634.24825
291.961	565.00557
292.488	581.1542
293.015	542.01125
293.542	570.1489
294.069	588.14069
294.596	621.21372
295.122	649.19966
295.649	617.05074
296.175	623.18484
296.702	631.19717
297.228	686.28811
297.754	592.02897
298.28	608.06187
298.806	646.19499
299.332	586.99414
299.857	603.04398
300.383	670.31801
300.908	539.02231
301.433	586.10488
301.958	695.21452
302.483	642.22904
303.008	674.27798
303.533	678.36759
304.058	724.28028
304.582	604.08765
305.107	649.30092
305.631	690.17886
306.155	685.1838
306.679	705.21392
307.203	664.14773
307.727	721.26404
308.251	653.22332
308.775	619.09849
309.298	619.10988
309.822	750.40022
310.345	701.22181
310.868	764.31893
311.391	759.36778
311.914	676.25808
312.437	745.22505
312.96	756.27324
313.482	710.21767
314.005	781.41254
314.527	756.44839
315.049	776.42169
315.571	776.18278
316.093	801.40244
316.615	753.28368
317.137	768.14489
317.659	824.40166
318.18	814.37194
318.702	809.28716
319.223	795.07824
319.744	782.1856
320.265	799.32141
320.786	871.44166
321.307	887.47956
321.828	879.29488
322.348	843.31315
322.869	880.34434
323.389	829.7862
323.909	885.30854
324.43	978.51861
324.95	896.29472
325.47	943.46787
325.989	912.34742
326.509	885.18451
327.029	906.23971
327.548	978.2947
328.067	957.40006
328.587	1015.54472
329.106	986.3132
329.625	1040.71251
330.144	987.32458
330.662	958.29176
331.181	1075.41892
331.7	1038.38023
332.218	1086.25145
332.736	1081.40026
333.255	1139.4173
333.773	1083.40288
334.291	1179.61996
334.808	1098.26544
335.326	1190.35039
335.844	1133.3331
336.361	1132.51528
336.879	1205.37023
337.396	1180.42224
337.913	1154.29024
338.43	1265.29587
338.947	1229.39476
339.464	1260.15536
339.981	1253.36262
340.497	1267.48311
341.014	1333.46024
341.53	1245.21061
342.046	1288.42048
342.562	1393.53552
343.078	1413.36156
343.594	1368.37219
344.11	1444.37972
344.626	1410.498
345.141	1411.22466
345.657	1470.24852
346.172	1429.35382
346.687	1460.21865
347.202	1467.14708
347.717	1535.31748
348.232	1590.45596
348.747	1538.18614
349.261	1536.99583
349.776	1549.21759
350.29	1539.29263
350.805	1652.3817
351.319	1665.17817
351.833	1529.03817
352.347	1540.1419
352.861	1593.10481
353.374	1695.11258
353.888	1618.20642
354.401	1723.05058
354.915	1594.92326
355.428	1716.22108
355.941	1668.01148
356.454	1849.95512
356.967	1802.06722
357.48	1768.98156
357.993	1827.15754
358.505	1779.0941
359.018	1954.08443
359.53	1872.00152
360.042	1880.79308
360.554	1898.02383
361.066	1782.00706
361.578	1832.70451
362.09	1879.9266
362.602	1921.66858
363.113	1907.79365
363.625	1928.68246
364.136	2004.60618
364.647	1947.647
365.158	2043.6887
365.669	2040.76449
366.18	2054.69801
366.691	2045.50303
367.201	2050.69227
367.712	2103.49565
368.222	2090.49347
368.733	2111.29297
369.243	2103.3123
369.753	2351.33605
370.263	2215.45279
370.773	2229.5133
371.282	2329.29265
371.792	2212.10608
372.301	2377.18157
372.811	2486.35334
373.32	2424.71306
373.829	2406.90416
374.338	2638.58992
374.847	2697.55099
375.356	2786.49827
375.865	2819.14463
376.373	2934.13923
376.882	3083.29638
377.39	3068.12119
377.898	3098.97513
378.407	3302.70698
378.915	3534.57994
379.423	3675.56298
379.93	3680.53016
380.438	3848.52312
380.946	4109.62301
381.453	4135.70644
381.96	4382.06763
382.468	4512.67678
382.975	4933.27884
383.482	5172.42444
383.989	5291.28845
384.495	5297.54038
385.002	5570.35226
385.509	5993.03809
386.015	6188.2285
386.521	6579.37546
387.028	6939.68531
387.534	7081.81551
388.04	7315.86792
388.546	7350.90881
389.051	7541.78996
389.557	8333.08973
390.063	9433.71206
390.568	9724.61484
391.073	9769.74064
391.578	10229.77318
392.084	10292.81716
392.589	10545.966
393.093	11058.70217
393.598	12295.55437
394.103	13725.29981
394.607	14816.5232
395.112	16166.69146
395.616	17141.38971
396.12	18385.01396
396.624	20172.64875
397.128	22089.13607
397.632	24975.25629
398.136	26957.90912
398.639	27017.19403
399.143	29072.28401
399.646	27977.09493
400.15	24994.61876
400.653	20124.16724
401.156	13866.23708
401.659	5169.95759
402.162	1054.15589
402.664	0
403.167	0
403.67	0
404.172	0
404.674	0
405.176	0
405.678	0
406.18	0
406.682	0
407.184	0
407.686	0
408.187	0
408.688	0
409.19	0
409.691	0
410.192	0
410.693	0
411.194	435.30976
411.694	4082.94878
412.195	8864.71461
412.696	12089.80453
413.196	12760.96929
413.696	12863.67595
414.196	13703.56671
414.696	17261.84252
415.196	21764.24417
415.696	29583.19008
416.196	36460.31858
416.695	39554.5907
417.195	32123.77506
417.694	30294.49441
418.194	28771.19189
418.693	26459.35812
419.192	25647.38103
419.691	25258.1296
420.19	24779.03955
420.688	24421.02391
421.187	23359.58101
421.685	22247.17558
422.184	20294.08387
422.682	18048.78105
423.18	14972.97644
423.678	13003.51922
424.176	12192.37243
424.674	11395.70347
425.172	11018.42253
425.669	10592.67135
426.167	9818.421
426.664	8793.19564
427.161	8021.02052
427.659	7464.28564
428.156	7037.26442
428.652	6548.15353
429.149	6163.40372
429.646	6055.88441
430.143	5723.55625
430.639	5351.43238
431.135	5002.39345
431.632	4687.06217
432.128	4464.69093
432.624	4060.52155
433.12	3804.5347
433.616	3740.52684
434.111	3492.56921
434.607	3548.60492
435.103	3498.59708
435.598	3472.6224
436.093	3220.94849
436.588	3087.04855
437.083	3002.19242
437.578	2891.37261
438.073	2498.76159
438.568	2593.87326
439.062	2452.64841
439.557	2399.01765
440.051	2258.99528
440.546	2079.11215
441.04	2092.28437
441.534	2096.50459
442.028	2038.43637
442.522	1962.46344
443.015	1960.27574
443.509	1958.60562
444.002	1835.64069
444.496	1789.40759
444.989	1807.70147
445.482	1727.76423
445.975	1693.5203
446.468	1700.44355
446.961	1672.46291
447.454	1651.61723
447.947	1556.71236
448.439	1625.83718
448.931	1565.634
449.424	1543.97084
449.916	1594.87741
450.408	1408.68971
450.9	1366.85661
451.392	1418.98182
451.884	1432.80896
452.375	1323.93653
452.867	1393.82249
453.358	1243.76369
453.849	1310.67775
454.341	1284.79622
454.832	1186.7037
455.323	1166.9356
455.814	1273.88215
456.304	1204.88016
456.795	1178.86802
457.285	1222.87366
457.776	1233.94615
458.266	1119.94427
458.756	1181.02888
459.247	1062.93713
459.737	1087.95912
460.226	1006.83713
460.716	1000.95487
461.206	969.96654
461.695	987.07831
462.185	936.94073
462.674	1047.98
463.163	955.87387
463.653	1014.8235
464.142	902.98259
464.63	960.07682
465.119	833.88524
465.608	837.89308
466.096	855.85105
466.585	902.98644
467.073	822.98981
467.561	816.99678
468.05	821.95832
468.538	839.07005
469.026	807.00353
469.513	715.75667
470.001	689.82809
470.489	765.95862
470.976	761.93826
471.463	689.98541
471.951	688.00292
472.438	609.82611
472.925	563.77061
473.412	666.9785
473.899	606.82662
474.385	627.93835
474.872	605.84389
475.359	600.90195
475.845	537.66182
476.331	597.7891
476.817	562.87789
477.303	524.77667
477.789	524.82085
478.275	485.79801
478.761	499.79871
479.247	494.72724
479.732	423.71923
480.218	480.86238
480.703	425.73396
481.188	435.62365
481.673	445.69437
482.158	329.47751
482.643	387.71367
483.128	382.60733
483.612	382.63423
484.097	364.6509
484.581	362.60999
485.066	392.68724
485.55	296.47028
486.034	266.42164
486.518	307.52957
487.002	327.59122
487.486	330.59954
487.969	258.47827
488.453	302.58333
488.936	335.55909
489.42	295.49151
489.903	287.56114
490.386	219.26563
490.869	236.39763
491.352	274.52696
491.835	221.35403
492.318	220.38688
492.8	248.39446
493.283	235.4732
493.765	180.35502
494.247	242.45062
494.73	204.35742
495.212	193.37932
495.694	140.26445
496.175	103.19852
496.657	194.37274
497.139	205.28184
497.62	90.17509
498.102	138.28127
498.583	161.33301
499.064	97.17761
499.545	138.25875
500.026	87.16171
500.507	164.31236
500.988	162.3335
501.469	82.17238
501.949	123.25532
502.43	75.149
502.91	69.11876
503.39	93.19788
503.87	78.15399
504.35	120.2388
504.83	113.20586
505.31	76.15589
505.79	72.14568
506.269	106.20946
506.749	36.07004
507.228	18.03622
507.707	59.11103
508.187	103.2097
508.666	45.09462
509.145	-1.00202
509.623	33.06666
510.102	63.13113
510.581	109.22515
511.059	47.10131
511.538	23.05202
512.016	34.07044
512.494	60.12602
512.972	35.07243
513.45	-39.07868
513.928	43.0901
514.406	-14.02924
514.884	-5.01128
515.361	-7.01469
515.839	49.0963
516.316	31.0649
516.793	18.04009
517.27	61.12894
517.747	4.00902
518.224	11.02236
518.701	8.01562
519.178	-27.05897
519.654	-12.02536
520.131	4.00872
520.607	11.02415
521.083	9.01806
521.56	-49.10326
522.036	20.03861
522.512	48.10429
522.987	-14.02929
523.463	-72.15369
523.939	25.05421
524.414	53.10751
524.89	10.021
525.365	-18.03622
525.84	-54.11417
526.315	-40.08609
526.79	-23.04625
527.265	5.01011
527.74	-46.10054
528.215	6.01255
528.689	0
529.164	-16.03105
529.638	-7.01612
530.112	-63.13352
530.587	11.02067
531.061	-27.05812
531.534	4.00867
532.008	-36.07758
532.482	-23.04744
532.956	-63.14469
533.429	-21.04569
533.903	-35.06986
534.376	-7.01383
534.849	-43.09002
535.322	-21.04455
535.795	-21.0462
536.268	-31.06705
536.741	-37.08037
537.213	35.07197
537.686	-19.04148
538.158	-37.07433
538.631	-14.03073
539.103	-77.15648
539.575	-19.0357
540.047	-82.16462
540.519	-2.0043
540.991	40.08746
541.463	-28.06127
541.934	-5.01027
542.406	-46.09909
542.877	23.04627
543.348	-10.02178
543.82	32.07023
544.291	25.05229
544.762	-28.05972
545.233	9.02016
545.703	-44.08768
546.174	30.06204
546.645	-35.07473
547.115	41.08735
547.585	100.20076
548.056	-13.02779
548.526	65.13318
548.996	76.16005
549.466	81.17362
549.935	74.15165
550.405	86.16236
550.875	119.24183
551.344	111.22979
551.814	120.23679
552.283	138.2567
552.752	109.21645
553.221	140.25602
553.69	142.26691
554.159	131.2729
554.628	103.19537
555.096	160.34332
555.565	175.32788
556.033	186.37221
556.502	144.30018
556.97	119.22836
557.438	98.20338
557.906	110.22941
558.374	111.22372
558.842	80.16936
559.31	109.21534
559.777	32.0692
560.245	93.19486
560.712	104.21419
561.18	88.17259
561.647	58.11628
562.114	99.20018
562.581	150.32672
563.048	156.31767
563.514	103.22478
563.981	140.28418
564.448	143.28384
564.914	193.39472
565.381	221.43927
565.847	191.39364
566.313	199.4068
566.779	228.44779
567.245	190.39096
567.711	216.45227
568.176	235.45686
568.642	214.46888
569.108	264.56109
569.573	346.69431
570.038	301.54031
570.504	304.57931
570.969	361.76773
571.434	288.53761
571.899	358.71905
572.363	392.74557
572.828	449.85005
573.293	412.7859
573.757	408.77978
574.222	438.80106
574.686	424.78094
575.15	425.8361
575.614	465.8726
576.078	462.88856
576.542	449.84132
577.006	498.90991
577.469	562.12704
577.933	460.83876
578.396	538.03407
578.86	522.99866
579.323	509.98486
579.786	469.8251
580.249	462.86077
580.712	484.97437
581.175	415.85488
581.637	436.83613
582.1	437.7958
582.563	398.71612
583.025	390.79345
583.487	398.66482
583.95	347.6261
584.412	384.67569
584.874	437.88279
585.336	348.69961
585.797	312.5752
586.259	345.6947
586.721	311.62422
587.182	413.8144
587.643	327.63511
588.105	325.65865
588.566	312.5628
589.027	281.58277
589.488	277.54673
589.949	303.63316
590.41	254.4254
590.87	326.63936
591.331	294.54827
591.791	244.48986
592.252	199.39887
592.712	232.48857
593.172	229.45071
593.632	243.46633
594.092	251.4875
594.552	206.39007
595.011	182.36809
595.471	191.37752
595.931	232.45199
596.39	204.42922
596.849	194.39847
597.308	229.43606
597.768	193.43277
598.227	199.42341
598.685	200.40709
599.144	251.51147
599.603	230.47775
600.062	178.32963
600.52	195.38235
600.978	256.5289
601.437	221.44481
601.895	189.35341
602.353	197.38627
602.811	235.45555
603.269	266.55301
603.727	237.49569
604.184	249.48638
604.642	291.61537
605.099	232.4705
605.557	269.5696
606.014	301.55367
606.471	252.54445
606.928	238.44009
607.385	325.6698
607.842	380.73049
608.299	472.90867
608.755	419.84371
609.212	394.73077
609.668	350.65045
610.125	399.81231
610.581	499.98538
611.037	468.8936
611.493	412.8256
611.949	327.67604
612.405	363.61484
612.861	387.77999
613.316	369.75226
613.772	412.80078
614.227	400.80081
614.683	451.81172
615.138	424.83786
615.593	405.79938
616.048	446.86316
616.503	406.85571
616.958	387.83196
617.412	387.78537
617.867	329.62863
618.321	467.81211
618.776	468.87368
619.23	422.84682
619.684	416.8074
620.138	456.90532
620.592	440.91595
621.046	431.87147
621.5	405.85191
621.954	436.84663
622.407	450.86048
622.861	361.76973
623.314	389.77429
623.768	324.66909
624.221	378.64981
624.674	308.63291
625.127	329.68475
625.58	363.73498
626.033	381.74459
626.485	281.60567
626.938	354.75038
627.39	330.68759
627.843	324.67359
628.295	263.55445
628.747	284.61332
629.199	311.63921
629.651	199.41917
630.103	259.54362
630.555	253.49302
631.006	246.5324
631.458	246.53558
631.909	266.56534
632.361	212.46176
632.812	181.39265
633.263	198.40136
633.714	208.41893
634.165	238.5386
634.616	172.38719
635.067	177.37365
635.518	199.44842
635.968	203.38674
636.419	133.2783
636.869	168.38097
637.319	170.37437
637.769	134.28803
638.219	200.45427
638.669	116.26679
639.119	170.3966
639.569	159.36736
640.019	136.30389
640.468	127.27492
640.918	210.48181
641.367	134.29125
641.816	154.33258
642.265	126.28283
642.714	158.35261
643.163	103.23125
643.612	62.14573
644.061	71.14797
644.51	104.23133
644.958	91.19623
645.406	105.24492
645.855	141.33509
646.303	129.29402
646.751	131.28988
647.199	116.25792
647.647	71.16104
648.095	129.28819
648.543	139.27925
648.99	112.2614
649.438	164.37432
649.885	127.30657
650.333	86.16587
650.78	89.21127
651.227	118.28059
651.674	120.26803
652.121	84.20136
652.568	80.19148
653.015	175.42896
653.461	69.16234
653.908	134.30572
654.354	126.29511
654.801	80.18547
655.247	95.20688
655.693	140.35602
656.139	97.22946
656.585	99.23437
657.031	77.1777
657.477	84.18032
657.922	137.30935
658.368	132.31978
658.813	143.32724
659.259	84.19974
659.704	71.16463
660.149	97.22394
660.594	104.24425
661.039	100.22603
661.484	114.26962
661.929	122.28205
662.373	63.15803
662.818	121.29594
663.262	77.18447
663.707	107.26801
664.151	112.27092
664.595	33.07996
665.039	111.2736
665.483	69.17501
665.927	85.19998
666.371	63.14585
666.814	97.23088
667.258	62.14675
667.701	120.25882
668.145	104.25743
668.588	87.21303
669.031	7.01667
669.474	79.19034
669.917	107.23727
670.36	69.17133
670.803	109.26223
671.245	92.19528
671.688	67.16418
672.13	46.10432
672.573	123.31019
673.015	108.25869
673.457	58.12794
673.899	87.2112
674.341	101.24353
674.783	72.17331
675.225	74.1825
675.666	11.02682
676.108	80.17558
676.549	38.0913
676.991	23.05181
677.432	67.13578
677.873	87.20253
678.314	76.1826
678.755	76.18578
679.196	44.10225
679.637	72.17718
680.078	76.17954
680.518	123.28701
680.959	60.14514
681.399	53.13256
681.839	54.13279
682.28	51.12696
682.72	82.1892
683.16	61.15296
683.6	87.20037
684.039	46.09807
684.479	46.11412
684.919	25.05864
685.358	104.26392
685.798	84.22031
686.237	77.18777
686.676	58.1367
687.115	71.1686
687.554	61.14653
687.993	73.16383
688.432	89.20514
688.871	68.15621
689.309	71.17113
689.748	77.1639
690.186	103.24723
690.625	66.15646
691.063	103.24779
691.501	94.23328
691.939	53.13347
692.377	63.15518
692.815	58.1403
693.253	87.21081
693.69	58.12976
694.128	47.1153
694.565	77.18538
695.003	102.25912
695.44	25.05992
695.877	54.12786
696.314	58.12735
696.751	120.27511
697.188	60.13982
697.625	98.22719
698.061	22.05378
698.498	100.24326
698.934	64.15592
699.371	24.0576
699.807	47.11294
700.243	59.14366
700.679	90.206
701.115	105.24886
701.551	90.21376
701.987	80.18238
702.422	83.19869
702.858	56.13521
703.294	61.14049
703.729	69.17052
704.164	97.23469
704.599	66.14937
705.035	74.16774
705.47	51.12557
705.904	46.10892
706.339	140.32585
706.774	63.14949
707.209	37.08692
707.643	97.23424
708.078	110.26839
708.512	20.05081
708.946	135.32329
709.38	48.11554
709.814	68.15771
710.248	62.15285
710.682	56.13495
711.116	41.0992
711.549	83.21513
711.983	64.1499
712.416	125.29603
712.85	79.1983
713.283	84.20051
713.716	129.32358
714.149	116.27742
714.582	94.21308
715.015	117.29316
715.448	82.20794
715.881	89.19735
716.313	60.14251
716.746	94.22266
717.178	66.16038
717.61	88.22419
718.043	92.2304
718.475	78.19067
718.907	137.34574
719.339	41.09462
719.77	62.14862
720.202	77.19592
720.634	83.20316
721.065	96.22889
721.497	98.24116
721.928	63.15615
722.359	45.1099
722.79	12.02931
723.221	81.20515
723.652	143.36706
724.083	17.03925
724.514	91.21084
724.945	69.16398
725.375	36.08495
725.806	92.23081
726.236	96.24663
726.666	42.10106
727.096	84.20747
727.526	70.17896
727.956	5.01165
728.386	115.28336
728.816	61.15559
729.246	29.07159
729.675	16.04007
730.105	47.11721
730.534	73.17262
730.964	116.29322
731.393	122.30309
731.822	86.22056
732.251	59.15108
732.68	82.19506
733.109	63.15672
733.537	86.20889
733.966	74.18505
734.395	70.1635
734.823	42.0966
735.251	40.09778
735.68	112.28078
736.108	124.31299
736.536	56.13388
736.964	67.15726
737.392	67.16903
737.82	62.15049
738.247	70.16933
738.675	97.23309
739.102	49.12371
739.53	75.19191
739.957	60.15549
740.384	82.20372
740.811	86.21894
741.238	46.1137
741.665	37.08722
742.092	82.19738
742.519	47.1176
742.945	54.13122
743.372	59.14746
743.798	101.2598
744.225	39.09415
744.651	41.10414
745.077	45.11353
745.503	104.25432
745.929	27.06589
746.355	131.32504
746.781	72.17972
747.207	21.05016
747.632	34.08401
748.058	51.12862
748.483	58.13531
748.908	36.09064
749.334	46.11437
749.759	70.16658
750.184	45.10859
750.609	83.20512
751.033	68.16251
751.458	90.2036
751.883	56.14019
752.307	20.04796
752.732	-12.03058
753.156	76.18882
753.58	68.16313
754.005	65.16621
754.429	65.1543
754.853	24.06034
755.277	48.1151
755.7	92.2289
756.124	1.00253
756.548	13.03141
756.971	59.14548
757.394	44.11446
757.818	53.13747
758.241	62.1584
758.664	12.03079
759.087	8.01826
759.51	91.22711
759.933	24.05867
760.356	31.08043
760.778	54.13406
761.201	27.06672
761.623	79.19293
762.046	48.11546
762.468	86.2078
762.89	89.22051
763.312	60.14787
763.734	27.06601
764.156	28.07012
764.578	44.10277
765	39.09638
765.421	-28.07264
765.843	51.13469
766.264	71.17288
766.686	52.13182
767.107	51.12488
767.528	1.00257
767.949	36.09255
768.37	69.17046
768.791	15.03693
769.212	5.01276
769.632	32.07565
770.053	42.1115
770.473	61.14959
770.894	39.09878
771.314	60.14476
771.734	43.10152
772.154	69.17798
772.575	31.07302
772.994	-12.02793
773.414	51.12381
773.834	64.16097
774.254	33.08179
774.673	15.03714
775.093	18.04518
775.512	4.01002
775.931	23.05904
776.351	3.00757
776.77	-5.01245
777.189	26.06275
777.607	-20.05206
778.026	15.0379
778.445	13.03297
778.864	37.0958
779.282	37.09006
779.701	-11.02824
780.119	-15.0386
780.537	15.03794
780.955	27.06948
781.373	21.05262
781.791	-26.05994
782.209	101.2329
782.627	25.06649
783.045	-2.00469
783.462	30.0774
783.88	6.01573
784.297	35.08887
784.715	4.01041
785.132	-20.04943
785.549	6.01523
785.966	-2.00511
786.383	11.02744
786.8	37.08695
787.217	23.05525
787.633	-5.01268
788.05	54.12934
788.466	32.07642
788.883	43.11038
789.299	10.02445
789.715	25.06149
790.131	-2.00505
790.547	48.12068
790.963	6.01511
791.379	30.07654
791.795	1.00233
792.21	0
792.626	13.0313
793.041	15.03749
793.457	20.05001
793.872	-10.02396
794.287	-6.01456
794.702	50.12399
795.117	9.02265
795.532	23.05821
795.947	17.04147
796.362	76.18197
796.776	55.1298
797.191	34.08398
797.605	-35.08404
798.02	-1.00247
798.434	23.05196
798.848	-18.04513
799.262	19.04764
799.676	16.03953
800.09	53.13107
800.504	36.08813
800.918	-3.00707
801.331	29.07664
801.745	-26.06106
802.158	9.02278
802.572	64.15581
802.985	30.07325
803.398	18.04346
803.811	25.06487
804.224	27.06785
804.637	-8.01938
805.05	-2.00472
805.462	65.16016
805.875	-18.04737
806.288	-21.05159
806.7	17.04318
807.112	45.10513
807.525	44.10927
807.937	2.00501
808.349	34.08582
808.761	46.11383
809.173	-10.02464
809.584	14.03501
809.996	-24.05984
810.408	18.04687
810.819	23.05468
811.231	48.12448
811.642	28.06735
812.053	125.29443
812.464	137.32194
812.875	134.33872
813.286	111.28373
813.697	100.23302
814.108	70.17124
814.519	73.16302
814.929	68.1736
815.34	-5.01231
815.75	23.05894
816.16	29.07287
816.571	28.07326
816.981	45.10694
817.391	39.09482
817.801	2.00503
818.211	-7.01696
818.62	8.0195
819.03	4.00993
819.44	51.13365
819.849	-14.03582
820.259	14.03619
820.668	4.00996
821.077	-11.02772
821.486	52.12579
821.895	58.14373
822.304	16.04276
822.713	-12.02884
823.122	8.02019
823.531	11.02639
823.939	37.09073
824.348	16.03932
824.756	47.11823
825.164	30.07605
825.573	-6.01526
825.981	46.11462
826.389	47.11857
826.797	4.01014
827.205	-20.04675
827.612	25.06221
828.02	-5.01191
828.428	24.0616
828.835	5.01329
829.243	6.01448
829.65	-11.02774
830.057	15.03678
830.464	-3.00741
830.871	56.13449
831.278	-1.00245
831.685	29.06532
832.092	24.05926
832.499	-11.02449
832.905	68.17213
833.312	68.15527
833.718	36.09022
834.124	-17.03954
834.531	-3.00766
834.937	49.12613
835.343	39.09464
835.749	37.08702
836.155	27.07114
836.561	-12.02994
836.966	44.10808
837.372	40.10226
837.777	-11.02778
838.183	16.03599
838.588	50.12449
838.993	40.09789
839.399	3.00742
839.804	-62.15465
840.209	12.03082
840.613	-17.0385
841.018	29.07389
841.423	5.01296
841.828	2.00511
842.232	47.11683
842.637	29.06892
843.041	-23.05982
843.445	19.04804
843.849	-21.05279
844.253	-1.00241
844.657	-24.06136
845.061	-35.08106
845.465	-13.03186
845.869	18.04223
846.272	-20.04945
846.676	3.00734
847.079	-3.00771
847.483	27.0678
847.886	55.13407
848.289	-20.05406
848.692	1.00256
849.095	20.04843
849.498	65.16469
849.901	11.02551
850.304	16.03859
850.707	24.0616
851.109	47.11925
851.512	-1.00249
851.914	-12.03063
852.316	20.05095
852.718	-42.1103
853.121	-4.00992
853.523	16.03774
853.925	-37.09808
854.326	-11.02785
854.728	52.13387
855.13	-7.01826
855.531	-3.00726
855.933	9.02182
856.334	24.06021
856.736	-22.05013
857.137	11.02583
857.538	-23.05867
857.939	-13.03254
858.34	25.06133
858.741	31.0814
859.142	25.06046
859.542	20.05309
859.943	45.1121
860.343	-3.00751
860.744	14.03445
861.144	32.07846
861.544	-37.09053
861.945	15.03852
862.345	53.12977
862.745	42.10469
863.145	25.06017
863.544	17.04327
863.944	-5.01196
864.344	42.10465
864.743	46.11441
865.143	12.03107
865.542	-27.0637
865.941	0
866.34	16.03865
866.74	-11.02985
867.139	6.01451
867.537	39.09969
867.936	24.05814
868.335	36.09194
868.734	38.09742
869.132	30.0701
869.531	33.0802
869.929	-44.10237
870.327	-9.02185
870.726	29.07269
871.124	28.06584
871.522	11.02825
871.92	43.10634
872.318	23.05659
872.715	45.11166
873.113	33.08077
873.511	30.0751
873.908	-41.10528
874.306	-14.03526
874.703	39.0979
875.1	68.1736
875.497	14.03384
875.894	-36.0897
876.291	0
876.688	0
877.085	12.02904
877.482	-1.00253
877.878	18.04364
878.275	-36.09294
878.671	-2.00451
879.068	15.0365
879.464	-2.00489
879.86	-48.11581
880.256	5.01246
880.652	15.03842
881.048	14.03496
881.444	44.10499
881.84	2.00513
882.236	18.04557
882.631	47.11555
883.027	12.0293
883.422	8.02062
883.817	-31.0791
884.213	31.07988
884.608	-17.04224
885.003	-9.02196
885.398	-28.07113
885.793	29.07314
886.188	-10.02515
886.582	50.12837
886.977	15.03588
887.371	58.14661
887.766	-11.02768
888.16	-23.05821
888.554	28.06959
888.949	0
889.343	36.08826
889.737	-43.11641
890.131	17.04293
890.525	57.1457
890.918	-12.03056
891.312	41.09838
891.706	9.02379
892.099	-2.00514
892.492	-23.05047
892.886	19.0468
893.279	20.05126
893.672	27.06906
894.065	20.05039
894.458	18.04557
894.851	62.15173
895.244	-43.11169
895.637	42.10141
896.029	47.11508
896.422	27.06631
896.814	15.03756
897.206	-13.03136
897.599	39.09673
897.991	-22.05396
898.383	27.06414
898.775	44.09954
899.167	-38.09022
899.559	13.03315
899.951	-2.00477
900.342	22.05626
900.734	-30.07556
901.125	27.07116
901.517	-11.02732
901.908	59.14135
902.299	17.04184
902.69	-29.06953
903.082	23.05602
903.473	9.02173
903.863	15.03853
904.254	-2.00469
904.645	60.14907
905.036	-22.05402
905.426	27.06216
905.817	58.1422
906.207	-47.11414
906.597	-22.05221
906.987	17.04434
907.378	42.10643
907.768	43.11387
908.158	-18.04448
908.547	-16.04182
908.937	21.05419
909.327	42.10221
909.717	36.09168
910.106	24.05797
910.495	38.09513
910.885	86.21654
911.274	17.04277
911.663	47.11942
912.052	0
912.441	25.06388
912.83	-12.02791
913.219	21.05526
913.608	19.04683
913.997	-6.0152
914.385	51.1219
914.774	29.07093
915.162	2.00481
915.55	41.09942
915.939	-35.08972
916.327	37.09261
916.715	-9.02318
917.103	43.10603
917.491	47.11641
917.878	48.11812
918.266	17.04435
918.654	25.06417
919.041	-27.07143
919.429	39.09229
919.816	23.05861
920.203	8.01956
920.591	26.06478
920.978	28.06888
921.365	6.01586
921.752	13.03123
922.139	36.07845
922.525	13.03145
922.912	33.08077
923.299	-40.10108
923.685	6.01577
924.072	20.04642
924.458	46.11408
924.844	-10.02503
925.231	21.04918
925.617	-13.03344
926.003	20.0514
926.389	5.01272
926.774	20.05097
927.16	20.04996
927.546	-26.06726
927.931	44.10995
928.317	9.02091
928.702	5.01194
929.088	-13.03113
929.473	5.01283
929.858	-31.0761
930.243	-24.05843
930.628	19.04651
931.013	27.06721
931.398	15.03475
931.783	52.13689
932.167	-4.00988
932.552	17.04286
932.937	28.06979
933.321	-24.06103
933.705	-24.06131
934.09	36.09123
934.474	32.0763
934.858	9.02351
935.242	-60.14213
935.626	9.02321
936.009	-16.04303
936.393	37.09438
936.777	37.09498
937.16	74.19177
937.544	23.05449
937.927	-17.04365
938.311	56.13659
938.694	38.10071
939.077	-7.01694
939.46	46.11307
939.843	33.06914
940.226	-2.00518
940.609	-41.09586
940.991	8.02052
941.374	27.06628
941.757	7.01741
942.139	14.03168
942.522	42.09945
942.904	9.02181
943.286	34.08665
943.668	16.04169
944.05	38.09382
944.432	14.03478
944.814	21.05201
945.196	-6.01478
945.578	0
945.959	0
946.341	53.13006
946.722	47.11041
947.104	-5.01208
947.485	22.05149
947.866	-10.02547
948.247	-20.0511
948.628	32.07834
949.009	-3.00775
949.39	6.01506
949.771	7.01642
950.152	7.01732
950.532	-69.17345
950.913	21.05094
951.293	-9.02455
951.674	10.02437
952.054	12.02994
952.434	7.01751
952.814	32.07642
953.194	31.0814
953.574	72.17666
953.954	7.01676
954.334	37.09244
954.714	-19.0469
955.093	27.06668
955.473	-22.05573
955.853	59.1525
956.232	11.03034
956.611	15.03622
956.99	48.12068
957.37	33.08435
957.749	13.03124
958.128	20.05066
958.506	-4.01047
958.885	12.0305
959.264	-11.02726
959.643	48.10929
960.021	-19.04768
960.4	2.00458
960.778	28.06926
961.156	-8.02027
961.535	14.03287
961.913	9.02123
962.291	-17.04412
962.669	-20.05129
963.047	33.08447
963.424	9.02313
963.802	7.01735
964.18	77.19391
964.557	12.02785
964.935	32.07609
965.312	32.08359
965.69	21.05287
966.067	50.12177
966.444	63.15489
966.821	25.06473
967.198	20.0488
967.575	20.04945
967.952	11.02612
968.329	30.07328
968.705	14.03026
969.082	18.04642
969.458	-20.04862
969.835	12.02942
970.211	7.0181
970.587	57.14174
970.963	24.06185
971.339	21.05511
971.715	18.04521
972.091	24.05939
972.467	-2.00504
972.843	-4.01002
973.219	28.06753
973.594	-5.0132
973.97	66.15664
974.345	19.04574
974.721	19.04628
975.096	-23.05642
975.471	1.00239
975.846	33.07954
976.221	16.04088
976.596	-2.00484
976.971	24.05954
977.346	29.0678
977.72	47.1198
978.095	4.01042
978.469	-3.00723
978.844	48.12073
979.218	-28.06811
979.593	4.00967
979.967	6.01474
980.341	26.06016
980.715	28.07083
981.089	28.07037
981.463	12.02776
981.837	-19.04702
982.21	49.11407
982.584	26.06308
982.957	-25.06327
983.331	67.15788
983.704	-4.00993
984.078	25.0619
984.451	74.18405
984.824	-7.01723
985.197	39.09493
985.57	11.02778
985.943	21.05214
986.316	38.09358
986.688	27.0654
987.061	6.01419
987.434	20.05238
987.806	50.12127
988.179	15.03563
988.551	23.05863
988.923	-5.01244
989.295	46.11503
989.667	-18.04356
990.039	-25.06262
990.411	-21.04902
990.783	20.04633
991.155	-37.09036
991.527	83.20316
991.898	1.00251
992.27	24.05965
992.641	45.113
993.012	35.0826
993.384	14.03362
993.755	-22.0568
994.126	25.06042
994.497	-15.03726
994.868	28.0646
995.239	-18.04418
995.61	4.01015
995.98	13.0318
996.351	15.03738
996.722	-12.02817
997.092	-46.11094
997.462	-17.04023
997.833	35.08321
998.203	38.09234
998.573	28.06999
998.943	-13.03086
999.313	-24.05832
999.683	-7.01698
1000.053	-2.00465
1000.423	32.07802
1000.792	30.07801
1001.162	-13.03236
1001.531	-2.00498
1001.901	25.0626
1002.27	-2.00452
1002.639	-15.03876
1003.009	-34.08215
1003.378	-19.04916
1003.747	43.10172
1004.116	10.02411
1004.485	-9.02175
1004.853	18.04586
1005.222	40.10104
1005.591	21.05014
1005.959	-27.06179
1006.328	-67.15437
1006.696	0
1007.064	59.14815
1007.433	38.09516
1007.801	23.05674
1008.169	58.14625
1008.537	49.10852
1008.905	14.03284
1009.273	26.0645
1009.64	-32.07752
1010.008	29.0694
1010.375	43.10455
1010.743	66.15192
1011.11	4.00955
1011.478	26.06462
1011.845	-19.04528
1012.212	1.00229
1012.579	10.02473
1012.946	41.09774
1013.313	21.05025
1013.68	-1.00227
1014.047	-10.0241
1014.414	-8.0191
1014.78	6.01503
1015.147	64.15435
1015.513	0
1015.88	37.09481
1016.246	51.12585
1016.612	6.01385
1016.978	21.05173
1017.344	40.09901
1017.71	110.26518
1018.076	20.04743
1018.442	51.13114
1018.808	-18.04553
1019.174	6.01517
1019.539	103.23457
1019.905	-13.03103
1020.27	23.05703
1020.636	20.04822
1021.001	16.03854
1021.366	-15.03646
1021.731	20.05169
1022.096	-15.03826
1022.461	11.02622
1022.826	30.07156
1023.191	10.02641
1023.556	-32.07618
1023.92	58.14236
1024.285	27.06616
1024.649	14.03453
1025.014	60.1483
1025.378	1.00254
1025.742	23.05738
1026.107	19.04324
1026.471	26.06097
1026.835	-2.005
1027.199	-20.04876
1027.562	-27.0637
1027.926	33.08092
1028.29	-14.03582
1028.654	25.05779
1029.017	0
1029.381	-24.05812
1029.744	17.04359
1030.107	37.08773
1030.471	22.05294
1030.834	-2.0046
1031.197	36.08692
1031.56	-15.03583
1031.923	-6.01566
1032.286	34.08007
1032.648	42.10056
1033.011	-33.07697
1033.374	26.06137
1033.736	-2.0053
1034.099	2.00492
1034.461	-5.01275
1034.823	11.02757
1035.185	3.00761
1035.548	-32.07904
1035.91	1.00242
1036.272	-4.0092
1036.634	16.03937
1036.995	-2.00475
1037.357	-24.05917
1037.719	3.00736
1038.08	50.11867
1038.442	-34.08197
1038.803	15.03624
1039.165	-18.04595
1039.526	9.02191
1039.887	-9.02177
1040.248	-35.08754
1040.609	38.09406
1040.97	28.06868
1041.331	25.06354
1041.692	-20.0473
1042.053	22.05036
1042.413	-9.02121
1042.774	36.08774
1043.134	45.10719
1043.495	8.02025
1043.855	38.09234
1044.215	-4.01002
1044.576	-37.08989
1044.936	5.01156
1045.296	5.01257
1045.656	21.05178
1046.016	38.09189
1046.375	33.08026
1046.735	-33.07603
1047.095	-10.02367
1047.454	22.04688
1047.814	-17.04136
1048.173	44.10519
1048.533	7.01617
1048.892	-53.12963
1049.251	36.09055
1049.61	16.03962
1049.969	20.04739
1050.328	-50.11066
1050.687	0
1051.046	20.04894
1051.405	10.02504
1051.763	-54.12668
1052.122	24.0601
1052.48	13.03208
1052.839	32.07551
1053.197	30.07084
1053.555	29.06637
1053.914	32.07849
1054.272	3.00731
1054.63	0
1054.988	-26.06263
1055.345	7.01521
1055.703	61.14642
1056.061	-5.01298
1056.419	37.09594
1056.776	50.12118
1057.134	-44.1037
1057.491	4.01009
1057.848	5.01254
1058.206	-17.04048
1058.563	-39.08752
1058.92	47.10834
1059.277	30.07423
1059.634	16.03787
1059.991	-1.00242
1060.348	-10.02286
1060.704	-18.04343
1061.061	21.04904
1061.418	-1.00245
1061.774	37.0915
1062.131	1.00266
1062.487	-11.02601
1062.843	25.06257
1063.199	6.01503
1063.555	-11.02578
1063.911	21.05328
1064.267	58.12069
1064.623	-36.08879
1064.979	67.15812
1065.335	44.10523
1065.691	24.05777
1066.046	-13.02895
1066.402	-8.01838
1066.757	20.05072
1067.112	20.04933
1067.468	-30.07189
1067.823	19.04592
1068.178	-2.00488
1068.533	41.0995
1068.888	0
1069.243	-7.01744
1069.598	-9.02209
1069.952	-44.10091
1070.307	-19.04759
1070.662	-22.05292
1071.016	-42.09582
1071.371	4.00918
1071.725	11.02649
1072.079	15.03629
1072.434	0
1072.788	25.05978
1073.142	29.07156
1073.496	-43.10376
1073.85	16.03733
1074.203	30.07301
1074.557	-5.01341
1074.911	24.05753
1075.265	23.05371
1075.618	25.06128
1075.971	16.03828
1076.325	11.02813
1076.678	-39.09072
1077.031	-28.06432
1077.385	-15.03347
1077.738	1.00228
1078.091	-41.09488
1078.444	8.01872
1078.796	-23.05715
1079.149	26.0649
1079.502	3.00715
1079.855	16.03753
1080.207	12.02975
1080.56	14.03638
1080.912	9.02206
1081.264	-25.06101
1081.617	26.0636
1081.969	-9.02292
1082.321	29.07104
1082.673	-40.09288
1083.025	17.04056
1083.377	18.03887
1083.728	16.03755
1084.08	-10.02521
1084.432	5.01215
1084.783	4.00945
1085.135	30.0754
1085.486	-37.08607
1085.838	-21.05235
1086.189	-8.01961
1086.54	9.02164
1086.891	-10.02554
1087.242	-17.04187
1087.593	-15.03693
1087.944	12.02735
1088.295	49.11132
1088.646	23.05598
1088.996	-32.07822
1089.347	20.04931
1089.698	-34.08159
1090.048	18.04697
1090.398	28.06517
1090.749	29.06961
1091.099	-47.12014
1091.449	-9.02264
1091.799	0
1092.149	-15.03699
1092.499	0
1092.849	38.09671
1093.199	26.06539
1093.548	-21.0511
1093.898	9.02266
1094.248	11.02843
1094.597	-34.08799
1094.947	33.0882
1095.296	-16.03995
1095.645	14.03661
1095.994	53.12712
1096.343	-32.08164
1096.692	-43.11463
1097.041	-10.02731
1097.39	12.03028
1097.739	-14.03676
1098.088	37.09925
1098.437	1.00265
1098.785	19.05144
1099.134	52.13791
1099.482	51.14012
1099.83	8.02115
1100.179	-6.01578
1100.527	21.05602
1100.875	3.00799
1101.223	66.17463
1101.571	17.04718
1101.919	-12.03165
1102.267	34.09587
1102.615	-5.01609
1102.962	22.07073
1103.31	12.03853
1103.658	7.02256
