Data from N2 R9 sample 8_Subt2__2__18-45-57-804.txt Node

Date: Fri Aug 29 18:45:57 PDT 2025
User: uwsun
Spectrometer: HDX01956
Trigger mode: 0
Integration Time (sec): 5.000000E-1
Scans to average: 1
Nonlinearity correction enabled: true
Boxcar width: 0
Storing dark spectrum: false
XAxis mode: Wavelengths
Number of Pixels in Spectrum: 2068
>>>>>Begin Spectral Data<<<<<
194.03	197.53604
194.578	223.68553
195.127	195.59241
195.676	230.69768
196.225	245.62311
196.773	276.72304
197.321	369.9294
197.87	501.12258
198.418	484.07264
198.966	474.05959
199.513	422.90583
200.061	422.9226
200.609	483.10701
201.156	487.88823
201.704	422.91675
202.251	482.09388
202.798	431.9695
203.345	496.04578
203.892	447.96836
204.438	521.04973
204.985	476.94856
205.532	487.09474
206.078	533.10006
206.624	503.04082
207.17	482.94846
207.716	479.98538
208.262	497.81322
208.808	451.9424
209.354	470.971
209.899	533.14484
210.445	510.06499
210.99	507.02428
211.535	569.11191
212.08	528.02847
212.625	546.15089
213.17	558.19013
213.715	408.7692
214.259	546.06209
214.804	516.08183
215.348	537.02595
215.892	498.01136
216.436	561.08537
216.98	550.01301
217.524	506.00752
218.068	537.14452
218.612	566.20043
219.155	490.97827
219.698	468.95343
220.242	468.00607
220.785	445.89441
221.328	445.96033
221.871	470.03074
222.414	511.08808
222.956	395.82539
223.499	429.83045
224.041	461.92572
224.583	443.82434
225.126	430.81427
225.668	447.93611
226.21	423.9242
226.751	399.74983
227.293	488.95032
227.835	443.93225
228.376	490.96693
228.918	454.99506
229.459	395.8561
230	467.95161
230.541	473.93141
231.082	451.94031
231.622	503.9835
232.163	471.97503
232.704	456.9712
233.244	429.92065
233.784	463.9799
234.324	387.72799
234.864	450.8709
235.404	455.93095
235.944	477.96712
236.484	493.05241
237.023	432.87649
237.563	463.90914
238.102	434.88175
238.641	485.04828
239.18	459.91022
239.719	465.00068
240.258	435.83723
240.797	463.94303
241.335	486.01344
241.874	461.73742
242.412	456.9349
242.95	433.88273
243.488	429.838
244.026	422.83117
244.564	426.74295
245.102	456.86562
245.64	500.02143
246.177	451.85801
246.715	505.02443
247.252	501.96938
247.789	459.72501
248.326	502.00743
248.863	459.84563
249.4	482.92302
249.936	491.83716
250.473	481.94315
251.009	468.90097
251.546	415.77722
252.082	527.95488
252.618	428.80652
253.154	465.94366
253.69	477.90086
254.226	461.93084
254.761	469.88401
255.297	461.8442
255.832	426.85761
256.367	438.87608
256.903	498.90623
257.438	502.98828
257.972	513.94609
258.507	419.80993
259.042	473.8557
259.576	440.78765
260.111	498.96242
260.645	522.93065
261.179	428.84378
261.713	481.88839
262.247	471.91089
262.781	459.79566
263.315	530.07353
263.849	491.02774
264.382	527.00047
264.915	488.94852
265.449	477.96403
265.982	554.03113
266.515	518.04631
267.048	503.86966
267.58	501.90637
268.113	450.80556
268.646	533.08479
269.178	462.85393
269.71	527.9403
270.243	551.0268
270.775	529.11524
271.307	521.0401
271.838	532.04612
272.37	527.06963
272.902	550.01859
273.433	513.91483
273.965	498.00445
274.496	542.11341
275.027	523.06972
275.558	556.09905
276.089	513.03026
276.62	507.0758
277.15	495.01646
277.681	523.92496
278.211	600.1934
278.741	491.87921
279.272	501.93322
279.802	566.1539
280.332	505.97385
280.861	538.05545
281.391	524.9613
281.921	574.12091
282.45	519.06919
282.98	581.23631
283.509	594.05921
284.038	554.01222
284.567	563.0622
285.096	593.14904
285.625	532.97156
286.153	523.99065
286.682	535.98223
287.21	541.0491
287.739	554.04903
288.267	548.06498
288.795	535.15555
289.323	541.00663
289.851	607.12187
290.378	609.06838
290.906	582.1129
291.433	570.13889
291.961	543.97336
292.488	585.16108
293.015	561.04186
293.542	582.16991
294.069	570.11045
294.596	613.20032
295.122	607.13363
295.649	608.03788
296.175	579.11277
296.702	560.08058
297.228	688.29124
297.754	605.04801
298.28	625.08676
298.806	589.10483
299.332	619.03941
299.857	646.10587
300.383	631.25254
300.908	596.11497
301.433	616.15303
301.958	656.15797
302.483	613.18164
303.008	660.25565
303.533	645.31076
304.058	679.21458
304.582	596.07541
305.107	622.25447
305.631	653.12657
306.155	705.21198
306.679	666.15853
307.203	699.19716
307.727	669.18865
308.251	666.24373
308.775	627.11041
309.298	694.22074
309.822	733.37417
310.345	767.31393
310.868	679.19835
311.391	725.31773
311.914	741.3571
312.437	737.21455
312.96	724.2298
313.482	762.28895
314.005	758.37888
314.527	748.4358
315.049	815.47867
315.571	710.10306
316.093	814.4204
316.615	785.32688
317.137	804.18575
317.659	828.40697
318.18	880.45701
318.702	830.31277
319.223	837.11991
319.744	862.27632
320.265	831.36237
320.786	784.32841
321.307	851.43332
321.828	896.3132
322.348	872.34705
322.869	824.27934
323.389	590.61758
323.909	902.3269
324.43	970.50964
324.95	858.25417
325.47	912.43222
325.989	977.41547
326.509	907.20531
327.029	934.26665
327.548	993.30812
328.067	967.41044
328.587	991.51875
329.106	951.281
329.625	1039.71133
330.144	929.27013
330.662	1001.33111
331.181	1019.36964
331.7	1044.3855
332.218	1052.22725
332.736	1091.40854
333.255	1119.40192
333.773	1048.3733
334.291	1146.59101
334.808	1081.25353
335.326	1222.37051
335.844	1183.36721
336.361	1171.54783
336.879	1169.3468
337.396	1201.43695
337.913	1240.34247
338.43	1238.28174
338.947	1319.44798
339.464	1206.13156
339.981	1260.36662
340.497	1307.5082
341.014	1314.44965
341.53	1300.23566
342.046	1315.4357
342.562	1414.54654
343.078	1335.3278
343.594	1378.37671
344.11	1396.36035
344.626	1403.49454
345.141	1371.21113
345.657	1515.2608
346.172	1445.3599
346.687	1411.20416
347.202	1514.15731
347.717	1469.29804
348.232	1520.43325
348.747	1530.18452
349.261	1465.98711
349.776	1538.21526
350.29	1642.31553
350.805	1689.38918
351.319	1601.17005
351.833	1540.03955
352.347	1582.14871
352.861	1632.10901
353.374	1710.11338
353.888	1683.21504
354.401	1693.04992
354.915	1639.92399
355.428	1693.21876
355.941	1690.01195
356.454	1832.95662
356.967	1704.06682
357.48	1739.98253
357.993	1829.15754
358.505	1779.0941
359.018	1885.08968
359.53	1856.00282
360.042	1975.77506
360.554	1886.02487
361.066	1865.00211
361.578	1871.69711
362.09	2043.90075
362.602	1868.68002
363.113	1930.78942
363.625	1963.6743
364.136	2054.59185
364.647	1954.64528
365.158	2035.6908
365.669	2075.75586
366.18	2097.68625
366.691	2168.46085
367.201	2015.70129
367.712	2095.49835
368.222	2136.47764
368.733	2134.28381
369.243	2187.27859
369.753	2227.38761
370.263	2316.41293
370.773	2347.4677
371.282	2305.3031
371.792	2358.03673
372.301	2433.15496
372.811	2474.35879
373.32	2319.76943
373.829	2521.84352
374.338	2637.59048
374.847	2620.59443
375.356	2758.51417
375.865	2798.15622
376.373	3066.06839
376.882	3091.29195
377.39	3229.03697
377.898	3098.97513
378.407	3293.71043
378.915	3515.58458
379.423	3663.56541
379.93	3736.52483
380.438	3852.52323
380.946	4049.6051
381.453	4151.71344
381.96	4345.03806
382.468	4460.61354
382.975	5072.51957
383.482	5124.31879
383.989	5193.07871
384.495	5328.62438
385.002	5630.57554
385.509	5998.05932
386.015	6274.6934
386.521	6745.36501
387.028	6821.89844
387.534	7037.49098
388.04	7489.19707
388.546	7272.25358
389.051	7637.68361
389.557	8343.19747
390.063	9434.72415
390.568	9562.59228
391.073	9867.01297
391.578	10091.92128
392.084	10453.04515
392.589	10287.28303
393.093	11031.30407
393.598	12253.95857
394.103	13586.44166
394.607	14897.48348
395.112	16268.74698
395.616	16824.46863
396.12	17986.81124
396.624	20143.39836
397.128	21919.32641
397.632	24633.18391
398.136	26653.84997
398.639	26425.8704
399.143	28420.71524
399.646	27934.24565
400.15	24903.41289
400.653	20124.16724
401.156	13866.23708
401.659	5169.95759
402.162	1054.15589
402.664	0
403.167	0
403.67	0
404.172	0
404.674	0
405.176	0
405.678	0
406.18	0
406.682	0
407.184	0
407.686	0
408.187	0
408.688	0
409.19	0
409.691	0
410.192	0
410.693	0
411.194	435.30976
411.694	4082.94878
412.195	8864.71461
412.696	12089.80453
413.196	12760.96929
413.696	12863.67595
414.196	13703.56671
414.696	17261.84252
415.196	21764.24417
415.696	29583.19008
416.196	36460.31858
416.695	40010.22293
417.195	32721.98642
417.694	30702.26474
418.194	29094.33689
418.693	27021.05421
419.192	25763.79306
419.691	25324.89774
420.19	24843.71706
420.688	24377.61012
421.187	23876.09132
421.685	22475.99399
422.184	20796.49383
422.682	18142.84302
423.18	14929.36774
423.678	13217.63379
424.176	12177.15445
424.674	11422.06716
425.172	11070.09962
425.669	10487.39642
426.167	10005.47801
426.664	8922.3951
427.161	8170.17348
427.659	7350.59651
428.156	6881.39937
428.652	6574.26007
429.149	6282.82798
429.646	6072.94072
430.143	5896.98664
430.639	5275.29743
431.135	5026.42177
431.632	4759.12747
432.128	4424.67243
432.624	4070.52218
433.12	3858.53871
433.616	3659.5292
434.111	3397.59243
434.607	3388.65351
435.103	3587.57502
435.598	3311.67535
436.093	3211.9529
436.588	3079.05273
437.083	2910.24329
437.578	2754.45031
438.073	2534.74196
438.568	2633.85163
439.062	2382.68677
439.557	2407.01364
440.051	2269.98992
440.546	2103.10166
441.04	2168.25361
441.534	2093.50559
442.028	2143.39894
442.522	1959.46437
443.015	2003.25972
443.509	1948.60821
444.002	1818.64412
444.496	1768.41328
444.989	1897.68412
445.482	1869.74336
445.975	1746.50913
446.468	1739.43416
446.961	1688.45942
447.454	1731.60441
447.947	1582.71082
448.439	1548.83779
448.931	1559.63456
449.424	1592.97424
449.916	1557.87678
450.408	1555.68604
450.9	1380.8585
451.392	1428.98354
451.884	1386.80522
452.375	1330.93806
452.867	1352.81786
453.358	1290.77094
453.849	1327.67881
454.341	1266.79324
454.832	1249.71319
455.323	1173.93807
455.814	1325.89296
456.304	1232.88776
456.795	1195.87293
457.285	1236.87724
457.776	1253.95204
458.266	1091.93255
458.756	1074.98132
459.247	1016.91503
459.737	1029.93155
460.226	1005.83669
460.716	1010.96036
461.206	1011.99118
461.695	987.07831
462.185	960.95545
462.674	1031.97163
463.163	1004.89912
463.653	926.78383
464.142	886.97108
464.63	858.99992
465.119	825.87948
465.608	906.94082
466.096	860.85427
466.585	856.95261
467.073	843.00671
467.561	746.93374
468.05	892.01366
468.538	856.08548
469.026	784.98357
469.513	788.81005
470.001	763.89291
470.489	713.90951
470.976	722.90231
471.463	712.00994
471.951	683.9983
472.438	644.86367
472.925	561.76837
473.412	707.02469
473.899	620.84189
474.385	590.89277
474.872	623.86404
475.359	581.87834
475.845	556.68066
476.331	619.81222
476.817	543.85287
477.303	511.76038
477.789	503.79274
478.275	517.84313
478.761	466.75287
479.247	506.74219
479.732	470.78904
480.218	474.85291
480.703	459.78553
481.188	376.54899
481.673	385.61122
482.158	354.50983
482.643	470.84875
483.128	431.67565
483.612	380.63126
484.097	388.68953
484.581	369.6206
485.066	343.60907
485.55	315.49775
486.034	261.4143
486.518	241.42303
487.002	304.55286
487.486	299.5475
487.969	241.44865
488.453	286.55455
488.936	250.42697
489.42	291.48538
489.903	279.54654
490.386	261.3118
490.869	265.44297
491.352	255.49267
491.835	216.34651
492.318	225.39515
492.8	224.35873
493.283	230.46367
493.765	196.38513
494.247	244.45412
494.73	232.40349
495.212	214.41851
495.694	134.25348
496.175	167.31692
496.657	228.43448
497.139	217.29718
497.62	118.22803
498.102	149.30293
498.583	149.30902
499.064	98.17939
499.545	142.26599
500.026	88.16353
500.507	98.18965
500.988	151.31162
501.469	81.17032
501.949	114.23712
502.43	97.19172
502.91	21.03661
503.39	114.24145
503.87	91.1791
504.35	173.34001
504.83	110.20055
505.31	75.15388
505.79	46.09363
506.269	103.20368
506.749	20.03906
507.228	58.11563
507.707	78.1461
508.187	110.22359
508.666	51.10709
509.145	1.00202
509.623	20.04052
510.102	48.10024
510.581	56.11705
511.059	2.00435
511.538	129.28545
512.016	63.12966
512.494	28.05923
512.972	35.07243
513.45	-31.06242
513.928	50.1046
514.406	-70.148
514.884	51.11375
515.361	25.0521
515.839	34.06706
516.316	5.01053
516.793	37.08208
517.27	35.0744
517.747	32.07174
518.224	-11.02248
518.701	13.02536
519.178	-4.00869
519.654	20.04197
520.131	-42.09245
520.607	25.05472
521.083	-35.07096
521.56	-8.01671
522.036	-4.00777
522.512	14.03064
522.987	-16.03349
523.463	-31.06559
523.939	-8.01747
524.414	28.05712
524.89	2.00421
525.365	-26.05241
525.84	-64.13561
526.315	-38.08175
526.79	10.01996
527.265	-31.06317
527.74	-32.06973
528.215	-29.06114
528.689	-23.04537
529.164	-16.03105
529.638	-31.07171
530.112	-57.12065
530.587	-101.19504
531.061	-3.00642
531.534	-9.01956
532.008	-46.09934
532.482	-24.04952
532.956	-77.17734
533.429	-10.02171
533.903	10.01975
534.376	-40.07964
534.849	-9.0187
535.322	-33.07018
535.795	-14.03075
536.268	-42.09106
536.741	-29.06288
537.213	-54.11327
537.686	-82.18141
538.158	-68.13759
538.631	-10.02193
539.103	-52.10507
539.575	3.00561
540.047	-53.10569
540.519	-20.04319
540.991	0
541.463	-29.06348
541.934	-28.0578
542.406	-9.01923
542.877	-41.0837
543.348	-15.03271
543.82	10.02205
544.291	-19.04013
544.762	-21.04472
545.233	-13.02925
545.703	-9.01779
546.174	12.02492
546.645	-33.07043
547.115	37.0789
547.585	63.12756
548.056	7.0149
548.526	29.0599
548.996	69.14553
549.466	64.13768
549.935	40.08261
550.405	108.2028
550.875	66.13575
551.344	104.21564
551.814	101.20019
552.283	91.17126
552.752	103.20482
553.221	112.20627
553.69	200.37056
554.159	109.22818
554.628	100.18982
555.096	143.30797
555.565	136.25727
556.033	126.25565
556.502	156.32433
556.97	119.22836
557.438	121.24982
557.906	55.11611
558.374	65.13239
558.842	36.07695
559.31	32.06436
559.777	21.04552
560.245	61.12872
560.712	95.19605
561.18	45.08915
561.647	37.07454
562.114	73.14849
562.581	64.14195
563.048	119.24437
563.514	51.11252
563.981	82.16866
564.448	116.2317
564.914	125.25959
565.381	143.28941
565.847	143.2979
566.313	105.21922
566.779	125.25147
567.245	138.28729
567.711	124.26492
568.176	153.30326
568.642	153.33955
569.108	206.44335
569.573	233.47976
570.038	246.44783
570.504	213.41488
570.969	269.58354
571.434	208.39598
571.899	273.55909
572.363	229.45284
572.828	350.67865
573.293	290.56956
573.757	319.62283
574.222	305.57655
574.686	259.49679
575.15	332.66745
575.614	329.63808
576.078	330.65486
576.542	375.71549
577.006	377.70988
577.469	412.85614
577.933	349.65424
578.396	345.69502
578.86	374.74113
579.323	363.72691
579.786	332.60502
580.249	316.61008
580.712	300.62954
581.175	298.63003
581.637	350.68514
582.1	371.68691
582.563	329.60244
583.025	307.6364
583.487	300.51459
583.95	232.43092
584.412	249.45363
584.874	282.58994
585.336	216.44747
585.797	248.46455
586.259	275.56267
586.721	225.46058
587.182	304.61482
587.643	241.47768
588.105	245.50561
588.566	239.43917
589.027	199.42027
589.488	212.42483
589.949	261.55048
590.41	173.29617
590.87	201.40586
591.331	224.42499
591.791	155.31758
592.252	118.24095
592.712	206.4363
593.172	174.3469
593.632	259.49511
594.092	193.38004
594.552	158.30269
595.011	142.28982
595.471	188.37185
595.931	173.34178
596.39	179.3787
596.849	183.37681
597.308	236.44863
597.768	185.41551
598.227	211.44776
598.685	206.41873
599.144	205.42211
599.603	246.50916
600.062	175.32432
600.52	195.38235
600.978	195.40839
601.437	170.34618
601.895	235.43443
602.353	270.52027
602.811	256.49377
603.269	270.56083
603.727	295.60906
604.184	236.46241
604.642	271.57559
605.099	295.58964
605.557	286.60334
606.014	303.55707
606.471	274.58919
606.928	307.55789
607.385	360.73608
607.842	450.85048
608.299	514.97955
608.755	461.91931
609.212	394.73077
609.668	408.74731
610.125	488.97338
610.581	557.08327
611.037	575.06791
611.493	417.83466
611.949	423.85568
612.405	412.6886
612.861	489.96246
613.316	395.80051
613.772	458.88044
614.227	448.88695
614.683	547.96037
615.138	486.94643
615.593	465.90488
616.048	560.05266
616.503	533.09021
616.958	510.06546
617.412	506.99897
617.867	470.86742
618.321	485.83941
618.776	542.99333
619.23	446.89002
619.684	547.02691
620.138	569.09825
620.592	485.99952
621.046	550.08005
621.5	488.00589
621.954	584.09247
622.407	487.9229
622.861	430.9031
623.314	422.83352
623.768	494.98123
624.221	437.73943
624.674	448.89152
625.127	434.88216
625.58	434.86446
626.033	490.9329
626.485	345.73338
626.938	374.78931
627.39	391.80363
627.843	367.75567
628.295	328.6816
628.747	316.67774
629.199	321.65828
629.651	259.53834
630.103	318.65876
630.555	301.57987
631.006	290.62171
631.458	311.66773
631.909	314.66037
632.361	273.58691
632.812	250.53434
633.263	319.62874
633.714	266.52859
634.165	257.57934
634.616	244.54115
635.067	234.48779
635.518	300.66201
635.968	277.51823
636.419	264.53637
636.869	235.52564
637.319	257.55561
637.769	146.31301
638.219	217.49118
638.669	174.39554
639.119	247.56749
639.569	206.4715
640.019	196.43253
640.468	165.35428
640.918	210.48181
641.367	196.42038
641.816	184.39481
642.265	210.46323
642.714	158.35261
643.163	149.33136
643.612	104.24244
644.061	156.31898
644.51	167.3666
644.958	127.27175
645.406	168.387
645.855	187.44046
646.303	184.41471
646.751	175.38368
647.199	194.42435
647.647	130.29133
648.095	137.30556
648.543	186.36962
648.99	190.43663
649.438	209.47269
649.885	166.39776
650.333	149.28303
650.78	154.36097
651.227	189.44327
651.674	194.42668
652.121	123.29265
652.568	132.31279
653.015	190.46443
653.461	178.40987
653.908	202.45453
654.354	191.44165
654.801	125.2872
655.247	152.327
655.693	192.48375
656.139	157.36707
656.585	154.36069
657.031	107.24545
657.477	144.30512
657.922	174.38992
658.368	149.35981
658.813	206.46543
659.259	146.34302
659.704	97.22376
660.149	136.31154
660.594	148.3446
661.039	156.34858
661.484	147.34544
661.929	133.30681
662.373	75.18772
662.818	106.25998
663.262	130.30829
663.707	129.32183
664.151	154.36957
664.595	126.29996
665.039	155.37896
665.483	141.35304
665.927	142.33037
666.371	85.19592
666.814	97.23088
667.258	88.20724
667.701	137.29441
668.145	183.44641
668.588	148.35827
669.031	90.21096
669.474	116.27753
669.917	96.21336
670.36	147.3598
670.803	116.2787
671.245	98.20774
671.688	126.30536
672.13	84.18902
672.573	135.33972
673.015	114.27275
673.457	106.23147
673.899	99.23979
674.341	122.293
674.783	121.28855
675.225	114.27908
675.666	95.22803
676.108	72.15829
676.549	118.27919
676.991	95.21083
677.432	85.17155
677.873	61.14273
678.314	68.16362
678.755	114.2767
679.196	61.14128
679.637	105.25681
680.078	141.32889
680.518	99.2321
680.959	105.25184
681.399	77.19175
681.839	74.1813
682.28	59.14666
682.72	54.12529
683.16	117.29041
683.6	57.13207
684.039	51.10861
684.479	34.08453
684.919	33.07728
685.358	85.21643
685.798	47.12404
686.237	91.22133
686.676	118.27486
687.115	92.21759
687.554	117.27805
687.993	57.12834
688.432	50.11615
688.871	56.12895
689.309	59.14253
689.748	88.18687
690.186	88.21183
690.625	52.1236
691.063	62.15032
691.501	84.20884
691.939	81.20296
692.377	49.121
692.815	20.04873
693.253	66.16056
693.69	29.06527
694.128	25.06158
694.565	72.17351
695.003	54.13835
695.44	74.17569
695.877	28.06663
696.314	46.10126
696.751	84.19397
697.188	63.14672
697.625	113.26119
698.061	45.10953
698.498	93.22653
698.934	30.07355
699.371	30.07191
699.807	37.08908
700.243	62.15088
700.679	55.12678
701.115	70.16703
701.551	59.14097
701.987	64.14637
702.422	73.17509
702.858	45.10888
703.294	54.12454
703.729	72.17783
704.164	25.06131
704.599	61.13819
705.035	43.09809
705.47	57.14019
705.904	70.16498
706.339	134.31225
706.774	56.13306
707.209	50.11716
707.643	51.12423
708.078	35.08659
708.512	5.01274
708.946	90.21738
709.38	21.05081
709.814	70.16228
710.248	64.15773
710.682	33.07987
711.116	41.0992
711.549	41.10704
711.983	47.11045
712.416	47.11299
712.85	52.13116
713.283	54.12964
713.716	65.16492
714.149	111.26572
714.582	33.07573
715.015	98.24639
715.448	88.22292
715.881	42.09404
716.313	64.15189
716.746	11.02647
717.178	48.11703
717.61	90.2292
718.043	71.17848
718.475	45.11068
718.907	88.22403
719.339	25.05788
719.77	29.06995
720.202	52.1329
720.634	25.06185
721.065	9.02182
721.497	65.16093
721.928	26.06488
722.359	8.01967
722.79	3.00734
723.221	71.18014
723.652	107.27638
724.083	17.03925
724.514	89.20629
724.945	52.12398
725.375	37.08729
725.806	49.12388
726.236	77.19848
726.666	72.17226
727.096	39.09712
727.526	45.11555
727.956	29.06724
728.386	45.11231
728.816	32.08204
729.246	50.12295
729.675	43.10716
730.105	86.21296
730.534	42.09991
730.964	61.1557
731.393	100.24944
731.822	86.22056
732.251	62.15867
732.68	46.11018
733.109	59.14687
733.537	93.2256
733.966	65.16281
734.395	58.13579
734.823	45.10344
735.251	51.12441
735.68	113.28324
736.108	89.22605
736.536	88.20909
736.964	24.05681
737.392	69.17401
737.82	112.26929
738.247	94.22636
738.675	100.24016
739.102	35.08858
739.53	73.18686
739.957	35.09109
740.384	101.25005
740.811	81.20639
741.238	72.17711
741.665	41.09657
742.092	119.28444
742.519	39.09772
742.945	77.1863
743.372	80.19919
743.798	77.19889
744.225	109.25964
744.651	70.17688
745.077	109.27183
745.503	81.19892
745.929	84.20281
746.355	121.30077
746.781	80.1994
747.207	10.02393
747.632	46.11341
748.058	63.15854
748.483	63.14684
748.908	77.19245
749.334	105.25824
749.759	48.11471
750.184	49.11815
750.609	69.17096
751.033	100.23751
751.458	86.19471
751.883	113.27997
752.307	65.15453
752.732	20.05068
753.156	75.18636
753.58	48.11559
754.005	86.21909
754.429	67.15898
754.853	43.10774
755.277	74.17657
755.7	89.22156
756.124	42.10541
756.548	51.12232
756.971	77.18924
757.394	83.21446
757.818	62.16056
758.241	103.26124
758.664	73.18528
759.087	15.03419
759.51	82.20498
759.933	47.1144
760.356	94.24124
760.778	48.1193
761.201	94.22944
761.623	78.19053
762.046	72.17239
762.468	103.24807
762.89	97.23998
763.312	77.18917
763.734	58.14099
764.156	64.15923
764.578	43.10046
765	85.20828
765.421	65.16591
765.843	104.27221
766.264	80.19447
766.686	75.18935
767.107	9.02221
767.528	53.13476
767.949	91.23171
768.37	65.16069
768.791	39.0956
769.212	21.05343
769.632	17.04031
770.053	60.1588
770.473	85.20751
770.894	100.25052
771.314	108.25819
771.734	36.08511
772.154	86.22118
772.575	36.08472
772.994	7.01623
773.414	70.16933
773.834	47.11857
774.254	57.14066
774.673	64.15703
775.093	31.07762
775.512	21.05245
775.931	54.13786
776.351	35.08786
776.77	27.06685
777.189	17.0411
777.607	28.07229
778.026	36.09061
778.445	7.01777
778.864	61.15729
779.282	15.03666
779.701	37.09418
780.119	7.01794
780.537	0
780.955	63.16109
781.373	40.09988
781.791	29.06612
782.209	65.15096
782.627	12.03198
783.045	3.00703
783.462	28.07226
783.88	25.06531
784.297	8.02041
784.715	2.00521
785.132	12.02949
785.549	63.15826
785.966	45.11401
786.383	-6.01502
786.8	51.11952
787.217	-7.01691
787.633	29.07308
788.05	87.20708
788.466	79.18695
788.883	12.03097
789.299	23.05609
789.715	67.16351
790.131	70.17454
790.547	43.10821
790.963	35.08767
791.379	60.15226
791.795	42.09687
792.21	38.08977
792.626	17.0409
793.041	18.04496
793.457	-3.00753
793.872	19.04528
794.287	-20.04867
794.702	29.07219
795.117	13.03269
795.532	-14.03567
795.947	70.16907
796.362	49.11793
796.776	76.17863
797.191	30.07415
797.605	-32.0768
798.02	19.04678
798.434	50.11233
798.848	9.02245
799.262	11.02762
799.676	57.13978
800.09	22.05472
800.504	21.05155
800.918	-13.0307
801.331	60.15774
801.745	2.00467
802.158	21.05304
802.572	48.1172
802.985	78.18875
803.398	25.06028
803.811	76.19546
804.224	48.12016
804.637	16.03859
805.05	21.04929
805.462	32.07933
805.875	-16.04209
806.288	-25.06146
806.7	9.02289
807.112	17.03993
807.525	33.08212
807.937	-1.00251
808.349	41.10336
808.761	50.12363
809.173	7.01719
809.584	42.1045
809.996	15.03714
810.408	17.04428
810.819	54.12762
811.231	39.1013
811.642	41.09838
812.053	131.3082
812.464	143.33565
812.875	156.39277
813.286	121.30874
813.697	109.25355
814.108	51.1252
814.519	16.03615
814.929	70.17865
815.34	20.04902
815.75	25.06404
816.16	31.07787
816.571	36.09407
816.981	56.1328
817.391	-10.02454
817.801	21.05264
818.211	49.11744
818.62	3.00732
819.03	22.05444
819.44	78.20346
819.849	11.02802
820.259	65.16656
820.668	1.00249
821.077	-1.00252
821.486	17.04139
821.895	57.14128
822.304	55.14603
822.713	6.01437
823.122	43.10786
823.531	-18.04343
823.939	39.0956
824.348	26.06377
824.756	48.12073
825.164	55.13881
825.573	30.07581
825.981	82.20298
826.389	32.08095
826.797	-6.01523
827.205	24.05562
827.612	44.10912
828.02	-1.00238
828.428	0
828.835	53.13978
829.243	-9.02178
829.65	-2.00504
830.057	17.04167
830.464	35.08583
830.871	60.14399
831.278	28.06822
831.685	42.09435
832.092	15.0371
832.499	15.03322
832.905	33.08406
833.312	33.07588
833.718	35.08773
834.124	21.04848
834.531	20.05084
834.937	55.14143
835.343	22.05356
835.749	71.16587
836.155	26.06852
836.561	43.10623
836.966	43.10564
837.372	-2.00515
837.777	12.03018
838.183	21.04719
838.588	83.20542
838.993	46.11245
839.399	8.01977
839.804	-22.05448
840.209	-3.00772
840.613	-34.07726
841.018	36.09162
841.423	5.01296
841.828	15.03826
842.232	35.08719
842.637	2.00478
843.041	37.09524
843.445	28.07068
843.849	9.0225
844.253	22.05274
844.657	2.00509
845.061	-5.01151
845.465	-7.01713
845.869	24.05623
846.272	-21.05194
846.676	33.08029
847.079	-29.07491
847.483	48.12008
847.886	68.16536
848.289	-5.01348
848.692	27.0688
849.095	22.05326
849.498	103.2592
849.901	4.00929
850.304	47.11269
850.707	10.02573
851.109	39.09909
851.512	12.02976
851.914	-6.0153
852.316	12.03061
852.718	-34.08917
853.121	32.07883
853.523	35.08225
853.925	-11.02903
854.326	-55.14034
854.728	5.01298
855.13	29.07517
855.531	16.03856
855.933	41.09882
856.334	-21.05311
856.736	-31.07077
857.137	46.10728
857.538	29.07329
857.939	-10.02502
858.34	47.11483
858.741	34.08923
859.142	7.01699
859.542	1.00266
859.943	59.14661
860.343	10.02498
860.744	15.03691
861.144	12.02953
861.544	-30.07331
861.945	15.03852
862.345	22.05418
862.745	15.03757
863.145	44.10551
863.544	10.02549
863.944	15.03574
864.344	38.09475
864.743	89.21962
865.143	34.08769
865.542	-26.06133
865.941	-11.02757
866.34	30.07227
866.74	43.11565
867.139	-19.04616
867.537	22.0564
867.936	19.04607
868.335	14.03589
868.734	-3.00775
869.132	36.08402
869.531	38.09227
869.929	-5.01154
870.327	-22.05354
870.726	37.09261
871.124	0
871.522	-2.00515
871.92	37.09161
872.318	37.0908
872.715	22.05482
873.113	13.03194
873.511	-19.04799
873.908	-28.07174
874.306	-1.00251
874.703	45.11284
875.1	55.14074
875.497	4.00969
875.894	-14.03474
876.291	32.07889
876.688	3.00781
877.085	20.04833
877.482	15.03783
877.878	-6.01461
878.275	-1.00257
878.671	13.02922
879.068	48.11607
879.464	10.02438
879.86	-17.04077
880.256	34.08425
880.652	10.02564
881.048	23.05734
881.444	26.06225
881.84	-17.04376
882.236	19.04809
882.631	35.08624
883.027	45.1092
883.422	27.06938
883.817	-28.07141
884.213	8.0207
884.608	-27.06721
885.003	6.0146
885.398	-19.04819
885.793	25.06309
886.188	-19.04787
886.582	10.02585
886.977	40.09523
887.371	44.1115
887.766	3.00753
888.16	43.10755
888.554	53.13112
888.949	-4.01015
889.343	37.0907
889.737	-27.0729
890.131	14.03538
890.525	-5.01292
890.918	2.00508
891.312	1.00242
891.706	20.05278
892.099	60.15253
892.492	24.05214
892.886	1.00247
893.279	4.01028
893.672	-8.02059
894.065	14.03531
894.458	-4.01017
894.851	26.06405
895.244	-12.031
895.637	45.10859
896.029	-10.02474
896.422	24.05897
896.814	8.02006
897.206	-37.08965
897.599	57.14091
897.991	-20.04904
898.383	19.04521
898.775	26.05903
899.167	-1.00236
899.559	59.14922
899.951	34.08048
900.342	32.0817
900.734	-25.06291
901.125	38.09997
901.517	17.04201
901.908	61.14608
902.299	-17.0421
902.69	36.08524
903.082	40.09712
903.473	22.053
903.863	26.06666
904.254	55.12763
904.645	58.14415
905.036	-12.02941
905.426	59.13496
905.817	18.04446
906.207	-5.01205
906.597	-51.12172
906.987	41.10649
907.378	-23.05896
907.768	17.04521
908.158	34.08321
908.547	21.05454
908.937	6.01552
909.327	-3.00736
909.717	80.20215
910.106	45.10826
910.495	44.11003
910.885	29.07376
911.274	-12.03034
911.663	-6.01539
912.052	38.09403
912.441	39.09941
912.83	-2.00464
913.219	25.06574
913.608	34.08358
913.997	-34.08656
914.385	4.00965
914.774	7.01719
915.162	19.04557
915.55	-3.00733
915.939	-12.03064
916.327	11.02766
916.715	-3.00772
917.103	52.12801
917.491	71.17507
917.878	-6.01491
918.266	10.02612
918.654	17.0437
919.041	-19.0502
919.429	35.08289
919.816	39.09909
920.203	8.01956
920.591	24.05982
920.978	20.04927
921.365	29.07638
921.752	-40.09705
922.139	8.01754
922.525	-2.00485
922.912	6.01476
923.299	15.03753
923.685	31.08115
924.072	-23.05384
924.458	-7.01753
924.844	9.02245
925.231	-40.09479
925.617	-38.09817
926.003	14.03602
926.389	-8.0204
926.774	25.06366
927.16	23.05742
927.546	-5.01289
927.931	26.06518
928.317	31.07171
928.702	20.04761
929.088	-2.00478
929.473	25.0639
929.858	-50.12318
930.243	2.00485
930.628	-27.06665
931.013	-6.01503
931.398	57.13097
931.783	13.03445
932.167	8.01972
932.552	0
932.937	34.08466
933.321	-18.04573
933.705	17.04312
934.09	49.12388
934.474	1.0024
934.858	-5.01309
935.242	-9.02111
935.626	-1.00258
936.009	17.04547
936.393	-1.00257
936.777	-7.01811
937.16	5.01311
937.544	33.07803
937.927	4.01023
938.311	19.04666
938.694	65.17149
939.077	10.02413
939.46	35.08621
939.843	12.02526
940.226	17.04387
940.609	4.00927
940.991	-15.03862
941.374	18.04426
941.757	67.16485
942.139	-17.03872
942.522	20.04756
942.904	33.0796
943.286	40.10183
943.668	20.05208
944.05	1.00249
944.432	5.01244
944.814	38.09382
945.196	-5.01231
945.578	-28.06755
945.959	2.00473
946.341	41.10084
946.722	59.13827
947.104	-3.00724
947.485	13.03048
947.866	-20.05102
948.247	2.00509
948.628	23.0564
949.009	2.00517
949.39	31.07745
949.771	-33.07803
950.152	35.08615
950.532	-35.08745
950.913	16.03885
951.293	14.03804
951.674	11.0268
952.054	-46.11599
952.434	-13.03264
952.814	13.03116
953.194	23.06048
953.574	50.12318
953.954	16.03825
954.334	12.03012
954.714	-25.06178
955.093	59.14484
955.473	-20.05065
955.853	24.06241
956.232	23.06331
956.611	16.03863
956.99	23.05809
957.37	0
957.749	8.01924
958.128	24.06075
958.506	-3.00785
958.885	9.02288
959.264	-24.05963
959.643	5.01148
960.021	-8.02003
960.4	-21.04829
960.778	37.09137
961.156	-7.01773
961.535	21.04923
961.913	20.04708
962.291	-44.11473
962.669	19.0484
963.047	17.04364
963.424	37.09464
963.802	8.01982
964.18	61.15406
964.557	17.03942
964.935	2.00478
965.312	-9.02367
965.69	47.11777
966.067	40.0976
966.444	51.12567
966.821	45.11612
967.198	19.04637
967.575	41.10099
967.952	29.06863
968.329	24.05869
968.705	3.0065
969.082	0
969.458	-34.08287
969.835	-7.01722
970.211	20.0516
970.587	82.20298
970.963	45.11555
971.339	8.02104
971.715	32.08017
972.091	14.03471
972.467	34.08506
972.843	22.05488
973.219	85.20278
973.594	48.12559
973.97	59.14022
974.345	-40.09738
974.721	7.01709
975.096	38.09216
975.471	4.00957
975.846	40.09629
976.221	1.00256
976.596	17.04101
976.971	0
977.346	47.1095
977.72	10.02566
978.095	-21.05494
978.469	-28.06783
978.844	70.17537
979.218	-8.01939
979.593	70.16709
979.967	4.00983
980.341	17.0394
980.715	8.02031
981.089	25.06287
981.463	-34.07939
981.837	11.02707
982.21	69.16
982.584	-11.02687
982.957	-12.0303
983.331	35.08299
983.704	33.08134
984.078	31.07667
984.451	36.09016
984.824	-45.11153
985.197	6.01469
985.57	46.11545
985.943	35.08669
986.316	69.16895
986.688	24.05817
987.061	24.05654
987.434	6.01575
987.806	-4.0098
988.179	-10.02387
988.551	22.05609
988.923	13.03223
989.295	41.10262
989.667	-16.0387
990.039	29.07193
990.411	-16.03731
990.783	26.06016
991.155	-31.07562
991.527	82.20075
991.898	47.11717
992.27	7.01745
992.641	30.07554
993.012	24.05676
993.384	-47.11419
993.755	-40.10359
994.126	27.06523
994.497	7.01732
994.868	-26.06063
995.239	53.12838
995.61	21.05311
995.98	6.01469
996.351	8.01996
996.722	-46.10871
997.092	-29.06971
997.462	-8.0189
997.833	28.06666
998.203	61.14759
998.573	4.01004
998.943	42.09864
999.313	16.03859
999.683	-19.04619
1000.053	-8.01862
1000.423	4.0098
1000.792	28.07284
1001.162	13.03221
1001.531	13.03227
1001.901	7.01758
1002.27	45.1007
1002.639	9.02316
1003.009	30.07161
1003.378	6.01546
1003.747	14.0333
1004.116	-60.14656
1004.485	47.11238
1004.853	51.12917
1005.222	23.05827
1005.591	47.11165
1005.959	17.03856
1006.328	5.01135
1006.696	-15.03662
1007.064	4.01014
1007.433	27.06775
1007.801	48.11786
1008.169	22.05583
1008.537	70.15435
1008.905	-13.03066
1009.273	-3.00748
1009.64	-14.0338
1010.008	-13.03136
1010.375	65.15738
1010.743	61.14055
1011.11	13.03098
1011.478	31.07698
1011.845	-8.01902
1012.212	7.01598
1012.579	12.02966
1012.946	41.09774
1013.313	65.15424
1013.68	-6.01364
1014.047	-18.04344
1014.414	-6.01432
1014.78	13.03252
1015.147	20.04864
1015.513	-9.02192
1015.88	32.08207
1016.246	36.08908
1016.612	68.15508
1016.978	3.00741
1017.344	36.08918
1017.71	38.09286
1018.076	35.08276
1018.442	40.10305
1018.808	10.02517
1019.174	33.08302
1019.539	32.07392
1019.905	21.04979
1020.27	-23.05751
1020.636	35.08414
1021.001	19.04574
1021.366	-19.04621
1021.731	30.0774
1022.096	-25.06388
1022.461	7.0167
1022.826	-5.01201
1023.191	17.04484
1023.556	-2.00473
1023.92	41.10095
1024.285	25.06128
1024.649	26.06398
1025.014	61.15075
1025.378	21.05306
1025.742	-2.00501
1026.107	19.04324
1026.471	9.02117
1026.835	63.15575
1027.199	2.00486
1027.562	15.0351
1027.926	19.04671
1028.29	4.0102
1028.654	13.03012
1029.017	1.00248
1029.381	-6.01448
1029.744	-15.03868
1030.107	22.05231
1030.471	8.0193
1030.834	27.06169
1031.197	52.12517
1031.56	15.03562
1031.923	8.02083
1032.286	54.12668
1032.648	-13.03145
1033.011	-25.05822
1033.374	45.10583
1033.736	12.03174
1034.099	12.02944
1034.461	4.01018
1034.823	34.08487
1035.185	-4.01016
1035.548	-31.07655
1035.91	15.03616
1036.272	12.02751
1036.634	35.08583
1036.995	22.05197
1037.357	6.01471
1037.719	16.03914
1038.08	25.05962
1038.442	-8.01919
1038.803	27.06508
1039.165	2.00509
1039.526	-5.0122
1039.887	-10.02419
1040.248	-2.00497
1040.609	27.06697
1040.97	-7.01728
1041.331	17.04327
1041.692	1.00236
1042.053	54.12281
1042.413	32.0748
1042.774	-2.00491
1043.134	46.10955
1043.495	11.02783
1043.855	20.04876
1044.215	51.1265
1044.576	32.07674
1044.936	41.09413
1045.296	51.12719
1045.656	19.04687
1046.016	42.10148
1046.375	13.03174
1046.735	-32.07372
1047.095	-21.04981
1047.454	51.10799
1047.814	-31.07562
1048.173	27.06476
1048.533	-34.07917
1048.892	-40.0976
1049.251	42.10552
1049.61	3.00745
1049.969	10.02374
1050.328	-4.00877
1050.687	7.01716
1051.046	31.07571
1051.405	37.09221
1051.763	-47.1101
1052.122	-9.02267
1052.48	4.00989
1052.839	-6.01426
1053.197	13.0308
1053.555	65.14767
1053.914	3.0074
1054.272	53.12799
1054.63	-44.10939
1054.988	-35.08446
1055.345	12.02604
1055.703	-1.00243
1056.061	3.00778
1056.419	28.07271
1056.776	16.03902
1057.134	-5.01169
1057.491	13.03275
1057.848	38.09475
1058.206	36.08485
1058.563	-7.01561
1058.92	82.18769
1059.277	32.07915
1059.634	20.0473
1059.991	21.05056
1060.348	-10.02286
1060.704	14.03357
1061.061	47.1092
1061.418	13.03173
1061.774	4.00995
1062.131	15.03987
1062.487	16.03764
1062.843	22.0551
1063.199	26.0649
1063.555	7.01635
1063.911	-6.0153
1064.267	25.0524
1064.623	-3.00735
1064.979	91.21376
1065.335	-1.00241
1065.691	0
1066.046	31.0684
1066.402	-15.03451
1066.757	12.03047
1067.112	33.08119
1067.468	-1.00238
1067.823	18.04351
1068.178	-16.03916
1068.533	14.03415
1068.888	54.12885
1069.243	15.03723
1069.598	13.03178
1069.952	-43.0986
1070.307	-19.04759
1070.662	2.00479
1071.016	-27.06142
1071.371	-14.03224
1071.725	29.06961
1072.079	-26.06339
1072.434	4.0098
1072.788	24.0574
1073.142	34.08382
1073.496	-6.01438
1073.85	0
1074.203	44.1068
1074.557	26.06937
1074.911	50.11926
1075.265	19.04441
1075.618	15.03684
1075.971	-5.01201
1076.325	4.01024
1076.678	-53.12363
1077.031	-14.03207
1077.385	48.10571
1077.738	-18.04117
1078.091	7.01604
1078.444	39.09068
1078.796	19.04685
1079.149	19.04749
1079.502	-14.03346
1079.855	-24.05674
1080.207	2.00497
1080.56	-29.07592
1080.912	40.09749
1081.264	23.05563
1081.617	23.0563
1081.969	-2.00509
1082.321	15.03684
1082.673	-40.09288
1083.025	24.05718
1083.377	-197.445
1083.728	-4.00942
1084.08	-9.02269
1084.432	-3.0073
1084.783	-13.03081
1085.135	-22.05581
1085.486	-12.02778
1085.838	27.06672
1086.189	-17.04175
1086.54	31.07424
1086.891	21.05334
1087.242	-8.01967
1087.593	40.09749
1087.944	4.00913
1088.295	29.06615
1088.646	6.01465
1088.996	-11.02678
1089.347	41.10069
1089.698	-17.04067
1090.048	20.05217
1090.398	1.00234
1090.749	-5.01208
1091.099	-5.01269
1091.449	26.065
1091.799	26.06532
1092.149	-31.07667
1092.499	-4.00985
1092.849	28.07138
1093.199	9.02271
1093.548	-19.04621
1093.898	21.05277
1094.248	5.01294
1094.597	-40.10363
1094.947	9.02415
1095.296	33.08167
1095.645	19.04964
1095.994	-8.01941
1096.343	35.08824
1096.692	-19.05045
1097.041	-16.04374
1097.39	45.11288
1097.739	-17.04465
1098.088	46.12321
1098.437	-10.02651
1098.785	43.11596
1099.134	52.13791
1099.482	45.12375
1099.83	1.00265
1100.179	3.00788
1100.527	19.0507
1100.875	-25.06687
1101.223	15.04003
1101.571	15.04164
1101.919	-28.07406
1102.267	5.01416
1102.615	10.03213
1102.962	19.06111
1103.31	-7.02252
1103.658	9.02899
