Data from N2 R9 sample 1_Subt2__3__19-15-28-763.txt Node

Date: Fri Aug 29 19:15:28 PDT 2025
User: uwsun
Spectrometer: HDX01956
Trigger mode: 0
Integration Time (sec): 5.000000E-1
Scans to average: 1
Nonlinearity correction enabled: true
Boxcar width: 0
Storing dark spectrum: false
XAxis mode: Wavelengths
Number of Pixels in Spectrum: 2068
>>>>>Begin Spectral Data<<<<<
194.03	271.72854
194.578	276.84251
195.127	281.84373
195.676	287.86385
196.225	273.69087
196.773	329.85407
197.321	456.12822
197.87	586.29043
198.418	607.3113
198.966	587.2821
199.513	514.07953
200.061	540.14919
200.609	611.36493
201.156	542.97482
201.704	570.19735
202.251	573.27679
202.798	594.28947
203.345	641.30913
203.892	623.29706
204.438	582.15646
204.985	594.14961
205.532	583.28516
206.078	614.24455
206.624	581.18158
207.17	646.22062
207.716	637.26211
208.262	582.92984
208.808	552.12582
209.354	617.23097
209.899	664.38652
210.445	632.28459
210.99	564.1248
211.535	672.28162
212.08	661.24749
212.625	629.30202
213.17	667.3894
213.715	530.96937
214.259	678.27807
214.804	686.38501
215.348	659.22243
215.892	645.26667
216.436	685.28655
216.98	616.11611
217.524	583.1404
218.068	630.31601
218.612	643.34113
219.155	572.11858
219.698	586.16009
220.242	659.35933
220.785	598.15792
221.328	587.22634
221.871	593.26735
222.414	552.16508
222.956	483.98958
223.499	515.97645
224.041	575.1226
224.583	600.07159
225.126	579.05507
225.668	560.14165
226.21	534.13738
226.751	488.89704
227.293	551.05529
227.835	517.06841
228.376	544.05819
228.918	561.1999
229.459	536.12483
230	533.06804
230.541	528.02457
231.082	533.08922
231.622	553.06679
232.163	560.13441
232.704	534.11618
233.244	534.11816
233.784	541.1236
234.324	459.84817
234.864	510.97287
235.404	572.13761
235.944	570.12941
236.484	609.26787
237.023	573.12345
237.563	542.04278
238.102	555.09476
238.641	578.22485
239.18	499.9803
239.719	598.25073
240.258	565.05191
240.797	565.12236
241.335	599.21825
241.874	553.86155
242.412	541.0861
242.95	511.02151
243.488	558.05507
244.026	545.04076
244.564	564.948
245.102	559.03298
245.64	591.18284
246.177	563.04038
246.715	559.12024
247.252	619.16236
247.789	669.99347
248.326	548.08828
248.863	555.99796
249.4	602.11788
249.936	592.98208
250.473	583.11401
251.009	542.02325
251.546	630.11602
252.082	589.04892
252.618	557.01489
253.154	586.15467
253.69	578.0631
254.226	602.17458
254.761	555.0225
255.297	537.96459
255.832	592.14464
256.367	578.11699
256.903	584.03812
257.438	639.21592
257.972	602.08404
258.507	531.99893
259.042	623.0827
259.576	567.98194
260.111	603.13449
260.645	618.07314
261.179	581.10267
261.713	594.06468
262.247	623.15954
262.781	615.02086
263.315	591.18065
263.849	624.26831
264.382	667.22377
264.915	603.13838
265.449	551.09297
265.982	623.14001
266.515	633.2454
267.048	602.01217
267.58	671.16016
268.113	637.0843
268.646	634.26114
269.178	614.09044
269.71	646.11595
270.243	665.20478
270.775	690.40393
271.307	623.21476
271.838	717.34941
272.37	633.25417
272.902	668.20131
273.433	636.09688
273.965	643.25442
274.496	609.23243
275.027	631.25953
275.558	644.24715
276.089	557.10747
276.62	647.33156
277.15	619.23611
277.681	636.09046
278.211	669.30955
278.741	644.10658
279.272	597.08409
279.802	729.4319
280.332	730.33053
280.861	681.29159
281.391	684.20311
281.921	690.31092
282.45	686.36094
282.98	697.44618
283.509	737.26646
284.038	670.18889
284.567	744.34241
285.096	736.37811
285.625	660.16504
286.153	688.24939
286.682	668.18411
287.21	658.2409
287.739	731.32529
288.267	688.29314
288.795	750.54624
289.323	690.23716
289.851	759.35034
290.378	731.24206
290.906	692.28855
291.433	708.37
291.961	665.15343
292.488	741.4179
293.015	693.24542
293.542	737.42927
294.069	750.39953
294.596	738.40296
295.122	757.36208
295.649	753.23618
296.175	783.43202
296.702	791.44304
297.228	763.40591
297.754	770.27647
298.28	763.27913
298.806	769.37948
299.332	716.17102
299.857	803.31779
300.383	857.61261
300.908	756.35924
301.433	713.30309
301.958	807.36934
302.483	777.43963
303.008	793.46057
303.533	803.57377
304.058	814.40622
304.582	784.3478
305.107	771.50243
305.631	875.42199
306.155	805.34753
306.679	814.36153
307.203	876.4304
307.727	849.43926
308.251	860.53007
308.775	757.29606
309.298	806.37686
309.822	876.58516
310.345	883.46642
310.868	866.4551
311.391	883.54153
311.914	853.51876
312.437	868.3794
312.96	895.45135
313.482	885.44797
314.005	907.58852
314.527	932.71071
315.049	891.58577
315.571	938.36245
316.093	960.61181
316.615	906.48203
317.137	954.34401
317.659	1057.68733
318.18	1015.61908
318.702	970.47372
319.223	994.26269
319.744	1000.41992
320.265	962.52066
320.786	1002.59961
321.307	1100.72991
321.828	1060.47735
322.348	1029.518
322.869	1081.5555
323.389	822.7819
323.909	1096.51912
324.43	1138.68648
324.95	1088.48092
325.47	1111.64671
325.989	1125.55713
326.509	1098.36913
327.029	1207.49552
327.548	1216.4862
328.067	1227.65072
328.587	1212.7395
329.106	1220.5028
329.625	1278.96895
330.144	1229.52204
330.662	1212.50232
331.181	1256.56081
331.7	1240.54176
332.218	1304.38541
332.736	1347.59331
333.255	1331.54891
333.773	1429.64296
334.291	1460.83092
334.808	1394.4373
335.326	1337.43639
335.844	1367.47619
336.361	1447.74358
336.879	1497.52426
337.396	1484.6022
337.913	1489.46268
338.43	1587.42409
338.947	1525.54718
339.464	1530.24387
339.981	1582.51181
340.497	1685.68669
341.014	1605.58281
341.53	1598.33462
342.046	1605.56558
342.562	1674.65661
343.078	1724.4544
343.594	1719.48921
344.11	1652.4453
344.626	1715.61481
345.141	1756.2975
345.657	1818.3097
346.172	1779.44728
346.687	1797.27627
347.202	1894.19018
347.717	1858.37208
348.232	1826.50862
348.747	1826.21814
349.261	1802.00225
349.776	1931.25245
350.29	1899.34381
350.805	2099.41649
351.319	2056.17629
351.833	1923.0437
352.347	2008.15891
352.861	1979.10781
353.374	2002.10397
353.888	2030.21929
354.401	2118.01439
354.915	2006.88952
355.428	2131.21138
355.941	2188.95429
356.454	2269.87399
356.967	2071.04191
357.48	2221.91138
357.993	2206.11965
358.505	2199.0481
359.018	2321.01737
359.53	2309.918
360.042	2411.64374
360.554	2366.92949
361.066	2292.92283
361.578	2305.57136
362.09	2350.82006
362.602	2305.55124
363.113	2446.63628
363.625	2455.50893
364.136	2519.41578
364.647	2452.47469
365.158	2544.50992
365.669	2574.58199
366.18	2563.51536
366.691	2533.30705
367.201	2575.50235
367.712	2589.2934
368.222	2641.26067
368.733	2663.03464
369.243	2781.98911
369.753	2796.11937
370.263	2839.16351
370.773	2851.23032
371.282	2786.06795
371.792	2819.79171
372.301	2988.86059
372.811	3045.06693
373.32	2973.40462
373.829	2965.59626
374.338	3299.22016
374.847	3317.20512
375.356	3516.1008
375.865	3603.76785
376.373	3662.79213
376.882	3882.90689
377.39	3973.73004
377.898	3948.64538
378.407	4105.53234
378.915	4352.5552
379.423	4517.58689
379.93	4613.68819
380.438	4793.8441
380.946	5028.24362
381.453	5185.61233
381.96	5328.25084
382.468	5751.00518
382.975	6259.45417
383.482	6439.19603
383.989	6502.81126
384.495	6648.30106
385.002	7000.95524
385.509	7370.1372
386.015	7892.29024
386.521	8240.99307
387.028	8717.85892
387.534	8845.86816
388.04	9338.84984
388.546	9098.51843
389.051	9434.48041
389.557	10577.62791
390.063	11844.93768
390.568	12105.54358
391.073	12118.04969
391.578	12738.09128
392.084	12836.20821
392.589	13220.69753
393.093	13769.78813
393.598	15300.72542
394.103	16836.71376
394.607	18526.79134
395.112	20071.62861
395.616	21189.1576
396.12	22599.5177
396.624	25006.76409
397.128	27469.65494
397.632	30926.66115
398.136	33383.76746
398.639	33661.98327
399.143	31662.7203
399.646	28764.39412
400.15	25083.82847
400.653	20124.16724
401.156	13866.23708
401.659	5169.95759
402.162	1054.15589
402.664	0
403.167	0
403.67	0
404.172	0
404.674	0
405.176	0
405.678	0
406.18	0
406.682	0
407.184	0
407.686	0
408.187	0
408.688	0
409.19	0
409.691	0
410.192	0
410.693	0
411.194	435.30976
411.694	4082.94878
412.195	8864.71461
412.696	12089.80453
413.196	12760.96929
413.696	12863.67595
414.196	13703.56671
414.696	17261.84252
415.196	21764.24417
415.696	29583.19008
416.196	36460.31858
416.695	40057.39798
417.195	39599.40907
417.694	37496.70733
418.194	35593.5128
418.693	32629.29035
419.192	31728.06755
419.691	31436.36055
420.19	30579.39708
420.688	30221.413
421.187	29128.82632
421.685	27714.26392
422.184	25362.60198
422.682	22114.21827
423.18	18376.2882
423.678	16098.8242
424.176	14964.53063
424.674	13948.12131
425.172	13580.8686
425.669	13048.93379
426.167	12088.75166
426.664	10867.88468
427.161	10014.85476
427.659	9234.30572
428.156	8487.92256
428.652	7967.27401
429.149	7563.55637
429.646	7398.47071
430.143	7042.75133
430.639	6620.64749
431.135	6234.60639
431.632	5830.68382
432.128	5392.49014
432.624	5094.9507
433.12	4826.9519
433.616	4768.86732
434.111	4440.59815
434.607	4351.54552
435.103	4336.54836
435.598	4297.53848
436.093	4063.64258
436.588	3758.75012
437.083	3550.91597
437.578	3415.08919
438.073	3131.40595
438.568	3187.54042
439.062	3058.30701
439.557	2982.70121
440.051	2745.73805
440.546	2638.83369
441.04	2599.05031
441.534	2632.27981
442.028	2594.20014
442.522	2499.2492
443.015	2367.10182
443.509	2431.43983
444.002	2307.49778
444.496	2271.2324
444.989	2245.58455
445.482	2242.64551
445.975	2280.33384
446.468	2259.25319
446.961	2156.31158
447.454	2099.50886
447.947	2013.63655
448.439	2022.78517
448.931	1916.57097
449.424	2022.94722
449.916	1998.83701
450.408	1884.63759
450.9	1855.85553
451.392	1689.00691
451.884	1779.79877
452.375	1686.97561
452.867	1790.81753
453.358	1670.78162
453.849	1630.67065
454.341	1584.8172
454.832	1662.71776
455.323	1681.03187
455.814	1669.92262
456.304	1591.94091
456.795	1529.93162
457.285	1599.92696
457.776	1622.01447
458.266	1457.04311
458.756	1501.12518
459.247	1464.06712
459.737	1329.04815
460.226	1315.93986
460.716	1328.09658
461.206	1315.1305
461.695	1297.25366
462.185	1259.10255
462.674	1215.05622
463.163	1335.02451
463.653	1251.90334
464.142	1171.14609
464.63	1196.22546
465.119	1166.08082
465.608	1112.06108
466.096	1122.99652
466.585	1145.13739
467.073	1104.19787
467.561	1092.20607
468.05	1086.14679
468.538	1115.2915
469.026	1051.19849
469.513	958.91826
470.001	989.06285
470.489	987.14261
470.976	1002.13215
471.463	932.23257
471.951	949.27493
472.438	856.06823
472.925	776.98985
473.412	791.11719
473.899	786.00933
474.385	872.20922
474.872	750.9983
475.359	718.04037
475.845	708.82059
476.331	791.97888
476.817	734.08873
477.303	757.04262
477.789	680.01632
478.275	673.04875
478.761	662.00967
479.247	667.93057
479.732	584.9501
480.218	649.1143
480.703	608.99919
481.188	582.79641
481.673	556.83975
482.158	422.59495
482.643	608.05797
483.128	509.77999
483.612	502.80604
484.097	496.85686
484.581	500.81104
485.066	450.77695
485.55	443.67434
486.034	388.59356
486.518	430.71751
487.002	408.72245
487.486	437.77241
487.969	381.68465
488.453	372.70649
488.936	376.62048
489.42	416.67015
489.903	393.74911
490.386	369.42364
490.869	383.61959
491.352	414.76941
491.835	327.50808
492.318	309.53074
492.8	353.54464
493.283	359.70226
493.765	275.53029
494.247	370.6671
494.73	267.46006
495.212	361.68142
495.694	249.45778
496.175	145.27664
496.657	265.50044
497.139	307.40818
497.62	184.34995
498.102	190.38268
498.583	241.48953
499.064	201.35838
499.545	233.42664
500.026	134.24616
500.507	233.43634
500.988	266.53476
501.469	152.3146
501.949	213.43325
502.43	170.33025
502.91	165.27671
503.39	171.35765
503.87	156.30233
504.35	191.3738
504.83	179.32064
505.31	148.29864
505.79	115.23039
506.269	177.34393
506.749	147.27842
507.228	116.22815
507.707	201.36507
508.187	200.39818
508.666	98.20365
509.145	65.1292
509.623	131.25868
510.102	71.14751
510.581	144.29511
511.059	113.24012
511.538	96.21389
512.016	125.25368
512.494	136.28086
512.972	99.20192
513.45	66.12993
513.928	88.18255
514.406	42.08662
514.884	127.2788
515.361	110.22492
515.839	98.19038
516.316	87.17987
516.793	78.17156
517.27	88.18491
517.747	54.12051
518.224	53.10672
518.701	68.1309
519.178	60.12863
519.654	128.2622
520.131	95.2031
520.607	56.12177
521.083	86.16954
521.56	3.00625
522.036	58.11095
522.512	99.21275
522.987	-10.0209
523.463	29.06055
523.939	96.20501
524.414	88.17708
524.89	56.11643
525.365	73.14381
525.84	23.04781
526.315	52.1097
526.79	77.15126
527.265	32.06427
527.74	-20.04347
528.215	62.1281
528.689	34.06618
529.164	-5.00968
529.638	58.1318
530.112	12.02502
530.587	49.09122
531.061	-7.015
531.534	36.07748
532.008	36.07638
532.482	29.05912
532.956	-6.01362
533.429	38.08164
533.903	64.12481
534.376	18.03535
534.849	62.12677
535.322	5.01055
535.795	29.06313
536.268	13.02785
536.741	31.06636
537.213	31.0638
537.686	-2.00435
538.158	-30.06017
538.631	71.15304
539.103	28.05554
539.575	31.05754
540.047	22.04311
540.519	56.11897
540.991	16.03516
541.463	-2.00435
541.934	46.09337
542.406	33.06988
542.877	5.0101
543.348	53.1139
543.82	118.25429
544.291	56.11632
544.762	47.09861
545.233	51.11323
545.703	19.03731
546.174	46.09478
546.645	3.00635
547.115	69.14611
547.585	99.1988
548.056	53.11169
548.526	81.16536
548.996	107.2238
549.466	201.41965
549.935	119.24139
550.405	142.26441
550.875	136.27531
551.344	148.30385
551.814	150.2939
552.283	166.30664
552.752	121.23961
553.221	131.24011
553.69	195.36174
554.159	180.37089
554.628	184.3421
555.096	188.40096
555.565	148.27915
556.033	201.40082
556.502	122.25556
556.97	111.21342
557.438	98.20338
557.906	74.15556
558.374	47.09612
558.842	36.07695
559.31	32.06436
559.777	-1.00218
560.245	38.08059
560.712	39.0815
561.18	31.06162
561.647	30.06053
562.114	-15.03112
562.581	38.08474
563.048	87.17995
563.514	16.03556
563.981	45.09333
564.448	36.07324
564.914	66.13887
565.381	73.15011
565.847	102.21443
566.313	34.07211
566.779	70.14261
567.245	85.17904
567.711	53.11498
568.176	51.1035
568.642	41.09311
569.108	67.14851
569.573	82.17459
570.038	42.08042
570.504	102.20392
570.969	130.29037
571.434	51.1008
571.899	107.22737
572.363	128.25911
572.828	173.34964
573.293	151.3063
573.757	117.23939
574.222	95.18883
574.686	99.19724
575.15	143.30002
575.614	130.26412
576.078	169.34799
576.542	177.35395
577.006	139.27706
577.469	242.52195
577.933	170.33278
578.396	161.33808
578.86	177.36692
579.323	140.29483
579.786	141.26941
580.249	165.33011
580.712	176.37944
581.175	148.32319
581.637	187.38019
582.1	198.38245
582.563	142.2723
583.025	111.24018
583.487	108.1948
583.95	160.30252
584.412	119.22395
584.874	149.32089
585.336	193.40188
585.797	141.2711
586.259	154.32374
586.721	136.28401
587.182	191.3963
587.643	138.28012
588.105	121.25667
588.566	68.13034
589.027	111.23895
589.488	142.28916
589.949	149.32199
590.41	84.14725
590.87	162.33004
591.331	146.28228
591.791	142.2918
592.252	68.14043
592.712	109.23575
593.172	83.16898
593.632	153.3
594.092	164.32514
594.552	97.18857
595.011	70.14521
595.471	137.27422
595.931	154.3056
596.39	127.27175
596.849	116.24246
597.308	151.29299
597.768	90.20608
598.227	72.15743
598.685	181.37001
599.144	133.2783
599.603	162.34161
600.062	117.21997
600.52	124.24722
600.978	131.27824
601.437	177.35986
601.895	99.18925
602.353	186.36565
602.811	170.33467
603.269	203.42797
603.727	134.28666
604.184	132.265
604.642	182.39406
605.099	142.29391
605.557	189.40721
606.014	187.35383
606.471	158.34823
606.928	183.34304
607.385	250.52392
607.842	382.73398
608.299	387.76026
608.755	351.71785
609.212	318.60098
609.668	314.58877
610.125	352.7243
610.581	424.85201
611.037	369.72148
611.493	306.62823
611.949	243.51184
612.405	272.47206
612.861	288.59368
613.316	233.4897
613.772	304.60608
614.227	212.44291
614.683	268.50499
615.138	266.54512
615.593	309.62364
616.048	291.58408
616.503	316.6792
616.958	252.55749
617.412	345.70685
617.867	218.42775
618.321	315.56981
618.776	277.54159
619.23	276.57252
619.684	297.59281
620.138	325.66498
620.592	260.56293
621.046	272.57003
621.5	255.55411
621.954	308.61634
622.407	273.5444
622.861	274.59527
623.314	274.55999
623.768	232.489
624.221	233.41608
624.674	245.51061
625.127	221.47103
625.58	279.57577
626.033	256.51513
626.485	237.51566
626.938	244.52965
627.39	170.36682
627.843	240.5083
628.295	204.43565
628.747	206.45231
629.199	196.4133
629.651	159.33786
630.103	167.35764
630.555	169.33591
631.006	207.45173
631.458	126.28132
631.909	206.44354
632.361	157.34596
632.812	129.28295
633.263	159.32518
633.714	169.34344
634.165	144.33211
634.616	135.3062
635.067	188.39591
635.518	175.39628
635.968	208.39578
636.419	155.32275
636.869	122.27924
637.319	121.2692
637.769	90.19528
638.219	113.26119
638.669	75.17391
639.119	174.40561
639.569	113.26347
640.019	189.41769
640.468	135.29174
640.918	159.36853
641.367	114.24884
641.816	99.21632
642.265	131.29375
642.714	117.26333
643.163	98.22025
643.612	124.28792
644.061	87.18067
644.51	83.18543
644.958	123.26342
645.406	104.24263
645.855	123.29332
646.303	113.25838
646.751	35.079
647.199	110.24488
647.647	95.21443
648.095	118.26422
648.543	106.21458
648.99	67.15776
649.438	135.30993
649.885	106.25689
650.333	104.19972
650.78	95.22525
651.227	89.21281
651.674	79.17795
652.121	106.25303
652.568	67.16076
653.015	130.32132
653.461	68.16002
653.908	102.23422
654.354	69.16341
654.801	87.20141
655.247	145.31241
655.693	97.24855
656.139	70.16645
656.585	93.22042
657.031	74.17088
657.477	36.07808
657.922	69.15797
658.368	103.25089
658.813	148.33834
659.259	55.13151
659.704	79.18289
660.149	101.23299
660.594	85.20037
661.039	65.14797
661.484	139.32715
661.929	57.13348
662.373	82.20498
662.818	85.20929
663.262	74.17739
663.707	101.25325
664.151	106.2567
664.595	55.13272
665.039	109.26877
665.483	93.23487
665.927	71.1675
666.371	59.1367
666.814	86.20513
667.258	58.13739
667.701	126.27141
668.145	100.24771
668.588	63.15495
669.031	51.12046
669.474	82.19746
669.917	104.23076
670.36	60.14923
670.803	87.21017
671.245	37.07948
671.688	116.28166
672.13	50.11329
672.573	125.31512
673.015	82.19738
673.457	71.15619
673.899	101.24455
674.341	78.18889
674.783	53.12804
675.225	59.14591
675.666	65.15691
676.108	51.11262
676.549	65.15537
676.991	46.10313
677.432	75.15172
677.873	46.10795
678.314	76.1826
678.755	94.22901
679.196	32.07454
679.637	85.20867
680.078	127.29705
680.518	132.30747
680.959	56.13557
681.399	82.20402
681.839	90.21984
682.28	42.10473
682.72	45.10459
683.16	93.23185
683.6	114.26114
684.039	116.24353
684.479	37.09194
684.919	-2.00472
685.358	119.30118
685.798	93.24354
686.237	95.23088
686.676	94.21999
687.115	83.19664
687.554	64.15365
687.993	64.1439
688.432	104.239
688.871	36.08323
689.309	102.24441
689.748	81.17227
690.186	75.18098
690.625	80.18913
691.063	62.15032
691.501	58.14488
691.939	81.20296
692.377	35.08665
692.815	64.15464
693.253	53.12924
693.69	32.07198
694.128	47.1153
694.565	37.08976
695.003	74.18892
695.44	45.10744
695.877	37.0879
696.314	66.14467
696.751	93.21436
697.188	55.12829
697.625	63.14707
698.061	63.15283
698.498	99.24088
698.934	46.11245
699.371	4.00964
699.807	61.1462
700.243	51.12437
700.679	84.1925
701.115	82.19521
701.551	50.11967
701.987	51.11695
702.422	30.07254
702.858	41.09927
703.294	74.16999
703.729	89.21913
704.164	29.07106
704.599	63.14266
705.035	28.06406
705.47	34.08398
705.904	29.06889
706.339	119.27812
706.774	31.07401
707.209	43.10089
707.643	95.2295
708.078	43.10623
708.512	24.06093
708.946	76.18405
709.38	49.11793
709.814	54.12559
710.248	53.13088
710.682	82.19664
711.116	39.09439
711.549	47.12258
711.983	50.11743
712.416	64.15336
712.85	73.18344
713.283	52.12489
713.716	99.24967
714.149	100.23989
714.582	38.08712
715.015	81.20427
715.448	101.25526
715.881	103.22773
716.313	71.16828
716.746	51.12181
717.178	28.06852
717.61	84.21415
718.043	73.18344
718.475	70.17137
718.907	122.30871
719.339	28.06478
719.77	54.12964
720.202	49.12529
720.634	51.12557
721.065	77.18426
721.497	72.17803
721.928	16.04
722.359	-4.00986
722.79	30.07303
723.221	104.26232
723.652	95.24589
724.083	35.08051
724.514	82.19033
724.945	34.08135
725.375	28.06617
725.806	111.27752
726.236	73.1883
726.666	65.15572
727.096	63.1562
727.526	62.15873
727.956	48.11088
728.386	71.17636
728.816	39.09986
729.246	25.06176
729.675	12.03007
730.105	56.13943
730.534	36.08574
730.964	59.15065
731.393	104.25922
731.822	95.24326
732.251	87.22168
732.68	84.19974
733.109	46.11478
733.537	49.11985
733.966	43.10813
734.395	43.10097
734.823	110.24955
735.251	13.03194
735.68	86.21661
736.108	66.16832
736.536	57.13624
736.964	30.07093
737.392	81.20384
737.82	88.21255
738.247	50.12141
738.675	88.21183
739.102	48.1212
739.53	67.17168
739.957	89.22949
740.384	94.23302
740.811	67.17114
741.238	70.17226
741.665	45.10591
742.092	56.13546
742.519	64.15964
742.945	53.12881
743.372	80.19919
743.798	97.24968
744.225	26.06292
744.651	84.21173
745.077	90.22522
745.503	76.18682
745.929	60.14552
746.355	162.39967
746.781	81.20186
747.207	18.04302
747.632	52.12806
748.058	102.25488
748.483	23.05403
748.908	52.13055
749.334	113.27751
749.759	84.19936
750.184	62.14913
750.609	86.21241
751.033	164.38471
751.458	132.29605
751.883	108.26782
752.307	46.10976
752.732	52.13102
753.156	66.16427
753.58	115.2734
754.005	95.24163
754.429	85.20099
754.853	42.10526
755.277	77.18363
755.7	116.28735
756.124	87.21658
756.548	37.08898
756.971	90.22066
757.394	113.29046
757.818	64.16569
758.241	64.16345
758.664	74.18779
759.087	33.07494
759.51	104.25894
759.933	34.08296
760.356	84.21596
760.778	68.16839
761.201	87.21263
761.623	90.21935
762.046	81.19361
762.468	117.28104
762.89	108.26665
763.312	109.2662
763.734	67.16259
764.156	101.2496
764.578	114.26261
765	84.20587
765.421	73.18607
765.843	101.26449
766.264	103.2493
766.686	86.21669
767.107	73.17802
767.528	50.1272
767.949	100.25422
768.37	96.23598
768.791	125.30152
769.212	54.1366
769.632	77.18045
770.053	65.17189
770.473	94.2291
770.894	122.30442
771.314	113.26989
771.734	44.10386
772.154	103.26411
772.575	65.15209
772.994	58.13313
773.414	116.27817
773.834	70.17587
774.254	68.16746
774.673	120.29137
775.093	73.1814
775.512	40.09956
775.931	58.14797
776.351	60.14993
776.77	22.05452
777.189	62.14862
777.607	54.13878
778.026	70.17511
778.445	-5.01272
778.864	76.19546
779.282	49.119
779.701	59.14959
780.119	58.14734
780.537	31.07818
780.955	86.21901
781.373	23.05761
781.791	44.10002
782.209	102.23516
782.627	72.18999
783.045	17.03975
783.462	60.15399
783.88	41.10682
784.297	70.17663
784.715	-1.0026
785.132	31.07591
785.549	30.07581
785.966	42.10647
786.383	35.08694
786.8	60.14037
787.217	42.10053
787.633	33.0831
788.05	99.23509
788.466	99.23337
788.883	76.19396
789.299	25.06094
789.715	54.1321
790.131	52.13008
790.547	47.11819
790.963	43.10755
791.379	57.14473
791.795	52.11969
792.21	46.1085
792.626	28.06722
793.041	33.08221
793.457	40.09967
793.872	45.1067
794.287	3.00727
794.702	26.06476
795.117	-12.03031
795.532	23.05821
795.947	68.16431
796.362	47.11316
796.776	76.17863
797.191	23.05692
797.605	-20.04789
798.02	4.00988
798.434	45.1012
798.848	37.09184
799.262	30.07508
799.676	88.21455
800.09	16.03984
800.504	47.11483
800.918	49.11434
801.331	45.1186
801.745	-35.08235
802.158	21.05304
802.572	45.10994
802.985	43.10474
803.398	56.13424
803.811	49.12661
804.224	61.15235
804.637	26.06259
805.05	36.08425
805.462	70.17232
805.875	-4.0105
806.288	-10.02452
806.7	63.15871
807.112	34.0796
807.525	62.15347
807.937	1.00251
808.349	66.16564
808.761	57.14076
809.173	24.05876
809.584	53.1316
809.996	-14.03485
810.408	16.04168
810.819	20.04758
811.231	45.11676
811.642	100.23724
812.053	165.38562
812.464	208.482
812.875	220.54753
813.286	91.23342
813.697	104.24215
814.108	26.06412
814.519	45.10107
814.929	43.11026
815.34	4.00983
815.75	11.02825
816.16	51.12765
816.571	29.07587
816.981	45.10694
817.391	13.03176
817.801	10.02512
818.211	44.10555
818.62	-16.03917
819.03	13.03222
819.44	66.17251
819.849	56.14151
820.259	46.11826
820.668	-2.00499
821.077	14.03512
821.486	45.109
821.895	59.14618
822.304	49.13023
822.713	5.01198
823.122	30.07543
823.531	6.01441
823.939	24.059
824.348	68.16548
824.756	39.09825
825.164	42.10624
825.573	-3.00763
825.981	30.07497
826.389	24.0608
826.797	21.05306
827.205	16.03714
827.612	16.03988
828.02	-18.043
828.428	11.0283
828.835	25.06625
829.243	22.05294
829.65	67.16661
830.057	36.08794
830.464	35.08583
830.871	57.13687
831.278	-15.03684
831.685	9.02036
832.092	51.12529
832.499	7.01553
832.905	53.13452
833.312	48.11004
833.718	39.09769
834.124	62.14197
834.531	47.11891
834.937	18.04658
835.343	32.07776
835.749	17.04014
836.155	33.08686
836.561	34.08413
836.966	65.15904
837.372	24.06153
837.777	17.04272
838.183	24.05389
838.588	15.03759
838.993	39.09546
839.399	9.02223
839.804	-34.08438
840.209	4.01029
840.613	-65.14863
841.018	41.10425
841.423	19.04911
841.828	9.02298
842.232	61.15125
842.637	-3.00717
843.041	-17.04417
843.445	23.05811
843.849	-10.02509
844.253	30.0718
844.657	19.04821
845.061	12.02753
845.465	-20.04907
845.869	28.06556
846.272	-17.04201
846.676	10.02444
847.079	-15.03865
847.483	39.09772
847.886	38.09293
848.289	22.05906
848.692	21.05357
849.095	-4.00973
849.498	71.1797
849.901	31.0716
850.304	22.053
850.707	34.08711
851.109	72.18187
851.512	24.05939
851.914	-5.01274
852.316	38.0965
852.718	-54.14211
853.121	3.00743
853.523	-18.04274
853.925	-33.08742
854.326	-26.066
854.728	9.02334
855.13	-11.02871
855.531	-39.09496
855.933	17.04116
856.334	16.0402
856.736	-15.03413
857.137	-11.02594
857.538	9.02283
857.939	-9.02251
858.34	24.05889
858.741	-3.00792
859.142	17.04118
859.542	-18.04809
859.943	-4.01005
860.343	-2.00501
860.744	36.08823
861.144	51.1246
861.544	-52.12759
861.945	17.04364
862.345	42.10305
862.745	37.09231
863.145	57.13635
863.544	0
863.944	37.0878
864.344	13.03256
864.743	62.15375
865.143	-18.04684
865.542	1.00235
865.941	-7.01753
866.34	63.15082
866.74	47.12633
867.139	-31.07548
867.537	4.01029
867.936	22.05332
868.335	41.10462
868.734	16.04118
869.132	5.01174
869.531	16.03901
869.929	-9.02079
870.327	45.10814
870.726	5.01259
871.124	27.0635
871.522	17.04361
871.92	8.01991
872.318	51.12483
872.715	69.17046
873.113	17.04173
873.511	-23.05813
873.908	-57.14677
874.306	10.02508
874.703	-6.01518
875.1	1.00258
875.497	16.03866
875.894	-12.02977
876.291	20.04942
876.688	-14.03654
877.085	10.02421
877.482	1.00253
877.878	1.00243
878.275	-16.04116
878.671	12.02698
879.068	55.13282
879.464	-3.00733
879.86	-24.05764
880.256	32.07933
880.652	60.15248
881.048	59.14613
881.444	44.10499
881.84	23.05879
882.236	32.0808
882.631	17.04203
883.027	28.06817
883.422	38.09746
883.817	-44.11253
884.213	15.03876
884.608	-10.02482
885.003	-3.00731
885.398	-9.02279
885.793	39.09818
886.188	-2.00502
886.582	68.17403
886.977	46.10938
887.371	51.12908
887.766	-58.14719
888.16	33.08269
888.554	-25.06273
888.949	10.02531
889.343	43.10529
889.737	-3.00807
890.131	25.06305
890.525	23.05914
890.918	20.05065
891.312	19.04578
891.706	38.09997
892.099	63.16007
892.492	27.05862
892.886	20.04925
893.279	26.06656
893.672	30.0767
894.065	17.04286
894.458	35.08833
894.851	73.17828
895.244	25.06417
895.637	32.07741
896.029	52.12721
896.422	25.06142
896.814	12.03006
897.206	-1.00241
897.599	50.12377
897.991	-11.02692
898.383	-9.02153
898.775	8.01823
899.167	-15.03546
899.559	20.05093
899.951	45.10629
900.342	55.13985
900.734	-23.05786
901.125	38.09997
901.517	-9.02235
901.908	31.07466
902.299	8.01972
902.69	2.00477
903.082	35.08506
903.473	-4.00968
903.863	-25.06467
904.254	10.02341
904.645	11.02757
905.036	-6.01469
905.426	1.00231
905.817	44.10816
906.207	-12.02895
906.597	0
906.987	44.11422
907.378	7.01785
907.768	57.15059
908.158	-8.01973
908.547	-1.00261
908.937	4.01035
909.327	28.06832
909.717	29.07395
910.106	-4.00971
910.495	48.11995
910.885	8.02042
911.274	34.08527
911.663	34.08659
912.052	37.09157
912.441	17.0435
912.83	-7.01626
913.219	50.13091
913.608	13.03208
913.997	1.00253
914.385	35.08391
914.774	10.02454
915.162	-37.08969
915.55	6.01465
915.939	18.04571
916.327	43.10751
916.715	-1.00257
917.103	40.09869
917.491	41.10166
917.878	53.1303
918.266	-11.02884
918.654	40.10241
919.041	-2.00527
919.429	1.00238
919.816	8.02044
920.203	-9.02208
920.591	56.13877
920.978	43.10548
921.365	29.07638
921.752	-9.02171
922.139	25.0546
922.525	-29.07072
922.912	-9.0222
923.299	21.05249
923.685	29.07594
924.072	95.21723
924.458	-23.05776
924.844	-13.03255
925.231	-7.01648
925.617	11.02818
926.003	18.04628
926.389	26.06589
926.774	36.09149
927.16	43.10697
927.546	2.00515
927.931	15.03768
928.317	37.08549
928.702	8.01909
929.088	-18.04315
929.473	5.01283
929.858	-25.06131
930.243	-28.06822
930.628	13.03186
931.013	15.03742
931.398	27.06241
931.783	17.04502
932.167	34.08339
932.552	11.02776
932.937	28.06979
933.321	11.0278
933.705	53.13357
934.09	77.1937
934.474	34.08104
934.858	3.00785
935.242	-47.11105
935.626	-9.02328
936.009	-15.04033
936.393	25.0639
936.777	-1.00258
937.16	8.02097
937.544	32.07568
937.927	-10.02565
938.311	51.12451
938.694	38.10071
939.077	1.00242
939.46	59.14468
939.843	38.07953
940.226	12.03099
940.609	4.00927
940.991	21.05374
941.374	-37.09191
941.757	59.14538
942.139	5.01134
942.522	45.10649
942.904	19.04595
943.286	24.06127
943.668	33.08574
944.05	29.07172
944.432	-22.05502
944.814	37.09137
945.196	-32.07918
945.578	-50.12113
945.959	12.02834
946.341	26.06412
946.722	41.09642
947.104	1.00241
947.485	-9.02119
947.866	-9.02292
948.247	12.03048
948.628	28.0686
949.009	-4.01034
949.39	26.06502
949.771	26.06078
950.152	8.01979
950.532	-48.12021
950.913	26.06301
951.293	19.05159
951.674	20.04865
952.054	-13.03259
952.434	10.02501
952.814	18.0431
953.194	55.14383
953.574	28.06926
953.954	-24.05782
954.334	10.02511
954.714	-30.07421
955.093	53.13026
955.473	3.00757
955.853	29.07535
956.232	36.09889
956.611	17.04104
956.99	13.03289
957.37	25.06399
957.749	45.10748
958.128	3.00762
958.506	-9.02358
958.885	21.05328
959.264	-9.0223
959.643	33.07537
960.021	-9.02254
960.4	3.00687
960.778	27.0668
961.156	15.03784
961.535	32.07486
961.913	-29.06892
962.291	-30.07804
962.669	-3.00767
963.047	22.05642
963.424	28.07174
963.802	-13.03234
964.18	55.13905
964.557	30.06938
964.935	56.13255
965.312	4.0105
965.69	30.0754
966.067	12.02943
966.444	37.0914
966.821	30.07761
967.198	50.12131
967.575	56.13755
967.952	-6.01429
968.329	20.04894
968.705	29.06248
969.082	27.06952
969.458	-47.11483
969.835	29.07088
970.211	34.0875
970.587	28.06999
970.963	31.0798
971.339	29.076
971.715	31.07768
972.091	26.06431
972.467	43.10739
972.843	-12.03012
973.219	39.09386
973.594	19.04996
973.97	44.10487
974.345	-30.0729
974.721	45.10908
975.096	0
975.471	5.01197
975.846	16.03869
976.221	-6.01539
976.596	21.05062
976.971	36.08911
977.346	14.03283
977.72	17.04356
978.095	18.04678
978.469	28.06712
978.844	58.14562
979.218	2.00484
979.593	34.08172
979.967	4.00983
980.341	1.00233
980.715	26.06579
981.089	-8.02024
981.463	-14.03256
981.837	-4.00987
982.21	27.06313
982.584	-4.00976
982.957	5.01259
983.331	14.03333
983.704	11.02722
984.078	5.01242
984.451	77.1914
984.824	-30.07415
985.197	-18.04428
985.57	15.03786
985.943	20.04967
986.316	26.06417
986.688	48.11581
987.061	6.01419
987.434	24.06282
987.806	2.00489
988.179	25.05928
988.551	-15.03849
988.923	0
989.295	42.10511
989.667	-29.07032
990.039	-19.04754
990.411	-11.02563
990.783	69.15828
991.155	-30.07317
991.527	72.17659
991.898	-17.04287
992.27	-26.06521
992.641	60.15026
993.012	31.07322
993.384	7.01683
993.755	33.08438
994.126	19.04597
994.497	-27.06721
994.868	4.00927
995.239	23.05602
995.61	-4.01016
995.98	-6.01473
996.351	-11.02754
996.722	-47.1111
997.092	-10.02395
997.462	-71.16977
997.833	21.05006
998.203	1.00245
998.573	-21.05296
998.943	1.00237
999.313	-12.02909
999.683	3.00726
1000.053	-2.00465
1000.423	6.0147
1000.792	19.0495
1001.162	-1.00248
1001.531	9.02236
1001.901	18.04513
1002.27	10.02254
1002.639	-16.04135
1003.009	-30.07243
1003.378	-1.00258
1003.747	9.02143
1004.116	-15.03633
1004.485	5.01205
1004.853	36.09142
1005.222	27.06836
1005.591	39.09279
1005.959	-35.08022
1006.328	-7.01594
1006.696	-19.04642
1007.064	3.00761
1007.433	53.13237
1007.801	7.01732
1008.169	34.0861
1008.537	18.04012
1008.905	-2.00471
1009.273	18.04472
1009.64	3.00722
1010.008	40.09552
1010.375	35.08522
1010.743	117.26656
1011.11	-15.03594
1011.478	4.00998
1011.845	25.05907
1012.212	14.03192
1012.579	14.03459
1012.946	9.02159
1013.313	-24.05792
1013.68	22.04973
1014.047	-7.01686
1014.414	-11.02628
1014.78	8.02003
1015.147	68.16387
1015.513	10.02427
1015.88	32.08207
1016.246	0
1016.612	43.09856
1016.978	3.00741
1017.344	21.05216
1017.71	66.16044
1018.076	17.04034
1018.442	37.09537
1018.808	4.01008
1019.174	-10.02535
1019.539	80.18304
1019.905	-55.13232
1020.27	-43.1079
1020.636	35.08414
1021.001	14.03374
1021.366	-17.04133
1021.731	11.02847
1022.096	-26.06645
1022.461	23.0547
1022.826	-8.01922
1023.191	25.06585
1023.556	9.02126
1023.92	25.06174
1024.285	44.10748
1024.649	50.1225
1025.014	57.14097
1025.378	-37.09444
1025.742	4.01001
1026.107	16.03643
1026.471	23.05397
1026.835	41.10177
1027.199	0
1027.562	-10.02351
1027.926	36.08823
1028.29	-24.06151
1028.654	-5.01163
1029.017	40.09847
1029.381	15.03606
1029.744	13.03336
1030.107	25.05941
1030.471	-11.02663
1030.834	4.00918
1031.197	84.20097
1031.56	-10.02386
1031.923	12.03122
1032.286	10.02366
1032.648	71.16906
1033.011	-40.09343
1033.374	8.01895
1033.736	13.03438
1034.099	-3.00738
1034.461	-26.06654
1034.823	-10.02516
1035.185	41.10333
1035.548	52.12645
1035.91	19.04576
1036.272	37.0844
1036.634	27.06631
1036.995	29.06842
1037.357	2.00491
1037.719	23.05619
1038.08	22.0525
1038.442	-8.01919
1038.803	1.00242
1039.165	-5.01274
1039.526	-2.00488
1039.887	9.02169
1040.248	7.01738
1040.609	-10.02497
1040.97	49.11971
1041.331	42.10643
1041.692	-40.09497
1042.053	20.0458
1042.413	7.01644
1042.774	33.08047
1043.134	71.16828
1043.495	64.16039
1043.855	16.03904
1044.215	30.0747
1044.576	14.03369
1044.936	44.10095
1045.296	20.05016
1045.656	57.13962
1046.016	40.09669
1046.375	-11.02697
1046.735	-4.00916
1047.095	8.01887
1047.454	10.02137
1047.814	0
1048.173	57.13593
1048.533	12.02769
1048.892	-30.07306
1049.251	49.12296
1049.61	-33.08245
1049.969	11.02611
1050.328	29.06313
1050.687	11.02694
1051.046	-9.02214
1051.405	32.07982
1051.763	-30.07005
1052.122	-6.01511
1052.48	9.02223
1052.839	7.0166
1053.197	16.03789
1053.555	51.11619
1053.914	59.14398
1054.272	67.16137
1054.63	18.04425
1054.988	-27.06505
1055.345	3.00652
1055.703	4.00971
1056.061	4.01037
1056.419	9.02345
1056.776	17.04146
1057.134	3.00701
1057.491	36.09032
1057.848	14.03506
1058.206	-6.01426
1058.563	12.02665
1058.92	49.1129
1059.277	36.08898
1059.634	51.1199
1059.991	42.10072
1060.348	-21.04812
1060.704	-40.09691
1061.061	57.13217
1061.418	-11.02696
1061.774	30.07429
1062.131	3.00799
1062.487	-8.01891
1062.843	-5.01258
1063.199	10.02503
1063.555	11.02567
1063.911	17.04316
1064.267	42.08771
1064.623	-19.04671
1064.979	63.1488
1065.335	29.06956
1065.691	16.03857
1066.046	-32.07153
1066.402	-18.04143
1066.757	36.09103
1067.112	9.02224
1067.468	-6.01431
1067.823	30.07235
1068.178	26.06313
1068.533	20.04873
1068.888	27.06476
1069.243	45.11109
1069.598	-2.0049
1069.952	-20.04565
1070.307	-37.09298
1070.662	-17.04085
1071.016	-29.06599
1071.371	23.05257
1071.725	49.11717
1072.079	-12.02918
1072.434	13.03178
1072.788	-14.03373
1073.142	30.07402
1073.496	-42.10133
1073.85	-16.03756
1074.203	-6.0147
1074.557	46.12232
1074.911	66.15694
1075.265	-15.03529
1075.618	10.02458
1075.971	34.08107
1076.325	-27.0695
1076.678	-27.06266
1077.031	-35.08051
1077.385	5.01111
1077.738	-26.05956
1078.091	-38.08789
1078.444	44.10221
1078.796	-16.03971
1079.149	37.09218
1079.502	-9.02149
1079.855	-12.0283
1080.207	46.11332
1080.56	-7.01826
1080.912	19.04649
1081.264	7.01698
1081.617	-15.03697
1081.969	-23.05873
1082.321	7.01722
1082.673	-97.22777
1083.025	18.04293
1083.377	-232.5278
1083.728	10.0235
1084.08	11.02763
1084.432	0
1084.783	25.05882
1085.135	-5.01265
1085.486	-33.0767
1085.838	23.05688
1086.189	10.02444
1086.54	-1.00241
1086.891	-37.09494
1087.242	-2.00491
1087.593	32.07811
1087.944	-19.04357
1088.295	23.05253
1088.646	53.12828
1088.996	-20.04878
1089.347	21.05176
1089.698	-36.08643
1090.048	0
1090.398	-1.00234
1090.749	12.0289
1091.099	-4.01015
1091.449	-4.01005
1091.799	25.06282
1092.149	-49.12158
1092.499	2.00492
1092.849	8.02047
1093.199	17.04283
1093.548	-10.02428
1093.898	-1.00252
1094.248	24.0619
1094.597	-40.10363
1094.947	-5.01345
1095.296	1.00249
1095.645	33.08601
1095.994	24.05788
1096.343	43.10825
1096.692	-30.0798
1097.041	-16.04374
1097.39	37.09294
1097.739	27.07039
1098.088	40.10725
1098.437	-28.07446
1098.785	7.01899
1099.134	29.07721
1099.482	35.0964
1099.83	24.06329
1100.179	-14.03688
1100.527	21.05602
1100.875	-37.09916
1101.223	-29.07795
1101.571	14.03887
1101.919	-35.09268
1102.267	3.0085
1102.615	1.00322
1102.962	13.04184
1103.31	5.01607
1103.658	9.02899
