Data from N2 R9 sample 4_Subt2__5__19-17-26-265.txt Node

Date: Fri Aug 29 19:17:26 PDT 2025
User: uwsun
Spectrometer: HDX01956
Trigger mode: 0
Integration Time (sec): 5.000000E-1
Scans to average: 1
Nonlinearity correction enabled: true
Boxcar width: 0
Storing dark spectrum: false
XAxis mode: Wavelengths
Number of Pixels in Spectrum: 2068
>>>>>Begin Spectral Data<<<<<
194.03	261.70281
194.578	290.88359
195.127	266.80034
195.676	284.85517
196.225	262.66433
196.773	364.9392
197.321	504.23623
197.87	696.4977
198.418	628.35064
198.966	604.31455
199.513	612.25802
200.061	602.26411
200.609	666.47109
201.156	620.09143
201.704	612.27384
202.251	591.31205
202.798	621.34044
203.345	736.47115
203.892	648.3417
204.438	713.3741
204.985	647.23654
205.532	654.42048
206.078	716.4179
206.624	707.39711
207.17	726.34529
207.716	654.29071
208.262	651.0185
208.808	667.32534
209.354	679.33543
209.899	714.47458
210.445	680.36723
210.99	723.3894
211.535	790.46412
212.08	712.32718
212.625	702.42968
213.17	717.47714
213.715	643.14117
214.259	753.39369
214.804	697.40371
215.348	727.32606
215.892	715.38126
216.436	742.37432
216.98	727.28059
217.524	631.22048
218.068	690.42241
218.612	687.41907
219.155	658.26095
219.698	693.33805
220.242	665.36989
220.785	634.21721
221.328	645.33042
221.871	650.37224
222.414	666.37103
222.956	602.19849
223.499	531.00122
224.041	652.25003
224.583	649.14469
225.126	615.11061
225.668	575.1683
226.21	596.2526
226.751	568.02164
227.293	610.15191
227.835	553.13374
228.376	622.18782
228.918	654.37104
229.459	576.19827
230	561.11699
230.541	651.22678
231.082	649.29192
231.622	591.12987
232.163	594.19407
232.704	647.31901
233.244	585.21135
233.784	596.22288
234.324	518.94311
234.864	577.08122
235.404	606.19583
235.944	605.1891
236.484	667.37093
237.023	646.24507
237.563	570.08939
238.102	633.22611
238.641	649.35426
239.18	560.08265
239.719	646.33696
240.258	654.19114
240.797	620.21606
241.335	663.32902
241.874	613.93846
242.412	640.25595
242.95	621.21028
243.488	615.14689
244.026	633.18345
244.564	669.0912
245.102	625.1362
245.64	652.28676
246.177	614.1204
246.715	632.24547
247.252	690.27337
247.789	717.04826
248.326	618.20756
248.863	605.07247
249.4	615.13839
249.936	615.01243
250.473	654.22852
251.009	579.08337
251.546	672.17763
252.082	672.17146
252.618	650.15691
253.154	660.27819
253.69	636.15301
254.226	671.28807
254.761	622.12701
255.297	643.12226
255.832	594.14796
256.367	677.27774
256.903	689.19199
257.438	642.22075
257.972	627.12194
258.507	650.18563
259.042	661.13738
259.576	619.05585
260.111	744.35199
260.645	707.19924
261.179	685.2676
261.713	631.12041
262.247	675.24035
262.781	651.07008
263.315	669.31264
263.849	649.31171
264.382	725.31105
264.915	642.2006
265.449	616.20365
265.982	709.26967
266.515	709.37031
267.048	701.14738
267.58	723.23307
268.113	685.15116
268.646	673.32672
269.178	696.2102
269.71	717.21559
270.243	631.15294
270.775	747.50041
271.307	704.34666
271.838	807.48566
272.37	693.35405
272.902	723.28216
273.433	702.18977
273.965	707.3586
274.496	695.37914
275.027	695.36695
275.558	716.36304
276.089	639.2466
276.62	739.48978
277.15	769.48292
277.681	720.20718
278.211	758.45293
278.741	702.18784
279.272	733.2858
279.802	729.4319
280.332	740.34539
280.861	718.34964
281.391	727.26457
281.921	733.37822
282.45	757.4772
282.98	780.58873
283.509	706.2231
284.038	724.26698
284.567	730.3218
285.096	748.39648
285.625	692.21149
286.153	697.26288
286.682	740.28758
287.21	741.36939
287.739	751.35472
288.267	725.35045
288.795	798.62764
289.323	800.39444
289.851	801.40979
290.378	838.38343
290.906	765.39903
291.433	782.48675
291.961	772.30167
292.488	842.57232
293.015	808.4099
293.542	755.45797
294.069	793.46422
294.596	838.5548
295.122	841.48113
295.649	823.32522
296.175	887.58026
296.702	823.48943
297.228	851.53396
297.754	876.41047
298.28	863.40792
298.806	861.50855
299.332	799.277
299.857	870.40156
300.383	888.65838
300.908	812.43926
301.433	844.49224
301.958	876.45915
302.483	837.52791
303.008	896.60826
303.533	911.74041
304.058	916.54021
304.582	906.50763
305.107	855.63326
305.631	910.46459
306.155	874.43588
306.679	926.50222
307.203	909.47082
307.727	900.50501
308.251	936.63302
308.775	867.44135
309.298	896.49421
309.822	970.71384
310.345	977.58128
310.868	934.54076
311.391	984.67291
311.914	923.61408
312.437	1012.54333
312.96	998.57239
313.482	999.58348
314.005	1048.7687
314.527	1027.84071
315.049	1020.75575
315.571	1039.46315
316.093	1052.72278
316.615	1023.61984
317.137	1030.41694
317.659	1148.7861
318.18	1107.72047
318.702	1074.58238
319.223	1081.33312
319.744	1089.50403
320.265	1116.68776
320.786	1134.74374
321.307	1179.81282
321.828	1208.60627
322.348	1164.64829
322.869	1177.64434
323.389	892.82329
323.909	1230.63365
324.43	1298.83284
324.95	1293.64627
325.47	1235.76343
325.989	1308.70738
326.509	1311.51739
327.029	1332.58045
327.548	1241.50369
328.067	1332.73209
328.587	1387.88559
329.106	1328.57563
329.625	1383.06598
330.144	1396.63124
330.662	1357.59949
331.181	1447.68262
331.7	1461.68171
332.218	1468.46281
332.736	1541.69975
333.255	1536.65841
333.773	1487.6742
334.291	1554.88772
334.808	1589.51546
335.326	1602.55133
335.844	1580.57113
336.361	1596.82492
336.879	1650.58041
337.396	1640.66808
337.913	1712.53323
338.43	1669.44535
338.947	1690.60488
339.464	1749.28049
339.981	1646.53196
340.497	1783.7165
341.014	1866.65228
341.53	1697.3544
342.046	1816.62338
342.562	1904.71529
343.078	1874.47668
343.594	1954.52252
344.11	1952.49043
344.626	1978.66549
345.141	1913.3063
345.657	2033.3112
346.172	1969.46543
346.687	1981.27894
347.202	1990.1854
347.717	2102.3721
348.232	2161.52477
348.747	2131.20054
349.261	2110.96248
349.776	2127.23828
350.29	2262.32012
350.805	2311.39415
351.319	2231.14944
351.833	2120.0155
352.347	2287.11368
352.861	2201.07395
353.374	2344.03847
353.888	2292.1804
354.401	2342.9604
354.915	2306.81414
355.428	2433.14972
355.941	2365.90602
356.454	2492.80072
356.967	2417.95878
357.48	2447.84251
357.993	2498.04453
358.505	2384.00145
359.018	2569.93907
359.53	2583.82508
360.042	2632.55177
360.554	2653.82751
361.066	2537.84254
361.578	2637.43094
362.09	2604.72619
362.602	2620.41747
363.113	2696.52896
363.625	2685.40508
364.136	2753.3038
364.647	2599.40905
365.158	2789.39497
365.669	2857.4497
366.18	2866.37054
366.691	2826.15988
367.201	2876.35739
367.712	2916.12532
368.222	2949.09982
368.733	2881.91608
369.243	2971.88429
369.753	3172.91146
370.263	3236.94379
370.773	3179.05142
371.282	3182.84772
371.792	3264.54009
372.301	3318.67365
372.811	3335.9031
373.32	3367.18855
373.829	3507.29555
374.338	3755.99585
374.847	3787.97706
375.356	3763.98541
375.865	3843.68726
376.373	4085.66452
376.882	4413.75456
377.39	4364.65144
377.898	4333.59025
378.407	4590.59212
378.915	4862.75403
379.423	5098.87893
379.93	5180.09253
380.438	5375.39206
380.946	5725.22022
381.453	5741.51153
381.96	6037.74399
382.468	6380.86046
382.975	6963.00378
383.482	7368.26355
383.989	7213.74114
384.495	7593.0584
385.002	7709.25623
385.509	8359.84895
386.015	8823.00455
386.521	9287.21743
387.028	9471.11066
387.534	9908.83636
388.04	10360.85075
388.546	10414.3858
389.051	10973.28051
389.557	11724.86168
390.063	13132.05973
390.568	13489.35662
391.073	13693.83727
391.578	14372.83842
392.084	14451.61439
392.589	14724.15563
393.093	15588.68809
393.598	16996.65691
394.103	18968.12769
394.607	20634.34822
395.112	22337.85685
395.616	23625.95858
396.12	25472.67105
396.624	27993.01697
397.128	30349.00156
397.632	34240.20543
398.136	36824.71363
398.639	35430.98488
399.143	32133.83166
399.646	28888.45294
400.15	25083.82847
400.653	20124.16724
401.156	13866.23708
401.659	5169.95759
402.162	1054.15589
402.664	0
403.167	0
403.67	0
404.172	0
404.674	0
405.176	0
405.678	0
406.18	0
406.682	0
407.184	0
407.686	0
408.187	0
408.688	0
409.19	0
409.691	0
410.192	0
410.693	0
411.194	435.30976
411.694	4082.94878
412.195	8864.71461
412.696	12089.80453
413.196	12760.96929
413.696	12863.67595
414.196	13703.56671
414.696	17261.84252
415.196	21764.24417
415.696	29583.19008
416.196	36460.31858
416.695	40057.39798
417.195	41392.74103
417.694	41613.08288
418.194	39672.9323
418.693	36150.87267
419.192	35086.54349
419.691	34678.97557
420.19	33908.31818
420.688	33560.586
421.187	32440.73994
421.685	30944.35047
422.184	28119.57234
422.682	24486.91876
423.18	20483.84836
423.678	17888.74022
424.176	16451.64766
424.674	15604.13451
425.172	14866.49137
425.669	14325.03495
426.167	13384.21681
426.664	12158.67721
427.161	11089.488
427.659	10178.96539
428.156	9444.86314
428.652	9011.27712
429.149	8486.0642
429.646	8261.34334
430.143	7941.89879
430.639	7301.18422
431.135	6873.42792
431.632	6564.4607
432.128	6091.63034
432.624	5634.52008
433.12	5315.44916
433.616	5306.37592
434.111	4898.8248
434.607	4856.70973
435.103	4745.6804
435.598	4657.62645
436.093	4526.60312
436.588	4320.62284
437.083	4120.71629
437.578	3947.85681
438.073	3562.17477
438.568	3569.33074
439.062	3396.12557
439.557	3385.47385
440.051	3180.49205
440.546	3023.61792
441.04	2951.85886
441.534	2951.11396
442.028	2863.05996
442.522	2774.11054
443.015	2706.92694
443.509	2731.29958
444.002	2613.36481
444.496	2494.12785
444.989	2553.46033
445.482	2507.54418
445.975	2410.2768
446.468	2477.1524
446.961	2313.24513
447.454	2390.39726
447.947	2281.55022
448.439	2285.7113
448.931	2200.48145
449.424	2305.8804
449.916	2219.78217
450.408	2079.58564
450.9	2091.81082
451.392	2014.98271
451.884	2096.73646
452.375	1904.96287
452.867	2004.78098
453.358	1889.75256
453.849	1833.63864
454.341	1834.79644
454.832	1818.69583
455.323	1786.03186
455.814	1843.91204
456.304	1751.93997
456.795	1690.93581
457.285	1740.9253
457.776	1778.01635
458.266	1606.06336
458.756	1658.14806
459.247	1537.07934
459.737	1561.09706
460.226	1533.97461
460.716	1445.12922
461.206	1545.1936
461.695	1425.30552
462.185	1486.17252
462.674	1457.13205
463.163	1386.03725
463.653	1415.93672
464.142	1310.20982
464.63	1434.33337
465.119	1268.12454
465.608	1218.11102
466.096	1348.07916
466.585	1336.22567
467.073	1253.28335
467.561	1229.28829
468.05	1281.25167
468.538	1242.37316
469.026	1155.26724
469.513	1173.02366
470.001	1115.14072
470.489	1087.21301
470.976	1104.20069
471.463	1062.34517
471.951	1116.4191
472.438	976.16815
472.925	957.14563
473.412	1028.34598
473.899	963.16374
474.385	933.26901
474.872	926.16108
475.359	871.20356
475.845	862.9431
476.331	835.0167
476.817	835.2013
477.303	802.08885
477.789	768.11794
478.275	757.15132
478.761	795.16563
479.247	752.01998
479.732	630.01047
480.218	700.18573
480.703	676.08878
481.188	631.84984
481.673	643.94609
482.158	557.75196
482.643	678.15831
483.128	653.95848
483.612	629.97383
484.097	591.99531
484.581	605.95258
485.066	545.91729
485.55	501.74956
486.034	499.73844
486.518	518.84358
487.002	509.8777
487.486	484.84503
487.969	427.75827
488.453	437.81681
488.936	415.67745
489.42	482.76203
489.903	469.8775
490.386	440.4918
490.869	472.74449
491.352	479.87585
491.835	379.57996
492.318	373.62973
492.8	435.65506
493.283	335.65903
493.765	365.68863
494.247	403.72047
494.73	395.65746
495.212	378.71054
495.694	314.56786
496.175	254.47179
496.657	323.60131
497.139	300.3998
497.62	260.48534
498.102	277.54673
498.583	262.52964
499.064	259.45487
499.545	274.49652
500.026	251.44754
500.507	293.54058
500.988	261.52532
501.469	254.5137
501.949	237.47943
502.43	190.36735
502.91	180.30063
503.39	236.48649
503.87	204.39082
504.35	240.46424
504.83	218.38658
505.31	180.36053
505.79	203.39841
506.269	235.45032
506.749	132.25092
507.228	165.32077
507.707	188.34258
508.187	200.39818
508.666	172.35153
509.145	153.29787
509.623	125.24718
510.102	177.35904
510.581	231.46408
511.059	109.23182
511.538	197.42973
512.016	195.3894
512.494	189.38566
512.972	141.28484
513.45	86.1685
513.928	169.34422
514.406	107.21744
514.884	107.23588
515.361	184.36991
515.839	101.19607
516.316	109.22424
516.793	156.33748
517.27	143.29684
517.747	115.25341
518.224	140.27626
518.701	117.22257
519.178	132.27859
519.654	151.3077
520.131	121.25723
520.607	141.30105
521.083	73.14435
521.56	88.17985
522.036	81.15409
522.512	126.2692
522.987	73.14977
523.463	65.13463
523.939	124.2632
524.414	108.21632
524.89	86.1776
525.365	115.22431
525.84	56.11554
526.315	85.17802
526.79	112.2182
527.265	82.1628
527.74	54.11552
528.215	87.17874
528.689	17.03322
529.164	87.1647
529.638	104.23412
530.112	41.08492
530.587	51.09489
531.061	65.13716
531.534	61.13058
532.008	58.12247
532.482	92.18487
532.956	40.08997
533.429	75.15986
533.903	74.14396
534.376	50.09746
534.849	104.21062
535.322	104.21458
535.795	94.20179
536.268	57.12096
536.741	69.14649
537.213	63.12873
537.686	40.08624
538.158	5.00995
538.631	82.17633
539.103	0
539.575	86.15743
540.047	72.1394
540.519	124.25952
540.991	49.10693
541.463	89.18994
541.934	28.05707
542.406	-25.05361
542.877	41.08214
543.348	106.22519
543.82	90.19512
544.291	106.21772
544.762	107.22151
545.233	91.20036
545.703	75.14532
546.174	108.21943
546.645	80.16655
547.115	117.24515
547.585	126.25144
548.056	102.21263
548.526	141.28392
548.996	203.41555
549.466	222.46134
549.935	167.33504
550.405	247.44793
550.875	219.43489
551.344	210.4251
551.814	257.49081
552.283	174.32077
552.752	192.37388
553.221	221.39588
553.69	266.48473
554.159	246.49935
554.628	222.40886
555.096	262.5498
555.565	245.4511
556.033	259.50952
556.502	231.47222
556.97	185.34936
557.438	173.35301
557.906	202.41266
558.374	166.33034
558.842	128.26813
559.31	116.22879
559.777	94.20057
560.245	122.25398
560.712	126.25822
561.18	94.18409
561.647	107.21208
562.114	114.22971
562.581	114.25021
563.048	141.28811
563.514	85.1862
563.981	105.21484
564.448	92.18478
564.914	141.29177
565.381	158.31867
565.847	164.34005
566.313	128.26588
566.779	154.30774
567.245	137.28527
567.711	176.37178
568.176	105.21046
568.642	155.34384
569.108	152.33094
569.573	216.44646
570.038	179.3314
570.504	205.40005
570.969	165.36587
571.434	169.32479
571.899	215.44609
572.363	209.41523
572.828	252.50007
573.293	244.48442
573.757	280.55174
574.222	186.36185
574.686	223.43146
575.15	240.49273
575.614	239.4735
576.078	213.43424
576.542	311.60259
577.006	262.50728
577.469	307.6529
577.933	236.45475
578.396	261.53597
578.86	278.56327
579.323	243.50013
579.786	214.40165
580.249	168.33587
580.712	247.52439
581.175	215.46282
581.637	288.57205
582.1	275.52137
582.563	270.50176
583.025	235.49499
583.487	195.3439
583.95	188.35302
584.412	279.50442
584.874	232.49072
585.336	208.43166
585.797	224.42208
586.259	251.51636
586.721	211.43329
587.182	261.53306
587.643	208.41546
588.105	185.38693
588.566	222.40968
589.027	184.38987
589.488	171.34592
589.949	208.44381
590.41	129.22345
590.87	194.39235
591.331	220.4178
591.791	184.37452
592.252	127.2588
592.712	190.40382
593.172	176.35073
593.632	269.51298
594.092	145.28875
594.552	203.38467
595.011	205.41241
595.471	189.37374
595.931	175.34557
596.39	181.38276
596.849	225.45891
597.308	219.41804
597.768	188.42199
598.227	198.42137
598.685	215.43612
599.144	190.39255
599.603	188.39417
600.062	168.31189
600.52	190.37298
600.978	195.40839
601.437	229.46006
601.895	225.41698
602.353	257.49677
602.811	230.44639
603.269	278.57642
603.727	255.53121
604.184	260.50654
604.642	260.55355
605.099	251.50682
605.557	300.63092
606.014	201.37902
606.471	222.48272
606.928	226.41915
607.385	321.66215
607.842	410.78246
608.299	518.98621
608.755	398.8053
609.212	380.70726
609.668	396.72753
610.125	444.89466
610.581	479.95032
611.037	430.8286
611.493	410.82198
611.949	314.65106
612.405	324.55457
612.861	389.78366
613.316	330.67872
613.772	345.68127
614.227	339.68828
614.683	391.71454
615.138	339.68325
615.593	353.70525
616.048	334.66373
616.503	402.84802
616.958	401.85946
617.412	368.75005
617.867	320.61277
618.321	369.65831
618.776	389.7404
619.23	371.75325
619.684	437.84391
620.138	410.82274
620.592	409.8573
621.046	386.78853
621.5	338.72148
621.954	403.78871
622.407	379.73717
622.861	349.74608
623.314	381.75977
623.768	319.6595
624.221	314.54902
624.674	336.68608
625.127	336.69823
625.58	367.7424
626.033	315.62524
626.485	270.58333
626.938	297.6374
627.39	320.66824
627.843	278.58389
628.295	304.63511
628.747	312.66974
629.199	243.50711
629.651	236.49305
630.103	271.5673
630.555	267.51857
631.006	237.51391
631.458	211.4628
631.909	241.515
632.361	255.55034
632.812	197.4259
633.263	277.55135
633.714	211.42468
634.165	216.491
634.616	148.3348
635.067	249.51733
635.518	178.40283
635.968	223.42278
636.419	206.42408
636.869	179.40501
637.319	184.40401
637.769	163.34817
638.219	252.56633
638.669	124.28473
639.119	166.38758
639.569	165.38077
640.019	179.39642
640.468	173.37081
640.918	193.44432
641.367	176.37912
641.816	148.32004
642.265	121.27188
642.714	148.33098
643.163	160.35501
643.612	102.23787
644.061	133.27337
644.51	110.24437
644.958	137.29251
645.406	118.27453
645.855	201.47214
646.303	185.41688
646.751	105.23361
647.199	130.28821
647.647	157.34987
648.095	131.29254
648.543	208.41121
648.99	147.34072
649.438	175.39853
649.885	127.30657
650.333	116.22212
650.78	91.21593
651.227	141.3338
651.674	160.35442
652.121	150.35503
652.568	104.24778
653.015	170.41709
653.461	134.31127
653.908	146.33229
654.354	149.34741
654.801	126.28944
655.247	144.31032
655.693	168.42511
656.139	130.30555
656.585	117.27602
657.031	61.14122
657.477	70.15072
657.922	107.24309
658.368	140.33865
658.813	166.37812
659.259	113.2672
659.704	126.28898
660.149	113.26005
660.594	138.32195
661.039	111.25033
661.484	115.27193
661.929	125.28881
662.373	103.2565
662.818	136.3317
663.262	95.22681
663.707	95.23847
664.151	113.27329
664.595	124.29531
665.039	122.30011
665.483	76.19252
665.927	134.31225
666.371	29.06759
666.814	126.29823
667.258	66.1561
667.701	154.32973
668.145	157.38484
668.588	116.2825
669.031	84.19713
669.474	117.27987
669.917	115.25458
670.36	107.26384
670.803	177.42031
671.245	83.17652
671.688	135.32662
672.13	69.15574
672.573	147.36912
673.015	105.25165
673.457	104.2272
673.899	134.32243
674.341	122.293
674.783	87.20882
675.225	118.28866
675.666	66.15929
676.108	68.14962
676.549	120.28381
676.991	55.12308
677.432	73.14774
677.873	107.24811
678.314	112.26724
678.755	100.24336
679.196	64.14814
679.637	114.27836
680.078	89.20972
680.518	133.30974
680.959	55.13317
681.399	81.20157
681.839	93.22704
682.28	72.17855
682.72	84.19374
683.16	89.22204
683.6	108.2477
684.039	56.11913
684.479	84.20694
684.919	39.09122
685.358	99.25145
685.798	76.1996
686.237	167.40038
686.676	148.3427
687.115	51.12158
687.554	105.25011
687.993	78.17487
688.432	59.13681
688.871	109.24833
689.309	68.164
689.748	97.20558
690.186	161.38217
690.625	41.09766
691.063	79.19092
691.501	105.26005
691.939	98.2448
692.377	84.2061
692.815	83.19983
693.253	117.2819
693.69	91.20221
694.128	50.12259
694.565	135.32144
695.003	96.24413
695.44	109.25704
695.877	81.19079
696.314	108.23464
696.751	139.31745
697.188	122.28081
697.625	153.35083
698.061	103.24798
698.498	158.38017
698.934	105.25385
699.371	69.16417
699.807	91.21685
700.243	95.22976
700.679	87.19925
701.115	97.23026
701.551	128.30179
701.987	98.2226
702.422	103.24563
702.858	98.23474
703.294	128.29086
703.729	132.32243
704.164	98.23706
704.599	100.22474
705.035	49.11164
705.47	66.16206
705.904	93.21821
706.339	137.31905
706.774	114.26784
707.209	83.19322
707.643	126.30261
708.078	96.23484
708.512	50.12634
708.946	130.31162
709.38	115.2733
709.814	62.14396
710.248	97.2376
710.682	94.2249
711.116	52.12555
711.549	145.3718
711.983	65.15221
712.416	145.34207
712.85	138.34272
713.283	66.15809
713.716	156.38939
714.149	145.34486
714.582	86.19526
715.015	143.35662
715.448	117.29485
715.881	185.40201
716.313	96.22643
716.746	138.3241
717.178	76.18433
717.61	135.34106
718.043	143.35481
718.475	114.2768
718.907	136.34328
719.339	61.14021
719.77	66.15809
720.202	112.28321
720.634	86.21038
721.065	117.27784
721.497	139.33946
721.928	105.25824
722.359	82.19888
722.79	95.22846
723.221	136.34107
723.652	158.40449
724.083	98.2226
724.514	139.31898
724.945	76.18037
725.375	97.22617
725.806	146.36272
726.236	152.38667
726.666	125.29603
727.096	120.29442
727.526	123.31152
727.956	87.19941
728.386	132.32423
728.816	108.27319
729.246	96.23406
729.675	72.17849
730.105	123.30251
730.534	128.29944
730.964	161.40369
731.393	148.36594
731.822	111.28343
732.251	136.34353
732.68	159.37262
733.109	170.41462
733.537	71.17294
733.966	107.26598
734.395	92.21396
734.823	147.33098
735.251	82.19888
735.68	177.43852
736.108	137.345
736.536	131.30868
736.964	86.20111
737.392	159.39451
737.82	121.29043
738.247	118.28285
738.675	171.40512
739.102	132.3283
739.53	122.30959
739.957	111.28512
740.384	163.39896
740.811	162.40686
741.238	96.23511
741.665	113.26244
742.092	145.34486
742.519	97.2405
742.945	114.27389
743.372	115.28451
743.798	152.38749
744.225	138.32688
744.651	116.29071
745.077	141.34959
745.503	160.38717
745.929	116.27838
746.355	198.48525
746.781	125.30902
747.207	56.13286
747.632	53.1305
748.058	172.42434
748.483	169.38565
748.908	119.29516
749.334	134.3278
749.759	85.20169
750.184	115.27382
750.609	145.35424
751.033	217.50375
751.458	136.30477
751.883	113.27997
752.307	147.34396
752.732	112.27916
753.156	121.29814
753.58	160.37709
754.005	178.44607
754.429	124.291
754.853	164.40193
755.277	157.36865
755.7	180.44065
756.124	116.28724
756.548	131.3094
756.971	174.41994
757.394	169.43015
757.818	164.4172
758.241	135.34045
758.664	146.36575
759.087	77.1733
759.51	126.31246
759.933	112.26929
760.356	108.27649
760.778	145.35398
761.201	125.30334
761.623	146.3521
762.046	134.31704
762.468	125.2998
762.89	147.36033
763.312	186.44771
763.734	86.20795
764.156	93.23016
764.578	148.33862
765	146.3537
765.421	71.18104
765.843	139.36164
766.264	162.38773
766.686	122.30541
767.107	99.24025
767.528	80.20244
767.949	75.19151
768.37	135.32945
768.791	97.23522
769.212	70.17657
769.632	70.16427
770.053	96.25255
770.473	126.30525
770.894	127.31661
771.314	136.32339
771.734	87.20365
772.154	133.33924
772.575	97.22554
772.994	61.13993
773.414	158.37584
773.834	51.12857
774.254	104.25441
774.673	105.25567
775.093	84.20831
775.512	72.17816
775.931	124.31266
776.351	63.15735
776.77	20.04958
777.189	81.19346
777.607	60.15404
778.026	79.1973
778.445	22.05571
778.864	102.26113
779.282	27.06584
779.701	42.10681
780.119	24.06134
780.537	74.18519
780.955	92.23405
781.373	38.09492
781.791	9.0206
782.209	130.29803
782.627	30.07972
783.045	69.15968
783.462	50.12855
783.88	38.09906
784.297	56.14166
784.715	30.07772
785.132	26.06372
785.549	20.05063
785.966	41.10395
786.383	25.06221
786.8	49.11488
787.217	53.12659
787.633	25.06305
788.05	98.23276
788.466	41.09774
788.883	16.04126
789.299	41.09965
789.715	49.11998
790.131	77.19175
790.547	24.0606
790.963	59.14714
791.379	66.16731
791.795	79.18086
792.21	20.04741
792.626	13.0313
793.041	26.06485
793.457	55.13667
793.872	37.08786
794.287	-3.00728
794.702	56.13872
795.117	15.03771
795.532	39.09843
795.947	18.0439
796.362	75.17961
796.776	64.15078
797.191	0
797.605	-36.08646
798.02	37.0908
798.434	64.14336
798.848	27.06714
799.262	8.0201
799.676	54.13249
800.09	66.16283
800.504	16.03932
800.918	49.11434
801.331	65.17074
801.745	22.05119
802.158	0
802.572	69.16782
802.985	74.17921
803.398	27.06508
803.811	70.18022
804.224	42.10526
804.637	13.03137
805.05	28.06563
805.462	29.07193
805.875	4.01049
806.288	-3.00735
806.7	21.0533
807.112	2.00471
807.525	58.14368
807.937	-14.03517
808.349	53.13333
808.761	29.07198
809.173	40.09763
809.584	43.10697
809.996	16.03961
810.408	-17.04453
810.819	58.13696
811.231	61.15784
811.642	95.2256
812.053	185.43066
812.464	209.48422
812.875	196.48994
813.286	135.34361
813.697	99.23074
814.108	65.15916
814.519	33.0743
814.929	101.25635
815.34	77.18672
815.75	25.06404
816.16	40.10032
816.571	42.10963
816.981	34.08097
817.391	38.09241
817.801	7.01759
818.211	42.10079
818.62	27.06557
819.03	48.11821
819.44	79.20603
819.849	68.17146
820.259	54.13864
820.668	52.12834
821.077	22.05512
821.486	51.12339
821.895	45.11178
822.304	30.07999
822.713	12.02871
823.122	27.06792
823.531	14.03357
823.939	16.03939
824.348	68.16548
824.756	18.04552
825.164	70.17619
825.573	38.09588
825.981	46.11462
826.389	48.12107
826.797	21.05306
827.205	0
827.612	38.09434
828.02	-14.03342
828.428	54.13786
828.835	17.04511
829.243	46.11018
829.65	28.07012
830.057	41.10006
830.464	30.07363
830.871	79.1889
831.278	31.07548
831.685	8.0181
832.092	64.15685
832.499	12.02659
832.905	30.07645
833.312	19.04381
833.718	32.08025
834.124	5.01158
834.531	61.15395
834.937	56.14397
835.343	43.10427
835.749	45.10567
836.155	42.11038
836.561	34.08413
836.966	51.12511
837.372	40.10226
837.777	54.13479
838.183	16.03599
838.588	22.05506
838.993	31.07599
839.399	-9.02231
839.804	-19.04702
840.209	19.04874
840.613	-24.05443
841.018	28.07136
841.423	52.13364
841.828	-17.04361
842.232	100.24617
842.637	26.06183
843.041	6.01553
843.445	21.05307
843.849	47.1167
844.253	34.08132
844.657	1.00255
845.061	4.00919
845.465	6.01465
845.869	-12.02832
846.272	-12.02963
846.676	53.12847
847.079	15.03845
847.483	53.13247
847.886	30.07347
848.289	56.14951
848.692	25.06372
849.095	46.11085
849.498	75.18968
849.901	47.10821
850.304	22.053
850.707	37.09474
851.109	61.15439
851.512	33.08152
851.914	-7.01785
852.316	-3.00767
852.718	-59.1554
853.121	16.03953
853.523	30.07057
853.925	11.02892
854.326	-2.00506
854.728	22.05694
855.13	12.03119
855.531	-10.02422
855.933	39.09404
856.334	33.08266
856.736	8.01812
857.137	7.01645
857.538	-11.028
857.939	16.03984
858.34	18.04421
858.741	30.07879
859.142	24.05806
859.542	2.00533
859.943	31.07742
860.343	-29.07295
860.744	22.05406
861.144	19.0467
861.544	-20.04878
861.945	9.02313
862.345	46.11278
862.745	-10.02516
863.145	81.19287
863.544	3.00765
863.944	6.01432
864.344	68.16863
864.743	68.16845
865.143	22.05686
865.542	15.0351
865.941	16.03991
866.34	44.10571
866.74	52.13965
867.139	-9.02182
867.537	21.05385
867.936	-15.03661
868.335	-19.04899
868.734	37.09488
869.132	3.00705
869.531	54.13072
869.929	-22.05096
870.327	20.04829
870.726	28.0702
871.124	34.07985
871.522	-7.01803
871.92	28.06944
872.318	-8.0198
872.715	63.1558
873.113	33.08077
873.511	19.04766
873.908	-57.14677
874.306	10.02508
874.703	48.12029
875.1	66.16856
875.497	14.03384
875.894	-14.03474
876.291	17.04203
876.688	-1.0026
877.085	7.01696
877.482	-14.03549
877.878	-17.04149
878.275	6.01538
878.671	27.06052
879.068	18.04377
879.464	9.02195
879.86	-18.04318
880.256	27.06699
880.652	42.10707
881.048	27.06726
881.444	9.02162
881.84	24.06134
882.236	6.01522
882.631	32.07889
883.027	8.01955
883.422	22.05658
883.817	-9.02288
884.213	31.07988
884.608	-3.00744
885.003	-2.00487
885.398	-2.00506
885.793	38.09568
886.188	15.03756
886.582	97.24698
886.977	36.08577
887.371	0
887.766	-1.00251
888.16	19.04773
888.554	19.0473
888.949	69.17283
889.343	18.04428
889.737	-9.02423
890.131	20.05048
890.525	39.1
890.918	31.07835
891.312	14.03376
891.706	42.11042
892.099	26.06649
892.492	42.0909
892.886	-11.02724
893.279	18.04615
893.672	47.1198
894.065	51.12779
894.458	40.10086
894.851	80.19512
895.244	9.02317
895.637	45.10859
896.029	31.07613
896.422	7.01725
896.814	17.04255
897.206	-10.02411
897.599	55.13602
897.991	41.09938
898.383	0
898.775	-16.03664
899.167	-46.10938
899.559	40.10151
899.951	73.17148
900.342	34.08677
900.734	-21.05281
901.125	39.10258
901.517	62.15195
901.908	63.15082
902.299	-5.01236
902.69	15.03566
903.082	26.0633
903.473	-21.051
903.863	28.07176
904.254	13.03042
904.645	10.02507
905.036	-20.04909
905.426	45.10323
905.817	31.07638
906.207	-6.01446
906.597	6.01416
906.987	80.20639
907.378	2.0051
907.768	20.05317
908.158	20.04907
908.547	-5.01304
908.937	28.07216
909.327	5.01225
909.717	60.15215
910.106	13.03146
910.495	45.11251
910.885	27.0687
911.274	15.03775
911.663	38.09671
912.052	54.13323
912.441	26.06642
912.83	10.02316
913.219	22.05788
913.608	11.02715
913.997	3.00759
914.385	57.13609
914.774	2.00492
915.162	-19.0459
915.55	12.02926
915.939	-25.06397
916.327	41.10255
916.715	-22.0568
917.103	78.19109
917.491	49.12131
917.878	19.04701
918.266	27.07032
918.654	24.06162
919.041	21.05511
919.429	1.00238
919.816	34.08647
920.203	22.05366
920.591	16.03994
920.978	31.07622
921.365	36.09471
921.752	18.0432
922.139	15.03283
922.525	19.04592
922.912	20.04907
923.299	19.04751
923.685	21.05507
924.072	28.06489
924.458	17.04238
924.844	-6.015
925.231	34.07942
925.617	-7.01799
926.003	48.12276
926.389	25.06336
926.774	2.00511
927.16	16.04
927.546	-1.00258
927.931	47.11738
928.317	20.04637
928.702	24.05709
929.088	-27.06483
929.473	62.15745
929.858	-54.13313
930.243	7.01694
930.628	-4.00983
931.013	0
931.398	24.05551
931.783	55.14472
932.167	7.01725
932.552	50.12531
932.937	29.07227
933.321	-22.05593
933.705	30.07591
934.09	47.11887
934.474	26.06206
934.858	7.01829
935.242	-23.05409
935.626	3.00774
936.009	36.09598
936.393	10.02563
936.777	-1.00258
937.16	35.09131
937.544	14.03323
937.927	-9.02308
938.311	21.05155
938.694	62.16366
939.077	-11.02664
939.46	40.09843
939.843	25.05247
940.226	39.10025
940.609	-14.03256
940.991	3.0077
941.374	32.07849
941.757	38.09399
942.139	15.03394
942.522	36.08534
942.904	-9.02188
943.286	39.0993
943.668	-6.01569
944.05	-1.00249
944.432	25.06199
944.814	22.05448
945.196	-44.10912
945.578	-15.0361
945.959	28.06592
946.341	49.12034
946.722	-18.04282
947.104	-39.09482
947.485	-7.01648
947.866	-14.03568
948.247	20.05074
948.628	20.04907
949.009	38.09753
949.39	21.05256
949.771	6.01408
950.152	7.01732
950.532	-67.16836
950.913	34.08228
951.293	2.00545
951.674	11.0268
952.054	-4.01001
952.434	-33.08316
952.814	21.05025
953.194	35.09184
953.574	57.14024
953.954	15.03587
954.334	6.01507
954.714	-38.09413
955.093	37.0912
955.473	-43.10933
955.853	-1.00261
956.232	22.06057
956.611	46.11043
956.99	-10.0254
957.37	30.07672
957.749	-7.01689
958.128	4.01016
958.506	-17.04461
958.885	6.01526
959.264	-19.04716
959.643	12.02752
960.021	21.05232
960.4	-1.00229
960.778	40.09872
961.156	1.00253
961.535	4.00941
961.913	5.0118
962.291	-15.03892
962.669	24.06108
963.047	45.11495
963.424	-2.00515
963.802	35.0863
964.18	69.17401
964.557	26.06018
964.935	-7.01677
965.312	27.07059
965.69	19.04785
966.067	17.04166
966.444	38.09386
966.821	56.14422
967.198	33.08032
967.575	39.0961
967.952	58.13649
968.329	20.04894
968.705	1.00217
969.082	0
969.458	-19.04618
969.835	29.07088
970.211	15.03873
970.587	32.07994
970.963	51.13082
971.339	20.05249
971.715	32.08017
972.091	17.04212
972.467	56.13953
972.843	-16.04018
973.219	30.07232
973.594	-13.03437
973.97	50.11903
974.345	-21.05094
974.721	39.09464
975.096	4.00976
975.471	41.09744
975.846	12.02904
976.221	43.10933
976.596	7.01692
976.971	43.1063
977.346	39.09101
977.72	24.06142
978.095	21.05454
978.469	5.01204
978.844	84.20991
979.218	-34.0828
979.593	21.0506
979.967	26.06363
980.341	31.07165
980.715	29.07335
981.089	-3.00758
981.463	2.00464
981.837	-12.02966
982.21	51.11868
982.584	-13.03177
982.957	-9.02271
983.331	38.09005
983.704	-18.04478
984.078	-7.01743
984.451	47.11747
984.824	-34.0841
985.197	29.07072
985.57	33.08302
985.943	-5.01247
986.316	4.00991
986.688	-5.01218
987.061	13.03069
987.434	36.09403
987.806	38.09237
988.179	21.04983
988.551	49.12433
988.923	24.05939
989.295	31.07773
989.667	-34.08252
990.039	1.00249
990.411	-15.03497
990.783	-13.03031
991.155	-18.0438
991.527	78.19109
991.898	0
992.27	-39.09804
992.641	34.08555
993.012	49.11533
993.384	-19.04592
993.755	34.08692
994.126	1.00243
994.497	-27.06721
994.868	36.08293
995.239	23.05602
995.61	-11.02798
995.98	-30.07396
996.351	15.03738
996.722	-17.03995
997.092	-14.03356
997.462	-21.04973
997.833	23.05481
998.203	13.03174
998.573	16.04008
998.943	4.00946
999.313	-28.06809
999.683	20.04827
1000.053	2.00465
1000.423	-4.00982
1000.792	30.07801
1001.162	-10.02488
1001.531	23.05699
1001.901	-1.00252
1002.27	14.03153
1002.639	-5.0129
1003.009	-10.02405
1003.378	26.06675
1003.747	-5.01194
1004.116	-41.0998
1004.485	41.09815
1004.853	46.11661
1005.222	-15.03826
1005.591	41.09751
1005.959	-43.09872
1006.328	-12.02735
1006.696	-26.0636
1007.064	-6.01524
1007.433	46.11503
1007.801	33.08125
1008.169	30.07602
1008.537	7.01564
1008.905	-41.09721
1009.273	39.09652
1009.64	-37.08972
1010.008	-2.00481
1010.375	54.13102
1010.743	36.08336
1011.11	26.0618
1011.478	39.0967
1011.845	5.01186
1012.212	-15.0344
1012.579	3.00743
1012.946	19.04548
1013.313	-7.01684
1013.68	-12.02731
1014.047	-18.04344
1014.414	-27.06471
1014.78	15.0375
1015.147	50.1209
1015.513	-4.00973
1015.88	28.07186
1016.246	46.11362
1016.612	27.06209
1016.978	30.07377
1017.344	28.06946
1017.71	43.10498
1018.076	45.1062
1018.442	53.13624
1018.808	19.04775
1019.174	32.08051
1019.539	48.11053
1019.905	20.04743
1020.27	-5.01246
1020.636	43.10321
1021.001	-15.03635
1021.366	-33.08047
1021.731	41.10557
1022.096	-26.06645
1022.461	-5.01196
1022.826	34.08104
1023.191	19.05009
1023.556	7.01654
1023.92	58.14236
1024.285	54.13166
1024.649	22.05418
1025.014	35.08691
1025.378	10.02531
1025.742	36.0896
1026.107	3.00685
1026.471	28.06563
1026.835	26.06471
1027.199	-11.02677
1027.562	0
1027.926	0
1028.29	5.01275
1028.654	-10.02328
1029.017	18.04449
1029.381	-1.00241
1029.744	19.0487
1030.107	16.03809
1030.471	-11.02663
1030.834	22.05032
1031.197	41.0989
1031.56	9.0214
1031.923	19.04937
1032.286	39.09176
1032.648	42.10056
1033.011	5.01158
1033.374	25.05902
1033.736	2.0053
1034.099	29.07093
1034.461	-34.08714
1034.823	2.00502
1035.185	44.11083
1035.548	-35.0865
1035.91	15.03616
1036.272	3.00689
1036.634	30.07363
1036.995	15.03548
1037.357	-33.08149
1037.719	25.06106
1038.08	30.07147
1038.442	-4.00959
1038.803	1.00242
1039.165	29.07342
1039.526	8.01948
1039.887	15.03611
1040.248	-26.06492
1040.609	40.09898
1040.97	30.07355
1041.331	20.05088
1041.692	-54.12856
1042.053	15.03438
1042.413	25.05852
1042.774	45.10949
1043.134	21.05025
1043.495	-13.03303
1043.855	-17.04173
1044.215	-16.04017
1044.576	-23.05573
1044.936	35.08045
1045.296	43.10739
1045.656	14.03457
1046.016	55.13257
1046.375	15.03661
1046.735	-13.02983
1047.095	39.09144
1047.454	20.04264
1047.814	18.04351
1048.173	1.00241
1048.533	-3.00694
1048.892	-25.06083
1049.251	44.11051
1049.61	-30.07491
1049.969	8.019
1050.328	-5.01096
1050.687	25.06108
1051.046	-16.03942
1051.405	35.08726
1051.763	-45.10538
1052.122	-13.03277
1052.48	29.07135
1052.839	-29.06924
1053.197	-7.01665
1053.555	49.11168
1053.914	33.08092
1054.272	7.01705
1054.63	-42.10438
1054.988	-37.08932
1055.345	-1.00218
1055.703	18.04356
1056.061	3.00778
1056.419	14.03644
1056.776	25.06087
1057.134	16.03727
1057.491	9.02269
1057.848	13.03256
1058.206	10.02369
1058.563	24.05316
1058.92	31.07168
1059.277	8.01988
1059.634	7.0166
1059.991	56.13393
1060.348	-27.06194
1060.704	-19.04585
1061.061	46.1069
1061.418	-15.0368
1061.774	3.00747
1062.131	-18.0481
1062.487	-2.00472
1062.843	6.01507
1063.199	-9.02261
1063.555	13.03032
1063.911	12.0305
1064.267	43.08978
1064.623	1.00245
1064.979	54.12776
1065.335	24.05762
1065.691	17.04098
1066.046	15.03321
1066.402	-25.05763
1066.757	13.03301
1067.112	18.04441
1067.468	-45.10814
1067.823	30.07235
1068.178	22.05346
1068.533	27.06569
1068.888	26.06237
1069.243	-6.01495
1069.598	11.0269
1069.952	-51.11713
1070.307	-24.06017
1070.662	-10.024
1071.016	-12.02721
1071.371	20.04574
1071.725	-9.02176
1072.079	25.06037
1072.434	-36.08882
1072.788	-35.08465
1073.142	81.19797
1073.496	-13.03119
1073.85	-5.01171
1074.203	53.12842
1074.557	-12.03222
1074.911	30.07183
1075.265	7.0164
1075.618	15.03684
1075.971	-12.02886
1076.325	-6.01539
1076.678	-56.1307
1077.031	-23.05278
1077.385	51.11224
1077.738	-33.0757
1078.091	-44.10189
1078.444	50.11601
1078.796	-6.01486
1079.149	47.11687
1079.502	22.05221
1079.855	-15.0354
1080.207	36.08885
1080.56	-10.02609
1080.912	0
1081.264	21.05081
1081.617	24.05873
1081.969	-4.01018
1082.321	7.01722
1082.673	-33.07652
1083.025	-17.04082
1083.377	-208.4709
1083.728	5.01176
1084.08	4.01006
1084.432	0
1084.783	17.04006
1085.135	-30.07621
1085.486	-7.01619
1085.838	25.0618
1086.189	-20.04914
1086.54	38.09088
1086.891	-6.01531
1087.242	2.00491
1087.593	46.11199
1087.944	9.02052
1088.295	6.01375
1088.646	46.11148
1088.996	-23.05613
1089.347	19.04685
1089.698	-50.12036
1090.048	17.04437
1090.398	8.01869
1090.749	10.02409
1091.099	-7.01777
1091.449	21.05254
1091.799	15.03776
1092.149	-40.09909
1092.499	-21.05186
1092.849	-8.02052
1093.199	42.10533
1093.548	28.0675
1093.898	-4.0101
1094.248	11.02843
1094.597	10.02568
1094.947	33.0882
1095.296	-2.00498
1095.645	38.09895
1095.994	23.05548
1096.343	3.00761
1096.692	-15.0398
1097.041	-11.03005
1097.39	24.06043
1097.739	10.02615
1098.088	68.18148
1098.437	-16.04246
1098.785	37.09987
1099.134	46.12212
1099.482	52.14284
1099.83	14.03698
1100.179	-12.0316
1100.527	30.07991
1100.875	-10.02668
1101.223	14.03736
1101.571	-1.00278
1101.919	-34.09002
1102.267	20.05651
1102.615	5.01607
1102.962	17.05469
1103.31	1.00321
1103.658	21.06756
