Data from N2 R9 sample 3_Subt2__3__19-16-47-755.txt Node

Date: Fri Aug 29 19:16:47 PDT 2025
User: uwsun
Spectrometer: HDX01956
Trigger mode: 0
Integration Time (sec): 5.000000E-1
Scans to average: 1
Nonlinearity correction enabled: true
Boxcar width: 0
Storing dark spectrum: false
XAxis mode: Wavelengths
Number of Pixels in Spectrum: 2068
>>>>>Begin Spectral Data<<<<<
194.03	249.67182
194.578	273.83369
195.127	246.7422
195.676	280.84359
196.225	303.76267
196.773	303.79011
197.321	471.1622
197.87	627.36899
198.418	531.16549
198.966	567.24358
199.513	545.13695
200.061	541.15107
200.609	636.41353
201.156	514.93108
201.704	582.21937
202.251	566.26299
202.798	593.28757
203.345	630.28983
203.892	608.27
204.438	650.2714
204.985	572.11277
205.532	629.37337
206.078	632.27584
206.624	608.229
207.17	654.23335
207.716	641.26887
208.262	650.01723
208.808	585.18433
209.354	615.22754
209.899	694.43963
210.445	606.23895
210.99	634.24415
211.535	678.2912
212.08	623.18657
212.625	659.35507
213.17	684.41949
213.715	513.9423
214.259	646.22717
214.804	698.40541
215.348	605.13714
215.892	613.21278
216.436	652.23438
216.98	695.23432
217.524	583.1404
218.068	655.36075
218.612	654.36078
219.155	620.19888
219.698	591.16864
220.242	593.24108
220.785	528.03921
221.328	563.18236
221.871	594.26921
222.414	502.07096
222.956	544.09741
223.499	536.00943
224.041	641.23216
224.583	593.06097
225.126	540.99515
225.668	513.05681
226.21	541.15057
226.751	553.99997
227.293	538.03358
227.835	506.04821
228.376	574.10871
228.918	603.27818
229.459	511.07817
230	586.16009
230.541	549.06008
231.082	552.12327
231.622	550.06176
232.163	522.06646
232.704	566.17482
233.244	546.1403
233.784	591.21397
234.324	472.86937
234.864	511.97454
235.404	575.14279
235.944	567.12424
236.484	617.28227
237.023	524.03907
237.563	569.08773
238.102	548.0827
238.641	589.2452
239.18	558.07929
239.719	524.11363
240.258	555.03581
240.797	541.0806
241.335	617.24979
241.874	589.90808
242.412	604.19523
242.95	492.98956
243.488	599.12142
244.026	586.10812
244.564	549.92654
245.102	582.0694
245.64	601.20011
246.177	583.07205
246.715	606.20143
247.252	595.1238
247.789	630.94655
248.326	525.0481
248.863	571.021
249.4	572.06998
249.936	544.91435
250.473	554.06591
251.009	533.00844
251.546	566.01907
252.082	629.10875
252.618	570.03522
253.154	607.19024
253.69	541.00414
254.226	610.18796
254.761	585.0698
255.297	594.04992
255.832	594.14796
256.367	652.23799
256.903	585.03963
257.438	629.19976
257.972	589.0641
258.507	559.04277
259.042	595.04158
259.576	553.96124
260.111	623.16644
260.645	641.10641
261.179	616.15928
261.713	550.99835
262.247	595.11501
262.781	617.02363
263.315	611.21503
263.849	643.30134
264.382	681.24512
264.915	619.16408
265.449	598.17339
265.982	672.21471
266.515	618.22012
267.048	595.00228
267.58	651.13148
268.113	628.07153
268.646	615.22868
269.178	614.09044
269.71	609.06223
270.243	647.17747
270.775	619.27957
271.307	637.23799
271.838	658.25609
272.37	659.29786
272.902	673.20878
273.433	612.06213
273.965	641.2511
274.496	617.24637
275.027	614.23037
275.558	674.29602
276.089	589.1625
276.62	670.37185
277.15	633.26002
277.681	647.10611
278.211	679.32602
278.741	601.04438
279.272	640.14967
279.802	616.24178
280.332	652.21152
280.861	686.2995
281.391	579.046
281.921	717.35338
282.45	743.45464
282.98	691.43563
283.509	700.2146
284.038	637.13988
284.567	705.28455
285.096	659.25709
285.625	673.18402
286.153	672.22523
286.682	715.25218
287.21	690.29118
287.739	728.32085
288.267	673.26956
288.795	703.46449
289.323	687.23271
289.851	707.27453
290.378	697.195
290.906	666.24803
291.433	760.45256
291.961	680.17483
292.488	703.35739
293.015	748.32557
293.542	691.3546
294.069	706.3316
294.596	753.42631
295.122	744.34309
295.649	757.24139
296.175	740.36788
296.702	814.47648
297.228	800.4606
297.754	745.24342
298.28	681.16688
298.806	772.38381
299.332	850.33912
299.857	761.26325
300.383	895.66859
300.908	674.23695
301.433	780.40177
301.958	833.40368
302.483	751.40036
303.008	829.51327
303.533	829.61486
304.058	885.50047
304.582	754.30646
305.107	786.52626
305.631	881.42937
306.155	840.39287
306.679	786.32462
307.203	775.30072
307.727	826.40885
308.251	833.49225
308.775	796.3488
309.298	795.36202
309.822	866.57101
310.345	954.55389
310.868	894.49086
311.391	935.6103
311.914	851.51598
312.437	897.41386
312.96	903.46108
313.482	885.44797
314.005	962.6609
314.527	905.67228
315.049	936.64674
315.571	914.33725
316.093	1008.67063
316.615	992.58448
317.137	920.30981
317.659	1024.64976
318.18	1022.62705
318.702	977.48132
319.223	942.21765
319.744	975.39511
320.265	1046.61432
320.786	1042.64487
321.307	1073.70035
321.828	1055.47268
322.348	1058.54728
322.869	1038.51321
323.389	828.78559
323.909	1104.52637
324.43	1173.72031
324.95	1126.51414
325.47	1153.68768
325.989	1114.54723
326.509	1159.41523
327.029	1252.5275
327.548	1145.43384
328.067	1200.62836
328.587	1287.80516
329.106	1184.4765
329.625	1304.99405
330.144	1230.52276
330.662	1233.51741
331.181	1255.5601
331.7	1281.57058
332.218	1274.36911
332.736	1332.58389
333.255	1295.52641
333.773	1292.55906
334.291	1357.76086
334.808	1409.44428
335.326	1420.47782
335.844	1450.51707
336.361	1465.75429
336.879	1490.52129
337.396	1470.59544
337.913	1456.44933
338.43	1623.43397
338.947	1577.5674
339.464	1538.24574
339.981	1568.50703
340.497	1625.6652
341.014	1644.59609
341.53	1569.32762
342.046	1607.56627
342.562	1723.67206
343.078	1685.44628
343.594	1713.4879
344.11	1730.46246
344.626	1751.62438
345.141	1735.29521
345.657	1854.31178
346.172	1783.44789
346.687	1771.27433
347.202	1823.19047
347.717	1927.37549
348.232	1914.51924
348.747	1883.21867
349.261	1842.99976
349.776	1891.25281
350.29	1927.34453
350.805	2019.41878
351.319	1993.18223
351.833	1977.03787
352.347	2015.15824
352.861	2034.10167
353.374	2146.08301
353.888	2036.21879
354.401	2121.01382
354.915	2083.87389
355.428	2156.20789
355.941	2167.95914
356.454	2296.86613
356.967	2186.02021
357.48	2193.91848
357.993	2263.10787
358.505	2224.04266
359.018	2262.03229
359.53	2374.89848
360.042	2402.64716
360.554	2362.9307
361.066	2270.92891
361.578	2316.56725
362.09	2405.80163
362.602	2386.51965
363.113	2374.66367
363.625	2426.52099
364.136	2496.42606
364.647	2430.48399
365.158	2580.49397
365.669	2539.59691
366.18	2529.53019
366.691	2602.27397
367.201	2618.48295
367.712	2541.31629
368.222	2705.22859
368.733	2594.07058
369.243	2718.0235
369.753	2736.15089
370.263	2862.15129
370.773	2844.23399
371.282	2858.02912
371.792	2906.74287
372.301	3076.81095
372.811	3144.01171
373.32	3099.3339
373.829	3078.53211
374.338	3252.24541
374.847	3349.18822
375.356	3456.13083
375.865	3518.80122
376.373	3805.74123
376.882	3943.88388
377.39	3979.72832
377.898	3924.65115
378.407	4204.53286
378.915	4342.55313
379.423	4588.60909
379.93	4604.68384
380.438	4773.83044
380.946	5061.2793
381.453	5189.61769
381.96	5410.39549
382.468	5662.78332
382.975	6303.59566
383.482	6524.52205
383.989	6491.77096
384.495	6787.92807
385.002	7023.07911
385.509	7351.02087
386.015	8089.83048
386.521	8297.45404
387.028	8606.85092
387.534	8985.22887
388.04	9308.5421
388.546	9365.38145
389.051	9727.89174
389.557	10409.47674
390.063	11660.40344
390.568	12154.23005
391.073	12177.90603
391.578	12850.72314
392.084	12807.79496
392.589	12794.52111
393.093	13615.60995
393.598	15500.28806
394.103	16981.33594
394.607	18822.53126
395.112	20049.44497
395.616	21206.29372
396.12	22614.6517
396.624	25255.81483
397.128	27203.59709
397.632	30468.17361
398.136	33031.09077
398.639	33239.99975
399.143	31633.12297
399.646	28750.04681
400.15	25083.82847
400.653	20124.16724
401.156	13866.23708
401.659	5169.95759
402.162	1054.15589
402.664	0
403.167	0
403.67	0
404.172	0
404.674	0
405.176	0
405.678	0
406.18	0
406.682	0
407.184	0
407.686	0
408.187	0
408.688	0
409.19	0
409.691	0
410.192	0
410.693	0
411.194	435.30976
411.694	4082.94878
412.195	8864.71461
412.696	12089.80453
413.196	12760.96929
413.696	12863.67595
414.196	13703.56671
414.696	17261.84252
415.196	21764.24417
415.696	29583.19008
416.196	36460.31858
416.695	40057.39798
417.195	40138.8197
417.694	37668.92192
418.194	36508.8482
418.693	32838.77225
419.192	31896.84776
419.691	31311.33163
420.19	30956.24648
420.688	30666.95578
421.187	29475.41064
421.685	27517.2334
422.184	25832.45738
422.682	22245.36032
423.18	18441.05951
423.678	16291.48017
424.176	14899.59419
424.674	14226.16525
425.172	13757.40983
425.669	13070.23047
426.167	12112.05586
426.664	10954.89945
427.161	10076.48604
427.659	9255.4872
428.156	8485.90713
428.652	8115.17463
429.149	7615.83718
429.646	7325.10347
430.143	7163.24451
430.639	6664.79409
431.135	6253.65365
431.632	5858.7405
432.128	5545.69735
432.624	5199.04011
433.12	4845.96729
433.616	4771.86946
434.111	4335.56786
434.607	4312.54003
435.103	4321.54569
435.598	4190.52853
436.093	4073.64059
436.588	3920.69941
437.083	3734.83923
437.578	3593.00311
438.073	3128.40764
438.568	3243.50887
439.062	3054.30923
439.557	3011.68476
440.051	2938.6292
440.546	2659.82221
441.04	2653.02209
441.534	2684.25401
442.028	2662.16588
442.522	2510.24395
443.015	2413.07944
443.509	2536.39327
444.002	2453.43761
444.496	2279.22887
444.989	2343.54827
445.482	2313.62067
445.975	2211.36213
446.468	2127.30792
446.961	2208.29037
447.454	2096.50986
447.947	1953.652
448.439	1993.79153
448.931	1990.55066
449.424	2032.94547
449.916	1994.8378
450.408	1964.6182
450.9	1734.86798
451.392	1805.00474
451.884	1760.80099
452.375	1616.97418
452.867	1779.8188
453.358	1691.77988
453.849	1691.66313
454.341	1633.81573
454.832	1625.72118
455.323	1591.02687
455.814	1670.9226
456.304	1579.94039
456.795	1495.92881
457.285	1607.92716
457.776	1612.01387
458.266	1415.0349
458.756	1467.11818
459.247	1421.05834
459.737	1377.06114
460.226	1331.94344
460.716	1342.10097
461.206	1373.14976
461.695	1295.25275
462.185	1267.10561
462.674	1287.08295
463.163	1286.01065
463.653	1275.90931
464.142	1219.16968
464.63	1165.20836
465.119	1239.11286
465.608	1087.04811
466.096	1165.01464
466.585	1178.15454
467.073	1155.22902
467.561	1105.21449
468.05	1144.18095
468.538	1127.29975
469.026	1021.17709
469.513	966.92281
470.001	959.04251
470.489	974.13288
470.976	1021.14553
471.463	919.22055
471.951	887.21554
472.438	875.08483
472.925	874.07709
473.412	853.1816
473.899	843.06187
474.385	823.15892
474.872	759.0063
475.359	713.0347
475.845	853.93647
476.331	763.95343
476.817	770.12986
477.303	709.99249
477.789	719.06219
478.275	658.02979
478.761	664.01213
479.247	668.93167
479.732	613.98921
480.218	625.07987
480.703	621.01553
481.188	571.78413
481.673	598.89191
482.158	518.70823
482.643	548.96996
483.128	539.81868
483.612	557.88046
484.097	547.9322
484.581	484.78861
485.066	455.78454
485.55	428.65441
486.034	402.61244
486.518	495.8113
487.002	391.6954
487.486	448.78958
487.969	426.75669
488.453	442.82513
488.936	395.64841
489.42	391.63432
489.903	415.78682
490.386	362.41669
490.869	334.54778
491.352	365.68661
491.835	374.57315
492.318	347.58996
492.8	379.5803
493.283	327.64451
493.765	308.58922
494.247	291.53527
494.73	289.49505
495.212	294.56407
495.694	256.46982
496.175	216.405
496.657	313.58414
497.139	284.38049
497.62	207.39148
498.102	238.47406
498.583	259.52393
499.064	231.40867
499.545	238.43524
500.026	213.38351
500.507	195.36861
500.988	181.37102
501.469	230.46772
501.949	233.47177
502.43	151.29467
502.91	157.26387
503.39	175.36569
503.87	182.35053
504.35	213.41468
504.83	173.31037
505.31	187.37395
505.79	128.25567
506.269	171.33275
506.749	117.22322
507.228	117.23006
507.707	134.24753
508.187	211.419
508.666	94.19552
509.145	96.18943
509.623	115.22794
510.102	82.16995
510.581	184.37367
511.059	104.22142
511.538	145.31978
512.016	117.23787
512.494	161.33062
512.972	107.21784
513.45	26.05167
513.928	71.14784
514.406	40.08253
514.884	107.23588
515.361	119.24282
515.839	94.18278
516.316	82.16972
516.793	108.23604
517.27	121.2524
517.747	95.21022
518.224	86.17186
518.701	75.14413
519.178	29.06259
519.654	80.16566
520.131	60.12925
520.607	114.24483
521.083	65.12878
521.56	47.09695
522.036	52.09962
522.512	108.23164
522.987	33.06832
523.463	43.0895
523.939	122.25907
524.414	90.18102
524.89	44.09172
525.365	57.11271
525.84	-4.00836
526.315	69.14502
526.79	87.1705
527.265	101.19963
527.74	59.12608
528.215	76.15653
528.689	57.11034
529.164	61.11621
529.638	49.11155
530.112	49.1013
530.587	-9.017
531.061	43.09117
531.534	84.17892
532.008	34.07217
532.482	62.12545
532.956	20.04517
533.429	34.07311
533.903	64.12481
534.376	26.05097
534.849	87.17688
535.322	34.07125
535.795	18.03927
536.268	20.04279
536.741	16.03436
537.213	104.21053
537.686	38.08196
538.158	20.03965
538.631	119.25386
539.103	-29.05829
539.575	75.13767
540.047	32.06255
540.519	53.11267
540.991	37.08095
541.463	64.13733
541.934	75.15123
542.406	35.07408
542.877	51.10194
543.348	57.12239
543.82	118.25429
544.291	106.21772
544.762	96.19923
545.233	77.17003
545.703	17.0334
546.174	87.17761
546.645	66.13783
547.115	142.29588
547.585	100.20076
548.056	64.13454
548.526	200.39725
548.996	158.32673
549.466	191.39966
549.935	163.32732
550.405	224.4086
550.875	183.36646
551.344	191.38832
551.814	205.39644
552.283	257.46393
552.752	175.34216
553.221	207.37214
553.69	281.51012
554.159	248.50318
554.628	272.49466
555.096	292.60869
555.565	264.48377
556.033	316.61331
556.502	240.48962
556.97	178.33672
557.438	208.42105
557.906	250.50515
558.374	233.45643
558.842	182.37669
559.31	216.41601
559.777	149.31413
560.245	249.5037
560.712	185.37407
561.18	147.28428
561.647	188.36557
562.114	247.48248
562.581	221.4741
563.048	205.41279
563.514	219.46616
563.981	262.517
564.448	241.4674
564.914	256.51608
565.381	310.60339
565.847	317.63479
566.313	279.55999
566.779	316.60774
567.245	274.55313
567.711	304.62412
568.176	284.54567
568.642	291.62722
569.108	354.7376
569.573	363.72556
570.038	405.70762
570.504	359.67498
570.969	372.78922
571.434	390.70965
571.899	421.8333
572.363	449.84215
572.828	457.8635
573.293	435.82515
573.757	453.85636
574.222	380.70515
574.686	384.71435
575.15	366.73003
575.614	396.75574
576.078	415.80719
576.542	463.86456
577.006	472.86806
577.469	415.8618
577.933	382.71028
578.396	461.90393
578.86	431.84271
579.323	415.82104
579.786	401.71801
580.249	327.62966
580.712	389.80024
581.175	335.70251
581.637	359.70126
582.1	390.71866
582.563	387.69829
583.025	316.65374
583.487	291.50035
583.95	277.50875
584.412	307.55108
584.874	320.66379
585.336	267.5468
585.797	276.51342
586.259	325.65744
586.721	295.59429
587.182	339.68011
587.643	290.56822
588.105	294.60005
588.566	327.58759
589.027	236.49436
589.488	258.5115
589.949	272.57229
590.41	246.4129
590.87	326.63936
591.331	307.57067
591.791	235.47277
592.252	197.39504
592.712	231.48657
593.172	234.46001
593.632	303.57305
594.092	222.43416
594.552	252.47181
595.011	200.40282
595.471	206.40573
595.931	232.45199
596.39	234.48909
596.849	210.42978
597.308	235.44684
597.768	205.45854
598.227	259.54386
598.685	218.4419
599.144	239.48835
599.603	229.47578
600.062	228.41695
600.52	186.36548
600.978	236.48977
601.437	207.41797
601.895	266.48793
602.353	253.48951
602.811	264.50822
603.269	259.5393
603.727	235.49173
604.184	215.42336
604.642	262.55756
605.099	258.52011
605.557	301.63289
606.014	236.44119
606.471	201.43901
606.928	257.47296
607.385	294.61013
607.842	419.7979
608.299	485.93078
608.755	434.87089
609.212	344.64598
609.668	329.61461
610.125	454.91271
610.581	447.89346
611.037	423.81648
611.493	328.67005
611.949	329.67987
612.405	281.48652
612.861	358.72635
613.316	299.61926
613.772	357.70298
614.227	340.69015
614.683	412.74893
615.138	320.64777
615.593	355.70891
616.048	366.72189
616.503	395.83454
616.958	383.82407
617.412	322.66317
617.867	275.53233
618.321	372.66315
618.776	351.67425
619.23	315.64773
619.684	343.67732
620.138	368.74562
620.592	340.72354
621.046	325.67311
621.5	320.68572
621.954	345.68447
622.407	357.69801
622.861	292.63194
623.314	309.62651
623.768	298.61899
624.221	273.48248
624.674	272.56347
625.127	311.64988
625.58	298.61236
626.033	284.56779
626.485	195.42807
626.938	262.56654
627.39	251.53218
627.843	294.61531
628.295	256.54053
628.747	239.52112
629.199	244.50909
629.651	203.42722
630.103	217.45969
630.555	206.40592
631.006	235.50979
631.458	235.51283
631.909	240.51297
632.361	186.40737
632.812	145.31697
633.263	180.36638
633.714	181.36682
634.165	220.49969
634.616	213.47545
635.067	161.34107
635.518	209.46999
635.968	209.39759
636.419	152.31672
636.869	195.43977
637.319	147.32528
637.769	145.31093
638.219	207.4695
638.669	131.30039
639.119	167.38983
639.569	128.29756
640.019	194.42829
640.468	114.24747
640.918	191.43989
641.367	156.33748
641.816	131.28431
642.265	190.42087
642.714	149.33315
643.163	185.40834
643.612	82.19198
644.061	85.1766
644.51	151.3326
644.958	133.28421
645.406	138.3198
645.855	148.35125
646.303	177.3995
646.751	96.21398
647.199	176.38644
647.647	64.14537
648.095	129.28819
648.543	168.33525
648.99	107.24997
649.438	131.30099
649.885	156.37451
650.333	152.28852
650.78	140.32906
651.227	147.3476
651.674	107.23964
652.121	112.26704
652.568	122.28965
653.015	144.35501
653.461	126.29315
653.908	141.32124
654.354	133.31108
654.801	102.23544
655.247	152.327
655.693	128.3262
656.139	137.32157
656.585	126.29673
657.031	131.29906
657.477	76.16343
657.922	140.31593
658.368	169.40656
658.813	162.3693
659.259	84.19974
659.704	90.2079
660.149	112.2578
660.594	117.27409
661.039	123.27672
661.484	156.36595
661.929	124.28656
662.373	79.19759
662.818	107.26238
663.262	121.28745
663.707	125.31207
664.151	136.32749
664.595	92.22045
665.039	128.31452
665.483	113.28436
665.927	127.29635
666.371	94.21628
666.814	126.29823
667.258	90.21187
667.701	147.31522
668.145	132.32506
668.588	88.21543
669.031	103.24082
669.474	73.17609
669.917	91.20246
670.36	101.24932
670.803	178.4226
671.245	108.22844
671.688	135.32662
672.13	83.18681
672.573	143.35934
673.015	101.24224
673.457	91.19935
673.899	136.32712
674.341	86.20795
674.783	99.23709
675.225	133.32445
675.666	92.22095
676.108	94.2057
676.549	127.29996
676.991	108.23903
677.432	80.16165
677.873	108.25038
678.314	118.28124
678.755	115.27907
679.196	47.10916
679.637	146.35436
680.078	110.25814
680.518	173.39971
680.959	72.17377
681.399	89.22115
681.839	109.26531
682.28	111.2733
682.72	40.09306
683.16	108.26851
683.6	120.27456
684.039	68.14427
684.479	75.18507
684.919	73.16961
685.358	131.33084
685.798	96.25127
686.237	87.21176
686.676	110.25663
687.115	87.20596
687.554	112.26643
687.993	113.25151
688.432	74.17108
688.871	55.12667
689.309	131.31216
689.748	81.17227
690.186	126.30111
690.625	128.2998
691.063	114.27368
691.501	120.29639
691.939	104.25951
692.377	108.26381
692.815	71.17133
693.253	144.34518
693.69	113.24994
694.128	120.29039
694.565	131.31216
695.003	138.34833
695.44	74.17569
695.877	111.25993
696.314	151.32506
696.751	139.31745
697.188	120.27632
697.625	152.34861
698.061	72.17436
698.498	166.39882
698.934	106.25622
699.371	43.10282
699.807	126.29823
700.243	74.17968
700.679	138.31281
701.115	130.30662
701.551	98.23241
701.987	135.30433
702.422	90.21516
702.858	90.2159
703.294	151.34152
703.729	133.32481
704.164	120.28907
704.599	152.33796
705.035	55.12516
705.47	105.25595
705.904	94.22051
706.339	148.34392
706.774	106.24944
707.209	101.23429
707.643	146.3493
708.078	110.26839
708.512	76.19115
708.946	109.26233
709.38	106.25235
709.814	108.24849
710.248	144.34964
710.682	111.26471
711.116	51.12316
711.549	120.30904
711.983	73.17068
712.416	130.30758
712.85	121.30143
713.283	161.37863
713.716	157.39182
714.149	136.32401
714.582	108.24412
715.015	201.49597
715.448	168.4195
715.881	119.26222
716.313	146.34102
716.746	106.2505
717.178	112.2698
717.61	158.39752
718.043	139.34514
718.475	117.28393
718.907	178.44591
719.339	120.27257
719.77	80.19111
720.202	157.3938
720.634	109.2655
721.065	122.28943
721.497	166.40336
721.928	91.22439
722.359	77.18693
722.79	60.14525
723.221	159.3971
723.652	151.38705
724.083	110.24925
724.514	146.33458
724.945	124.29156
725.375	122.28306
725.806	134.33363
726.236	180.45563
726.666	119.28215
727.096	160.38965
727.526	109.27675
727.956	93.21291
728.386	128.31463
728.816	116.29301
729.246	150.36202
729.675	117.28765
730.105	132.32411
730.534	125.2926
730.964	177.44253
731.393	164.40431
731.822	164.41484
732.251	127.32131
732.68	182.4246
733.109	154.37672
733.537	101.24464
733.966	161.39626
734.395	179.40913
734.823	149.33535
735.251	135.32416
735.68	185.45767
736.108	146.36707
736.536	137.32244
736.964	131.30364
737.392	165.40894
737.82	168.39963
738.247	147.35042
738.675	184.43483
739.102	151.37425
739.53	154.38857
739.957	181.45922
740.384	180.43917
740.811	151.37998
741.238	126.30685
741.665	105.24424
742.092	191.45023
742.519	104.25753
742.945	131.31372
743.372	162.39732
743.798	134.34269
744.225	143.3384
744.651	120.30051
745.077	163.40251
745.503	126.30685
745.929	140.33444
746.355	201.49232
746.781	198.48291
747.207	61.14458
747.632	155.37444
748.058	171.42195
748.483	159.36356
748.908	118.29273
749.334	158.38478
749.759	173.40352
750.184	139.32944
750.609	167.40632
751.033	191.44568
751.458	176.39116
751.883	159.39061
752.307	148.34623
752.732	97.24243
753.156	141.34614
753.58	192.44968
754.005	165.41446
754.429	191.44235
754.853	174.42564
755.277	121.28612
755.7	191.46662
756.124	157.38584
756.548	148.3484
756.971	165.3989
757.394	143.36564
757.818	123.31517
758.241	131.3306
758.664	124.31187
759.087	146.32395
759.51	167.41102
759.933	113.27164
760.356	125.31906
760.778	124.3039
761.201	142.34349
761.623	148.35679
762.046	155.36523
762.468	159.37888
762.89	155.37938
763.312	165.39875
763.734	102.2459
764.156	163.39822
764.578	149.34084
765	115.28022
765.421	94.23871
765.843	153.3971
766.264	154.36914
766.686	143.35662
767.107	104.25214
767.528	63.1599
767.949	65.16626
768.37	101.24804
768.791	114.27555
769.212	56.14161
769.632	79.18507
770.053	123.3221
770.473	68.16653
770.894	143.35546
771.314	110.26287
771.734	58.13654
772.154	98.25151
772.575	113.26192
772.994	39.08986
773.414	131.31324
773.834	88.22038
774.254	100.24481
774.673	95.23175
775.093	102.25211
775.512	65.16105
775.931	90.22831
776.351	84.20899
776.77	52.12815
777.189	49.11775
777.607	87.2223
778.026	80.19977
778.445	13.03297
778.864	87.22332
779.282	61.14781
779.701	64.16212
780.119	49.12468
780.537	28.07065
780.955	85.21651
781.373	72.17875
781.791	34.07745
782.209	95.21932
782.627	48.12717
783.045	36.08386
783.462	39.10046
783.88	55.14295
784.297	54.13665
784.715	18.04673
785.132	36.08807
785.549	4.01015
785.966	35.08884
786.383	34.08447
786.8	58.13574
787.217	53.12659
787.633	17.04293
788.05	61.14592
788.466	81.19161
788.883	13.03354
789.299	56.13572
789.715	44.10784
790.131	64.15976
790.547	26.06563
790.963	71.17668
791.379	39.09934
791.795	43.09915
792.21	42.09914
792.626	39.09343
793.041	74.18297
793.457	53.13175
793.872	31.0737
794.287	17.04108
794.702	53.13136
795.117	8.02014
795.532	-12.03056
795.947	70.16907
796.362	65.15596
796.776	103.24082
797.191	5.01242
797.605	2.00477
798.02	-5.01237
798.434	50.11233
798.848	-16.0401
799.262	33.08254
799.676	54.13249
800.09	27.06709
800.504	56.13659
800.918	-3.00707
801.331	64.16814
801.745	28.06507
802.158	50.12562
802.572	49.11962
802.985	53.12886
803.398	31.07466
803.811	85.21826
804.224	63.15729
804.637	-1.00242
805.05	55.12824
805.462	60.14798
805.875	34.08869
806.288	-33.08125
806.7	19.04824
807.112	11.02587
807.525	38.09448
807.937	15.03749
808.349	8.02029
808.761	-2.00499
809.173	62.15071
809.584	65.16105
809.996	-14.03485
810.408	24.06243
810.819	39.09244
811.231	34.08839
811.642	75.17879
812.053	158.36977
812.464	231.53285
812.875	201.50198
813.286	130.33118
813.697	143.3304
814.108	81.19774
814.519	25.05638
814.929	105.26631
815.34	37.0904
815.75	25.06404
816.16	28.07037
816.571	47.12258
816.981	61.14452
817.391	80.19301
817.801	-11.02773
818.211	48.11506
818.62	41.09931
819.03	52.12796
819.44	60.15699
819.849	33.08373
820.259	52.13355
820.668	12.02983
821.077	-17.04289
821.486	43.10419
821.895	48.11917
822.304	42.11176
822.713	-37.08935
823.122	26.06542
823.531	41.09781
823.939	38.09317
824.348	52.12692
824.756	28.07068
825.164	44.11126
825.573	11.02789
825.981	51.12696
826.389	72.18083
826.797	38.09571
827.205	-27.0632
827.612	27.06717
828.02	-5.01191
828.428	19.04881
828.835	75.19707
829.243	38.09116
829.65	12.03014
830.057	39.09521
830.464	8.01972
830.871	33.0796
831.278	-19.0467
831.685	30.06756
832.092	34.08379
832.499	3.00666
832.905	39.09923
833.312	-1.00232
833.718	51.12747
834.124	-1.00232
834.531	57.14396
834.937	45.11591
835.343	28.06809
835.749	34.08001
836.155	6.01586
836.561	41.10132
836.966	41.10076
837.372	45.11495
837.777	5.01259
838.183	60.13374
838.588	7.01757
838.993	48.11729
839.399	10.0247
839.804	-8.01976
840.209	19.04874
840.613	-9.02035
841.018	25.06375
841.423	58.14891
841.828	-17.04361
842.232	55.13652
842.637	-3.00717
843.041	1.00259
843.445	-14.0356
843.849	-16.04018
844.253	52.12394
844.657	-25.06393
845.061	-4.00921
845.465	6.01465
845.869	-1.00235
846.272	-12.02963
846.676	31.07546
847.079	7.01797
847.483	35.08776
847.886	107.25829
848.289	21.05639
848.692	-1.00256
849.095	34.08212
849.498	74.18719
849.901	35.08077
850.304	13.03137
850.707	42.10745
851.109	59.14938
851.512	5.01242
851.914	-10.02551
852.316	37.09398
852.718	-34.08917
853.121	31.07638
853.523	-6.01421
853.925	-27.07145
854.326	-12.03039
854.728	0
855.13	4.01041
855.531	35.08404
855.933	28.06766
856.334	-14.03536
856.736	6.0136
857.137	-7.01649
857.538	-14.03565
857.939	30.07451
858.34	34.08327
858.741	7.01846
859.142	-39.09546
859.542	20.05309
859.943	-9.02264
860.343	4.01
860.744	64.15604
861.144	10.02462
861.544	-35.08561
861.945	-5.01288
862.345	53.12977
862.745	13.03257
863.145	66.15761
863.544	-2.00511
863.944	39.09251
864.344	-3.00754
864.743	62.15375
865.143	-5.01298
865.542	-2.0047
865.941	2.005
866.34	65.15554
866.74	-4.01084
867.139	-16.03885
867.537	31.07935
867.936	33.07981
868.335	16.04101
868.734	20.05144
869.132	17.03983
869.531	9.02197
869.929	-34.07895
870.327	2.00485
870.726	33.08266
871.124	20.0471
871.522	11.02825
871.92	32.0793
872.318	5.01234
872.715	38.09441
873.113	13.03194
873.511	-9.02269
873.908	-62.15979
874.306	10.02508
874.703	40.10039
875.1	10.02579
875.497	4.00969
875.894	10.02471
876.291	-9.02236
876.688	4.01041
877.085	4.00969
877.482	21.0529
877.878	2.00486
878.275	19.04858
878.671	32.07165
879.068	21.05104
879.464	8.01951
879.86	-17.04077
880.256	39.09656
880.652	27.06902
881.048	41.10188
881.444	48.11445
881.84	10.02562
882.236	39.09836
882.631	30.07399
883.027	25.0609
883.422	3.00774
883.817	2.00507
884.213	-3.00778
884.608	-20.04972
885.003	-4.00975
885.398	-17.0431
885.793	19.048
886.188	14.03506
886.582	93.23697
886.977	41.09759
887.371	24.06103
887.766	-24.06054
888.16	38.09513
888.554	4.00998
888.949	54.13562
889.343	62.15128
889.737	1.00269
890.131	21.053
890.525	-5.01292
890.918	10.02537
891.312	53.12688
891.706	33.08689
892.099	24.0614
892.492	-2.00437
892.886	26.06396
893.279	26.06656
893.672	29.07415
894.065	15.03783
894.458	9.02282
894.851	69.16864
895.244	-14.03618
895.637	-9.02194
896.029	1.00247
896.422	1.00247
896.814	4.01004
897.206	-26.06287
897.599	52.12867
897.991	-20.04904
898.383	-14.03352
898.775	-4.00914
899.167	-36.08544
899.559	84.2115
899.951	80.18767
900.342	31.07916
900.734	-7.01756
901.125	14.03698
901.517	7.01733
901.908	28.06748
902.299	22.0541
902.69	-14.03347
903.082	38.0923
903.473	10.02414
903.863	5.01287
904.254	-12.02822
904.645	46.11458
905.036	-3.00734
905.426	47.10777
905.817	48.1179
906.207	-21.05075
906.597	11.02594
906.987	23.05992
907.378	7.01785
907.768	50.13225
908.158	-21.05192
908.547	24.0623
908.937	23.05933
909.327	-9.02211
909.717	69.1747
910.106	8.01938
910.495	59.14714
910.885	16.04079
911.274	50.12504
911.663	28.07138
912.052	43.1063
912.441	30.07659
912.83	18.04161
913.219	16.04213
913.608	3.00742
913.997	-24.06099
914.385	37.08868
914.774	11.02699
915.162	-5.01205
915.55	21.05111
915.939	-21.0537
916.327	30.07518
916.715	-1.00257
917.103	43.10603
917.491	36.08934
917.878	28.06916
918.266	16.04175
918.654	21.05394
919.041	1.00263
919.429	24.05696
919.816	68.17189
920.203	18.04394
920.591	42.10435
920.978	15.03699
921.365	17.04487
921.752	8.01924
922.139	38.08277
922.525	1.00242
922.912	10.02458
923.299	11.02754
923.685	3.00789
924.072	57.13133
924.458	9.02247
924.844	10.02493
925.231	-26.06145
925.617	-10.02571
926.003	30.07697
926.389	-3.00764
926.774	6.01533
927.16	46.11437
927.546	-1.00258
927.931	36.09009
928.317	10.02323
928.702	40.09486
929.088	2.00478
929.473	18.04607
929.858	-24.05884
930.243	-16.03889
930.628	-23.05674
931.013	27.06721
931.398	38.08764
931.783	44.11599
932.167	15.03692
932.552	31.07796
932.937	33.08218
933.321	-12.03045
933.705	2.00509
934.09	31.07863
934.474	46.10938
934.858	2.00523
935.242	-8.01876
935.626	16.04121
936.009	9.0241
936.393	22.05626
936.777	-35.09097
937.16	22.05752
937.544	40.09446
937.927	-12.03079
938.311	41.10028
938.694	41.10861
939.077	-17.04122
939.46	21.05186
939.843	50.10437
940.226	19.04901
940.609	-2.00464
940.991	23.05883
941.374	-14.03463
941.757	37.09154
942.139	-5.01136
942.522	3.00716
942.904	16.03872
943.286	41.10436
943.668	11.02869
944.05	43.10607
944.432	5.01244
944.814	32.0791
945.196	-3.00738
945.578	-17.04093
945.959	16.03775
946.341	43.10572
946.722	3.00711
947.104	39.09343
947.485	-21.04956
947.866	4.01016
948.247	-9.02295
948.628	50.122
949.009	2.00517
949.39	43.1072
949.771	4.00939
950.152	24.05919
950.532	-53.13285
950.913	11.02673
951.293	5.01361
951.674	26.06318
952.054	10.02496
952.434	26.06483
952.814	18.0431
953.194	69.18002
953.574	11.02729
953.954	-14.03366
954.334	-24.06062
954.714	-29.07172
955.093	18.04452
955.473	-2.00505
955.853	21.05464
956.232	41.11254
956.611	26.06266
956.99	-18.04579
957.37	9.0231
957.749	3.00722
958.128	-5.01272
958.506	38.09878
958.885	-3.00764
959.264	-28.06961
959.643	25.05719
960.021	3.0075
960.4	-27.06216
960.778	69.16939
961.156	-7.01773
961.535	22.05157
961.913	41.09612
962.291	-16.04152
962.669	-26.06675
963.047	0
963.424	11.02827
963.802	-14.03483
964.18	39.09888
964.557	49.1129
964.935	14.03341
965.312	-6.01577
965.69	40.10035
966.067	32.07819
966.444	31.07667
966.821	41.10587
967.198	30.07306
967.575	31.0765
967.952	7.01664
968.329	28.06842
968.705	26.05605
969.082	23.05927
969.458	-39.09514
969.835	1.00246
970.211	-19.04935
970.587	-3.00754
970.963	-12.03112
971.339	-8.0211
971.715	-21.05311
972.091	20.04953
972.467	33.08257
972.843	9.0225
973.219	55.13197
973.594	25.06567
973.97	32.07644
974.345	7.01689
974.721	32.07776
975.096	25.06078
975.471	10.02391
975.846	32.07715
976.221	11.02813
976.596	-46.11228
976.971	11.02735
977.346	42.09795
977.72	-6.01544
978.095	22.05713
978.469	30.07189
978.844	27.06817
979.218	-37.09016
979.593	21.0506
979.967	-1.00246
980.341	3.00697
980.715	8.02031
981.089	-1.00253
981.463	7.01621
981.837	-26.06443
982.21	59.13708
982.584	-10.02443
982.957	-7.01766
983.331	32.07592
983.704	-17.04229
984.078	29.07175
984.451	57.14221
984.824	-11.02709
985.197	33.08041
985.57	13.03282
985.943	12.02985
986.316	54.13259
986.688	31.07503
987.061	22.05185
987.434	31.08104
987.806	34.08271
988.179	15.03563
988.551	53.13438
988.923	-3.00746
989.295	35.0877
989.667	-22.05328
990.039	28.06946
990.411	1.00232
990.783	38.08771
991.155	-17.04136
991.527	39.09624
991.898	43.10728
992.27	-18.04508
992.641	33.08305
993.012	41.09665
993.384	19.04559
993.755	20.05126
994.126	3.00728
994.497	20.04936
994.868	-15.03491
995.239	38.0923
995.61	11.02787
995.98	0
996.351	-2.005
996.722	-57.13499
997.092	-37.08908
997.462	-42.09987
997.833	47.11148
998.203	-2.0049
998.573	16.04008
998.943	48.1126
999.313	-44.10732
999.683	9.02177
1000.053	6.01393
1000.423	34.08287
1000.792	26.06766
1001.162	3.00745
1001.531	44.1086
1001.901	20.05012
1002.27	16.03602
1002.639	25.06415
1003.009	19.04545
1003.378	0
1003.747	-13.03109
1004.116	9.0217
1004.485	37.08864
1004.853	-4.01023
1005.222	58.14604
1005.591	30.0715
1005.959	-49.11263
1006.328	-8.01822
1006.696	2.00487
1007.064	27.06819
1007.433	31.07773
1007.801	7.01732
1008.169	3.00764
1008.537	41.09095
1008.905	-10.02357
1009.273	64.15767
1009.64	-10.02413
1010.008	16.03838
1010.375	61.14781
1010.743	95.2174
1011.11	14.03335
1011.478	17.04232
1011.845	-8.01902
1012.212	27.06139
1012.579	14.03459
1012.946	44.10483
1013.313	71.16828
1013.68	41.09232
1014.047	-29.07014
1014.414	7.01667
1014.78	43.10697
1015.147	42.10171
1015.513	27.06533
1015.88	58.14807
1016.246	12.02982
1016.612	42.09629
1016.978	21.05173
1017.344	28.06946
1017.71	43.10498
1018.076	22.05215
1018.442	25.06458
1018.808	15.03772
1019.174	-18.04569
1019.539	93.21223
1019.905	-22.0526
1020.27	11.02733
1020.636	27.06501
1021.001	15.03614
1021.366	-34.08293
1021.731	27.06969
1022.096	-8.02038
1022.461	-8.01914
1022.826	27.06444
1023.191	-3.00794
1023.556	-7.01658
1023.92	72.17626
1024.285	21.05152
1024.649	-3.00742
1025.014	51.12627
1025.378	17.04298
1025.742	8.02001
1026.107	-10.02289
1026.471	18.04228
1026.835	8.01998
1027.199	-12.02921
1027.562	20.04675
1027.926	23.05651
1028.29	15.03818
1028.654	5.0116
1029.017	29.07154
1029.381	-10.02415
1029.744	-3.00772
1030.107	38.09008
1030.471	5.01207
1030.834	-23.05308
1031.197	40.0965
1031.56	-5.01192
1031.923	34.08811
1032.286	26.06133
1032.648	35.08391
1033.011	14.03235
1033.374	18.04256
1033.736	-14.03719
1034.099	-2.00492
1034.461	-12.03064
1034.823	3.00753
1035.185	11.02787
1035.548	-1.00246
1035.91	10.02413
1036.272	-14.03226
1036.634	27.06631
1036.995	31.07311
1037.357	4.00981
1037.719	-11.02704
1038.08	34.08094
1038.442	-6.01439
1038.803	35.08423
1039.165	1.00254
1039.526	-18.04403
1039.887	-10.02419
1040.248	-2.00497
1040.609	48.1186
1040.97	17.04178
1041.331	6.0153
1041.692	-33.07824
1042.053	40.09122
1042.413	-3.00706
1042.774	25.06106
1043.134	69.1636
1043.495	18.04548
1043.855	23.05605
1044.215	25.0623
1044.576	3.00723
1044.936	73.16652
1045.296	23.05765
1045.656	13.0321
1046.016	15.03643
1046.375	32.07785
1046.735	-58.1343
1047.095	-20.04743
1047.454	30.06382
1047.814	27.06515
1048.173	8.01926
1048.533	-28.06512
1048.892	-36.08777
1049.251	9.02275
1049.61	-30.07491
1049.969	13.03085
1050.328	23.05013
1050.687	18.04403
1051.046	55.13372
1051.405	29.07238
1051.763	20.04624
1052.122	-24.06062
1052.48	-27.06712
1052.839	-11.02617
1053.197	12.02844
1053.555	23.0527
1053.914	86.20882
1054.272	14.03406
1054.63	-10.02471
1054.988	-14.03365
1055.345	28.06055
1055.703	35.08443
1056.061	0
1056.419	1.00261
1056.776	10.02442
1057.134	-11.02576
1057.491	-18.0456
1057.848	10.02506
1058.206	-15.0357
1058.563	-2.00445
1058.92	27.06248
1059.277	50.12327
1059.634	-25.05964
1059.991	-13.0315
1060.348	-35.08042
1060.704	-47.11401
1061.061	80.18466
1061.418	-24.05897
1061.774	-17.04246
1062.131	1.00266
1062.487	-38.09033
1062.843	30.07502
1063.199	48.11934
1063.555	-32.0753
1063.911	33.08355
1064.267	39.0815
1064.623	-23.05659
1064.979	8.0191
1065.335	20.04805
1065.691	21.05058
1066.046	7.01552
1066.402	-32.07386
1066.757	8.02033
1067.112	9.02224
1067.468	-29.06948
1067.823	39.0939
1068.178	35.08484
1068.533	16.03901
1068.888	49.11703
1069.243	3.00746
1069.598	-20.0492
1069.952	-18.04107
1070.307	-6.01499
1070.662	10.02391
1071.016	-11.02494
1071.371	-10.02301
1071.725	-17.04116
1072.079	-10.02431
1072.434	-13.03194
1072.788	-28.06763
1073.142	42.10339
1073.496	-31.07464
1073.85	15.035
1074.203	38.09234
1074.557	17.04542
1074.911	51.12162
1075.265	5.01172
1075.618	37.0905
1075.971	-8.01923
1076.325	12.03068
1076.678	-41.09541
1077.031	-3.00686
1077.385	18.03989
1077.738	17.03861
1078.091	-19.04378
1078.444	19.04435
1078.796	-21.05216
1079.149	22.05496
1079.502	-51.12274
1079.855	29.06786
1080.207	11.02727
1080.56	-2.00521
1080.912	6.01472
1081.264	31.07486
1081.617	3.00737
1081.969	1.00254
1082.321	46.11232
1082.673	-52.12103
1083.025	-10.02398
1083.377	-196.44265
1083.728	29.06788
1084.08	11.02763
1084.432	11.0267
1084.783	62.14482
1085.135	-8.02024
1085.486	-58.13547
1085.838	8.01984
1086.189	-10.02453
1086.54	9.02164
1086.891	-18.04603
1087.242	11.02695
1087.593	-3.00737
1087.944	-2.00457
1088.295	19.04343
1088.646	10.0244
1088.996	-11.02678
1089.347	5.01236
1089.698	-8.0191
1090.048	31.08071
1090.398	25.05822
1090.749	18.0433
1091.099	16.04044
1091.449	4.01004
1091.799	36.09029
1092.149	-13.03204
1092.499	-3.00738
1092.849	14.03578
1093.199	7.01767
1093.548	40.09621
1093.898	2.00504
1094.248	37.09521
1094.597	-57.1481
1094.947	7.01879
1095.296	33.08167
1095.645	14.03661
1095.994	19.04587
1096.343	13.0329
1096.692	-10.02651
1097.041	-1.00273
1097.39	22.05541
1097.739	10.02615
1098.088	89.2367
1098.437	-30.0798
1098.785	37.09987
1099.134	66.17463
1099.482	42.11556
1099.83	35.09212
1100.179	-14.03688
1100.527	-5.0134
1100.875	-32.08569
1101.223	5.01336
1101.571	5.0139
1101.919	-20.05283
1102.267	27.07621
1102.615	2.00643
1102.962	8.02576
1103.31	-2.00643
1103.658	7.02256
