Data from N2 R9 sample 2_Subt2__0__19-16-06-262.txt Node

Date: Fri Aug 29 19:16:06 PDT 2025
User: uwsun
Spectrometer: HDX01956
Trigger mode: 0
Integration Time (sec): 5.000000E-1
Scans to average: 1
Nonlinearity correction enabled: true
Boxcar width: 0
Storing dark spectrum: false
XAxis mode: Wavelengths
Number of Pixels in Spectrum: 2068
>>>>>Begin Spectral Data<<<<<
194.03	297.79501
194.578	321.97397
195.127	305.91276
195.676	320.9588
196.225	336.84071
196.773	352.91014
197.321	499.22508
197.87	718.53781
198.418	672.43176
198.966	717.52344
199.513	595.22769
200.061	641.33458
200.609	723.57815
201.156	650.13541
201.704	628.30255
202.251	662.44824
202.798	674.43851
203.345	725.45282
203.892	703.43788
204.438	696.34675
204.985	677.28461
205.532	721.5439
206.078	783.52657
206.624	693.37389
207.17	759.39503
207.716	728.41213
208.262	729.11518
208.808	686.35714
209.354	720.40257
209.899	763.55864
210.445	647.31065
210.99	669.30214
211.535	771.43559
212.08	674.26803
212.625	726.47058
213.17	769.56595
213.715	637.13226
214.259	744.38008
214.804	773.52987
215.348	744.35131
215.892	753.44159
216.436	783.43562
216.98	787.36487
217.524	729.37741
218.068	722.47779
218.612	756.5377
219.155	690.31219
219.698	703.35415
220.242	677.39089
220.785	633.21558
221.328	673.37955
221.871	646.36498
222.414	667.37278
222.956	631.24787
223.499	618.14082
224.041	612.18451
224.583	682.19269
225.126	652.16648
225.668	617.2418
226.21	644.33935
226.751	572.02779
227.293	657.22659
227.835	651.30553
228.376	645.22497
228.918	698.44923
229.459	627.28976
230	581.15152
230.541	651.22678
231.082	645.28514
231.622	626.1868
232.163	681.34188
232.704	667.35368
233.244	644.31616
233.784	647.31244
234.324	618.09529
234.864	621.15123
235.404	683.32376
235.944	723.38206
236.484	685.40228
237.023	632.22212
237.563	598.13527
238.102	644.24418
238.641	711.46345
239.18	662.24907
239.719	655.35289
240.258	708.27211
240.797	627.22778
241.335	698.388
241.874	624.95221
242.412	663.29411
242.95	664.28105
243.488	668.22961
244.026	654.21645
244.564	699.13071
245.102	589.08039
245.64	692.35305
246.177	658.18753
246.715	705.36582
247.252	697.28407
247.789	656.97798
248.326	659.27534
248.863	656.14772
249.4	634.16807
249.936	688.11005
250.473	704.3064
251.009	688.25319
251.546	680.18918
252.082	697.20715
252.618	681.20251
253.154	675.30262
253.69	655.1818
254.226	718.36288
254.761	671.20085
255.297	658.14397
255.832	660.25565
256.367	664.25714
256.903	692.19625
257.438	690.29691
257.972	706.238
258.507	645.17798
259.042	676.1586
259.576	621.0587
260.111	716.31024
260.645	709.20199
261.179	662.23197
261.713	714.24092
262.247	767.37729
262.781	721.16247
263.315	690.34722
263.849	747.47628
264.382	784.39672
264.915	738.34786
265.449	701.34252
265.982	771.35899
266.515	741.42132
267.048	650.07882
267.58	723.23307
268.113	761.25283
268.646	762.47115
269.178	682.19018
269.71	741.24825
270.243	738.31256
270.775	770.53849
271.307	753.42353
271.838	789.459
272.37	777.48833
272.902	774.3547
273.433	816.34105
273.965	735.40301
274.496	766.49514
275.027	748.45305
275.558	765.43921
276.089	706.3557
276.62	724.46451
277.15	762.47186
277.681	762.26317
278.211	754.44664
278.741	712.20155
279.272	750.30984
279.802	787.52494
280.332	746.35426
280.861	809.48712
281.391	755.3037
281.921	769.43328
282.45	759.48041
282.98	773.57695
283.509	795.34529
284.038	752.30644
284.567	788.40603
285.096	786.4538
285.625	792.35071
286.153	745.33359
286.682	775.33619
287.21	831.50165
287.739	799.42387
288.267	798.45988
288.795	832.68402
289.323	724.28693
289.851	837.45948
290.378	814.35261
290.906	784.427
291.433	840.57476
291.961	849.40203
292.488	778.47554
293.015	813.41679
293.542	847.60001
294.069	895.61098
294.596	919.67117
295.122	831.46729
295.649	815.31527
296.175	874.56226
296.702	914.61632
297.228	949.66837
297.754	864.3958
298.28	854.39669
298.806	914.57947
299.332	794.27079
299.857	866.39667
300.383	944.73885
300.908	855.49879
301.433	888.55231
301.958	903.49315
302.483	915.63783
303.008	921.64267
303.533	968.8241
304.058	951.58407
304.582	934.54246
305.107	856.63478
305.631	937.49671
306.155	901.46931
306.679	939.51784
307.203	882.43782
307.727	967.5879
308.251	960.66446
308.775	888.46786
309.298	926.53174
309.822	952.68981
310.345	1032.64491
310.868	1009.63053
311.391	1079.78828
311.914	1001.71516
312.437	1091.6257
312.96	1038.61692
313.482	1001.58576
314.005	1092.82135
314.527	1062.88658
315.049	1102.85616
315.571	1063.48581
316.093	1103.78112
316.615	1090.69342
317.137	1103.48247
317.659	1157.79548
318.18	1174.78976
318.702	1194.69644
319.223	1105.35148
319.744	1122.53354
320.265	1138.70998
320.786	1169.77946
321.307	1204.83796
321.828	1245.63571
322.348	1256.72843
322.869	1181.64788
323.389	1296.99237
323.909	1331.71039
324.43	1357.88151
324.95	1354.68899
325.47	1290.81113
325.989	1305.70514
326.509	1314.51922
327.029	1377.60807
327.548	1449.63054
328.067	1356.74946
328.587	1404.89847
329.106	1471.65831
329.625	1479.14763
330.144	1453.66363
330.662	1427.64061
331.181	1495.70888
331.7	1498.70152
332.218	1606.51311
332.736	1593.72356
333.255	1546.66296
333.773	1618.73568
334.291	1630.92877
334.808	1589.51546
335.326	1605.55235
335.844	1627.58775
336.361	1694.86953
336.879	1650.58041
337.396	1716.69399
337.913	1784.54894
338.43	1789.4686
338.947	1833.64005
339.464	1781.28336
339.981	1792.56773
340.497	1906.74489
341.014	1798.6385
341.53	1789.36726
342.046	1794.61872
342.562	1927.71927
343.078	1960.48328
343.594	2031.52619
344.11	2023.49316
344.626	2051.67194
345.141	2054.30231
345.657	2176.29833
346.172	2112.46527
346.687	2074.27319
347.202	2121.17112
347.717	2216.3611
348.232	2220.52109
348.747	2236.18349
349.261	2154.95309
349.776	2231.22283
350.29	2249.32214
350.805	2274.39968
351.319	2332.12743
351.833	2292.97584
352.347	2275.11638
352.861	2337.04195
353.374	2430.01393
353.888	2336.1707
354.401	2383.94828
354.915	2382.78925
355.428	2523.1237
355.941	2530.85006
356.454	2633.74544
356.967	2546.91544
357.48	2581.79282
357.993	2583.01624
358.505	2548.94825
359.018	2664.90327
359.53	2705.77549
360.042	2719.51182
360.554	2704.80652
361.066	2637.8037
361.578	2714.39417
362.09	2764.65671
362.602	2696.38123
363.113	2863.44833
363.625	2844.32602
364.136	2893.23145
364.647	2815.30322
365.158	2892.34272
365.669	2991.38102
366.18	2973.31491
366.691	2967.08391
367.201	2923.33307
367.712	2889.13986
368.222	2970.08835
368.733	3037.82875
369.243	3136.79116
369.753	3213.88824
370.263	3265.92735
370.773	3332.96441
371.282	3296.78299
371.792	3231.55868
372.301	3469.58884
372.811	3601.75276
373.32	3463.13902
373.829	3589.2529
374.338	3845.95765
374.847	3921.92258
375.356	3996.89279
375.865	4068.63278
376.373	4343.62523
376.882	4526.73815
377.39	4449.64422
377.898	4518.5917
378.407	4724.63587
378.915	4896.77421
379.423	5225.97859
379.93	5445.37753
380.438	5601.68966
380.946	5932.60683
381.453	6190.48002
381.96	6306.45984
382.468	6716.04901
382.975	7257.2611
383.482	7633.63862
383.989	7563.42944
384.495	7757.00826
385.002	8060.64712
385.509	8719.62182
386.015	9249.92388
386.521	9681.05273
387.028	10067.33896
387.534	10243.55884
388.04	10894.04118
388.546	10848.67757
389.051	11321.82133
389.557	12200.4185
390.063	13669.79821
390.568	14164.15577
391.073	14266.15867
391.578	15051.63561
392.084	15324.02996
392.589	15491.79573
393.093	16323.23201
393.598	18075.92811
394.103	19741.51153
394.607	22073.06603
395.112	23768.34647
395.616	25118.14837
396.12	27045.91325
396.624	30214.48401
397.128	32563.69949
397.632	36710.09695
398.136	38059.50625
398.639	35832.52295
399.143	32434.95754
399.646	28888.45294
400.15	25083.82847
400.653	20124.16724
401.156	13866.23708
401.659	5169.95759
402.162	1054.15589
402.664	0
403.167	0
403.67	0
404.172	0
404.674	0
405.176	0
405.678	0
406.18	0
406.682	0
407.184	0
407.686	0
408.187	0
408.688	0
409.19	0
409.691	0
410.192	0
410.693	0
411.194	435.30976
411.694	4082.94878
412.195	8864.71461
412.696	12089.80453
413.196	12760.96929
413.696	12863.67595
414.196	13703.56671
414.696	17261.84252
415.196	21764.24417
415.696	29583.19008
416.196	36460.31858
416.695	40057.39798
417.195	41392.74103
417.694	42202.39624
418.194	41206.608
418.693	37930.57522
419.192	36671.48328
419.691	36167.98264
420.19	35225.16567
420.688	34450.30928
421.187	33241.48298
421.685	31418.73808
422.184	28828.43925
422.682	25287.29192
423.18	21200.14337
423.678	18942.90929
424.176	17445.25843
424.674	16371.08481
425.172	15910.6543
425.669	14879.03972
426.167	14198.66257
426.664	12625.7436
427.161	11634.86827
427.659	10510.26837
428.156	10053.53705
428.652	9279.31672
429.149	9027.84634
429.646	8633.76368
430.143	8157.05357
430.639	7575.37737
431.135	7218.62202
431.632	6792.14164
432.128	6304.08007
432.624	5905.91115
433.12	5552.77159
433.616	5426.52576
434.111	5101.97866
434.607	4967.77089
435.103	4886.75428
435.598	4893.73396
436.093	4718.62226
436.588	4473.6147
437.083	4254.688
437.578	3998.83916
438.073	3730.09327
438.568	3728.24935
439.062	3589.03067
439.557	3495.41361
440.051	3430.35378
440.546	3145.5487
441.04	3036.811
441.534	3037.06675
442.028	3021.97245
442.522	2890.04823
443.015	2783.88489
443.509	2830.24899
444.002	2730.30771
444.496	2672.03679
444.989	2638.42126
445.482	2587.50934
445.975	2421.27176
446.468	2488.14702
446.961	2559.12811
447.454	2433.37855
447.947	2381.51147
448.439	2329.69631
448.931	2287.44821
449.424	2360.86353
449.916	2410.71903
450.408	2206.54372
450.9	2163.79223
451.392	2100.96742
451.884	2144.72317
452.375	1980.95265
452.867	2103.75701
453.358	1992.73099
453.849	1953.61076
454.341	1957.77478
454.832	1886.68262
455.323	1860.02821
455.814	1900.90516
456.304	1866.93075
456.795	1850.92582
457.285	1882.91285
457.776	1840.01336
458.266	1734.07011
458.756	1727.15338
459.247	1690.09436
459.737	1559.09679
460.226	1592.97902
460.716	1590.15728
461.206	1592.20224
461.695	1576.35213
462.185	1542.18451
462.674	1517.14483
463.163	1498.05931
463.653	1397.93389
464.142	1390.24026
464.63	1473.34721
465.119	1325.14577
465.608	1373.16964
466.096	1414.09684
466.585	1358.23417
467.073	1364.33633
467.561	1296.32336
468.05	1307.26354
468.538	1244.37435
469.026	1252.32391
469.513	1164.0199
470.001	1213.19301
470.489	1143.24903
470.976	1193.25396
471.463	1139.4054
471.951	1077.38747
472.438	1007.19207
472.925	984.16673
473.412	1018.33727
473.899	1009.1997
474.385	982.31478
474.872	890.12966
475.359	960.28938
475.845	910.97742
476.331	921.08782
476.817	863.23096
477.303	859.14495
477.789	812.16624
478.275	754.14776
478.761	756.12149
479.247	786.05446
479.732	733.1419
480.218	764.27208
480.703	749.18187
481.188	681.90225
481.673	655.96024
482.158	541.73418
482.643	720.2164
483.128	622.92159
483.612	591.92513
484.097	686.12432
484.581	632.98738
485.066	615.01412
485.55	549.80956
486.034	506.74721
486.518	561.90265
487.002	517.8896
487.486	528.91121
487.969	475.83303
488.453	539.98211
488.936	511.81187
489.42	486.76747
489.903	523.96551
490.386	469.51843
490.869	452.71704
491.352	477.87263
491.835	390.59485
492.318	401.67186
492.8	395.60194
493.283	426.82011
493.765	363.6852
494.247	418.7444
494.73	349.58823
495.212	359.67798
495.694	335.60259
496.175	302.55425
496.657	415.75496
497.139	392.50651
497.62	260.48534
498.102	300.58893
498.583	301.60303
499.064	283.4939
499.545	317.56816
500.026	240.42914
500.507	325.59481
500.988	293.58537
501.469	272.54783
501.949	262.52696
502.43	166.32279
502.91	227.37424
503.39	205.42553
503.87	205.39264
504.35	232.44963
504.83	229.40492
505.31	210.4177
505.79	160.31721
506.269	199.38465
506.749	175.32918
507.228	175.3394
507.707	189.34432
508.187	185.3696
508.666	135.27823
509.145	140.2734
509.623	138.27206
510.102	189.38233
510.581	185.37561
511.059	129.27316
511.538	173.3793
512.016	173.34724
512.494	146.30083
512.972	162.32568
513.45	68.1338
513.928	125.25715
514.406	105.21348
514.884	135.29586
515.361	172.34674
515.839	164.31358
516.316	128.2622
516.793	166.35834
517.27	170.35075
517.747	126.27701
518.224	117.23212
518.701	120.22811
519.178	54.11592
519.654	167.33907
520.131	92.19681
520.607	124.26573
521.083	113.22136
521.56	88.17985
522.036	87.16526
522.512	141.30027
522.987	64.13157
523.463	92.18939
523.939	136.28792
524.414	147.29178
524.89	97.19982
525.365	70.138
525.84	49.10126
526.315	105.21893
526.79	87.1705
527.265	73.14523
527.74	75.15972
528.215	82.16866
528.689	77.14834
529.164	66.12558
529.638	83.18765
530.112	53.10948
530.587	88.16223
531.061	33.07012
531.534	74.15796
532.008	87.18253
532.482	96.19273
532.956	52.11668
533.429	57.12197
533.903	129.24767
534.376	62.1205
534.849	46.0944
535.322	93.19236
535.795	58.12547
536.268	74.15646
536.741	66.14021
537.213	91.18476
537.686	46.09905
538.158	30.05934
538.631	81.17422
539.103	57.11229
539.575	37.06857
540.047	85.16406
540.519	76.16075
540.991	110.23695
541.463	28.06055
541.934	43.08734
542.406	81.16972
542.877	89.17632
543.348	94.20022
543.82	97.20998
544.291	98.20165
544.762	77.16048
545.233	90.1982
545.703	84.1624
546.174	136.27455
546.645	70.14605
547.115	111.23288
547.585	130.25918
548.056	123.25521
548.526	137.27612
548.996	165.34067
549.466	227.4712
549.935	205.40766
550.405	214.39135
550.875	196.39131
551.344	173.35317
551.814	208.40195
552.283	219.39918
552.752	191.37202
553.221	157.28587
553.69	272.49491
554.159	174.35901
554.628	235.43139
555.096	231.48807
555.565	266.48719
556.033	259.50952
556.502	155.32232
556.97	161.30583
557.438	164.33533
557.906	173.35574
558.374	100.20206
558.842	125.26202
559.31	80.15912
559.777	31.06705
560.245	43.09109
560.712	48.10011
561.18	81.15912
561.647	80.15957
562.114	47.09617
562.581	73.1616
563.048	81.16776
563.514	57.1256
563.981	56.11585
564.448	57.11541
564.914	118.24544
565.381	104.21236
565.847	148.30797
566.313	89.18648
566.779	87.17656
567.245	131.27314
567.711	33.07189
568.176	100.20067
568.642	65.14689
569.108	100.22013
569.573	147.30855
570.038	128.24
570.504	75.15088
570.969	162.35944
571.434	138.26719
571.899	173.36232
572.363	188.37534
572.828	253.50194
573.293	174.3511
573.757	219.43774
574.222	207.40069
574.686	189.36865
575.15	215.4439
575.614	292.57133
576.078	214.43618
576.542	313.60618
577.006	261.50547
577.469	355.74708
577.933	274.52315
578.396	270.55332
578.86	277.56137
579.323	268.54848
579.786	309.56638
580.249	225.44388
580.712	277.58422
581.175	232.49759
581.637	272.54228
582.1	255.48581
582.563	293.54139
583.025	232.489
583.487	220.38546
583.95	197.3691
584.412	237.43308
584.874	260.54656
585.336	225.46517
585.797	204.38628
586.259	254.52218
586.721	212.43525
587.182	281.5713
587.643	268.52785
588.105	180.37689
588.566	274.49906
589.027	199.42027
589.488	200.40189
589.949	236.50049
590.41	164.28144
590.87	213.4289
591.331	239.45178
591.791	184.37452
592.252	139.28247
592.712	236.49655
593.172	210.41517
593.632	215.41538
594.092	219.42859
594.552	196.37204
595.011	182.36809
595.471	235.45969
595.931	199.39074
596.39	175.37056
596.849	193.39651
597.308	227.43247
597.768	153.3459
598.227	168.35986
598.685	225.45536
599.144	186.38463
599.603	231.47972
600.062	187.34552
600.52	184.36172
600.978	184.38629
601.437	210.42374
601.895	122.23191
602.353	192.37691
602.811	176.34599
603.269	250.52161
603.727	197.41568
604.184	190.37633
604.642	206.44374
605.099	215.43772
605.557	227.48508
606.014	248.46225
606.471	217.47235
606.928	243.44877
607.385	306.63333
607.842	448.84712
608.299	432.83966
608.755	367.74785
609.212	345.6477
609.668	372.68755
610.125	404.82155
610.581	465.92556
611.037	463.88513
611.493	320.65489
611.949	297.61815
612.405	283.48972
612.861	357.72449
613.316	301.62313
613.772	310.61718
614.227	329.6695
614.683	349.64455
615.138	262.53741
615.593	282.57268
616.048	395.77378
616.503	368.7821
616.958	318.69379
617.412	342.70118
617.867	291.56114
618.321	316.57147
618.776	287.55981
619.23	309.63625
619.684	371.7278
620.138	390.78622
620.592	306.65601
621.046	342.70562
621.5	290.62547
621.954	378.74416
622.407	332.65298
622.861	291.62991
623.314	322.65093
623.768	342.7034
624.221	234.41776
624.674	265.54983
625.127	287.60292
625.58	308.63148
626.033	365.71602
626.485	236.51359
626.938	271.58487
627.39	257.54419
627.843	264.5562
628.295	262.55247
628.747	230.50245
629.199	216.45347
629.651	189.39898
630.103	233.49186
630.555	184.36445
631.006	265.57118
631.458	208.45651
631.909	273.57933
632.361	153.33743
632.812	155.33811
633.263	254.50828
633.714	219.43997
634.165	208.47359
634.616	187.41966
635.067	205.43009
635.518	183.41372
635.968	194.3704
636.419	152.31672
636.869	183.41372
637.319	121.2692
637.769	104.22499
638.219	201.45645
638.669	154.35149
639.119	142.33311
639.569	115.26803
640.019	196.43253
640.468	141.30431
640.918	173.39987
641.367	124.27009
641.816	116.25256
642.265	159.35448
642.714	155.34613
643.163	131.29242
643.612	90.21038
644.061	62.12948
644.51	124.27467
644.958	147.31318
645.406	118.27453
645.855	137.32583
646.303	123.28068
646.751	99.22053
647.199	145.32045
647.647	130.29133
648.095	128.28602
648.543	98.19875
648.99	147.34072
649.438	166.37873
649.885	99.24025
650.333	97.18659
650.78	133.31303
651.227	127.30147
651.674	115.25713
652.121	132.31352
652.568	95.22673
653.015	151.37178
653.461	139.32256
653.908	176.39814
654.354	137.32018
654.801	111.25575
655.247	143.30823
655.693	171.43246
656.139	96.22714
656.585	143.33565
657.031	95.21845
657.477	126.26803
657.922	116.26305
658.368	115.27949
658.813	178.40447
659.259	94.22309
659.704	78.18061
660.149	106.24428
660.594	119.27866
661.039	105.23709
661.484	134.31569
661.929	113.26171
662.373	99.24672
662.818	78.1923
663.262	119.2828
663.707	139.34614
664.151	128.30869
664.595	85.20395
665.039	156.38133
665.483	108.27202
665.927	130.30317
666.371	88.20272
666.814	92.21919
667.258	48.11392
667.701	151.32352
668.145	168.41097
668.588	109.2658
669.031	72.16936
669.474	100.23998
669.917	129.28474
670.36	92.22748
670.803	142.33947
671.245	105.22224
671.688	127.30773
672.13	82.18459
672.573	161.40325
673.015	102.2446
673.457	82.17997
673.899	138.3318
674.341	129.3094
674.783	130.30948
675.225	134.32682
675.666	59.14259
676.108	94.2057
676.549	107.2537
676.991	97.21518
677.432	96.19326
677.873	92.21396
678.314	117.27891
678.755	108.26243
679.196	81.18685
679.637	127.30935
680.078	118.27648
680.518	95.2229
680.959	77.18567
681.399	92.22848
681.839	104.25337
682.28	96.23702
682.72	63.14591
683.16	84.20975
683.6	152.34553
684.039	113.23739
684.479	68.16802
684.919	33.07728
685.358	131.33084
685.798	95.24869
686.237	128.30916
686.676	120.27941
687.115	103.24308
687.554	117.27805
687.993	109.24281
688.432	68.1574
688.871	56.12895
689.309	102.24441
689.748	96.2035
690.186	123.29411
690.625	83.19611
691.063	78.18854
691.501	108.26734
691.939	77.19308
692.377	80.19643
692.815	66.15941
693.253	130.31245
693.69	95.21092
694.128	49.12016
694.565	119.28422
695.003	116.29395
695.44	103.24318
695.877	81.19079
696.314	141.30418
696.751	126.28851
697.188	96.22212
697.625	82.1907
698.061	68.1648
698.498	106.25757
698.934	112.27041
699.371	65.15477
699.807	114.27045
700.243	71.17249
700.679	114.25967
701.115	121.2859
701.551	82.19506
701.987	98.2226
702.422	83.19869
702.858	75.18043
703.294	116.26423
703.729	147.35806
704.164	82.19895
704.599	102.22914
705.035	68.15433
705.47	51.12557
705.904	69.16265
706.339	133.30998
706.774	99.23328
707.209	56.13106
707.643	95.2295
708.078	65.15993
708.512	37.09371
708.946	121.29054
709.38	97.23132
709.814	74.17142
710.248	58.1431
710.682	61.14686
711.116	24.05825
711.549	97.25081
711.983	11.02603
712.416	130.30758
712.85	110.27458
713.283	67.16045
713.716	103.25957
714.149	117.27976
714.582	79.17962
715.015	87.21917
715.448	60.15275
715.881	49.10956
716.313	71.16828
716.746	62.14777
717.178	38.09282
717.61	77.19654
718.043	102.25498
718.475	76.18585
718.907	125.31614
719.339	15.0348
719.77	53.12726
720.202	85.21597
720.634	66.16206
721.065	74.17718
721.497	97.23874
721.928	51.12668
722.359	3.00738
722.79	73.17629
723.221	87.22011
723.652	116.29916
724.083	53.12148
724.514	87.20173
724.945	43.1027
725.375	26.06147
725.806	78.19618
726.236	140.3569
726.666	63.15099
727.096	57.14148
727.526	101.2568
727.956	34.07876
728.386	93.23008
728.816	38.09732
729.246	37.0912
729.675	16.04007
730.105	108.26636
730.534	109.25595
730.964	104.26345
731.393	105.26167
731.822	85.21803
732.251	80.20409
732.68	146.34302
733.109	70.17391
733.537	62.15128
733.966	80.19984
734.395	44.1033
734.823	70.16009
735.251	61.14853
735.68	127.31753
736.108	70.17839
736.536	58.13861
736.964	104.24235
737.392	74.18646
737.82	131.31384
738.247	91.21926
738.675	127.30344
739.102	70.17606
739.53	89.22717
739.957	93.23964
740.384	129.31774
740.811	78.19885
741.238	91.22307
741.665	48.11291
742.092	127.30309
742.519	39.09772
742.945	58.14083
743.372	69.17214
743.798	121.31015
744.225	77.18454
744.651	111.27843
745.077	108.26939
745.503	82.20134
745.929	87.20994
746.355	149.36848
746.781	128.31626
747.207	36.08574
747.632	71.17424
748.058	88.22046
748.483	93.21548
748.908	101.25134
749.334	72.17816
749.759	94.22266
750.184	38.09182
750.609	126.30892
751.033	151.35512
751.458	136.30477
751.883	105.26053
752.307	19.04557
752.732	76.19067
753.156	97.24006
753.58	99.23609
754.005	96.24413
754.429	86.20332
754.853	79.19666
755.277	96.2281
755.7	120.29704
756.124	64.15999
756.548	72.172
756.971	124.3021
757.394	104.26775
757.818	92.23702
758.241	54.13815
758.664	76.1928
759.087	50.11316
759.51	125.31004
759.933	62.15049
760.356	54.13956
760.778	61.15125
761.201	120.29148
761.623	90.21935
762.046	106.25215
762.468	134.32084
762.89	113.27874
763.312	89.21816
763.734	47.11449
764.156	77.19113
764.578	81.18782
765	61.15014
765.421	23.05914
765.843	59.15561
766.264	124.29893
766.686	46.11673
767.107	55.13457
767.528	45.11458
767.949	68.17385
768.37	18.04488
768.791	84.20419
769.212	37.09388
769.632	9.02137
770.053	73.19279
770.473	78.19067
770.894	51.12889
771.314	92.22062
771.734	20.04743
772.154	60.15501
772.575	88.20498
772.994	55.12632
773.414	80.19315
773.834	77.19321
774.254	78.19173
774.673	93.22696
775.093	52.12971
775.512	20.04996
775.931	62.15806
776.351	50.12517
776.77	-1.00249
777.189	54.12964
777.607	38.09793
778.026	51.12802
778.445	-37.09468
778.864	69.17767
779.282	27.06584
779.701	59.14959
780.119	4.01026
780.537	25.06312
780.955	49.1256
781.373	29.07256
781.791	4.00917
782.209	23.05386
782.627	32.08501
783.045	12.02808
783.462	26.06712
783.88	25.06531
784.297	14.03568
784.715	-11.0287
785.132	15.03684
785.549	52.13088
785.966	71.17906
786.383	48.11895
786.8	30.0706
787.217	-7.01691
787.633	-1.00253
788.05	126.29765
788.466	41.09774
788.883	19.04898
789.299	2.0049
789.715	5.01234
790.131	52.13008
790.547	48.12068
790.963	11.02767
791.379	4.01025
791.795	27.06246
792.21	65.15275
792.626	20.04809
793.041	8.02002
793.457	33.08233
793.872	14.03339
794.287	-22.05356
794.702	47.11662
795.117	-2.00504
795.532	4.01016
795.947	44.1068
796.362	77.18433
796.776	65.15311
797.191	35.08643
797.605	-14.03348
798.02	17.04187
798.434	36.08111
798.848	-2.005
799.262	16.04014
799.676	27.06658
800.09	11.02741
800.504	3.00739
800.918	10.02351
801.331	15.03973
801.745	2.00467
802.158	29.07314
802.572	49.11962
802.985	55.13367
803.398	28.06748
803.811	82.21067
804.224	18.04531
804.637	-53.12949
805.05	40.09354
805.462	41.10147
805.875	-12.03155
806.288	0
806.7	41.10369
807.112	21.04929
807.525	18.04492
807.937	-21.05283
808.349	37.09334
808.761	44.10892
809.173	10.02454
809.584	35.08719
809.996	-28.06987
810.408	15.03908
810.819	-13.03112
811.231	48.12448
811.642	55.13161
812.053	193.44857
812.464	187.43514
812.875	224.55708
813.286	98.25107
813.697	154.35503
814.108	51.1252
814.519	21.0474
814.929	34.08732
815.34	33.08068
815.75	16.04105
816.16	33.08287
816.571	36.09407
816.981	74.17488
817.391	35.08516
817.801	22.05514
818.211	40.09603
818.62	41.09931
819.03	45.11088
819.44	31.08151
819.849	59.14901
820.259	42.10805
820.668	20.04965
821.077	1.00251
821.486	34.08252
821.895	62.15353
822.304	38.10118
822.713	23.05491
823.122	35.08792
823.531	-5.01203
823.939	45.11019
824.348	27.06621
824.756	42.10575
825.164	28.07101
825.573	0
825.981	24.06004
826.389	42.10605
826.797	28.07065
827.205	-12.02801
827.612	52.12877
828.02	8.01902
828.428	53.13533
828.835	39.1031
829.243	31.07447
829.65	30.0751
830.057	58.14109
830.464	-2.00494
830.871	13.03148
831.278	-11.02699
831.685	13.02938
832.092	35.08624
832.499	26.05745
832.905	69.17463
833.312	50.11458
833.718	38.0952
834.124	24.05538
834.531	1.00255
834.937	60.15415
835.343	39.09464
835.749	51.11962
836.155	41.10777
836.561	2.00498
836.966	2.00495
837.372	6.01543
837.777	6.01511
838.183	5.01127
838.588	9.02258
838.993	60.14629
839.399	34.08361
839.804	-11.02718
840.209	9.02313
840.613	5.01127
841.018	28.07136
841.423	8.02072
841.828	-5.0128
842.232	39.09709
842.637	41.09721
843.041	0
843.445	-6.01524
843.849	24.05984
844.253	46.10976
844.657	17.04315
845.061	25.05721
845.465	9.02196
845.869	-4.00942
846.272	-12.02963
846.676	13.03175
847.079	12.03078
847.483	31.07779
847.886	75.18214
848.289	-13.0351
848.692	10.02556
849.095	52.12517
849.498	86.21708
849.901	15.03475
850.304	10.02414
850.707	14.03599
851.109	42.10666
851.512	-5.01244
851.914	12.0305
852.316	32.08135
852.718	-37.09709
853.121	-13.03229
853.523	13.03068
853.925	18.04727
854.326	-13.03293
854.728	29.07496
855.13	-25.0654
855.531	-21.05096
855.933	19.04599
856.334	-47.11942
856.736	24.05418
857.137	6.0141
857.538	-32.08175
857.939	-3.0075
858.34	33.08083
858.741	19.04999
859.142	18.04359
859.542	-1.00266
859.943	35.08735
860.343	-2.00501
860.744	33.08092
861.144	47.11491
861.544	-5.01216
861.945	4.01029
862.345	20.04927
862.745	28.06997
863.145	51.12214
863.544	27.0686
863.944	17.04049
864.344	28.06994
864.743	42.10454
865.143	56.14387
865.542	-13.03059
865.941	3.0075
866.34	65.15554
866.74	51.13699
867.139	-18.04372
867.537	63.16036
867.936	32.07741
868.335	29.07415
868.734	40.10251
869.132	18.04216
869.531	22.05358
869.929	-54.12588
870.327	6.01452
870.726	63.15695
871.124	10.0236
871.522	16.04105
871.92	34.08422
872.318	3.00741
872.715	3.0075
873.113	-28.06931
873.511	-20.05052
873.908	-59.15198
874.306	24.06004
874.703	50.12526
875.1	1.00258
875.497	14.03384
875.894	16.03949
876.291	41.10091
876.688	-11.0287
877.085	3.00727
877.482	7.01768
877.878	11.0267
878.275	3.00769
878.671	10.02249
879.068	30.07279
879.464	-15.03674
879.86	8.0191
880.256	9.0224
880.652	37.09441
881.048	40.09941
881.444	21.05033
881.84	26.06642
882.236	21.05313
882.631	42.10336
883.027	37.08992
883.422	22.05658
883.817	-11.02797
884.213	-5.01296
884.608	5.01237
885.003	-14.0342
885.398	1.00253
885.793	11.02783
886.188	-42.10624
886.582	60.15377
886.977	37.08814
887.371	18.04582
887.766	-29.07321
888.16	41.10258
888.554	41.10166
888.949	49.12318
889.343	15.03692
889.737	-32.08648
890.131	-4.01014
890.525	30.07705
890.918	20.05065
891.312	66.15761
891.706	13.03434
892.099	62.15756
892.492	5.01091
892.886	-10.02476
893.279	10.02567
893.672	15.03845
894.065	21.0529
894.458	50.12585
894.851	38.09341
895.244	5.01288
895.637	31.075
896.029	12.02957
896.422	38.09313
896.814	25.06248
897.206	-16.03862
897.599	41.10166
897.991	36.08735
898.383	-17.04073
898.775	5.0114
899.167	-39.09261
899.559	20.05093
899.951	37.08753
900.342	-19.04894
900.734	-5.01254
901.125	24.06329
901.517	1.00248
901.908	50.11999
902.299	21.05165
902.69	44.10402
903.082	1.00245
903.473	-30.07298
903.863	49.12512
904.254	2.00469
904.645	36.08983
905.036	-69.17089
905.426	50.11458
905.817	8.0198
906.207	-12.02895
906.597	17.04004
906.987	51.13224
907.378	17.04327
907.768	18.04786
908.158	32.07834
908.547	22.05713
908.937	29.07473
909.327	12.02937
909.717	80.20215
910.106	31.07478
910.495	52.12985
910.885	42.10658
911.274	29.0728
911.663	62.15711
912.052	44.10876
912.441	1.00257
912.83	33.07607
913.219	48.12572
913.608	11.02715
913.997	-5.01266
914.385	33.07915
914.774	-6.01477
915.162	0
915.55	58.1402
915.939	-10.02552
916.327	18.04521
916.715	39.09962
917.103	69.16933
917.491	30.07453
917.878	50.123
918.266	31.08068
918.654	8.0206
919.041	-24.06346
919.429	-30.07194
919.816	32.08141
920.203	21.05123
920.591	-3.00751
920.978	9.02222
921.365	-22.05844
921.752	-24.05806
922.139	17.03719
922.525	-34.08299
922.912	39.09535
923.299	18.04501
923.685	-31.08201
924.072	41.09477
924.458	37.09191
924.844	-15.03757
925.231	-32.07571
925.617	-5.01284
926.003	57.14555
926.389	13.03302
926.774	21.05351
927.16	27.06736
927.546	30.07686
927.931	38.09506
928.317	5.01163
928.702	33.07837
929.088	-2.00478
929.473	19.04862
929.858	-27.06623
930.243	24.0579
930.628	-13.03201
931.013	1.0025
931.398	50.11504
931.783	44.11599
932.167	18.04428
932.552	17.04286
932.937	30.07475
933.321	30.07556
933.705	15.03806
934.09	34.08619
934.474	18.04303
934.858	8.0209
935.242	-13.03051
935.626	21.05404
936.009	2.00536
936.393	13.0333
936.777	1.00258
937.16	41.10686
937.544	17.04032
937.927	-10.02565
938.311	56.13659
938.694	54.14273
939.077	12.02894
939.46	47.11551
939.843	23.0483
940.226	24.06185
940.609	-23.05359
940.991	-9.02315
941.374	-15.03711
941.757	0
942.139	4.00907
942.522	24.05703
942.904	42.10114
943.286	33.08412
943.668	33.08574
944.05	40.09872
944.432	13.0323
944.814	20.04954
945.196	-24.0593
945.578	-7.01682
945.959	33.07761
946.341	50.12277
946.722	22.05193
947.104	47.11243
947.485	-4.00941
947.866	-2.00509
948.247	-3.00764
948.628	16.03929
949.009	16.04122
949.39	74.18344
949.771	28.06543
950.152	0
950.532	-49.12273
950.913	48.11585
951.293	2.00545
951.674	10.02437
952.054	-5.01251
952.434	-19.04776
952.814	58.13781
953.194	46.12048
953.574	9.02234
953.954	-5.012
954.334	6.01507
954.714	-47.11662
955.093	64.15697
955.473	-23.05827
955.853	18.04686
956.232	28.07701
956.611	60.14366
956.99	-19.04834
957.37	6.01541
957.749	0
958.128	22.05571
958.506	20.05215
958.885	21.05328
959.264	-34.08462
959.643	6.01378
960.021	12.02994
960.4	-23.05291
960.778	19.04708
961.156	1.00253
961.535	1.00235
961.913	-11.02605
962.291	-12.03112
962.669	4.01022
963.047	14.03596
963.424	33.08447
963.802	17.04206
964.18	51.12903
964.557	51.11746
964.935	6.01434
965.312	14.03668
965.69	58.14504
966.067	25.06117
966.444	36.08895
966.821	10.02596
967.198	58.14051
967.575	9.0223
967.952	34.08038
968.329	35.08541
968.705	30.06462
969.082	27.06952
969.458	-32.07796
969.835	13.03187
970.211	17.04388
970.587	34.0849
970.963	45.11555
971.339	12.03154
971.715	77.19133
972.091	5.01242
972.467	36.09003
972.843	3.00751
973.219	38.09147
973.594	-14.03702
973.97	32.07644
974.345	-37.09003
974.721	66.15935
975.096	48.1162
975.471	16.03821
975.846	3.00727
976.221	18.04597
976.596	-12.0291
976.971	19.04718
977.346	45.10488
977.72	34.08686
978.095	22.05713
978.469	61.1453
978.844	17.043
979.218	11.02656
979.593	-4.00968
979.967	46.11215
980.341	10.02321
980.715	34.08591
981.089	29.07287
981.463	2.00464
981.837	-1.00247
982.21	39.09097
982.584	-19.04649
982.957	-10.02524
983.331	65.15323
983.704	7.01734
984.078	36.08895
984.451	53.13232
984.824	22.05386
985.197	35.08525
985.57	27.06799
985.943	87.21342
986.316	44.10824
986.688	48.11581
987.061	38.08928
987.434	14.03671
987.806	65.15721
988.179	17.04037
988.551	46.11678
988.923	58.14262
989.295	56.13979
989.667	-24.05814
990.039	-11.02748
990.411	19.044
990.783	33.07625
991.155	14.03387
991.527	49.12069
991.898	18.04511
992.27	-12.03002
992.641	39.09804
993.012	80.18715
993.384	-8.01929
993.755	49.12494
994.126	17.04115
994.497	-4.00992
994.868	13.03008
995.239	8.01954
995.61	-11.02798
995.98	-30.07396
996.351	-3.0075
996.722	-6.01407
997.092	-19.04559
997.462	0
997.833	36.08557
998.203	8.01955
998.573	17.04258
998.943	19.04482
999.313	-18.04369
999.683	19.04587
1000.053	-15.03496
1000.423	40.09738
1000.792	40.10384
1001.162	-6.01492
1001.531	10.02484
1001.901	-18.04542
1002.27	32.0718
1002.639	2.00515
1003.009	16.0383
1003.378	10.02575
1003.747	25.05935
1004.116	4.00965
1004.485	-40.09723
1004.853	64.16172
1005.222	45.11357
1005.591	26.06202
1005.959	-28.06409
1006.328	-3.00682
1006.696	-14.03417
1007.064	-14.03562
1007.433	26.06525
1007.801	50.12272
1008.169	27.06846
1008.537	50.11071
1008.905	8.01879
1009.273	40.09898
1009.64	-17.04107
1010.008	24.05749
1010.375	60.14541
1010.743	30.06955
1011.11	-29.06966
1011.478	26.06462
1011.845	16.03787
1012.212	39.08846
1012.579	23.05674
1012.946	48.11427
1013.313	6.0144
1013.68	13.02944
1014.047	-21.05071
1014.414	-15.03587
1014.78	-22.05537
1015.147	32.07764
1015.513	34.08215
1015.88	34.08717
1016.246	53.13074
1016.612	26.0598
1016.978	19.04682
1017.344	39.09656
1017.71	53.12915
1018.076	31.07336
1018.442	30.07742
1018.808	11.02768
1019.174	34.08552
1019.539	87.19877
1019.905	17.04034
1020.27	1.00249
1020.636	7.01692
1021.001	33.07924
1021.366	-7.01699
1021.731	-1.00259
1022.096	-31.0793
1022.461	-15.03594
1022.826	-6.01441
1023.191	20.05272
1023.556	1.00237
1023.92	7.01734
1024.285	31.07591
1024.649	30.07377
1025.014	13.03241
1025.378	20.05054
1025.742	22.0549
1026.107	28.0636
1026.471	26.06097
1026.835	11.02745
1027.199	-28.06837
1027.562	25.05838
1027.926	12.02954
1028.29	11.02802
1028.654	-21.04898
1029.017	51.12529
1029.381	-54.13151
1029.744	-3.00772
1030.107	11.02621
1030.471	14.03374
1030.834	37.08437
1031.197	47.11324
1031.56	-22.05262
1031.923	7.01823
1032.286	66.15446
1032.648	35.08391
1033.011	26.05994
1033.374	-11.02615
1033.736	-35.0933
1034.099	17.04167
1034.461	-8.02041
1034.823	6.01505
1035.185	24.06067
1035.548	-14.03446
1035.91	16.03856
1036.272	49.1115
1036.634	38.09313
1036.995	-6.01425
1037.357	0
1037.719	18.04402
1038.08	23.05487
1038.442	14.03344
1038.803	28.06748
1039.165	-4.01019
1039.526	18.04374
1039.887	17.04091
1040.248	-53.13299
1040.609	43.10634
1040.97	23.05646
1041.331	15.03819
1041.692	7.01647
1042.053	-3.0069
1042.413	1.00235
1042.774	7.01715
1043.134	53.12605
1043.495	24.06058
1043.855	30.07301
1044.215	31.07717
1044.576	-18.04357
1044.936	58.1327
1045.296	48.11977
1045.656	17.04195
1046.016	65.15638
1046.375	-10.02452
1046.735	-14.03213
1047.095	24.05643
1047.454	5.01069
1047.814	16.03869
1048.173	55.13121
1048.533	-8.01853
1048.892	-76.18668
1049.251	66.16511
1049.61	2.00497
1049.969	31.0733
1050.328	9.01967
1050.687	0
1051.046	-7.01722
1051.405	24.05995
1051.763	0
1052.122	11.02761
1052.48	24.0591
1052.839	0
1053.197	10.02371
1053.555	49.11168
1053.914	18.04426
1054.272	24.05827
1054.63	-50.12445
1054.988	-4.0096
1055.345	10.02171
1055.703	4.00971
1056.061	33.08509
1056.419	26.06754
1056.776	30.07298
1057.134	21.04887
1057.491	17.0428
1057.848	49.12194
1058.206	9.02132
1058.563	9.02
1058.92	21.04866
1059.277	27.06685
1059.634	34.0802
1059.991	51.12209
1060.348	-35.08042
1060.704	-31.07498
1061.061	49.1138
1061.418	-24.05897
1061.774	17.0422
1062.131	23.06105
1062.487	-4.00945
1062.843	-6.0151
1063.199	38.09465
1063.555	-31.07293
1063.911	2.00509
1064.267	58.12069
1064.623	11.02689
1064.979	74.17441
1065.335	29.06956
1065.691	-14.03394
1066.046	6.01331
1066.402	-14.0322
1066.757	8.02033
1067.112	24.05915
1067.468	-61.14703
1067.823	12.02904
1068.178	-8.01955
1068.533	20.04873
1068.888	52.12413
1069.243	35.08656
1069.598	6.01469
1069.952	5.01135
1070.307	-30.07529
1070.662	-6.01439
1071.016	-52.11888
1071.371	35.07981
1071.725	58.13845
1072.079	19.04594
1072.434	14.03422
1072.788	1.0024
1073.142	17.04204
1073.496	-21.05046
1073.85	-2.00468
1074.203	29.07059
1074.557	-12.03222
1074.911	40.09559
1075.265	3.00703
1075.618	17.04173
1075.971	64.15172
1076.325	6.01536
1076.678	-38.08838
1077.031	-10.02289
1077.385	28.06192
1077.738	-18.04117
1078.091	-36.08323
1078.444	17.0397
1078.796	-9.02231
1079.149	4.01002
1079.502	15.03565
1079.855	-2.00471
1080.207	13.03222
1080.56	-28.07329
1080.912	29.07082
1081.264	-8.01946
1081.617	25.06117
1081.969	-20.05104
1082.321	6.01476
1082.673	-31.07185
1083.025	-11.02638
1083.377	62.13264
1083.728	28.06556
1084.08	4.01006
1084.432	18.04364
1084.783	7.01653
1085.135	26.06539
1085.486	-35.08138
1085.838	-12.02987
1086.189	-15.03682
1086.54	21.05039
1086.891	3.00764
1087.242	12.0294
1087.593	40.09749
1087.944	-19.04357
1088.295	44.10006
1088.646	38.09223
1088.996	-27.06594
1089.347	-14.03473
1089.698	-43.10337
1090.048	39.1014
1090.398	25.05822
1090.749	-19.04602
1091.099	-20.05088
1091.449	12.03007
1091.799	14.03525
1092.149	-8.0197
1092.499	7.0172
1092.849	-6.01539
1093.199	30.0754
1093.548	-4.0097
1093.898	3.00756
1094.248	-1.00259
1094.597	-44.11407
1094.947	30.08023
1095.296	-12.02994
1095.645	15.03921
1095.994	29.06987
1096.343	26.06565
1096.692	1.00265
1097.041	23.06249
1097.39	17.04286
1097.739	35.09113
1098.088	67.17884
1098.437	-51.13613
1098.785	34.09182
1099.134	51.13528
1099.482	45.12375
1099.83	27.07116
1100.179	-5.01315
1100.527	17.04538
1100.875	22.05838
1101.223	17.04535
1101.571	27.07482
1101.919	-9.02373
1102.267	12.03395
1102.615	12.03855
1102.962	18.0579
1103.31	16.05135
1103.658	28.09
