Data from N2 R9 sample 1_Subt2__2__19-15-27-764.txt Node

Date: Fri Aug 29 19:15:27 PDT 2025
User: uwsun
Spectrometer: HDX01956
Trigger mode: 0
Integration Time (sec): 5.000000E-1
Scans to average: 1
Nonlinearity correction enabled: true
Boxcar width: 0
Storing dark spectrum: false
XAxis mode: Wavelengths
Number of Pixels in Spectrum: 2068
>>>>>Begin Spectral Data<<<<<
194.03	270.72597
194.578	271.8278
195.127	272.81772
195.676	289.86963
196.225	319.80063
196.773	343.88825
197.321	478.17799
197.87	593.30395
198.418	592.28294
198.966	558.22612
199.513	523.09629
200.061	582.22743
200.609	626.39416
201.156	535.96395
201.704	547.15477
202.251	599.32763
202.798	584.27043
203.345	639.30563
203.892	600.25548
204.438	618.21784
204.985	579.12454
205.532	624.36387
206.078	664.33072
206.624	579.17804
207.17	641.21263
207.716	646.27729
208.262	617.97599
208.808	594.20011
209.354	606.21207
209.899	661.38116
210.445	644.30545
210.99	632.2408
211.535	637.22504
212.08	599.14741
212.625	643.32688
213.17	692.43356
213.715	570.03049
214.259	669.26385
214.804	653.32825
215.348	665.23174
215.892	652.27833
216.436	690.29436
216.98	651.16918
217.524	612.18903
218.068	661.3714
218.612	643.34113
219.155	663.26901
219.698	598.18057
220.242	608.26831
220.785	565.10252
221.328	553.16388
221.871	552.19004
222.414	563.18548
222.956	499.01685
223.499	537.01107
224.041	580.13104
224.583	586.05031
225.126	531.98077
225.668	523.07503
226.21	543.15433
226.751	474.87437
227.293	565.07851
227.835	491.02048
228.376	556.0785
228.918	577.22991
229.459	569.18552
230	555.10656
230.541	600.14462
231.082	582.17636
231.622	520.01094
232.163	529.07908
232.704	543.13277
233.244	495.04527
233.784	590.21218
234.324	466.85961
234.864	481.924
235.404	559.11507
235.944	525.05101
236.484	588.22979
237.023	599.16733
237.563	568.08608
238.102	560.10335
238.641	561.19317
239.18	553.07088
239.719	588.2325
240.258	588.08858
240.797	547.09109
241.335	546.12366
241.874	480.76368
242.412	607.20033
242.95	510.01974
243.488	511.9788
244.026	568.07874
244.564	573.96077
245.102	559.03298
245.64	569.14452
246.177	566.04516
246.715	585.1654
247.252	581.10106
247.789	639.9575
248.326	534.06388
248.863	580.03473
249.4	627.15717
249.936	556.93148
250.473	590.12551
251.009	599.11534
251.546	614.09213
252.082	588.04741
252.618	594.07234
253.154	560.11008
253.69	552.0218
254.226	617.19962
254.761	562.03361
255.297	547.98003
255.832	552.07736
256.367	605.16172
256.903	587.04265
257.438	650.23359
257.972	623.11592
258.507	600.10807
259.042	638.10444
259.576	545.94934
260.111	639.19174
260.645	610.06145
261.179	583.10594
261.713	627.11444
262.247	598.11982
262.781	590.98741
263.315	594.18583
263.849	602.22964
264.382	612.13818
264.915	621.16727
265.449	599.17508
265.982	644.17229
266.515	668.30358
267.048	644.0706
267.58	648.12714
268.113	570.98898
268.646	651.2899
269.178	585.04663
269.71	643.11164
270.243	641.1683
270.775	632.30269
271.307	611.19471
271.838	691.30867
272.37	650.28281
272.902	746.31516
273.433	663.13535
273.965	652.2693
274.496	642.28953
275.027	617.23553
275.558	656.2668
276.089	624.22161
276.62	666.36488
277.15	665.31399
277.681	639.09474
278.211	650.278
278.741	600.04291
279.272	589.0717
279.802	675.34251
280.332	672.24257
280.861	693.31055
281.391	626.11756
281.921	666.27261
282.45	675.34251
282.98	700.45145
283.509	674.17743
284.038	661.17562
284.567	719.30548
285.096	694.31277
285.625	656.15917
286.153	671.22371
286.682	652.16048
287.21	707.31751
287.739	664.22407
288.267	690.29627
288.795	737.52383
289.323	671.20888
289.851	724.29958
290.378	730.24069
290.906	726.34061
291.433	733.41
291.961	720.23091
292.488	715.37664
293.015	735.30687
293.542	683.34142
294.069	707.33316
294.596	747.41699
295.122	739.33575
295.649	800.29644
296.175	827.49593
296.702	776.42098
297.228	744.37734
297.754	764.26859
298.28	808.33818
298.806	791.41104
299.332	778.25076
299.857	804.31907
300.383	793.51537
300.908	763.36939
301.433	730.32851
301.958	776.32761
302.483	773.43363
303.008	827.51038
303.533	826.61015
304.058	824.41977
304.582	800.36951
305.107	765.49284
305.631	834.37072
306.155	789.32644
306.679	749.27478
307.203	853.40166
307.727	816.39548
308.251	860.53007
308.775	818.37796
309.298	836.41677
309.822	868.57384
310.345	870.44992
310.868	845.42782
311.391	913.58149
311.914	892.57241
312.437	916.43604
312.96	893.4489
313.482	890.45415
314.005	941.63358
314.527	913.68374
315.049	951.66667
315.571	963.38818
316.093	997.65733
316.615	966.55419
317.137	987.37627
317.659	1029.65551
318.18	1029.63497
318.702	1007.51343
319.223	1010.2761
319.744	1056.47361
320.265	991.55369
320.786	1034.63593
321.307	1031.65313
321.828	1162.56812
322.348	1060.54928
322.869	1045.5202
323.389	735.72522
323.909	1087.5109
324.43	1161.70883
324.95	1105.49593
325.47	1153.68768
325.989	1131.56249
326.509	1146.40565
327.029	1242.52053
327.548	1137.42768
328.067	1166.59936
328.587	1221.74762
329.106	1235.51346
329.625	1257.94826
330.144	1236.52705
330.662	1228.51385
331.181	1324.6074
331.7	1315.59348
332.218	1318.39278
332.736	1370.6074
333.255	1331.54891
333.773	1371.60919
334.291	1355.75942
334.808	1399.43965
335.326	1474.50208
335.844	1428.50672
336.361	1464.7537
336.879	1473.51395
337.396	1435.57789
337.913	1515.47267
338.43	1557.41519
338.947	1533.55041
339.464	1550.24847
339.981	1549.50032
340.497	1628.66634
341.014	1641.59511
341.53	1507.31081
342.046	1644.57851
342.562	1688.6612
343.078	1663.44127
343.594	1748.49519
344.11	1685.45304
344.626	1713.61425
345.141	1781.29987
345.657	1802.30853
346.172	1784.44804
346.687	1810.2771
347.202	1847.19069
347.717	1854.3718
348.232	1878.51546
348.747	1885.21866
349.261	1892.99552
349.776	1977.25096
350.29	1946.34476
350.805	2009.41882
351.319	2020.17994
351.833	1946.0414
352.347	2027.15704
352.861	1937.11145
353.374	2113.0887
353.888	2011.22078
354.401	2106.01663
354.915	2052.88051
355.428	2174.20518
355.941	2219.94678
356.454	2273.87285
356.967	2179.0217
357.48	2257.90177
357.993	2124.13396
358.505	2232.04086
359.018	2232.03931
359.53	2390.89342
360.042	2251.70045
360.554	2319.9433
361.066	2339.9092
361.578	2345.55621
362.09	2375.81182
362.602	2305.55124
363.113	2354.67096
363.625	2473.50132
364.136	2487.43005
364.647	2389.50096
365.158	2542.5108
365.669	2600.57069
366.18	2649.47646
366.691	2628.26123
367.201	2570.50458
367.712	2655.26109
368.222	2566.29717
368.733	2565.08543
369.243	2719.02296
369.753	2877.07595
370.263	2921.11958
370.773	2800.25684
371.282	2811.05455
371.792	2859.76932
372.301	2918.89975
372.811	3005.08901
373.32	3028.37362
373.829	3088.52644
374.338	3234.25516
374.847	3290.2195
375.356	3408.15535
375.865	3590.7728
376.373	3806.7409
376.882	3929.88905
377.39	3815.78036
377.898	3884.66132
378.407	4187.53237
378.915	4314.54769
379.423	4455.57035
379.93	4659.71138
380.438	4861.89304
380.946	5014.22878
381.453	5252.70418
381.96	5471.50776
382.468	5647.74642
382.975	6275.50534
383.482	6618.89367
383.989	6406.46485
384.495	6751.76316
385.002	6903.41714
385.509	7429.50166
386.015	7878.18226
386.521	8239.98488
387.028	8621.98743
387.534	8951.90127
388.04	9264.09278
388.546	9113.67889
389.051	9624.68175
389.557	10438.85086
390.063	11708.05603
390.568	12109.60075
391.073	12326.02967
391.578	12794.91432
392.084	12974.21567
392.589	13048.20061
393.093	13892.51568
393.598	15389.87332
394.103	16887.28269
394.607	18739.76957
395.112	20130.112
395.616	21072.22883
396.12	22815.44138
396.624	25060.41651
397.128	27206.64326
397.632	30746.73204
398.136	33148.65744
398.639	33539.21212
399.143	31653.53446
399.646	28747.9973
400.15	25083.82847
400.653	20124.16724
401.156	13866.23708
401.659	5169.95759
402.162	1054.15589
402.664	0
403.167	0
403.67	0
404.172	0
404.674	0
405.176	0
405.678	0
406.18	0
406.682	0
407.184	0
407.686	0
408.187	0
408.688	0
409.19	0
409.691	0
410.192	0
410.693	0
411.194	435.30976
411.694	4082.94878
412.195	8864.71461
412.696	12089.80453
413.196	12760.96929
413.696	12863.67595
414.196	13703.56671
414.696	17261.84252
415.196	21764.24417
415.696	29583.19008
416.196	36460.31858
416.695	40057.39798
417.195	39718.3992
417.694	37693.23453
418.194	35731.56473
418.693	32839.78914
419.192	32072.75294
419.691	31296.08466
420.19	30641.35242
420.688	30286.35689
421.187	29423.72003
421.685	27546.5334
422.184	25674.15102
422.682	21917.48981
423.18	18420.8188
423.678	16117.07657
424.176	14938.15031
424.674	14150.05816
425.172	13466.22254
425.669	12904.93371
426.167	12302.55759
426.664	10978.17216
427.161	9900.69751
427.659	9271.62588
428.156	8581.64596
428.652	8009.52823
429.149	7716.3878
429.646	7382.38959
430.143	7174.29067
430.639	6526.3425
431.135	6188.49371
431.632	5929.88812
432.128	5623.81194
432.624	5149.99681
433.12	4787.92127
433.616	4692.81545
434.111	4454.60277
434.607	4298.53829
435.103	4358.55254
435.598	4313.54057
436.093	4076.64
436.588	3812.73209
437.083	3613.88856
437.578	3457.06825
438.073	3102.42223
438.568	3283.48645
439.062	3107.27984
439.557	2923.7346
440.051	2778.71958
440.546	2755.76916
441.04	2753.96812
441.534	2690.251
442.028	2582.20609
442.522	2475.26055
443.015	2463.05459
443.509	2528.39692
444.002	2354.47912
444.496	2328.20685
444.989	2296.56608
445.482	2255.64109
445.975	2203.36532
446.468	2260.25276
446.961	2150.31397
447.454	2077.51611
447.947	2052.62571
448.439	2072.77333
448.931	2004.54657
449.424	1982.95375
449.916	1945.84694
450.408	1846.64582
450.9	1860.85485
451.392	1849.002
451.884	1783.79828
452.375	1760.97414
452.867	1835.81166
453.358	1775.77065
453.849	1742.65544
454.341	1691.81231
454.832	1675.7164
455.323	1574.02538
455.814	1629.92273
456.304	1594.94102
456.795	1537.93218
457.285	1523.92317
457.776	1566.01037
458.266	1474.04612
458.756	1550.13397
459.247	1388.05079
459.737	1315.04407
460.226	1338.94495
460.716	1360.10642
461.206	1308.12802
461.695	1316.26209
462.185	1331.12854
462.674	1234.06362
463.163	1200.98275
463.653	1267.90737
464.142	1193.15711
464.63	1191.22275
465.119	1146.07137
465.608	1130.07014
466.096	1147.00703
466.585	1108.11719
467.073	1148.22486
467.561	1097.20932
468.05	1099.15466
468.538	1125.29838
469.026	1084.22121
469.513	1026.9554
470.001	992.06485
470.489	1056.19202
470.976	921.07189
471.463	987.2819
471.951	972.29614
472.438	848.06115
472.925	851.05711
473.412	871.19969
473.899	803.02528
474.385	818.15368
474.872	776.02312
475.359	789.11859
475.845	728.83758
476.331	859.03715
476.817	674.01767
477.303	684.96506
477.789	683.0199
478.275	687.06628
478.761	613.94958
479.247	683.94806
479.732	577.94054
480.218	622.07553
480.703	625.02095
481.188	605.82175
481.673	553.83596
482.158	506.6945
482.643	535.95014
483.128	514.78649
483.612	577.90686
484.097	543.92638
484.581	534.85795
485.066	451.77847
485.55	431.65841
486.034	469.70036
486.518	373.63213
487.002	440.77264
487.486	443.78179
487.969	411.73288
488.453	401.75619
488.936	368.60862
489.42	395.64009
489.903	386.73701
490.386	406.45968
490.869	388.62679
491.352	397.74093
491.835	337.52209
492.318	359.60839
492.8	321.49992
493.283	313.61895
493.765	337.64017
494.247	359.64909
494.73	317.53895
495.212	340.64508
495.694	288.52429
496.175	193.36393
496.657	284.53383
497.139	258.34863
497.62	163.31159
498.102	196.39422
498.583	184.37862
499.064	167.30038
499.545	202.37277
500.026	206.37158
500.507	199.3758
500.988	206.41987
501.469	211.43094
501.949	194.39631
502.43	134.26255
502.91	149.25097
503.39	213.44135
503.87	135.26295
504.35	197.38499
504.83	181.32405
505.31	127.2575
505.79	120.24013
506.269	199.38465
506.749	86.16531
507.228	152.29641
507.707	132.24395
508.187	194.38678
508.666	136.28023
509.145	64.12724
509.623	126.2491
510.102	116.23859
510.581	130.26726
511.059	93.19848
511.538	98.21826
512.016	92.18811
512.494	130.26883
512.972	133.26917
513.45	28.05562
513.928	103.21295
514.406	82.16759
514.884	112.24664
515.361	82.16873
515.839	87.16946
516.316	78.16159
516.793	100.21892
517.27	67.14144
517.747	68.15132
518.224	78.15616
518.701	91.17421
519.178	36.07758
519.654	41.08564
520.131	73.15681
520.607	85.18369
521.083	41.08168
521.56	5.01041
522.036	54.1034
522.512	102.21906
522.987	32.06626
523.463	20.04184
523.939	40.08646
524.414	29.05915
524.89	42.08759
525.365	24.04783
525.84	-12.02514
526.315	18.03826
526.79	41.08123
527.265	49.09803
527.74	87.18479
528.215	45.09333
528.689	12.02348
529.164	56.10682
529.638	58.1318
530.112	-31.06524
530.587	9.01692
531.061	42.08907
531.534	35.07534
532.008	48.10157
532.482	45.09141
532.956	13.0294
533.429	46.09866
533.903	71.13823
534.376	71.1377
534.849	77.15691
535.322	19.03995
535.795	34.07393
536.268	16.03426
536.741	-21.04546
537.213	29.05971
537.686	-32.07006
538.158	-38.07636
538.631	20.04358
539.103	5.00997
539.575	51.09418
540.047	30.05867
540.519	47.10005
540.991	43.09396
541.463	70.15001
541.934	-14.02881
542.406	-24.05145
542.877	15.03023
543.348	68.14566
543.82	50.10932
544.291	55.11427
544.762	3.00636
545.233	56.1242
545.703	48.0936
546.174	83.1696
546.645	14.02957
547.115	103.21648
547.585	106.21251
548.056	26.05512
548.526	96.19531
548.996	134.27859
549.466	146.30855
549.935	75.15367
550.405	132.2464
550.875	98.20011
551.344	145.2979
551.814	124.24446
552.283	125.23327
552.752	132.26072
553.221	154.28062
553.69	209.38636
554.159	163.33714
554.628	205.37916
555.096	188.40096
555.565	202.37595
556.033	190.37986
556.502	157.32633
556.97	114.21903
557.438	76.1585
557.906	117.24363
558.374	72.14642
558.842	30.06421
559.31	42.08428
559.777	-9.01963
560.245	38.08059
560.712	18.03779
561.18	44.08719
561.647	-5.01017
562.114	-1.00207
562.581	52.11562
563.048	39.08153
563.514	23.05104
563.981	34.07069
564.448	73.14727
564.914	79.16575
565.381	51.10539
565.847	87.1835
566.313	51.10776
566.779	112.22599
567.245	77.16248
567.711	57.12355
568.176	30.06117
568.642	5.01144
569.108	70.15506
569.573	123.25954
570.038	123.23091
570.504	63.12709
570.969	75.16942
571.434	71.13967
571.899	107.22737
572.363	131.265
572.828	201.40362
573.293	119.24316
573.757	185.37269
574.222	112.22173
574.686	128.25329
575.15	149.31219
575.614	155.31312
576.078	192.3933
576.542	182.36353
577.006	193.37986
577.469	208.45189
577.933	174.34028
578.396	174.36433
578.86	158.32893
579.323	148.31113
579.786	169.32071
580.249	126.25436
580.712	158.34195
581.175	125.27429
581.637	204.41315
582.1	181.35104
582.563	162.30915
583.025	147.31563
583.487	137.24528
583.95	166.3134
584.412	141.26392
584.874	132.28532
585.336	144.30312
585.797	129.24875
586.259	161.33793
586.721	130.27184
587.182	215.4437
587.643	140.28405
588.105	193.40295
588.566	128.24178
589.027	68.14774
589.488	111.22763
589.949	136.29472
590.41	71.12488
590.87	185.37492
591.331	123.23912
591.791	106.21959
592.252	84.17285
592.712	124.26734
593.172	107.21665
593.632	180.35068
594.092	153.30411
594.552	104.20184
595.011	44.0918
595.471	119.23918
595.931	109.21858
596.39	88.18989
596.849	140.29106
597.308	172.33207
597.768	140.31735
598.227	157.3371
598.685	180.36805
599.144	120.25182
599.603	146.30895
600.062	118.2218
600.52	145.28767
600.978	138.29266
601.437	192.38902
601.895	139.26314
602.353	119.23764
602.811	113.22544
603.269	201.42394
603.727	138.29496
604.184	173.34403
604.642	188.40653
605.099	191.39098
605.557	201.43194
606.014	218.40936
606.471	174.38221
606.928	195.36445
607.385	289.60043
607.842	328.63842
608.299	381.74953
608.755	319.65714
609.212	331.62356
609.668	263.49935
610.125	366.75073
610.581	448.89525
611.037	370.72326
611.493	321.65679
611.949	242.50985
612.405	229.40197
612.861	287.59175
613.316	201.42543
613.772	271.54444
614.227	248.51398
614.683	342.63273
615.138	258.52969
615.593	286.58027
616.048	314.62689
616.503	308.66315
616.958	268.59091
617.412	245.51333
617.867	221.43333
618.321	303.54978
618.776	273.53428
619.23	282.58419
619.684	340.67187
620.138	307.63071
620.592	262.56702
621.046	269.56411
621.5	263.57052
621.954	295.59211
622.407	303.60001
622.861	248.54177
623.314	251.51566
623.768	211.44679
624.221	237.42279
624.674	259.5381
625.127	229.48723
625.58	250.51929
626.033	248.49996
626.485	191.41964
626.938	243.52759
627.39	195.41851
627.843	215.45785
628.295	210.44788
628.747	203.446
629.199	222.46545
629.651	110.23624
630.103	197.41915
630.555	177.35116
631.006	156.34412
631.458	156.34613
631.909	235.50283
632.361	172.37782
632.812	121.26585
633.263	176.35856
633.714	138.28243
634.165	159.36561
634.616	141.31942
635.067	163.34515
635.518	174.39409
635.968	172.33015
636.419	186.38463
636.869	181.40936
637.319	103.23001
637.769	89.19316
638.219	154.35305
638.669	121.27801
639.119	130.30567
639.569	130.30209
640.019	134.29955
640.468	100.21772
640.918	166.38422
641.367	147.31862
641.816	126.27375
642.265	110.24772
642.714	116.26113
643.163	133.29676
643.612	54.12712
644.061	89.18475
644.51	77.17224
644.958	57.12381
645.406	79.18521
645.855	97.23247
646.303	144.32721
646.751	90.20086
647.199	69.15491
647.647	94.21221
648.095	94.21152
648.543	142.28508
648.99	89.20866
649.438	141.32331
649.885	121.29242
650.333	109.20907
650.78	67.15972
651.227	103.24563
651.674	131.29193
652.121	90.21549
652.568	70.16786
653.015	147.3622
653.461	101.23614
653.908	124.28348
654.354	115.26993
654.801	103.2377
655.247	120.25993
655.693	92.23595
656.139	108.25493
656.585	126.29673
657.031	53.1229
657.477	92.19715
657.922	115.26084
658.368	73.17881
658.813	106.24438
659.259	107.25331
659.704	81.18745
660.149	88.20353
660.594	71.16782
661.039	99.22382
661.484	110.26036
661.929	99.22992
662.373	89.2222
662.818	39.09684
663.262	54.12994
663.707	96.24093
664.151	109.26382
664.595	89.21338
665.039	71.1763
665.483	105.26461
665.927	105.24607
666.371	-2.00469
666.814	68.16275
667.258	2.00479
667.701	105.2272
668.145	93.23067
668.588	78.19131
669.031	62.14613
669.474	57.13791
669.917	102.22641
670.36	99.24447
670.803	97.23389
671.245	87.18487
671.688	49.12047
672.13	44.09982
672.573	119.30032
673.015	83.19975
673.457	52.11485
673.899	110.26589
674.341	86.20795
674.783	58.13998
675.225	50.12386
675.666	52.12584
676.108	93.20356
676.549	83.19771
676.991	56.12529
677.432	13.02667
677.873	85.19795
678.314	79.1897
678.755	73.17855
679.196	41.09533
679.637	113.27597
680.078	89.20972
680.518	101.2367
680.959	57.13796
681.399	39.09779
681.839	64.15709
682.28	68.16876
682.72	34.0792
683.16	91.22695
683.6	133.3035
684.039	53.11282
684.479	38.09441
684.919	32.07495
685.358	113.2863
685.798	83.21772
686.237	66.16128
686.676	97.22688
687.115	69.16392
687.554	11.02667
687.993	66.14833
688.432	56.12993
688.871	62.1426
689.309	40.09698
689.748	69.14713
690.186	80.19286
690.625	69.16348
691.063	54.13112
691.501	81.20149
691.939	104.25951
692.377	43.1063
692.815	21.05115
693.253	64.15575
693.69	60.13418
694.128	42.10313
694.565	62.1497
695.003	106.26909
695.44	35.08372
695.877	22.05241
696.314	57.12518
696.751	105.24144
697.188	51.11905
697.625	67.15628
698.061	24.05865
698.498	110.26709
698.934	78.18953
699.371	34.08144
699.807	53.12722
700.243	42.10259
700.679	36.08329
701.115	81.19287
701.551	83.1974
701.987	92.20922
702.422	16.03879
702.858	70.16856
703.294	57.13139
703.729	84.20701
704.164	55.13412
704.599	35.07971
705.035	23.05268
705.47	44.10848
705.904	36.08541
706.339	112.26212
706.774	76.17989
707.209	36.08458
707.643	87.21049
708.078	56.13801
708.512	8.02037
708.946	74.17928
709.38	49.11793
709.814	72.16685
710.248	73.17961
710.682	23.05577
711.116	64.15417
711.549	51.13292
711.983	28.06604
712.416	61.14625
712.85	68.17103
713.283	56.13439
713.716	127.31867
714.149	102.2446
714.582	65.14821
715.015	115.28825
715.448	60.15275
715.881	99.21907
716.313	64.15189
716.746	67.15953
717.178	47.11461
717.61	81.20661
718.043	56.14115
718.475	83.2027
718.907	92.23405
719.339	48.11062
719.77	43.10345
720.202	33.08462
720.634	77.18868
721.065	63.15116
721.497	79.19509
721.928	68.16839
722.359	2.00492
722.79	40.0972
723.221	77.19516
723.652	125.32186
724.083	55.12602
724.514	76.17661
724.945	41.09796
725.375	16.0379
725.806	75.18874
726.236	90.23146
726.666	48.11537
727.096	82.20261
727.526	68.17391
727.956	47.10859
728.386	71.17636
728.816	31.07949
729.246	48.11808
729.675	2.00502
730.105	51.1271
730.534	64.1516
730.964	98.24852
731.393	126.3128
731.822	86.22056
732.251	45.11551
732.68	84.19974
733.109	63.15672
733.537	31.07608
733.966	100.24889
734.395	55.12885
734.823	64.14655
735.251	46.11232
735.68	127.31753
736.108	102.25847
736.536	64.15277
736.964	50.11775
737.392	82.20632
737.82	68.16486
738.247	63.1526
738.675	105.25193
739.102	52.13121
739.53	44.1132
739.957	41.1066
740.384	108.26704
740.811	91.23146
741.238	65.1601
741.665	43.10125
742.092	79.19027
742.519	41.1027
742.945	36.08777
743.372	77.19182
743.798	73.18869
744.225	41.09894
744.651	72.18187
745.077	80.20056
745.503	72.17711
745.929	93.22416
746.355	121.30077
746.781	95.23615
747.207	21.05016
747.632	73.17908
748.058	66.166
748.483	77.17897
748.908	77.19245
749.334	78.19279
749.759	57.13598
750.184	79.18941
750.609	112.27531
751.033	121.28623
751.458	130.29168
751.883	108.26782
752.307	65.15453
752.732	58.14598
753.156	135.33178
753.58	106.25244
754.005	108.27407
754.429	95.2242
754.853	74.18438
755.277	81.19302
755.7	104.25819
756.124	46.11537
756.548	99.23528
756.971	93.22789
757.394	79.20427
757.818	60.15544
758.241	119.30096
758.664	71.18027
759.087	-2.00457
759.51	105.26138
759.933	79.19114
760.356	90.23114
760.778	99.24376
761.201	108.26292
761.623	108.26233
762.046	131.31012
762.468	118.28339
762.89	132.32447
763.312	130.31624
763.734	94.22696
764.156	93.23016
764.578	104.24005
765	104.25394
765.421	58.14823
765.843	96.25161
766.264	136.32712
766.686	110.27597
767.107	97.23548
767.528	39.09941
767.949	109.27665
768.37	61.15091
768.791	91.22092
769.212	96.24102
769.632	53.12479
770.053	98.25772
770.473	96.23388
770.894	112.27997
771.314	98.23474
771.734	44.10386
772.154	99.25403
772.575	88.20498
772.994	53.12178
773.414	74.17887
773.834	100.24989
774.254	56.13821
774.673	95.23175
775.093	65.16175
775.512	2.00501
775.931	112.28301
776.351	72.17953
776.77	53.13059
777.189	47.11299
777.607	74.18952
778.026	87.21697
778.445	10.02538
778.864	109.27871
779.282	15.03666
779.701	69.17463
780.119	36.09181
780.537	31.07818
780.955	81.20646
781.373	64.15912
781.791	32.07292
782.209	103.23741
782.627	9.024
783.045	46.10694
783.462	40.10302
783.88	44.11458
784.297	61.15417
784.715	30.07772
785.132	82.19888
785.549	55.13836
785.966	98.24595
786.383	34.08447
786.8	105.24347
787.217	43.1029
787.633	-12.03046
788.05	85.20239
788.466	68.16126
788.883	31.07974
789.299	33.08032
789.715	48.11755
790.131	57.14246
790.547	66.1654
790.963	28.07022
791.379	7.01793
791.795	4.0093
792.21	45.10616
792.626	69.16436
793.041	44.10939
793.457	60.14896
793.872	1.00239
794.287	1.00242
794.702	67.16564
795.117	21.05273
795.532	3.00762
795.947	88.21183
796.362	58.13935
796.776	87.20405
797.191	16.03965
797.605	-21.05029
798.02	48.11755
798.434	68.1522
798.848	36.08937
799.262	3.00754
799.676	58.1422
800.09	-7.0175
800.504	42.10271
800.918	53.12358
801.331	35.0924
801.745	35.08122
802.158	18.04548
802.572	71.17262
802.985	43.10474
803.398	47.11286
803.811	71.18276
804.224	36.09032
804.637	-7.01696
805.05	35.08193
805.462	41.10147
805.875	2.00525
806.288	34.08268
806.7	30.07602
807.112	-7.01652
807.525	27.06726
807.937	3.00751
808.349	73.18298
808.761	30.07445
809.173	53.12905
809.584	58.14389
809.996	-5.01242
810.408	22.05725
810.819	42.09949
811.231	34.08839
811.642	62.14817
812.053	155.36296
812.464	209.48422
812.875	190.47545
813.286	144.36594
813.697	104.24215
814.108	18.04446
814.519	46.1033
814.929	74.18872
815.34	29.07096
815.75	42.10726
816.16	34.08536
816.571	8.021
816.981	42.09987
817.391	39.09482
817.801	25.06262
818.211	10.02414
818.62	16.03894
819.03	29.07167
819.44	43.11284
819.849	31.07868
820.259	49.12591
820.668	-19.04751
821.077	52.12957
821.486	48.1162
821.895	60.14863
822.304	8.02141
822.713	36.08574
823.122	46.11532
823.531	28.06697
823.939	12.02956
824.348	64.15586
824.756	25.06314
825.164	62.15628
825.573	16.04053
825.981	63.15649
826.389	73.18331
826.797	18.0455
827.205	-5.01165
827.612	33.082
828.02	10.02376
828.428	56.14292
828.835	26.06888
829.243	45.10781
829.65	34.08506
830.057	5.01228
830.464	32.07851
830.871	43.10353
831.278	26.06337
831.685	36.08097
832.092	43.1058
832.499	54.11862
832.905	5.0128
833.312	-1.00232
833.718	66.16451
834.124	52.11931
834.531	49.12393
834.937	25.06462
835.343	33.08017
835.749	37.08702
836.155	34.08948
836.561	-6.01496
836.966	44.10808
837.372	40.10226
837.777	-5.01261
838.183	56.12493
838.588	30.07497
838.993	32.07843
839.399	4.00989
839.804	-57.14205
840.209	2.00515
840.613	-29.06583
841.018	18.04595
841.423	16.04138
841.828	23.05858
842.232	35.08719
842.637	11.02623
843.041	12.03102
843.445	44.11075
843.849	0
844.253	75.17797
844.657	-47.12064
845.061	19.04353
845.465	-22.054
845.869	7.01646
846.272	1.00246
846.676	43.10443
847.079	-12.03091
847.483	31.07779
847.886	103.24883
848.289	34.0911
848.692	19.04848
849.095	39.09411
849.498	61.15466
849.901	15.03475
850.304	16.03859
850.707	48.12267
851.109	75.18935
851.512	36.08888
851.914	-15.0383
852.316	32.08135
852.718	-35.09181
853.121	0
853.523	-4.00947
853.925	-24.06348
854.326	-5.01265
854.728	11.02852
855.13	-3.00782
855.531	-3.00726
855.933	40.09643
856.334	-19.04804
856.736	3.0068
857.137	-12.0283
857.538	5.01269
857.939	9.02244
858.34	55.13417
858.741	13.03424
859.142	10.02425
859.542	32.08478
859.943	34.08487
860.343	-21.05275
860.744	42.10282
861.144	9.02216
861.544	-21.05123
861.945	31.07938
862.345	33.0811
862.745	43.10716
863.145	48.11502
863.544	26.06607
863.944	53.12537
864.344	11.02756
864.743	34.08475
865.143	59.1515
865.542	-51.12088
865.941	40.09934
866.34	-4.0097
866.74	25.06744
867.139	-22.05348
867.537	26.06661
867.936	23.05573
868.335	48.12233
868.734	16.04118
869.132	10.02346
869.531	70.16895
869.929	-16.03702
870.327	8.01936
870.726	38.0951
871.124	2.00473
871.522	39.09965
871.92	29.0719
872.318	2.00494
872.715	85.20936
873.113	6.01476
873.511	-7.01764
873.908	-4.0102
874.306	15.03759
874.703	45.11284
875.1	35.08987
875.497	-3.00727
875.894	-13.03226
876.291	-10.02484
876.688	21.05449
877.085	15.03628
877.482	38.09544
877.878	1.00243
878.275	30.07656
878.671	34.0761
879.068	66.15905
879.464	15.03654
879.86	-4.00957
880.256	66.1626
880.652	-6.01543
881.048	74.18277
881.444	20.04794
881.84	49.12468
882.236	-4.01017
882.631	-4.00993
883.027	70.16907
883.422	36.09236
883.817	-21.05349
884.213	15.03876
884.608	27.06655
885.003	-6.01463
885.398	-6.01518
885.793	23.05807
886.188	-29.07319
886.582	72.18414
886.977	20.0478
887.371	31.07874
887.766	17.04257
888.16	5.01259
888.554	46.11395
888.949	32.08069
889.343	59.14404
889.737	-12.03232
890.131	6.01518
890.525	49.12543
890.918	32.08086
891.312	36.08646
891.706	9.02379
892.099	9.02309
892.492	-21.04606
892.886	0
893.279	17.04359
893.672	9.02309
894.065	74.18465
894.458	4.01015
894.851	70.17105
895.244	27.06928
895.637	15.0364
896.029	16.0394
896.422	47.115
896.814	19.04754
897.206	-51.1239
897.599	34.08441
897.991	10.02438
898.383	8.01907
898.775	29.0658
899.167	-38.09022
899.559	22.05601
899.951	39.09222
900.342	52.13229
900.734	-67.16987
901.125	44.11564
901.517	10.02474
901.908	59.14135
902.299	-7.01731
902.69	-7.01671
903.082	41.09953
903.473	-32.07787
903.863	-9.02322
904.254	32.0746
904.645	53.13184
905.036	-30.07377
905.426	45.10323
905.817	36.08862
906.207	-35.08481
906.597	-32.07609
906.987	59.15277
907.378	21.05341
907.768	30.07961
908.158	28.0686
908.547	-26.06808
908.937	41.10543
909.327	11.02692
909.717	46.11694
910.106	24.05797
910.495	45.11251
910.885	25.06363
911.274	7.01764
911.663	32.08152
912.052	35.08665
912.441	9.02306
912.83	26.06001
913.219	15.03951
913.608	9.02223
913.997	-20.05079
914.385	20.04809
914.774	10.02454
915.162	-27.06533
915.55	43.10423
915.939	2.00509
916.327	17.0427
916.715	6.01541
917.103	68.1669
917.491	69.1702
917.878	40.09858
918.266	20.05215
918.654	48.12272
919.041	-12.03167
919.429	-16.03827
919.816	41.10414
920.203	-25.06151
920.591	-5.01253
920.978	37.09087
921.365	9.02378
921.752	34.08135
922.139	33.07196
922.525	0
922.912	9.02213
923.299	7.01754
923.685	19.04984
924.072	16.03717
924.458	-1.0025
924.844	-21.05266
925.231	-14.03301
925.617	-5.01284
926.003	20.0514
926.389	0
926.774	20.05097
927.16	45.1119
927.546	-26.06726
927.931	14.03517
928.317	26.0602
928.702	27.06419
929.088	-18.04315
929.473	3.0077
929.858	-19.04654
930.243	-13.03158
930.628	38.09268
931.013	4.01
931.398	42.09679
931.783	21.05557
932.167	64.1561
932.552	24.06043
932.937	10.02501
933.321	-2.00507
933.705	16.04059
934.09	84.21104
934.474	6.01438
934.858	32.08327
935.242	-28.06592
935.626	29.07452
936.009	1.00268
936.393	14.03586
936.777	27.06943
937.16	28.07314
937.544	40.09446
937.927	6.01534
938.311	34.08327
938.694	26.06905
939.077	6.01449
939.46	45.11064
939.843	25.05247
940.226	29.07467
940.609	9.02084
940.991	12.03075
941.374	-16.03959
941.757	65.15998
942.139	-2.00454
942.522	31.07356
942.904	52.12498
943.286	30.07651
943.668	45.11668
944.05	-14.0349
944.432	8.0199
944.814	29.07172
945.196	-11.02711
945.578	-11.02645
945.959	8.01891
946.341	37.09107
946.722	29.06836
947.104	14.0337
947.485	20.04683
947.866	-2.00509
948.247	26.06589
948.628	34.08321
949.009	-8.0207
949.39	-9.02265
949.771	31.07239
950.152	-4.00992
950.532	-48.12021
950.913	20.04853
951.293	1.00272
951.674	9.02194
952.054	7.01748
952.434	2.00501
952.814	7.0168
953.194	33.08662
953.574	55.13537
953.954	8.01915
954.334	10.02511
954.714	-3.00738
955.093	34.08385
955.473	7.01764
955.853	5.01304
956.232	30.08249
956.611	17.04104
956.99	32.08069
957.37	4.01028
957.749	1.00241
958.128	22.05571
958.506	23.05994
958.885	10.02542
959.264	-24.05963
959.643	-3.0069
960.021	-11.02756
960.4	-22.0506
960.778	53.1305
961.156	-29.07374
961.535	14.03287
961.913	46.10774
962.291	-20.05194
962.669	-31.07966
963.047	24.06153
963.424	-25.06464
963.802	-22.05482
964.18	43.10895
964.557	39.09004
964.935	20.04767
965.312	9.0236
965.69	38.09537
966.067	10.02454
966.444	10.02483
966.821	34.0879
967.198	46.11169
967.575	37.0912
967.952	17.04032
968.329	-3.00737
968.705	-30.06546
969.082	34.08744
969.458	-24.05838
969.835	-2.00492
970.211	-9.02334
970.587	49.12203
970.963	28.07211
971.339	23.06033
971.715	5.01259
972.091	35.08643
972.467	14.03515
972.843	-33.08313
973.219	21.05071
973.594	29.07612
973.97	12.02878
974.345	-2.00483
974.721	34.08259
975.096	-11.02692
975.471	30.07145
975.846	-3.00728
976.221	-13.03338
976.596	-20.04858
976.971	-3.00748
977.346	64.14861
977.72	6.0154
978.095	40.10355
978.469	78.18519
978.844	32.08072
979.218	-24.05834
979.593	15.03618
979.967	39.09521
980.341	-32.07489
980.715	17.04309
981.089	17.04281
981.463	-3.00696
981.837	-8.01976
982.21	47.10946
982.584	-8.01953
982.957	-6.01513
983.331	22.05229
983.704	0
984.078	-3.00747
984.451	38.09513
984.824	3.00737
985.197	36.08767
985.57	27.06799
985.943	44.1088
986.316	40.09847
986.688	14.03399
987.061	23.0542
987.434	45.11736
987.806	49.11887
988.179	1.00238
988.551	37.09408
988.923	17.04212
989.295	36.09019
989.667	-52.12664
990.039	-17.04252
990.411	13.03014
990.783	22.05094
991.155	-8.01943
991.527	77.18868
991.898	-19.04793
992.27	-28.07025
992.641	47.11798
993.012	49.11533
993.384	-25.06049
993.755	26.06656
994.126	-19.0463
994.497	0
994.868	1.00232
995.239	7.0171
995.61	-11.02798
995.98	9.02203
996.351	8.01996
996.722	-16.03759
997.092	-10.02395
997.462	-16.03786
997.833	50.11853
998.203	54.13082
998.573	-21.05296
998.943	-13.03086
999.313	-17.04125
999.683	26.06268
1000.053	-4.0093
1000.423	-2.00491
1000.792	19.0495
1001.162	8.01984
1001.531	-1.00249
1001.901	1.00251
1002.27	-17.03853
1002.639	10.02573
1003.009	-18.04336
1003.378	10.02575
1003.747	-7.01672
1004.116	22.05292
1004.485	-27.06547
1004.853	19.0484
1005.222	19.04817
1005.591	20.04776
1005.959	-19.04341
1006.328	-12.02735
1006.696	-25.06115
1007.064	17.04301
1007.433	11.02768
1007.801	40.09836
1008.169	30.07602
1008.537	20.04456
1008.905	7.01644
1009.273	45.11125
1009.64	-36.08728
1010.008	41.09789
1010.375	55.13342
1010.743	52.12003
1011.11	-34.08175
1011.478	10.02493
1011.845	76.1778
1012.212	-10.02291
1012.579	18.04444
1012.946	8.01919
1013.313	19.04548
1013.68	36.08114
1014.047	-68.16567
1014.414	15.03566
1014.78	-4.01004
1015.147	22.05348
1015.513	-19.04637
1015.88	42.10753
1016.246	12.02982
1016.612	42.09629
1016.978	26.06398
1017.344	31.07686
1017.71	36.088
1018.076	30.07101
1018.442	45.11583
1018.808	23.05776
1019.174	3.00759
1019.539	93.21223
1019.905	-8.01907
1020.27	-16.03995
1020.636	51.12223
1021.001	6.01448
1021.366	-4.0097
1021.731	10.02589
1022.096	-34.08702
1022.461	40.09482
1022.826	22.05256
1023.191	14.03694
1023.556	18.04244
1023.92	44.10828
1024.285	29.07104
1024.649	32.07866
1025.014	25.06219
1025.378	18.0455
1025.742	6.01502
1026.107	68.1532
1026.471	6.01412
1026.835	24.05976
1027.199	-9.0219
1027.562	-4.00939
1027.926	28.06873
1028.29	20.05086
1028.654	27.06238
1029.017	42.10336
1029.381	22.05282
1029.744	41.10469
1030.107	61.14396
1030.471	15.03614
1030.834	17.03892
1031.197	69.16556
1031.56	26.06161
1031.923	34.08811
1032.286	59.13827
1032.648	26.06244
1033.011	-10.02322
1033.374	28.06607
1033.736	2.0053
1034.099	18.04412
1034.461	9.02289
1034.823	8.02006
1035.185	17.04303
1035.548	16.03917
1035.91	2.00483
1036.272	-12.02764
1036.634	30.07363
1036.995	3.00711
1037.357	-42.10389
1037.719	-2.00491
1038.08	34.08094
1038.442	-12.02881
1038.803	14.03383
1039.165	2.00509
1039.526	-8.01953
1039.887	18.04331
1040.248	-6.01493
1040.609	36.08915
1040.97	24.05891
1041.331	54.13655
1041.692	-19.04493
1042.053	34.07764
1042.413	34.07945
1042.774	45.10949
1043.134	49.11663
1043.495	22.05555
1043.855	21.05119
1044.215	5.01251
1044.576	-2.00483
1044.936	29.06674
1045.296	36.09003
1045.656	7.01731
1046.016	35.08468
1046.375	17.04147
1046.735	-44.1016
1047.095	14.03298
1047.454	-6.01286
1047.814	8.01937
1048.173	66.15712
1048.533	-11.0255
1048.892	-43.10498
1049.251	49.12296
1049.61	22.05442
1049.969	-14.03339
1050.328	4.00875
1050.687	14.03427
1051.046	-3.00737
1051.405	33.0823
1051.763	-4.00929
1052.122	4.01005
1052.48	-2.00495
1052.839	22.05201
1053.197	4.00949
1053.555	41.0936
1053.914	40.09796
1054.272	36.08722
1054.63	-31.07689
1054.988	-12.02883
1055.345	-26.05687
1055.703	5.01213
1056.061	6.01554
1056.419	33.08562
1056.776	-2.00489
1057.134	-38.08946
1057.491	28.07035
1057.848	19.04754
1058.206	26.0614
1058.563	-17.03798
1058.92	50.11518
1059.277	23.05699
1059.634	-4.0095
1059.991	36.08643
1060.348	6.01367
1060.704	-27.06525
1061.061	59.13675
1061.418	-2.00489
1061.774	-7.01745
1062.131	-13.03471
1062.487	-16.03787
1062.843	39.09737
1063.199	24.05993
1063.555	17.03962
1063.911	26.06591
1064.267	60.1248
1064.623	-44.10868
1064.979	70.16511
1065.335	23.05523
1065.691	37.08885
1066.046	8.01774
1066.402	-14.0322
1066.757	7.01779
1067.112	2.00495
1067.468	-43.10329
1067.823	-25.06092
1068.178	-2.00488
1068.533	9.02197
1068.888	7.01685
1069.243	18.04465
1069.598	6.01469
1069.952	-38.08705
1070.307	-3.00749
1070.662	-6.01439
1071.016	-49.11195
1071.371	14.03206
1071.725	50.11954
1072.079	3.00727
1072.434	-9.02209
1072.788	9.02159
1073.142	0
1073.496	-24.05771
1073.85	-13.0305
1074.203	14.03417
1074.557	37.09854
1074.911	38.09085
1075.265	-12.02822
1075.618	35.08564
1075.971	43.10235
1076.325	0
1076.678	-31.072
1077.031	-8.0183
1077.385	23.05092
1077.738	20.04539
1078.091	3.00688
1078.444	63.14579
1078.796	10.0247
1079.149	27.06739
1079.502	-28.06709
1079.855	-15.0354
1080.207	31.07658
1080.56	9.02341
1080.912	15.03673
1081.264	30.07246
1081.617	5.01228
1081.969	-19.04848
1082.321	53.12924
1082.673	-47.10929
1083.025	47.11148
1083.377	-192.43327
1083.728	23.0539
1084.08	7.0176
1084.432	5.01215
1084.783	30.07051
1085.135	-26.066
1085.486	-18.04171
1085.838	-19.04735
1086.189	29.07061
1086.54	47.11221
1086.891	-25.06402
1087.242	25.0611
1087.593	20.04893
1087.944	-7.01601
1088.295	59.13377
1088.646	22.05356
1088.996	9.02183
1089.347	7.0173
1089.698	-37.08885
1090.048	40.10398
1090.398	30.0698
1090.749	8.01928
1091.099	-52.13304
1091.449	-9.02264
1091.799	17.04278
1092.149	-23.0568
1092.499	48.11703
1092.849	17.04342
1093.199	34.08539
1093.548	-17.04133
1093.898	-7.01768
1094.248	-1.00259
1094.597	-31.08019
1094.947	13.03486
1095.296	4.00995
1095.645	58.15052
1095.994	29.06987
1096.343	0
1096.692	-12.03182
1097.041	12.03266
1097.39	-9.02279
1097.739	23.06001
1098.088	17.04575
1098.437	-39.1039
1098.785	-15.04083
1099.134	41.10893
1099.482	43.11829
1099.83	40.10519
1100.179	-2.00526
1100.527	10.02672
1100.875	15.03985
1101.223	37.09837
1101.571	23.06377
1101.919	-12.03165
1102.267	25.07059
1102.615	-5.01609
1102.962	10.0322
1103.31	3.00964
1103.658	21.06756
