Data from N2 R9 sample 8_Subt2__5__18-46-00-808.txt Node

Date: Fri Aug 29 18:46:00 PDT 2025
User: uwsun
Spectrometer: HDX01956
Trigger mode: 0
Integration Time (sec): 5.000000E-1
Scans to average: 1
Nonlinearity correction enabled: true
Boxcar width: 0
Storing dark spectrum: false
XAxis mode: Wavelengths
Number of Pixels in Spectrum: 2068
>>>>>Begin Spectral Data<<<<<
194.03	226.61206
194.578	250.76579
195.127	203.61605
195.676	233.70649
196.225	281.7101
196.773	279.73053
197.321	351.88693
197.87	522.16467
198.418	501.10646
198.966	457.02509
199.513	418.89802
200.061	428.93453
200.609	495.13183
201.156	417.77402
201.704	443.95806
202.251	450.02774
202.798	467.04069
203.345	482.01932
203.892	533.13156
204.438	544.09037
204.985	440.88416
205.532	532.18506
206.078	503.045
206.624	490.01681
207.17	535.03793
207.716	490.00368
208.262	505.82447
208.808	513.05539
209.354	474.97838
209.899	587.24639
210.445	476.00134
210.99	480.97743
211.535	543.06754
212.08	501.98376
212.625	536.13225
213.17	529.13525
213.715	458.85289
214.259	519.01595
214.804	574.18827
215.348	559.06238
215.892	479.97872
216.436	574.10712
216.98	598.08839
217.524	500.9987
218.068	535.14075
218.612	520.11375
219.155	485.96942
219.698	459.93701
220.242	494.05615
220.785	470.93922
221.328	434.9388
221.871	462.01486
222.414	538.13896
222.956	395.82539
223.499	461.88557
224.041	474.94897
224.583	452.83921
225.126	501.93229
225.668	475.98859
226.21	405.88825
226.751	347.66045
227.293	465.91048
227.835	422.89216
228.376	494.9739
228.918	499.08135
229.459	402.86997
230	421.86685
230.541	445.88204
231.082	463.96276
231.622	470.92615
232.163	440.91718
232.704	419.89958
233.244	454.96904
233.784	502.0515
234.324	432.80366
234.864	451.87262
235.404	458.93645
235.944	502.01021
236.484	511.08666
237.023	428.86917
237.563	399.7953
238.102	454.91818
238.641	478.03466
239.18	369.74713
239.719	452.97731
240.258	504.95396
240.797	503.01339
241.335	494.02832
241.874	503.79503
242.412	451.92569
242.95	488.98242
243.488	445.86596
244.026	446.87349
244.564	467.80567
245.102	473.89418
245.64	479.98493
246.177	466.88331
246.715	517.04595
247.252	484.94029
247.789	531.82145
248.326	462.93735
248.863	498.90853
249.4	484.9264
249.936	495.84308
250.473	480.94141
251.009	412.80384
251.546	463.85685
252.082	461.84931
252.618	464.86664
253.154	513.02789
253.69	430.82143
254.226	466.93986
254.761	446.8454
255.297	422.78037
255.832	470.9366
256.367	515.01
256.903	484.88387
257.438	482.95337
257.972	487.90398
258.507	384.74849
259.042	440.80269
259.576	474.84111
260.111	530.01475
260.645	493.88552
261.179	453.88782
261.713	446.83095
262.247	511.9788
262.781	532.90442
263.315	509.03585
263.849	511.06496
264.382	588.09997
264.915	473.92264
265.449	469.9496
265.982	507.95612
266.515	547.09766
267.048	515.88757
267.58	582.02974
268.113	484.85886
268.646	526.07222
269.178	518.94407
269.71	523.93412
270.243	540.009
270.775	509.0777
271.307	550.09073
271.838	583.13286
272.37	501.02278
272.902	494.92908
273.433	473.8522
273.965	547.09109
274.496	595.2079
275.027	541.1021
275.558	523.04168
276.089	507.01959
276.62	577.20595
277.15	569.14925
277.681	540.95081
278.211	496.01004
278.741	449.81268
279.272	486.90864
279.802	559.14142
280.332	487.94319
280.861	549.07428
281.391	520.95492
281.921	577.12598
282.45	597.20866
282.98	548.17433
283.509	558.00412
284.038	523.96454
284.567	590.1059
285.096	537.05423
285.625	493.9092
286.153	521.98735
286.682	529.97268
287.21	562.08445
287.739	519.99268
288.267	540.0514
288.795	609.29485
289.323	537.00016
289.851	627.15313
290.378	634.10506
290.906	528.02262
291.433	558.11797
291.961	569.01166
292.488	578.14903
293.015	619.13325
293.542	589.1821
294.069	563.09861
294.596	649.26015
295.122	625.16212
295.649	619.05358
296.175	612.16699
296.702	661.24505
297.228	654.23757
297.754	607.05093
298.28	657.13289
298.806	665.22439
299.332	576.97981
299.857	644.10303
300.383	669.31635
300.908	588.10214
301.433	672.24071
301.958	644.14029
302.483	662.26129
303.008	648.23636
303.533	661.33844
304.058	666.19526
304.582	642.145
305.107	613.23884
305.631	665.14366
306.155	653.13796
306.679	689.19136
307.203	725.23317
307.727	673.19454
308.251	646.21227
308.775	634.12079
309.298	636.13545
309.822	714.34474
310.345	729.26137
310.868	745.29254
311.391	743.34436
311.914	700.29509
312.437	780.27033
312.96	725.23118
313.482	726.23986
314.005	747.36261
314.527	767.46561
315.049	773.41725
315.571	741.14098
316.093	788.38432
316.615	790.33355
317.137	828.21236
317.659	799.36816
318.18	793.34407
318.702	807.2847
319.223	788.07115
319.744	826.23618
320.265	870.41106
320.786	809.36164
321.307	876.46555
321.828	933.35222
322.348	909.38925
322.869	845.30403
323.389	680.68635
323.909	887.31071
324.43	986.52753
324.95	892.29051
325.47	932.45532
325.989	896.33012
326.509	969.26176
327.029	934.26665
327.548	949.26821
328.067	948.39066
328.587	1007.53612
329.106	984.31139
329.625	1027.6971
330.144	1017.35165
330.662	1011.34004
331.181	1077.42063
331.7	1023.36691
332.218	1075.24372
332.736	1049.37323
333.255	1124.4058
333.773	1079.39955
334.291	1205.64213
334.808	1128.2859
335.326	1111.29734
335.844	1181.36588
336.361	1130.51358
336.879	1198.36575
337.396	1244.46599
337.913	1270.35937
338.43	1288.30749
338.947	1278.4245
339.464	1295.16967
339.981	1276.37562
340.497	1362.5407
341.014	1298.44053
341.53	1304.2374
342.046	1316.43625
342.562	1377.5269
343.078	1337.32872
343.594	1405.38856
344.11	1435.37621
344.626	1330.45633
345.141	1448.23619
345.657	1539.2668
346.172	1412.34717
346.687	1413.20478
347.202	1488.15183
347.717	1548.32097
348.232	1612.46241
348.747	1490.1758
349.261	1440.9833
349.776	1571.22202
350.29	1516.28657
350.805	1623.37521
351.319	1660.17762
351.833	1505.03491
352.347	1635.15573
352.861	1675.11257
353.374	1706.11318
353.888	1678.21447
354.401	1643.04766
354.915	1638.92398
355.428	1710.2205
355.941	1779.01109
356.454	1920.94727
356.967	1784.06755
357.48	1808.97948
357.993	1881.15673
358.505	1797.09402
359.018	1933.08629
359.53	1923.99639
360.042	1949.78041
360.554	1965.01669
361.066	1849.00335
361.578	1879.69551
362.09	1879.9266
362.602	1856.68243
363.113	1931.78923
363.625	1929.68223
364.136	2067.58796
364.647	1949.64651
365.158	2051.68658
365.669	2148.73621
366.18	2093.68738
366.691	2091.4879
367.201	2059.68987
367.712	2056.51116
368.222	2174.46401
368.733	2147.27856
369.243	2168.28641
369.753	2303.35655
370.263	2332.40632
370.773	2303.48523
371.282	2407.25761
371.792	2359.03623
372.301	2423.15976
372.811	2532.33212
373.32	2480.68243
373.829	2423.89533
374.338	2721.54303
374.847	2706.5459
375.356	2872.44943
375.865	2831.13803
376.373	3039.08268
376.882	3151.25889
377.39	3207.04822
377.898	3030.01046
378.407	3303.7066
378.915	3615.56193
379.423	3673.56338
379.93	3789.52131
380.438	3824.52268
380.946	4119.62624
381.453	4201.73652
381.96	4444.1198
382.468	4550.72463
382.975	4970.34093
383.482	5216.52359
383.989	5206.10591
384.495	5409.84933
385.002	5505.11566
385.509	6010.11042
386.015	6337.03496
386.521	6716.18832
387.028	6996.06876
387.534	7082.82291
388.04	7558.74184
388.546	7417.46973
389.051	7545.82734
389.557	8216.85928
390.063	9443.83297
390.568	9628.41113
391.073	9720.09401
391.578	10329.11531
392.084	10316.14068
392.589	10367.42151
393.093	11304.27245
393.598	12483.23661
394.103	13712.12396
394.607	14938.9738
395.112	16296.02792
395.616	16860.80647
396.12	18178.35535
396.624	20160.5451
397.128	22226.61894
397.632	24906.22547
398.136	26659.95148
398.639	26699.20576
399.143	28751.02418
399.646	27958.7299
400.15	24985.39321
400.653	20124.16724
401.156	13866.23708
401.659	5169.95759
402.162	1054.15589
402.664	0
403.167	0
403.67	0
404.172	0
404.674	0
405.176	0
405.678	0
406.18	0
406.682	0
407.184	0
407.686	0
408.187	0
408.688	0
409.19	0
409.691	0
410.192	0
410.693	0
411.194	435.30976
411.694	4082.94878
412.195	8864.71461
412.696	12089.80453
413.196	12760.96929
413.696	12863.67595
414.196	13703.56671
414.696	17261.84252
415.196	21764.24417
415.696	29583.19008
416.196	36460.31858
416.695	40057.39798
417.195	32572.71066
417.694	30628.03394
418.194	29542.55893
418.693	26538.42457
419.192	25881.23007
419.691	25423.03398
420.19	24906.3767
420.688	24634.07355
421.187	23980.01558
421.685	22479.01804
422.184	20945.78165
422.682	18171.16149
423.18	15078.44525
423.678	13233.86996
424.176	12238.02676
424.674	11494.06223
425.172	11102.52548
425.669	10536.99579
426.167	9782.0253
426.664	9031.42381
427.161	8259.88146
427.659	7566.92312
428.156	7022.17923
428.652	6529.07624
429.149	6034.96765
429.646	6153.21061
430.143	5859.89163
430.639	5372.47076
431.135	4971.35768
431.632	4808.17453
432.128	4486.70162
432.624	4124.52662
433.12	3836.53687
433.616	3735.52688
434.111	3583.55077
434.607	3500.61843
435.103	3607.57054
435.598	3341.66475
436.093	3371.87726
436.588	3158.01191
437.083	3020.18256
437.578	2808.41964
438.073	2559.72824
438.568	2599.87003
439.062	2508.61736
439.557	2431.00155
440.051	2309.9702
440.546	2076.11345
441.04	2148.26188
441.534	2148.48672
442.028	2112.41039
442.522	2017.4459
443.015	1930.28654
443.509	1929.61303
444.002	1836.64048
444.496	1846.39124
444.989	1784.70529
445.482	1751.7614
445.975	1684.52207
446.468	1764.42779
446.961	1744.4463
447.454	1655.61666
447.947	1552.71257
448.439	1580.83794
448.931	1540.63621
449.424	1600.97466
449.916	1624.87736
450.408	1439.68993
450.9	1412.86236
451.392	1448.98679
451.884	1429.80876
452.375	1263.92216
452.867	1356.81835
453.358	1264.7671
453.849	1279.67536
454.341	1253.79096
454.832	1293.71836
455.323	1225.95536
455.814	1242.87488
456.304	1228.8867
456.795	1217.879
457.285	1221.8734
457.776	1260.95404
458.266	1210.97854
458.756	1193.03376
459.247	1036.92482
459.737	1039.93648
460.226	1105.87721
460.716	983.94538
461.206	1019.99572
461.695	972.06797
462.185	1057.00997
462.674	1025.96844
463.163	987.89056
463.653	1013.82308
464.142	860.95193
464.63	900.03212
465.119	848.8959
465.608	915.94677
466.096	909.88479
466.585	914.99499
467.073	886.04194
467.561	837.01405
468.05	814.95257
468.538	857.08638
469.026	786.9854
469.513	750.78279
470.001	785.91131
470.489	788.97963
470.976	700.88148
471.463	698.99549
471.951	677.99134
472.438	580.79418
472.925	614.82662
473.412	671.98435
473.899	645.86874
474.385	595.899
474.872	565.79812
475.359	573.86831
475.845	597.7203
476.331	629.82259
476.817	545.85552
477.303	506.75407
477.789	582.89648
478.275	544.88049
478.761	523.83143
479.247	461.68549
479.732	414.70563
480.218	453.8195
480.703	425.73396
481.188	362.53082
481.673	389.61686
482.158	329.47751
482.643	455.8248
483.128	352.56443
483.612	378.62828
484.097	382.67992
484.581	328.5578
485.066	317.5667
485.55	343.53763
486.034	308.48233
486.518	280.48647
487.002	282.51571
487.486	224.41793
487.969	305.55877
488.453	316.60833
488.936	283.47905
489.42	260.43736
489.903	286.55932
490.386	346.40065
490.869	218.3691
491.352	209.40825
491.835	295.46264
492.318	195.34516
492.8	214.34369
493.283	205.41565
493.765	203.39822
494.247	262.48544
494.73	228.39695
495.212	193.37932
495.694	153.28808
496.175	121.2322
496.657	155.30061
497.139	225.30733
497.62	148.28395
498.102	136.27732
498.583	158.32702
499.064	75.13809
499.545	137.25694
500.026	106.1961
500.507	103.19909
500.988	127.26351
501.469	85.17857
501.949	140.28951
502.43	60.11962
502.91	112.19055
503.39	150.31519
503.87	74.14623
504.35	116.23105
504.83	67.12348
505.31	107.21794
505.79	68.13772
506.269	60.11984
506.749	15.02933
507.228	-5.01011
507.707	62.11659
508.187	83.16975
508.666	-18.03837
509.145	13.02615
509.623	7.01423
510.102	54.11262
510.581	93.19279
511.059	-9.01963
511.538	60.13468
512.016	71.14587
512.494	45.09483
512.972	36.07448
513.45	-56.11341
513.928	76.15808
514.406	-11.02296
514.884	13.02922
515.361	23.04796
515.839	30.05923
516.316	-18.03809
516.793	46.10185
517.27	27.0575
517.747	8.01802
518.224	1.00204
518.701	34.06599
519.178	-33.07217
519.654	19.03988
520.131	6.01307
520.607	23.05036
521.083	-37.07505
521.56	-14.02928
522.036	-26.05075
522.512	20.04371
522.987	-30.06298
523.463	-2.0042
523.939	11.02392
524.414	-42.08705
524.89	8.01681
525.365	15.02995
525.84	-30.06309
526.315	-44.09478
526.79	-16.03212
527.265	-40.08168
527.74	-35.07632
528.215	-32.06751
528.689	-23.04537
529.164	-11.02132
529.638	4.00919
530.112	-89.18969
530.587	-38.07227
531.061	-67.14547
531.534	-30.06548
532.008	-21.04511
532.482	4.0082
532.956	-2.00454
533.429	-12.02606
533.903	36.07067
534.376	9.01771
534.849	-14.02912
535.322	37.07749
535.795	-44.09726
536.268	-24.05183
536.741	-45.09791
537.213	-27.0563
537.686	-88.19493
538.158	-75.152
538.631	-29.06385
539.103	-62.12556
539.575	-42.07937
540.047	-29.05751
540.519	-24.05188
540.991	11.0242
541.463	-3.00653
541.934	-24.0495
542.406	-59.12745
542.877	-39.07958
543.348	-4.0087
543.82	31.06805
544.291	17.03562
544.762	-29.06186
545.233	0
545.703	-5.00987
546.174	23.04764
546.645	-39.08334
547.115	13.02786
547.585	62.12556
548.056	-7.01495
548.526	59.12105
548.996	94.19717
549.466	55.11855
549.935	74.15165
550.405	14.0269
550.875	106.21605
551.344	142.29193
551.814	100.19826
552.283	144.26747
552.752	92.18342
553.221	120.22055
553.69	121.22861
554.159	135.28098
554.628	110.20829
555.096	163.34953
555.565	81.15529
556.033	147.29682
556.502	122.25556
556.97	113.21716
557.438	93.19322
557.906	111.23144
558.374	66.1344
558.842	108.22724
559.31	101.19991
559.777	26.0563
560.245	112.23368
560.712	68.14119
561.18	61.1204
561.647	52.1044
562.114	83.16844
562.581	91.20069
563.048	80.16573
563.514	61.13431
563.981	51.10563
564.448	50.1014
564.914	86.18015
565.381	132.26782
565.847	181.37387
566.313	110.22941
566.779	119.23973
567.245	141.29334
567.711	150.31867
568.176	110.22022
568.642	164.36312
569.108	145.31617
569.573	220.45432
570.038	211.38752
570.504	212.41303
570.969	240.52385
571.434	213.405
571.899	283.57826
572.363	222.43972
572.828	325.63394
573.293	276.54386
573.757	297.5829
574.222	323.60789
574.686	317.59953
575.15	309.6245
575.614	318.61837
576.078	296.59205
576.542	385.73279
577.006	325.61978
577.469	373.78185
577.933	329.61979
578.396	283.57826
578.86	351.6993
579.323	315.6378
579.786	277.51182
580.249	315.6083
580.712	297.62365
581.175	298.63003
581.637	354.69231
582.1	340.63438
582.563	337.61584
583.025	282.58785
583.487	288.49559
583.95	286.52409
584.412	286.51616
584.874	252.53068
585.336	264.54102
585.797	224.42208
586.259	295.60086
586.721	236.48189
587.182	285.57891
587.643	275.54074
588.105	220.45657
588.566	235.43226
589.027	193.40814
589.488	190.38268
589.949	264.55644
590.41	142.24512
590.87	239.47838
591.331	202.3853
591.791	162.33139
592.252	171.34497
592.712	158.33815
593.172	140.28132
593.632	214.41355
594.092	198.38942
594.552	154.29532
595.011	143.2918
595.471	192.3794
595.931	206.40382
596.39	155.32965
596.849	162.33515
597.308	218.41623
597.768	177.3982
598.227	193.41118
598.685	201.40903
599.144	165.34281
599.603	248.51306
600.062	206.37882
600.52	182.35796
600.978	153.32341
601.437	310.61115
601.895	201.37474
602.353	272.52387
602.811	232.45006
603.269	270.56083
603.727	260.54102
604.184	194.3839
604.642	294.6213
605.099	308.61377
605.557	318.66613
606.014	250.46575
606.471	290.62144
606.928	308.55957
607.385	359.73421
607.842	436.82684
608.299	549.03574
608.755	429.86186
609.212	433.79532
609.668	408.74731
610.125	523.03298
610.581	511.00451
611.037	499.94565
611.493	452.89738
611.949	398.80972
612.405	423.70486
612.861	465.92039
613.316	421.84812
613.772	481.91954
614.227	482.94667
614.683	494.87934
615.138	438.86269
615.593	417.82074
616.048	514.9786
616.503	519.06488
616.958	456.96572
617.412	503.99375
617.867	440.81814
618.321	484.8379
618.776	415.7849
619.23	469.93092
619.684	479.91572
620.138	546.05957
620.592	428.89335
621.046	550.08005
621.5	474.9819
621.954	466.89841
622.407	383.74424
622.861	479.99514
623.314	430.84773
623.768	382.77859
624.221	394.67443
624.674	384.77555
625.127	385.7913
625.58	446.88588
626.033	423.81844
626.485	344.73142
626.938	437.90951
627.39	379.78108
627.843	383.78577
628.295	333.69122
628.747	346.73727
629.199	317.65066
629.651	242.50491
630.103	345.71037
630.555	274.53128
631.006	302.64576
631.458	225.49205
631.909	307.64664
632.361	227.49285
632.812	248.5303
633.263	270.5383
633.714	260.51739
634.165	245.55365
634.616	190.42613
635.067	240.49963
635.518	214.48074
635.968	225.42636
636.419	209.42996
636.869	223.50003
637.319	194.42507
637.769	156.33372
638.219	230.51922
638.669	140.32044
639.119	197.45715
639.569	175.40304
640.019	196.43253
640.468	166.35635
640.918	218.49936
641.367	124.27009
641.816	177.38037
642.265	149.33287
642.714	178.3956
643.163	164.36358
643.612	81.18968
644.061	107.22122
644.51	141.31122
644.958	152.32348
645.406	164.37809
645.855	168.39717
646.303	194.43635
646.751	105.23361
647.199	164.361
647.647	168.37353
648.095	101.22694
648.543	195.38669
648.99	148.34297
649.438	190.43138
649.885	145.34883
650.333	143.27203
650.78	140.32906
651.227	142.3361
651.674	112.25058
652.121	140.332
652.568	146.34503
653.015	191.46679
653.461	168.38762
653.908	157.35653
654.354	146.34061
654.801	125.2872
655.247	165.35397
655.693	159.40298
656.139	148.34664
656.585	113.26679
657.031	91.20942
657.477	113.24106
657.922	114.25862
658.368	123.29848
658.813	187.42414
659.259	129.30409
659.704	88.20337
660.149	109.25104
660.594	158.36716
661.039	120.27013
661.484	123.2904
661.929	147.33815
662.373	86.21483
662.818	120.29355
663.262	65.15608
663.707	81.20384
664.151	113.27329
664.595	80.19213
665.039	141.34563
665.483	112.2819
665.927	128.29862
666.371	33.07685
666.814	107.25419
667.258	60.14207
667.701	124.26722
668.145	174.42517
668.588	93.22746
669.031	94.22016
669.474	119.28454
669.917	108.23943
670.36	95.23477
670.803	152.36268
671.245	80.17025
671.688	97.23636
672.13	52.11778
672.573	131.32989
673.015	107.25634
673.457	76.16702
673.899	99.23979
674.341	98.23643
674.783	112.26755
675.225	73.18007
675.666	47.11384
676.108	77.16911
676.549	117.27687
676.991	122.26923
677.432	88.17749
677.873	90.20939
678.314	93.22272
678.755	125.30277
679.196	67.15499
679.637	137.33308
680.078	78.18419
680.518	102.239
680.959	40.09712
681.399	78.19421
681.839	105.25576
682.28	61.15158
682.72	84.19374
683.16	109.27095
683.6	96.22071
684.039	81.17137
684.479	48.11903
684.919	43.1005
685.358	83.21141
685.798	37.09781
686.237	64.15645
686.676	134.31114
687.115	69.16392
687.554	102.2431
687.993	85.19029
688.432	55.12763
688.871	22.051
689.309	67.16161
689.748	43.09221
690.186	61.14759
690.625	54.12831
691.063	28.06832
691.501	105.26005
691.939	83.2079
692.377	67.16491
692.815	36.08744
693.253	48.11716
693.69	57.12755
694.128	31.07627
694.565	49.1186
695.003	35.08997
695.44	71.16867
695.877	41.09733
696.314	71.15547
696.751	78.18033
697.188	12.02823
697.625	101.23401
698.061	18.04403
698.498	71.17366
698.934	21.05157
699.371	21.05043
699.807	30.07232
700.243	62.15088
700.679	53.12221
701.115	84.1999
701.551	61.14569
701.987	59.13507
702.422	32.07735
702.858	40.09687
703.294	39.09022
703.729	63.15586
704.164	38.09296
704.599	63.14266
705.035	54.1229
705.47	18.04459
705.904	41.09718
706.339	100.23458
706.774	33.07876
707.209	59.138
707.643	65.15792
708.078	52.12825
708.512	-21.05374
708.946	51.12409
709.38	34.08206
709.814	65.15084
710.248	38.0941
710.682	43.10388
711.116	8.01948
711.549	47.12258
711.983	14.03311
712.416	93.22161
712.85	64.16109
713.283	39.0939
713.716	80.20244
714.149	68.16412
714.582	84.1908
715.015	115.28825
715.448	73.18542
715.881	98.2169
716.313	41.09774
716.746	9.02167
717.178	57.13874
717.61	38.09766
718.043	74.18592
718.475	23.0568
718.907	78.19892
719.339	39.09004
719.77	21.05073
720.202	36.09226
720.634	99.2416
721.065	40.0964
721.497	58.14378
721.928	55.13652
722.359	-5.01232
722.79	20.04878
723.221	93.23504
723.652	75.1948
724.083	71.16215
724.514	67.15597
724.945	43.1027
725.375	17.04026
725.806	70.17631
726.236	64.16534
726.666	57.13676
727.096	58.14394
727.526	51.13082
727.956	28.06494
728.386	57.14195
728.816	10.02574
729.246	17.04206
729.675	19.04756
730.105	56.13943
730.534	16.03825
730.964	102.25847
731.393	107.26656
731.822	53.13671
732.251	37.09511
732.68	94.22309
733.109	19.04764
733.537	54.13195
733.966	61.1529
734.395	43.10097
734.823	79.18035
735.251	18.04418
735.68	97.24384
736.108	57.1456
736.536	17.04094
736.964	17.04029
737.392	47.119
737.82	38.09265
738.247	83.20028
738.675	51.12362
739.102	49.12371
739.53	34.08763
739.957	77.19896
740.384	128.31533
740.811	98.24896
741.238	77.18924
741.665	17.04023
742.092	61.14742
742.519	22.05529
742.945	71.17198
743.372	32.08037
743.798	85.21925
744.225	58.13951
744.651	47.11925
745.077	56.141
745.503	58.14304
745.929	44.10704
746.355	118.29348
746.781	18.04537
747.207	24.05729
747.632	-27.06746
748.058	90.22539
748.483	35.08203
748.908	57.14298
749.334	100.24617
749.759	47.11234
750.184	41.09901
750.609	58.14399
751.033	54.12939
751.458	82.1858
751.883	84.20922
752.307	52.12394
752.732	32.08092
753.156	83.20594
753.58	38.09168
754.005	98.24913
754.429	87.20564
754.853	67.16715
755.277	52.1246
755.7	68.16992
756.124	33.08296
756.548	-9.02183
756.971	50.1235
757.394	60.15565
757.818	67.17336
758.241	57.14575
758.664	65.16521
759.087	-1.00229
759.51	60.15058
759.933	51.12404
760.356	59.15235
760.778	76.18792
761.201	106.25815
761.623	96.23371
762.046	118.28005
762.468	79.19114
762.89	67.16667
763.312	88.21575
763.734	51.12414
764.156	57.142
764.578	72.16725
765	83.20346
765.421	30.07705
765.843	58.153
766.264	86.20882
766.686	91.22908
767.107	12.0296
767.528	43.10953
767.949	82.20912
768.37	48.11903
768.791	85.20658
769.212	4.01021
769.632	28.06625
770.053	37.09831
770.473	59.14473
770.894	69.17383
771.314	109.26053
771.734	24.05687
772.154	94.24141
772.575	75.17515
772.994	-30.07007
773.414	81.19553
773.834	64.16097
774.254	34.08425
774.673	71.17398
775.093	34.08509
775.512	19.04747
775.931	30.07691
776.351	36.09035
776.77	-5.01245
777.189	44.10583
777.607	24.062
778.026	26.06556
778.445	-27.06897
778.864	55.14197
779.282	26.06342
779.701	35.08912
780.119	25.06388
780.537	12.03037
780.955	63.16109
781.373	66.16403
781.791	23.05251
782.209	62.14408
782.627	32.08501
783.045	-28.06604
783.462	64.16414
783.88	-19.05001
784.297	45.11405
784.715	58.14953
785.132	25.06128
785.549	29.07329
785.966	10.02549
786.383	64.15813
786.8	24.05654
787.217	45.10764
787.633	1.00253
788.05	54.12934
788.466	84.19859
788.883	-4.01035
789.299	23.05609
789.715	34.08348
790.131	24.06034
790.547	-4.01015
790.963	12.03018
791.379	15.03837
791.795	16.03709
792.21	0
792.626	-15.03631
793.041	21.05243
793.457	44.10955
793.872	40.09493
794.287	-28.06824
794.702	32.07962
795.117	-26.06584
795.532	7.01777
795.947	46.11161
796.362	45.10838
796.776	73.17168
797.191	13.03223
797.605	-31.07438
798.02	25.06149
798.434	50.11233
798.848	13.03241
799.262	15.03764
799.676	47.11547
800.09	44.109
800.504	-2.00493
800.918	27.06328
801.331	70.18372
801.745	26.06044
802.158	10.02531
802.572	53.12929
802.985	18.04405
803.398	-9.02184
803.811	68.17513
804.224	20.05032
804.637	-9.02181
805.05	-14.03309
805.462	8.01992
805.875	5.01311
806.288	-26.06393
806.7	45.11373
807.112	33.07728
807.525	-7.01755
807.937	13.0325
808.349	37.09334
808.761	-14.03502
809.173	14.03434
809.584	26.06488
809.996	-5.01242
810.408	9.02347
810.819	22.05231
811.231	16.04172
811.642	50.11976
812.053	131.3082
812.464	185.43066
812.875	178.44639
813.286	79.20307
813.697	86.20095
814.108	32.07883
814.519	28.06311
814.929	83.21134
815.34	6.01474
815.75	3.00771
816.16	45.11276
816.571	24.06284
816.981	52.12341
817.391	55.13332
817.801	22.05514
818.211	53.12693
818.62	-3.00733
819.03	19.04704
819.44	59.1544
819.849	53.134
820.259	55.14118
820.668	1.00249
821.077	4.01005
821.486	58.14014
821.895	26.06481
822.304	13.03476
822.713	2.00479
823.122	-5.01265
823.531	22.05268
823.939	6.0148
824.348	54.13176
824.756	8.02027
825.164	22.05585
825.573	-3.00763
825.981	33.08242
826.389	45.11357
826.797	23.05809
827.205	-24.05615
827.612	50.12386
828.02	-17.0406
828.428	15.03856
828.835	5.01329
829.243	4.00966
829.65	24.06015
830.057	21.05144
830.464	-27.06697
830.871	-8.01945
831.278	78.18825
831.685	-5.01134
832.092	3.00744
832.499	-18.04014
832.905	25.06377
833.312	14.03232
833.718	44.11011
834.124	35.08058
834.531	37.09378
834.937	6.01556
835.343	48.11629
835.749	6.0142
836.155	26.06852
836.561	-11.02744
836.966	34.08367
837.372	5.01286
837.777	-4.01009
838.183	25.05613
838.588	46.11462
838.993	-13.03213
839.399	-11.02727
839.804	-41.10188
840.209	18.04618
840.613	-2.00452
841.018	-5.01282
841.423	21.05426
841.828	-12.03075
842.232	27.06736
842.637	-10.02394
843.041	-25.06505
843.445	23.05811
843.849	-5.01253
844.253	16.0384
844.657	-33.0845
845.061	-36.08339
845.465	-30.07374
845.869	22.05157
846.272	-8.01974
846.676	58.14046
847.079	-15.03865
847.483	58.14483
847.886	28.0686
848.289	13.03495
848.692	14.03575
849.095	23.05567
849.498	110.27647
849.901	40.09222
850.304	40.09603
850.707	14.03599
851.109	21.05353
851.512	23.05692
851.914	-36.09226
852.316	37.09398
852.718	-32.0839
853.121	7.01732
853.523	-20.0475
853.925	-20.05286
854.326	23.05788
854.728	-25.06522
855.13	14.03638
855.531	-50.122
855.933	35.08446
856.334	-52.13224
856.736	-15.03413
857.137	-48.11401
857.538	-20.05099
857.939	-2.005
858.34	12.02951
858.741	20.05262
859.142	42.10125
859.542	44.11634
859.943	3.00753
860.343	-8.02005
860.744	-3.00741
861.144	30.07358
861.544	-3.00729
861.945	13.03339
862.345	-14.03471
862.745	16.04007
863.145	32.07691
863.544	4.0102
863.944	0
864.344	31.0774
864.743	43.10701
865.143	22.05686
865.542	13.03043
865.941	12.02995
866.34	19.04587
866.74	24.06475
867.139	-4.00969
867.537	42.1073
867.936	16.03882
868.335	54.13747
868.734	12.03091
869.132	-35.08283
869.531	32.07779
869.929	-20.04631
870.327	-3.00727
870.726	44.10999
871.124	17.04006
871.522	3.00771
871.92	53.13083
872.318	8.01974
872.715	63.1558
873.113	-8.01973
873.511	17.04266
873.908	6.01528
874.306	-13.03274
874.703	43.10786
875.1	56.14327
875.497	26.0627
875.894	-33.08218
876.291	-25.06228
876.688	-20.05226
877.085	43.10345
877.482	8.0202
877.878	1.00243
878.275	39.09937
878.671	21.04713
879.068	25.06071
879.464	15.03654
879.86	15.03576
880.256	38.0941
880.652	-5.01285
881.048	39.09695
881.444	45.10736
881.84	7.01794
882.236	1.00254
882.631	41.10091
883.027	53.12842
883.422	24.0617
883.817	-30.07654
884.213	12.03102
884.608	15.03706
885.003	-21.05136
885.398	-29.07368
885.793	16.04044
886.188	-30.07573
886.582	39.10032
886.977	16.03827
887.371	10.02549
887.766	-12.0302
888.16	40.1001
888.554	34.08441
888.949	4.01014
889.343	38.09313
889.737	-14.03772
890.131	6.01518
890.525	20.05145
890.918	51.12843
891.312	27.06496
891.706	-6.0159
892.099	58.1475
892.492	7.01526
892.886	18.04434
893.279	-8.0206
893.672	8.02053
894.065	14.03531
894.458	36.09084
894.851	16.03949
895.244	-16.04136
895.637	9.02187
896.029	44.1078
896.422	21.05163
896.814	25.06248
897.206	-36.08722
897.599	50.12377
897.991	-34.08358
898.383	-21.05035
898.775	-40.09203
899.167	-44.10459
899.559	29.07374
899.951	28.06635
900.342	36.09184
900.734	-31.0781
901.125	28.07379
901.517	0
901.908	47.11286
902.299	-18.04459
902.69	8.01905
903.082	-7.01715
903.473	-7.01696
903.863	26.06666
904.254	24.05604
904.645	58.14415
905.036	-38.09358
905.426	64.14625
905.817	39.09596
906.207	-21.05075
906.597	-47.11208
906.987	28.07289
907.378	-12.0307
907.768	52.13749
908.158	40.09778
908.547	-2.00522
908.937	-5.01296
909.327	11.02692
909.717	72.18219
910.106	-20.04871
910.495	24.06023
910.885	8.02042
911.274	19.04778
911.663	45.11438
912.052	-1.00249
912.441	20.05115
912.83	1.00232
913.219	55.14388
913.608	32.07869
913.997	2.00506
914.385	44.10531
914.774	7.01719
915.162	-12.02895
915.55	25.06081
915.939	9.02289
916.327	21.05271
916.715	7.01798
917.103	64.1572
917.491	22.05474
917.878	0
918.266	12.03133
918.654	28.07184
919.041	-8.0211
919.429	-8.0191
919.816	0
920.203	19.04637
920.591	47.11666
920.978	4.00988
921.365	4.01058
921.752	13.03123
922.139	-11.02421
922.525	-19.04625
922.912	41.10021
923.299	-30.07567
923.685	12.03152
924.072	59.13589
924.458	10.02496
924.844	12.02991
925.231	-19.04484
925.617	-19.04892
926.003	29.07441
926.389	-4.01019
926.774	0
927.16	38.09461
927.546	6.01544
927.931	34.08512
928.317	15.03481
928.702	51.12069
929.088	-32.07691
929.473	12.03074
929.858	-14.03426
930.243	25.0603
930.628	-6.01475
931.013	4.01
931.398	43.09908
931.783	24.06348
932.167	-8.01977
932.552	37.09294
932.937	27.06731
933.321	7.0177
933.705	-11.02804
934.09	70.17631
934.474	30.07156
934.858	-4.01047
935.242	7.01637
935.626	-22.05703
936.009	20.05347
936.393	40.10198
936.777	27.06943
937.16	-15.03947
937.544	15.03559
937.927	-21.05396
938.311	36.08813
938.694	55.14535
939.077	18.04336
939.46	24.05923
939.843	30.0629
940.226	-3.00777
940.609	8.01852
940.991	11.0282
941.374	17.04181
941.757	50.12341
942.139	7.01586
942.522	48.11352
942.904	39.09397
943.286	31.07905
943.668	23.05986
944.05	6.0149
944.432	-8.01996
944.814	38.09382
945.196	1.00246
945.578	-15.0361
945.959	36.08462
946.341	23.05676
946.722	18.04252
947.104	-15.03631
947.485	9.02112
947.866	7.01777
948.247	8.02034
948.628	14.03439
949.009	-1.00258
949.39	55.13682
949.771	63.1462
950.152	8.01979
950.532	-43.10759
950.913	7.01703
951.293	11.0299
951.674	47.11376
952.054	25.06224
952.434	9.02251
952.814	-8.01925
953.194	18.04737
953.574	29.07172
953.954	-10.02403
954.334	-17.04289
954.714	-63.15677
955.093	61.1497
955.473	-2.00505
955.853	33.08568
956.232	29.07975
956.611	40.09614
956.99	31.07818
957.37	13.03335
957.749	9.02164
958.128	1.00254
958.506	6.01568
958.885	3.00764
959.264	-24.05963
959.643	28.06401
960.021	-6.01502
960.4	31.07054
960.778	12.02977
961.156	16.04036
961.535	-10.02359
961.913	49.1147
962.291	-1.00259
962.669	-2.00511
963.047	12.03083
963.424	5.01286
963.802	14.03466
964.18	64.16155
964.557	33.07628
964.935	31.07373
965.312	15.03929
965.69	29.0729
966.067	15.03677
966.444	41.10121
966.821	31.08019
967.198	26.06337
967.575	40.09854
967.952	54.12717
968.329	19.04651
968.705	18.03887
969.082	22.0567
969.458	-40.0976
969.835	12.02942
970.211	12.031
970.587	18.04508
970.963	39.10025
971.339	-12.03167
971.715	25.06271
972.091	45.11092
972.467	35.08754
972.843	0
973.219	62.14856
973.594	21.0552
973.97	48.11432
974.345	3.00724
974.721	54.13068
975.096	-5.01222
975.471	34.08091
975.846	6.01454
976.221	29.07392
976.596	7.01692
976.971	31.07681
977.346	6.01409
977.72	20.05122
978.095	0
978.469	30.07189
978.844	28.07068
979.218	-37.09016
979.593	6.0145
979.967	23.05632
980.341	4.0093
980.715	-14.03568
981.089	21.05285
981.463	4.00927
981.837	5.01232
982.21	21.04916
982.584	-17.04158
982.957	1.00252
983.331	36.08534
983.704	-5.01241
984.078	10.02483
984.451	21.05273
984.824	4.00983
985.197	37.09009
985.57	44.11047
985.943	45.11125
986.316	63.15443
986.688	27.0654
987.061	-10.02372
987.434	55.1432
987.806	46.11165
988.179	48.11331
988.551	40.10165
988.923	11.02728
989.295	37.09268
989.667	-48.11681
990.039	-13.03249
990.411	24.05553
990.783	35.08084
991.155	-1.00243
991.527	59.14506
991.898	16.04011
992.27	-8.02
992.641	9.02275
993.012	29.06852
993.384	34.08135
993.755	13.03336
994.126	-9.02189
994.497	-31.07723
994.868	40.09207
995.239	13.03173
995.61	7.01775
995.98	-2.00491
996.351	-48.12099
996.722	15.03503
997.092	-22.05282
997.462	-37.0879
997.833	33.07849
998.203	34.08268
998.573	25.06253
998.943	5.01183
999.313	-14.03396
999.683	-12.02914
1000.053	-20.04666
1000.423	25.06103
1000.792	45.11672
1001.162	10.02479
1001.531	11.02731
1001.901	9.0226
1002.27	8.01804
1002.639	44.11253
1003.009	35.08347
1003.378	4.01031
1003.747	-9.0215
1004.116	-25.06067
1004.485	9.02168
1004.853	2.00511
1005.222	45.11357
1005.591	-12.02883
1005.959	-48.11031
1006.328	1.00227
1006.696	-1.00243
1007.064	13.03291
1007.433	-13.03286
1007.801	38.09348
1008.169	15.03811
1008.537	7.01564
1008.905	-10.02357
1009.273	20.04967
1009.64	9.02164
1010.008	29.0694
1010.375	74.17887
1010.743	71.16326
1011.11	-2.00478
1011.478	-1.0025
1011.845	54.12687
1012.212	43.09745
1012.579	-2.00496
1012.946	52.1237
1013.313	30.07167
1013.68	33.07442
1014.047	-31.075
1014.414	3.00715
1014.78	16.04
1015.147	53.12809
1015.513	3.00729
1015.88	60.15312
1016.246	41.10136
1016.612	27.06209
1016.978	1.00247
1017.344	-9.02248
1017.71	72.17482
1018.076	8.01902
1018.442	18.04655
1018.808	41.10262
1019.174	26.06549
1019.539	99.22564
1019.905	21.04979
1020.27	5.01244
1020.636	65.15537
1021.001	-9.02178
1021.366	10.02419
1021.731	31.07996
1022.096	-9.02293
1022.461	15.03573
1022.826	-11.02644
1023.191	-3.00794
1023.556	-28.06661
1023.92	32.07892
1024.285	-8.01973
1024.649	33.0811
1025.014	52.12872
1025.378	10.02531
1025.742	-13.03264
1026.107	45.10186
1026.471	19.04462
1026.835	11.02745
1027.199	-13.03165
1027.562	20.04675
1027.926	12.02954
1028.29	15.03818
1028.654	-1.00232
1029.017	19.04695
1029.381	28.06714
1029.744	26.06656
1030.107	-2.00478
1030.471	23.05533
1030.834	20.04576
1031.197	15.03636
1031.56	59.13892
1031.923	-3.00782
1032.286	42.09876
1032.648	65.15495
1033.011	-12.02788
1033.374	16.03784
1033.736	16.04229
1034.099	40.09763
1034.461	-4.0102
1034.823	3.00753
1035.185	15.03798
1035.548	29.07082
1035.91	11.02653
1036.272	15.03437
1036.634	61.14886
1036.995	-16.03808
1037.357	8.01961
1037.719	42.10225
1038.08	-7.0168
1038.442	26.06197
1038.803	23.05548
1039.165	-1.00255
1039.526	2.00487
1039.887	32.0768
1040.248	-1.00249
1040.609	41.10143
1040.97	16.03933
1041.331	11.02803
1041.692	4.00942
1042.053	10.02294
1042.413	44.10261
1042.774	-1.00245
1043.134	32.07642
1043.495	19.048
1043.855	1.00245
1044.215	9.02249
1044.576	-20.04843
1044.936	-2.00463
1045.296	25.06264
1045.656	41.10073
1046.016	31.07506
1046.375	33.08026
1046.735	-18.04135
1047.095	19.04472
1047.454	11.0235
1047.814	-6.01457
1048.173	73.17355
1048.533	-3.00694
1048.892	-34.08287
1049.251	30.07554
1049.61	7.01736
1049.969	17.04031
1050.328	-16.03516
1050.687	-4.00983
1051.046	4.00982
1051.405	11.02754
1051.763	-3.00697
1052.122	10.02511
1052.48	-28.06961
1052.839	-14.03333
1053.197	5.01186
1053.555	55.12521
1053.914	9.02217
1054.272	12.0292
1054.63	-15.0371
1054.988	-16.03847
1055.345	26.05625
1055.703	48.1155
1056.061	4.01037
1056.419	8.02085
1056.776	78.18804
1057.134	2.00467
1057.491	38.0953
1057.848	13.03256
1058.206	5.01186
1058.563	-5.01114
1058.92	14.03248
1059.277	-4.00996
1059.634	53.12455
1059.991	27.06493
1060.348	-20.04582
1060.704	-15.03617
1061.061	49.1138
1061.418	24.05845
1061.774	-5.01246
1062.131	-38.10189
1062.487	-19.045
1062.843	-8.02014
1063.199	-7.01758
1063.555	-36.08478
1063.911	28.07095
1064.267	-3.00633
1064.623	1.00245
1064.979	51.12074
1065.335	42.10049
1065.691	35.08407
1066.046	23.05083
1066.402	-17.03912
1066.757	13.03301
1067.112	30.07385
1067.468	-41.09845
1067.823	-2.00485
1068.178	24.0583
1068.533	-18.04416
1068.888	23.05521
1069.243	17.04218
1069.598	-6.01472
1069.952	-30.06861
1070.307	-12.03002
1070.662	44.10451
1071.016	-13.02949
1071.371	-22.05074
1071.725	23.05527
1072.079	8.01938
1072.434	-1.00245
1072.788	15.03594
1073.142	46.11316
1073.496	3.00718
1073.85	30.0698
1074.203	22.05362
1074.557	6.01606
1074.911	77.18271
1075.265	-30.07079
1075.618	27.06616
1075.971	22.05258
1076.325	7.01791
1076.678	-41.09541
1077.031	1.00228
1077.385	27.05972
1077.738	-8.01826
1078.091	-48.11124
1078.444	0
1078.796	-6.01486
1079.149	10.02503
1079.502	-1.00238
1079.855	28.06553
1080.207	66.162
1080.56	17.04415
1080.912	21.05136
1081.264	41.09882
1081.617	5.01228
1081.969	-6.01527
1082.321	-7.01726
1082.673	-31.07185
1083.025	-5.01198
1083.377	-229.52066
1083.728	1.00235
1084.08	26.06514
1084.432	-15.03659
1084.783	54.12633
1085.135	14.03529
1085.486	-50.11661
1085.838	44.1084
1086.189	-19.04668
1086.54	36.08613
1086.891	2.0051
1087.242	1.00245
1087.593	46.11199
1087.944	-9.0206
1088.295	29.06615
1088.646	34.08259
1088.996	-39.09546
1089.347	14.03455
1089.698	-53.12765
1090.048	31.08071
1090.398	7.01636
1090.749	-11.0266
1091.099	-19.04833
1091.449	30.07494
1091.799	29.07282
1092.149	-56.13913
1092.499	29.07096
1092.849	-3.00769
1093.199	57.14257
1093.548	-11.02671
1093.898	-18.04555
1094.248	47.12073
1094.597	-16.04128
1094.947	7.01879
1095.296	40.09887
1095.645	24.06265
1095.994	-20.04864
1096.343	27.06817
1096.692	-2.0053
1097.041	-33.09046
1097.39	0
1097.739	36.09371
1098.088	60.16034
1098.437	-29.07713
1098.785	44.11863
1099.134	15.04003
1099.482	45.12375
1099.83	34.08951
1100.179	-24.06333
1100.527	27.07195
1100.875	12.0319
1101.223	37.09837
1101.571	-1.00278
1101.919	-45.11936
1102.267	-6.01702
1102.615	2.00643
1102.962	11.03541
1103.31	-3.00965
1103.658	21.06756
