Data from N2 R9 sample 9_Subt2__5__18-41-20-810.txt Node

Date: Fri Aug 29 18:41:20 PDT 2025
User: uwsun
Spectrometer: HDX01956
Trigger mode: 0
Integration Time (sec): 5.000000E-1
Scans to average: 1
Nonlinearity correction enabled: true
Boxcar width: 0
Storing dark spectrum: false
XAxis mode: Wavelengths
Number of Pixels in Spectrum: 2068
>>>>>Begin Spectral Data<<<<<
194.03	414.08414
194.578	399.19493
195.127	431.2643
195.676	395.16835
196.225	411.01206
196.773	440.11785
197.321	681.61611
197.87	937.91273
198.418	890.80728
198.966	868.78417
199.513	783.54825
200.061	802.61065
200.609	894.8813
201.156	791.33126
201.704	860.69238
202.251	831.75362
202.798	813.68339
203.345	890.71622
203.892	863.70187
204.438	867.60991
204.985	825.50975
205.532	853.77493
206.078	876.67062
206.624	862.64229
207.17	929.63567
207.716	867.62667
208.262	867.27323
208.808	800.54095
209.354	834.58117
209.899	946.85313
210.445	867.66901
210.99	866.60765
211.535	903.62708
212.08	977.70341
212.625	922.78482
213.17	891.76455
213.715	858.43927
214.259	934.65178
214.804	915.75144
215.348	937.61975
215.892	909.67551
216.436	985.7156
216.98	889.50077
217.524	878.59928
218.068	915.7919
218.612	888.75246
219.155	880.59727
219.698	838.56252
220.242	900.7571
220.785	822.50766
221.328	775.55243
221.871	837.69531
222.414	804.60429
222.956	732.41382
223.499	742.32787
224.041	800.47975
224.583	834.40118
225.126	756.31687
225.668	798.54003
226.21	759.53855
226.751	749.28576
227.293	753.37289
227.835	763.49104
228.376	805.47012
228.918	792.61028
229.459	761.51873
230	810.52066
230.541	792.44159
231.082	739.44066
231.622	832.49925
232.163	804.53902
232.704	772.52967
233.244	761.51452
233.784	788.5476
234.324	698.21177
234.864	797.41371
235.404	818.53495
235.944	820.53116
236.484	833.64878
237.023	790.47067
237.563	811.46096
238.102	836.54185
238.641	843.68415
239.18	840.51679
239.719	851.68132
240.258	802.40677
240.797	835.55576
241.335	873.6661
241.874	844.20411
242.412	830.55675
242.95	749.41596
243.488	810.43868
244.026	798.43198
244.564	841.30697
245.102	789.37558
245.64	835.57807
246.177	810.40597
246.715	867.6155
247.252	768.39004
247.789	846.18883
248.326	826.53554
248.863	855.41899
249.4	845.47579
249.936	862.32374
250.473	837.50251
251.009	868.5101
251.546	867.44293
252.082	879.45013
252.618	791.35733
253.154	873.60581
253.69	839.44376
254.226	872.59394
254.761	807.39447
255.297	833.38237
255.832	841.53058
256.367	899.60582
256.903	889.45777
257.438	870.56389
257.972	856.44294
258.507	822.43515
259.042	873.41873
259.576	773.26488
260.111	890.55827
260.645	893.43997
261.179	888.56127
261.713	857.43406
262.247	866.51614
262.781	833.30129
263.315	860.61233
263.849	813.58215
264.382	879.52808
264.915	915.59754
265.449	894.63342
265.982	928.56978
266.515	898.65808
267.048	876.36515
267.58	863.41736
268.113	863.38123
268.646	901.68229
269.178	842.4085
269.71	895.44565
270.243	978.63321
270.775	943.80946
271.307	947.70654
271.838	915.63951
272.37	939.72919
272.902	935.56842
273.433	906.45236
273.965	889.63448
274.496	972.80573
275.027	960.77192
275.558	936.68797
276.089	895.64142
276.62	984.87332
277.15	981.79679
277.681	923.46337
278.211	888.64939
278.741	879.41731
279.272	922.53855
279.802	1002.84316
280.332	914.58951
280.861	909.62956
281.391	924.52505
281.921	952.69505
282.45	989.8251
282.98	1005.94342
283.509	957.54965
284.038	936.54833
284.567	987.67216
285.096	990.73929
285.625	938.53798
286.153	977.64625
286.682	961.57627
287.21	991.71882
287.739	982.6686
288.267	927.64149
288.795	1038.00157
289.323	971.6175
289.851	1002.67252
290.378	1005.58393
290.906	983.70041
291.433	1078.90422
291.961	1060.6504
292.488	1072.88967
293.015	1006.66547
293.542	1044.87844
294.069	1011.76657
294.596	1048.84436
295.122	1046.74529
295.649	1045.57932
296.175	1137.89723
296.702	1070.8167
297.228	1131.89541
297.754	1069.62927
298.28	1102.68035
298.806	1093.80064
299.332	1055.56606
299.857	1111.67066
300.383	1129.98478
300.908	1021.71319
301.433	1094.81075
301.958	1211.83619
302.483	1153.93978
303.008	1193.98132
303.533	1131.04602
304.058	1224.88962
304.582	1095.72944
305.107	1114.99656
305.631	1157.73507
306.155	1185.78266
306.679	1175.77597
307.203	1194.78075
307.727	1195.84081
308.251	1193.94341
308.775	1151.76744
309.298	1192.83025
309.822	1271.07239
310.345	1254.8754
310.868	1283.91738
311.391	1242.96801
311.914	1302.05445
312.437	1291.81083
312.96	1225.80702
313.482	1338.92081
314.005	1311.05754
314.527	1316.18617
315.049	1278.05093
315.571	1312.69313
316.093	1395.07161
316.615	1366.95654
317.137	1330.65864
317.659	1444.0584
318.18	1437.02474
318.702	1391.85803
319.223	1417.54929
319.744	1399.74657
320.265	1425.96304
320.786	1454.03162
321.307	1523.11252
321.828	1571.8487
322.348	1516.91814
322.869	1548.91772
323.389	1487.03337
323.909	1586.86877
324.43	1670.09308
324.95	1645.85367
325.47	1591.02865
325.989	1657.9211
326.509	1651.68306
327.029	1626.73357
327.548	1692.73818
328.067	1723.96005
328.587	1722.09739
329.106	1747.77558
329.625	1840.38928
330.144	1779.80339
330.662	1795.79794
331.181	1807.83883
331.7	1787.82216
332.218	1917.57991
332.736	2023.84895
333.255	1960.7906
333.773	1931.83399
334.291	1973.0621
334.808	1959.59352
335.326	2021.63626
335.844	2026.67009
336.361	2081.98082
336.879	2051.65423
337.396	2161.77017
337.913	2177.57865
338.43	2237.47942
338.947	2266.66961
339.464	2192.26903
339.981	2311.58969
340.497	2249.77456
341.014	2247.67746
341.53	2308.34915
342.046	2316.65037
342.562	2433.72805
343.078	2417.44999
343.594	2472.48552
344.11	2446.45321
344.626	2437.65621
345.141	2562.20606
345.657	2564.2143
346.172	2565.39531
346.687	2526.18519
347.202	2658.03117
347.717	2687.25126
348.232	2687.43207
348.747	2667.0632
349.261	2655.79133
349.776	2754.07379
350.29	2709.20523
350.805	2877.23556
351.319	2715.00619
351.833	2759.81064
352.347	2857.92056
352.861	2873.84684
353.374	3013.77976
353.888	2900.97875
354.401	2904.74359
354.915	2976.53233
355.428	2995.94002
355.941	3153.56577
356.454	3112.51785
356.967	3182.62866
357.48	3121.54145
357.993	3105.79194
358.505	3076.71954
359.018	3304.59905
359.53	3350.45411
360.042	3366.17058
360.554	3217.55904
361.066	3305.47881
361.578	3288.08801
362.09	3351.35456
362.602	3288.06523
363.113	3430.1412
363.625	3466.98328
364.136	3678.79275
364.647	3526.91025
365.158	3646.92407
365.669	3697.98753
366.18	3662.92996
366.691	3648.70055
367.201	3592.96121
367.712	3607.73709
368.222	3714.67032
368.733	3733.44164
369.243	3905.37177
369.753	4014.45167
370.263	4060.49426
370.773	3960.61692
371.282	4127.34372
371.792	4033.14737
372.301	4343.16762
372.811	4330.38461
373.32	4341.80039
373.829	4394.9243
374.338	4745.74642
374.847	4792.74334
375.356	4876.7452
375.865	5066.71977
376.373	5317.83109
376.882	5555.93707
377.39	5642.02781
377.898	5703.15549
378.407	5881.61237
378.915	6160.25145
379.423	6334.48482
379.93	6595.43023
380.438	6738.9997
380.946	7222.11892
381.453	7514.73822
381.96	7752.86424
382.468	8215.18129
382.975	8923.59826
383.482	9278.32288
383.989	9211.64561
384.495	9496.36474
385.002	9788.84303
385.509	10482.67535
386.015	11343.30696
386.521	11881.74246
387.028	12467.16351
387.534	12625.15411
388.04	13283.85605
388.546	13258.71044
389.051	13914.83709
389.557	15168.04117
390.063	16848.71838
390.568	17038.39155
391.073	17314.24907
391.578	17966.86317
392.084	18188.3475
392.589	18414.27397
393.093	19913.59559
393.598	21666.06422
394.103	23935.85988
394.607	26619.63959
395.112	28153.9924
395.616	29878.15476
396.12	31697.41379
396.624	34564.09257
397.128	37616.73409
397.632	40159.1109
398.136	38750.78257
398.639	36273.96993
399.143	32503.66402
399.646	28888.45294
400.15	25083.82847
400.653	20124.16724
401.156	13866.23708
401.659	5169.95759
402.162	1054.15589
402.664	0
403.167	0
403.67	0
404.172	0
404.674	0
405.176	0
405.678	0
406.18	0
406.682	0
407.184	0
407.686	0
408.187	0
408.688	0
409.19	0
409.691	0
410.192	0
410.693	0
411.194	435.30976
411.694	4082.94878
412.195	8864.71461
412.696	12089.80453
413.196	12760.96929
413.696	12863.67595
414.196	13703.56671
414.696	17261.84252
415.196	21764.24417
415.696	29583.19008
416.196	36460.31858
416.695	40057.39798
417.195	41392.74103
417.694	42311.08144
418.194	43882.52025
418.693	44704.85811
419.192	44824.71569
419.691	44612.34637
420.19	43595.04477
420.688	43017.99915
421.187	41313.62694
421.685	39230.37063
422.184	35830.03292
422.682	30830.85814
423.18	25810.48044
423.678	22514.74331
424.176	20880.71128
424.674	19692.42911
425.172	18757.57179
425.669	18030.46875
426.167	16870.30796
426.664	15099.04643
427.161	14000.52127
427.659	12873.362
428.156	11917.66256
428.652	11304.78682
429.149	10703.04629
429.646	10366.51351
430.143	10040.88692
430.639	9318.35353
431.135	8694.49506
431.632	8292.28812
432.128	7611.02155
432.624	7223.94617
433.12	6903.75572
433.616	6666.95058
434.111	6325.72071
434.607	6023.88461
435.103	5999.93805
435.598	5961.80546
436.093	5801.22317
436.588	5533.97248
437.083	5284.80425
437.578	4943.72566
438.073	4556.82014
438.568	4561.93553
439.062	4453.74598
439.557	4271.05506
440.051	4165.01176
440.546	3868.16774
441.04	3834.37212
441.534	3690.69876
442.028	3813.53095
442.522	3583.65841
443.015	3524.46913
443.509	3565.84023
444.002	3343.97405
444.496	3352.65727
444.989	3406.01139
445.482	3330.12365
445.975	3281.81372
446.468	3289.71
446.961	3056.85935
447.454	3079.0496
447.947	2989.21956
448.439	2991.401
448.931	2890.16213
449.424	2940.62459
449.916	2958.4751
450.408	2716.32384
450.9	2699.59375
451.392	2712.77081
451.884	2684.51697
452.375	2519.80683
452.867	2606.57752
453.358	2504.56071
453.849	2557.38806
454.341	2423.63457
454.832	2456.49812
455.323	2407.91835
455.814	2385.78667
456.304	2324.83145
456.795	2380.80547
457.285	2404.78633
457.776	2335.92138
458.266	2201.02
458.756	2239.11143
459.247	2100.06983
459.737	2121.08435
460.226	2028.95187
460.716	2032.16542
461.206	1961.22378
461.695	1913.40301
462.185	1896.21569
462.674	1973.17058
463.163	1930.07387
463.653	1827.94912
464.142	1793.32863
464.63	1738.41425
465.119	1801.23929
465.608	1684.23865
466.096	1710.14192
466.585	1673.31978
467.073	1681.44
467.561	1632.45081
468.05	1619.36909
468.538	1581.5323
469.026	1613.4745
469.513	1430.10746
470.001	1480.30028
470.489	1473.41367
470.976	1479.38554
471.463	1420.58578
471.951	1408.61776
472.438	1330.39675
472.925	1258.34843
473.412	1292.54678
473.899	1284.38005
474.385	1296.56172
474.872	1192.36086
475.359	1220.5028
475.845	1124.10822
476.331	1196.27585
476.817	1063.42359
477.303	1088.34326
477.789	1077.42253
478.275	953.36686
478.761	1040.41327
479.247	1038.28005
479.732	993.43256
480.218	968.52317
480.703	1007.47362
481.188	975.16737
481.673	945.26366
482.158	859.04612
482.643	901.44882
483.128	863.18554
483.612	863.24487
484.097	827.30313
484.581	827.2187
485.066	725.15969
485.55	692.97637
486.034	699.97221
486.518	702.08359
487.002	655.08445
487.486	721.17955
487.969	664.10576
488.453	665.17175
488.936	645.98577
489.42	603.92039
489.903	602.08792
490.386	635.65761
490.869	581.88782
491.352	646.13018
491.835	620.88179
492.318	558.89502
492.8	590.84753
493.283	565.04982
493.765	570.01999
494.247	579.98837
494.73	529.84822
495.212	552.99332
495.694	428.75156
496.175	418.74479
496.657	489.87292
497.139	484.60593
497.62	412.74018
498.102	437.83016
498.583	432.83926
499.064	371.63249
499.545	416.72665
500.026	437.74184
500.507	416.74391
500.988	452.86975
501.469	402.78544
501.949	418.81051
502.43	323.6046
502.91	340.54301
503.39	393.78152
503.87	341.63167
504.35	420.77745
504.83	285.4966
505.31	362.69454
505.79	281.54134
506.269	346.64526
506.749	301.54866
507.228	297.55923
507.707	294.52137
508.187	300.58336
508.666	297.58979
509.145	282.53216
509.623	303.57418
510.102	294.58042
510.581	339.66408
511.059	289.59051
511.538	329.69755
512.016	310.60252
512.494	370.72395
512.972	307.59655
513.45	189.36129
513.928	316.6221
514.406	263.51544
514.884	334.70119
515.361	263.5191
515.839	274.50996
516.316	217.43555
516.793	306.64071
517.27	306.61206
517.747	268.57157
518.224	296.56269
518.701	267.48939
519.178	219.45338
519.654	322.63062
520.131	263.54178
520.607	277.57396
521.083	263.49691
521.56	224.44368
522.036	291.52532
522.512	277.57242
522.987	231.45701
523.463	205.41127
523.939	279.57215
524.414	289.55461
524.89	252.50101
525.365	222.42201
525.84	231.45786
526.315	197.40235
526.79	241.45512
527.265	227.43541
527.74	202.41828
528.215	222.44219
528.689	259.47712
529.164	226.4133
529.638	249.54384
530.112	184.36889
530.587	224.39887
531.061	218.44453
531.534	259.53066
532.008	215.43832
532.482	190.37316
532.956	224.48479
533.429	256.52416
533.903	276.51112
534.376	215.40263
534.849	218.42997
535.322	204.41144
535.795	228.47528
536.268	193.3974
536.741	287.58031
537.213	280.54395
537.686	225.4658
538.158	246.46194
538.631	258.53375
539.103	219.41499
539.575	293.50838
540.047	288.52882
540.519	263.53349
540.991	305.62943
541.463	341.68791
541.934	298.57008
542.406	298.5944
542.877	298.56153
543.348	321.64995
543.82	379.77089
544.291	357.69173
544.762	310.61258
545.233	407.83652
545.703	382.68592
546.174	404.7654
546.645	421.80989
547.115	487.93688
547.585	521.94449
548.056	469.8979
548.526	451.8434
548.996	568.0651
549.466	637.19976
549.935	647.15305
550.405	577.95902
550.875	681.20564
551.344	708.26885
551.814	719.21899
552.283	727.15497
552.752	758.27731
553.221	760.17343
553.69	851.32257
554.159	836.46809
554.628	900.37828
555.096	924.65525
555.565	974.46929
556.033	897.50039
556.502	936.60817
556.97	901.40549
557.438	878.50503
557.906	892.53726
558.374	879.45975
558.842	900.56345
559.31	838.3735
559.777	883.56096
560.245	1004.68136
560.712	985.62834
561.18	971.51077
561.647	1040.61629
562.114	1116.73604
562.581	1180.00841
563.048	1167.83533
563.514	1096.88902
563.981	1169.8216
564.448	1216.81816
564.914	1258.95946
565.381	1310.95394
565.847	1321.03888
566.313	1338.0383
566.779	1423.0237
567.245	1421.12584
567.711	1404.17628
568.176	1378.96532
568.642	1434.33812
569.108	1510.3489
569.573	1533.25016
570.038	1618.9615
570.504	1568.09799
570.969	1627.52042
571.434	1678.09462
571.899	1620.3285
572.363	1717.24933
572.828	1798.32416
573.293	1722.27627
573.757	1700.26591
574.222	1768.19283
574.686	1734.18558
575.15	1798.43057
575.614	1777.29718
576.078	1791.38107
576.542	1751.26588
577.006	1763.23288
577.469	1819.6232
577.933	1786.20955
578.396	1678.3701
578.86	1688.3458
579.323	1680.36556
579.786	1602.01446
580.249	1526.11338
580.712	1544.36359
581.175	1542.38396
581.637	1535.1823
582.1	1569.06434
582.563	1420.90538
583.025	1378.18027
583.487	1344.68219
583.95	1305.7925
584.412	1398.82763
584.874	1297.10801
585.336	1293.03957
585.797	1218.74601
586.259	1250.99884
586.721	1213.93331
587.182	1176.90758
587.643	1213.86543
588.105	1135.87736
588.566	1155.64317
589.027	1090.85376
589.488	1127.78534
589.949	1113.90978
590.41	1071.40227
590.87	1144.815
591.331	1102.64961
591.791	1046.71386
592.252	1013.65083
592.712	1008.76085
593.172	1007.6218
593.632	1034.60973
594.092	1056.66134
594.552	995.52491
595.011	954.58952
595.471	1018.62527
595.931	1039.63964
596.39	1037.78274
596.849	1044.73528
597.308	1096.65339
597.768	1096.99937
598.227	1072.84849
598.685	1081.76212
599.144	1097.80826
599.603	1119.86605
600.062	1062.53985
600.52	1208.81045
600.978	1213.97286
601.437	1239.91684
601.895	1203.69701
602.353	1272.87177
602.811	1350.9346
603.269	1355.14055
603.727	1365.14909
604.184	1343.95618
604.642	1368.21616
605.099	1451.13752
605.557	1403.241
606.014	1503.95708
606.471	1536.41592
606.928	1545.95614
607.385	1595.36641
607.842	1787.3135
608.299	1849.4245
608.755	1778.49184
609.212	1836.23519
609.668	1740.16027
610.125	1883.57834
610.581	1970.59823
611.037	1907.42322
611.493	1866.52281
611.949	1804.52735
612.405	1861.94846
612.861	1947.56629
613.316	1846.53714
613.772	1902.43558
614.227	1946.55229
614.683	1988.24542
615.138	1954.52924
615.593	1923.49391
616.048	1974.48269
616.503	1948.75194
616.958	1932.80359
617.412	1935.58537
617.867	1862.29166
618.321	1914.12505
618.776	1943.36347
619.23	1873.53983
619.684	1899.43246
620.138	1868.5272
620.592	1819.6521
621.046	1837.55268
621.5	1813.65764
621.954	1793.39316
622.407	1767.33927
622.861	1661.55735
623.314	1666.35583
623.768	1707.45617
624.221	1587.88426
624.674	1594.34436
625.127	1559.37077
625.58	1610.3496
626.033	1542.20399
626.485	1463.36002
626.938	1472.36603
627.39	1414.24405
627.843	1411.23099
628.295	1388.20997
628.747	1412.3173
629.199	1350.13198
629.651	1275.05473
630.103	1255.05865
630.555	1294.90904
631.006	1293.17414
631.458	1262.15558
631.909	1274.116
632.361	1244.11676
632.812	1174.00777
633.263	1198.87949
633.714	1198.86976
634.165	1180.15495
634.616	1094.99572
635.067	1163.92705
635.518	1159.09579
635.968	1166.7105
636.419	1067.77317
636.869	1100.01847
637.319	1091.93774
637.769	1067.83351
638.219	1117.06154
638.669	1111.04228
639.119	1125.12586
639.569	1066.01359
640.019	1087.95053
640.468	1055.83114
640.918	1152.13953
641.367	1098.89749
641.816	1094.88756
642.265	1094.96563
642.714	1132.01521
643.163	1098.95976
643.612	1043.97768
644.061	1100.77176
644.51	1102.94271
644.958	1142.90925
645.406	1146.11995
645.855	1204.26839
646.303	1241.19022
646.751	1207.07052
647.199	1202.06903
647.647	1188.08057
648.095	1276.17497
648.543	1276.90169
648.99	1301.32149
649.438	1350.34229
649.885	1346.4912
650.333	1231.73466
650.78	1362.43267
651.227	1303.38456
651.674	1359.25989
652.121	1293.37683
652.568	1365.45734
653.015	1325.54369
653.461	1343.36983
653.908	1334.30469
654.354	1282.3173
654.801	1339.32616
655.247	1340.15113
655.693	1308.62175
656.139	1275.32149
656.585	1260.30618
657.031	1220.17027
657.477	1225.98692
657.922	1318.25772
658.368	1287.43052
658.813	1360.3486
659.259	1245.29173
659.704	1298.2741
660.149	1251.2205
660.594	1280.31016
661.039	1232.13999
661.484	1247.29542
661.929	1281.27514
662.373	1223.41246
662.818	1200.33565
663.262	1184.22952
663.707	1226.43694
664.151	1238.34964
664.595	1201.26107
665.039	1223.38555
665.483	1232.46357
665.927	1221.23065
666.371	1189.13283
666.814	1252.31095
667.258	1186.18984
667.701	1267.06354
668.145	1233.40849
668.588	1189.30492
669.031	1136.11181
669.474	1208.27927
669.917	1225.08371
670.36	1232.39693
670.803	1240.33414
671.245	1156.88757
671.688	1200.31144
672.13	1146.01509
672.573	1201.43067
673.015	1195.2607
673.457	1219.03577
673.899	1229.3342
674.341	1174.24724
674.783	1139.17852
675.225	1152.26634
675.666	1112.14461
676.108	1138.94193
676.549	1152.17333
676.991	1141.98092
677.432	1039.64152
677.873	1109.05588
678.314	1145.18372
678.755	1105.17421
679.196	1088.00136
679.637	1129.22567
680.078	1100.07597
680.518	1121.09669
680.959	1058.06939
681.399	973.01868
681.839	1069.12583
682.28	1045.12027
682.72	1068.9766
683.16	1024.11101
683.6	988.86277
684.039	976.66105
684.479	993.02737
684.919	926.78489
685.358	978.08612
685.798	957.12506
686.237	995.00218
686.676	959.85964
687.115	892.77846
687.554	941.8767
687.993	949.74416
688.432	918.76269
688.871	903.72428
689.309	919.85395
689.748	908.58321
690.186	889.80975
690.625	871.73935
691.063	877.795
691.501	899.89637
691.939	839.80835
692.377	850.78395
692.815	834.7173
693.253	864.78231
693.69	815.53645
694.128	825.72651
694.565	835.71666
695.003	804.78202
695.44	797.6245
695.877	793.60536
696.314	817.50561
696.751	834.635
697.188	762.52671
697.625	816.61923
698.061	768.61173
698.498	831.73984
698.934	809.6915
699.371	786.60822
699.807	802.64617
700.243	794.66268
700.679	769.51698
701.115	839.70246
701.551	765.57685
701.987	814.57771
702.422	767.5923
702.858	758.58303
703.294	802.5707
703.729	800.70621
704.164	778.63632
704.599	790.52165
705.035	746.45743
705.47	773.64467
705.904	738.5099
706.339	834.67192
706.774	777.58584
707.209	750.51302
707.643	779.63447
708.078	788.67479
708.512	716.58886
708.946	808.68234
709.38	797.64141
709.814	835.63888
710.248	810.71636
710.682	791.63633
711.116	770.60244
711.549	821.84945
711.983	749.51549
712.416	844.7169
712.85	846.82384
713.283	816.67042
713.716	884.90904
714.149	802.66244
714.582	846.62189
715.015	892.91566
715.448	809.78011
715.881	894.64822
716.313	847.70231
716.746	853.71988
717.178	824.71264
717.61	929.00493
718.043	999.08188
718.475	931.90819
718.907	995.11557
719.339	897.71363
719.77	905.81567
720.202	904.95556
720.634	918.8921
721.065	1004.97151
721.497	1022.07682
721.928	983.01687
722.359	955.93016
722.79	1032.03266
723.221	1067.21594
723.652	1091.32289
724.083	1043.91252
724.514	1067.98993
724.945	1066.04002
725.375	1101.05413
725.806	1133.29702
726.236	1189.45542
726.666	1156.18513
727.096	1141.25985
727.526	1191.42898
727.956	1159.08094
728.386	1310.50464
728.816	1247.49875
729.246	1288.43064
729.675	1303.48943
730.105	1360.56815
730.534	1322.36334
730.964	1393.70129
731.393	1420.67788
731.822	1416.76475
732.251	1478.81994
732.68	1526.6162
733.109	1488.72513
733.537	1495.66113
733.966	1530.80096
734.395	1591.60552
734.823	1600.53766
735.251	1655.81867
735.68	1688.00934
736.108	1687.0465
736.536	1676.76178
736.964	1771.77781
737.392	1764.07718
737.82	1897.01443
738.247	1884.9968
738.675	1949.0375
739.102	1933.21568
739.53	1983.34592
739.957	1987.40079
740.384	2089.28142
740.811	2112.42776
741.238	2092.22418
741.665	2154.01734
742.092	2271.22223
742.519	2195.35201
742.945	2222.21969
743.372	2315.42354
743.798	2363.65761
744.225	2408.25084
744.651	2430.55253
745.077	2463.53055
745.503	2466.41252
745.929	2576.35235
746.355	2571.56412
746.781	2646.55781
747.207	2598.22626
747.632	2683.46058
748.058	2758.62624
748.483	2767.15676
748.908	2813.60851
749.334	2788.53373
749.759	2828.29305
750.184	2893.35387
750.609	2946.55713
751.033	3089.31859
751.458	3042.00933
751.883	3109.61677
752.307	3062.2831
752.732	3178.65604
753.156	3175.58661
753.58	3226.33056
754.005	3176.78041
754.429	3276.24875
754.853	3242.60019
755.277	3248.29936
755.7	3294.60832
756.124	3201.61353
756.548	3201.31072
756.971	3385.48679
757.394	3340.87624
757.818	3328.86638
758.241	3345.75998
758.664	3297.7298
759.087	3247.92951
759.51	3337.6245
759.933	3350.38431
760.356	3335.83891
760.778	3342.53615
761.201	3340.46766
761.623	3392.44293
762.046	3328.30703
762.468	3267.39723
762.89	3309.57229
763.312	3247.5034
763.734	3155.41431
764.156	3177.58136
764.578	3179.13205
765	3109.5054
765.421	3077.76611
765.843	3033.99629
766.264	3092.44568
766.686	3021.69778
767.107	2950.45762
767.528	2858.70182
767.949	2921.76712
768.37	2883.53229
768.791	2867.44477
769.212	2757.64937
769.632	2699.19704
770.053	2719.95224
770.473	2654.43825
770.894	2583.59245
771.314	2620.3323
771.734	2491.15983
772.154	2467.6929
772.575	2467.12807
772.994	2397.00101
773.414	2382.28431
773.834	2346.47973
774.254	2328.35696
774.673	2258.29877
775.093	2168.32432
775.512	2058.23105
775.931	2125.42179
776.351	2096.29538
776.77	2000.15283
777.189	1982.01855
777.607	2017.37684
778.026	1896.15943
778.445	1775.06849
778.864	1838.24369
779.282	1798.92763
779.701	1750.07944
780.119	1663.99946
780.537	1632.91589
780.955	1660.02683
781.373	1546.78959
781.791	1515.4214
782.209	1469.46266
782.627	1508.98599
783.045	1448.43182
783.462	1416.75051
783.88	1383.75015
784.297	1301.54397
784.715	1324.64175
785.132	1284.40075
785.549	1220.41269
785.966	1189.38454
786.383	1141.25042
786.8	1159.12125
787.217	1109.10573
787.633	1042.13764
788.05	1072.06138
788.466	1030.98377
788.883	1075.24738
789.299	1059.07379
789.715	941.91571
790.131	968.01052
790.547	911.92757
790.963	922.93176
791.379	854.85444
791.795	832.61342
792.21	864.70982
792.626	793.62219
793.041	758.63402
793.457	801.71387
793.872	738.51194
794.287	699.46775
794.702	730.58034
795.117	673.48687
795.532	642.44103
795.947	706.49646
796.362	662.40432
796.776	691.42607
797.191	616.35487
797.605	525.12327
798.02	567.25141
798.434	591.17792
798.848	531.19576
799.262	521.18469
799.676	582.28482
800.09	525.18271
800.504	444.00179
800.918	486.03408
801.331	426.04733
801.745	415.89023
802.158	430.00362
802.572	426.9663
802.985	441.99361
803.398	426.94864
803.811	438.05227
804.224	376.88501
804.637	368.82799
805.05	337.74193
805.462	431.98972
805.875	332.82139
806.288	329.75555
806.7	324.77775
807.112	307.68015
807.525	320.7544
807.937	314.74199
808.349	309.74133
808.761	285.67412
809.173	281.65488
809.584	315.74449
809.996	256.60566
810.408	255.63681
810.819	273.61767
811.231	292.7251
811.642	304.69269
812.053	376.84217
812.464	470.03031
812.875	436.03992
813.286	378.92041
813.697	337.74847
814.108	229.54357
814.519	251.53985
814.929	261.64352
815.34	226.53262
815.75	230.56783
816.16	216.52444
816.571	197.50052
816.981	182.42109
817.391	198.467
817.801	151.36959
818.211	184.4296
818.62	143.33971
819.03	148.35773
819.44	191.48854
819.849	154.38231
820.259	203.50752
820.668	147.35646
821.077	117.28807
821.486	158.37454
821.895	187.45242
822.304	124.32543
822.713	132.30856
823.122	112.27744
823.531	102.24049
823.939	132.31798
824.348	110.26559
824.756	147.36314
825.164	136.33824
825.573	100.24953
825.981	161.39275
826.389	106.26459
826.797	118.29294
827.205	91.20808
827.612	123.30061
828.02	79.18521
828.428	157.39352
828.835	98.2565
829.243	141.3316
829.65	76.18868
830.057	113.27206
830.464	120.28962
830.871	92.21944
831.278	113.27092
831.685	99.2198
832.092	96.23388
832.499	74.16187
832.905	60.1521
833.312	80.18223
833.718	81.20135
834.124	97.22055
834.531	100.25061
834.937	90.23001
835.343	77.18553
835.749	103.23912
836.155	94.24486
836.561	68.16721
836.966	85.2072
837.372	92.23305
837.777	38.09513
838.183	72.16009
838.588	81.20054
838.993	79.19193
839.399	67.16375
839.804	39.09549
840.209	13.03338
840.613	26.05836
841.018	72.18206
841.423	74.18945
841.828	60.15183
842.232	63.15615
842.637	72.16969
843.041	16.04134
843.445	58.14562
843.849	34.08462
844.253	63.14984
844.657	61.15362
845.061	37.08447
845.465	21.05113
845.869	10.0235
846.272	15.03685
846.676	70.16914
847.079	46.11727
847.483	110.27209
847.886	87.21081
848.289	29.07777
848.692	50.12688
849.095	71.17029
849.498	100.25178
849.901	20.04629
850.304	27.06498
850.707	40.10237
851.109	57.14437
851.512	32.07907
851.914	-20.05111
852.316	32.08135
852.718	31.08041
853.121	14.0346
853.523	45.10554
853.925	-8.0211
854.326	26.06539
854.728	47.12111
855.13	9.02341
855.531	25.06014
855.933	37.08925
856.334	6.0151
856.736	-18.04098
857.137	15.03519
857.538	22.05567
857.939	23.05719
858.34	54.13176
858.741	59.15419
859.142	30.07249
859.542	18.0478
859.943	32.07991
860.343	-22.05527
860.744	31.07605
861.144	76.18481
861.544	-25.06103
861.945	29.07428
862.345	3.00741
862.745	1.00251
863.145	59.14108
863.544	35.0888
863.944	3.00717
864.344	61.15147
864.743	67.166
865.143	28.07229
865.542	21.04908
865.941	14.03493
866.34	53.12712
866.74	5.01353
867.139	5.01209
867.537	61.15532
867.936	32.07741
868.335	31.07924
868.734	-6.0155
869.132	2.0047
869.531	58.1403
869.929	9.02072
870.327	12.02902
870.726	60.14955
871.124	32.07519
871.522	46.1174
871.92	44.1088
872.318	25.06149
872.715	55.13622
873.113	18.04418
873.511	4.01006
873.908	-34.0872
874.306	10.02508
874.703	52.13022
875.1	70.17865
875.497	46.11052
875.894	26.06405
876.291	24.05926
876.688	-5.01303
877.085	59.14151
877.482	52.13027
877.878	16.03881
878.275	48.12211
878.671	30.0672
879.068	74.17806
879.464	27.06562
879.86	6.01433
880.256	31.07686
880.652	18.04608
881.048	70.17302
881.444	29.0694
881.84	30.07659
882.236	31.07829
882.631	30.07399
883.027	42.10198
883.422	6.01547
883.817	8.02027
884.213	3.00777
884.608	-3.00744
885.003	3.0073
885.398	39.0979
885.793	-4.01015
886.188	-10.02515
886.582	63.16138
886.977	53.12586
887.371	52.13159
887.766	-25.06307
888.16	54.13479
888.554	36.08934
888.949	62.15549
889.343	34.08339
889.737	2.00537
890.131	46.11557
890.525	24.0617
890.918	12.03043
891.312	52.12451
891.706	50.13127
892.099	81.20515
892.492	1.00218
892.886	17.04189
893.279	3.00771
893.672	2.00514
894.065	37.09294
894.458	50.12585
894.851	72.17587
895.244	-10.02583
895.637	21.0509
896.029	21.05167
896.422	7.01725
896.814	52.12933
897.206	-39.09454
897.599	84.20663
897.991	14.03411
898.383	35.08302
898.775	-2.00457
899.167	-23.05445
899.559	24.06108
899.951	38.08987
900.342	61.15494
900.734	-4.01003
901.125	41.10781
901.517	12.02968
901.908	74.17678
902.299	18.0443
902.69	-7.01671
903.082	38.0923
903.473	1.00242
903.863	19.04877
904.254	-2.00469
904.645	76.18826
905.036	-15.03678
905.426	65.14851
905.817	43.10572
906.207	-37.08969
906.597	-1.00236
906.987	58.1502
907.378	12.03057
907.768	27.07169
908.158	2.00492
908.547	8.02083
908.937	21.05419
909.327	-11.02703
909.717	84.21211
910.106	-16.03894
910.495	28.07022
910.885	49.12419
911.274	21.05279
911.663	66.16713
912.052	37.09157
912.441	18.04605
912.83	13.03008
913.219	45.11792
913.608	42.10309
913.997	18.0454
914.385	43.10294
914.774	77.18665
915.162	44.10503
915.55	15.03655
915.939	7.01781
916.327	15.03769
916.715	-21.05421
917.103	35.08643
917.491	64.15802
917.878	45.1108
918.266	26.06773
918.654	23.05906
919.041	6.01578
919.429	9.02142
919.816	61.15439
920.203	21.05123
920.591	21.05237
920.978	31.07622
921.365	13.03433
921.752	-31.07509
922.139	41.08925
922.525	45.10822
922.912	37.0905
923.299	21.05249
923.685	-21.05546
924.072	-14.03271
924.458	26.06471
924.844	-8.02001
925.231	-29.06857
925.617	-3.0077
926.003	24.06164
926.389	-12.03061
926.774	41.1041
927.16	22.05494
927.546	19.04877
927.931	39.09755
928.317	23.05329
928.702	25.05946
929.088	28.06653
929.473	14.03586
929.858	-48.11821
930.243	-5.01213
930.628	12.02941
931.013	22.05482
931.398	52.1196
931.783	29.07664
932.167	14.03446
932.552	-8.02026
932.937	45.11182
933.321	-1.00253
933.705	48.12107
934.09	62.15639
934.474	21.05018
934.858	4.01046
935.242	-39.09201
935.626	-6.01551
936.009	-9.02417
936.393	37.09438
936.777	17.04379
937.16	35.09131
937.544	30.07098
937.927	20.05102
938.311	40.09785
938.694	23.06111
939.077	38.09119
939.46	44.1082
939.843	0
940.226	15.03872
940.609	-5.01161
940.991	16.04098
941.374	-8.01977
941.757	31.07678
942.139	6.0136
942.522	23.05466
942.904	12.02906
943.286	35.08918
943.668	39.10123
944.05	17.04214
944.432	11.02734
944.814	40.09872
945.196	-31.07669
945.578	3.0072
945.959	10.02362
946.341	86.20976
946.722	-8.01899
947.104	21.05048
947.485	10.02346
947.866	-27.06897
948.247	-4.01019
948.628	37.0905
949.009	-10.02588
949.39	37.09234
949.771	37.0863
950.152	41.1008
950.532	-51.12779
950.913	49.11824
951.293	-3.00817
951.674	18.0438
952.054	-17.04264
952.434	50.12413
952.814	40.09537
953.194	63.16453
953.574	40.09872
953.954	16.03825
954.334	27.06758
954.714	-17.04195
955.093	27.06668
955.473	0
955.853	-10.02616
956.232	17.04684
956.611	22.05306
956.99	15.03794
957.37	45.11478
957.749	19.04561
958.128	-24.06127
958.506	28.07291
958.885	7.0178
959.264	-48.11977
959.643	27.06174
960.021	-45.11345
960.4	32.0728
960.778	26.06434
961.156	-2.00506
961.535	18.04223
961.913	11.02594
962.291	-9.02333
962.669	10.02551
963.047	28.07174
963.424	25.06408
963.802	25.06176
964.18	66.16654
964.557	21.04866
964.935	31.07373
965.312	-3.00788
965.69	55.13761
966.067	34.08305
966.444	10.02483
966.821	43.11099
967.198	53.12852
967.575	38.09365
967.952	32.07568
968.329	0
968.705	3.0065
969.082	14.03613
969.458	-28.06817
969.835	47.11449
970.211	9.02326
970.587	29.07248
970.963	35.09003
971.339	-6.01582
971.715	4.01007
972.091	-4.00995
972.467	15.03765
972.843	20.04991
973.219	35.0843
973.594	35.09178
973.97	36.08593
974.345	23.05533
974.721	8.01953
975.096	17.04139
975.471	1.00239
975.846	59.14151
976.221	-20.05142
976.596	-2.00484
976.971	52.12834
977.346	10.02347
977.72	20.05122
978.095	28.07264
978.469	29.0695
978.844	52.13069
979.218	-14.03397
979.593	-4.00968
979.967	8.01964
980.341	26.06016
980.715	25.06327
981.089	41.10281
981.463	-18.0419
981.837	-13.03214
982.21	13.03048
982.584	37.08959
982.957	-13.03283
983.331	38.09005
983.704	31.07644
984.078	-9.02242
984.451	75.1865
984.824	5.01228
985.197	40.09734
985.57	16.04037
985.943	61.15036
986.316	64.15685
986.688	38.09185
987.061	22.05185
987.434	45.11736
987.806	29.07061
988.179	-48.11541
988.551	40.10165
988.923	22.05446
989.295	36.09019
989.667	-51.12418
990.039	13.03234
990.411	-23.05371
990.783	14.03247
991.155	-33.08053
991.527	53.13045
991.898	12.03011
992.27	-11.02751
992.641	30.07554
993.012	56.13162
993.384	-28.06778
993.755	12.0308
994.126	32.07723
994.497	-18.04474
994.868	18.04161
995.239	32.07782
995.61	29.07324
995.98	-5.01227
996.351	10.02494
996.722	-10.02347
997.092	4.00956
997.462	-61.14558
997.833	5.01196
998.203	61.14759
998.573	-8.02013
998.943	12.02835
999.313	22.053
999.683	-3.00727
1000.053	9.02088
1000.423	37.09013
1000.792	38.09868
1001.162	31.07655
1001.531	8.01988
1001.901	11.02761
1002.27	30.06734
1002.639	12.03086
1003.009	-18.04336
1003.378	39.0999
1003.747	-8.01911
1004.116	10.02411
1004.485	-1.00241
1004.853	77.19412
1005.222	14.03553
1005.591	55.13046
1005.959	-52.1196
1006.328	-15.0342
1006.696	6.01459
1007.064	7.01774
1007.433	24.06026
1007.801	22.05428
1008.169	52.13126
1008.537	28.06228
1008.905	-13.03066
1009.273	24.05956
1009.64	-8.01929
1010.008	35.08366
1010.375	45.10937
1010.743	45.10401
1011.11	-14.03353
1011.478	16.03984
1011.845	-2.00475
1012.212	-33.07594
1012.579	8.01979
1012.946	41.09774
1013.313	-12.0289
1013.68	4.00907
1014.047	-31.075
1014.414	-6.01432
1014.78	7.01753
1015.147	47.11371
1015.513	26.06292
1015.88	56.14302
1016.246	31.07678
1016.612	26.0598
1016.978	6.01482
1017.344	-2.00499
1017.71	46.11224
1018.076	40.09449
1018.442	39.10049
1018.808	23.05776
1019.174	-5.01266
1019.539	104.2368
1019.905	-10.02385
1020.27	-10.02494
1020.636	23.05542
1021.001	22.05294
1021.366	-15.03646
1021.731	54.13873
1022.096	-26.06645
1022.461	-2.00478
1022.826	-20.04816
1023.191	35.09203
1023.556	-18.04274
1023.92	14.03464
1024.285	41.10021
1024.649	9.02222
1025.014	20.0498
1025.378	5.01267
1025.742	12.03
1026.107	29.06586
1026.471	36.08425
1026.835	9.02247
1027.199	-10.02434
1027.562	21.04908
1027.926	29.07117
1028.29	-12.03069
1028.654	12.02781
1029.017	21.05188
1029.381	27.06476
1029.744	12.0308
1030.107	17.04046
1030.471	36.08639
1030.834	-18.0415
1031.197	21.05085
1031.56	27.06397
1031.923	5.01302
1032.286	45.10575
1032.648	39.09343
1033.011	-25.05822
1033.374	54.12678
1033.736	-5.01326
1034.099	17.04167
1034.461	-18.046
1034.823	-12.0302
1035.185	23.05815
1035.548	-8.01967
1035.91	24.05775
1036.272	2.00459
1036.634	35.08583
1036.995	24.05667
1037.357	11.02694
1037.719	29.07077
1038.08	47.11161
1038.442	20.04772
1038.803	42.10095
1039.165	1.00254
1039.526	-15.03667
1039.887	1.00241
1040.248	-12.02989
1040.609	7.01743
1040.97	-19.04701
1041.331	1.00255
1041.692	-18.04256
1042.053	-6.01381
1042.413	29.06783
1042.774	32.07805
1043.134	63.14955
1043.495	42.10567
1043.855	26.06332
1044.215	2.00501
1044.576	-30.07279
1044.936	49.11231
1045.296	29.07261
1045.656	9.02224
1046.016	36.08708
1046.375	-18.0442
1046.735	6.01372
1047.095	26.06111
1047.454	-8.01716
1047.814	-4.00971
1048.173	33.07906
1048.533	-33.07682
1048.892	-7.01697
1049.251	40.10053
1049.61	-7.01741
1049.969	6.01426
1050.328	-3.00657
1050.687	-12.02952
1051.046	20.04894
1051.405	-1.00251
1051.763	-52.12194
1052.122	0
1052.48	-2.00495
1052.839	9.02133
1053.197	37.08725
1053.555	43.09813
1053.914	17.04181
1054.272	33.07999
1054.63	-19.04702
1054.988	9.02154
1055.345	-7.01525
1055.703	41.09879
1056.061	30.0774
1056.419	-25.06551
1056.776	46.11157
1057.134	27.06276
1057.491	11.02772
1057.848	4.01004
1058.206	14.03314
1058.563	-10.02231
1058.92	37.08546
1059.277	10.02484
1059.634	24.05672
1059.991	40.09596
1060.348	-11.02515
1060.704	1.0024
1061.061	18.04206
1061.418	-37.09114
1061.774	14.03477
1062.131	-4.01066
1062.487	-11.02601
1062.843	0
1063.199	1.00251
1063.555	-24.05639
1063.911	12.0305
1064.267	31.0649
1064.623	-18.04425
1064.979	32.07603
1065.335	46.10997
1065.691	15.03617
1066.046	-2.00444
1066.402	-24.05531
1066.757	7.01779
1067.112	16.03949
1067.468	-4.00954
1067.823	-7.017
1068.178	5.01219
1068.533	65.15703
1068.888	13.03126
1069.243	6.01492
1069.598	41.09972
1069.952	-59.13572
1070.307	-19.04759
1070.662	-28.06743
1071.016	-34.07745
1071.371	20.04574
1071.725	32.07677
1072.079	-8.01944
1072.434	48.11659
1072.788	65.15424
1073.142	26.06419
1073.496	-32.07706
1073.85	8.01869
1074.203	42.10198
1074.557	19.05075
1074.911	40.09559
1075.265	-6.01409
1075.618	28.0686
1075.971	47.11178
1076.325	-2.00513
1076.678	29.06655
1077.031	-3.00686
1077.385	4.00889
1077.738	-11.02512
1078.091	-62.14408
1078.444	22.05133
1078.796	-19.04718
1079.149	8.02003
1079.502	-34.08156
1079.855	-23.05437
1080.207	59.145
1080.56	-1.00261
1080.912	29.07082
1081.264	-3.00729
1081.617	27.06604
1081.969	-24.06129
1082.321	-16.03952
1082.673	-13.03002
1083.025	-1.00239
1083.377	-242.55166
1083.728	17.03989
1084.08	-8.02016
1084.432	2.00486
1084.783	40.09383
1085.135	20.05036
1085.486	-25.05802
1085.838	35.08637
1086.189	-15.03682
1086.54	15.03603
1086.891	35.08868
1087.242	-28.06911
1087.593	50.12163
1087.944	-6.01372
1088.295	42.09555
1088.646	54.13068
1088.996	-29.07085
1089.347	16.03948
1089.698	-32.07677
1090.048	47.12203
1090.398	36.08366
1090.749	42.10056
1091.099	-23.05854
1091.449	6.01505
1091.799	13.03274
1092.149	-39.09659
1092.499	4.00983
1092.849	56.14206
1093.199	19.04785
1093.548	21.05069
1093.898	5.0126
1094.248	40.10287
1094.597	-38.09841
1094.947	23.06158
1095.296	20.04962
1095.645	68.17616
1095.994	32.07706
1096.343	15.03795
1096.692	-37.09854
1097.041	-39.10701
1097.39	10.02524
1097.739	9.02354
1098.088	68.18148
1098.437	-7.01855
1098.785	48.12933
1099.134	37.09837
1099.482	35.0964
1099.83	45.11824
1100.179	2.00525
1100.527	-9.02413
1100.875	27.07159
1101.223	17.04535
1101.571	6.01668
1101.919	-30.07938
1102.267	7.01982
1102.615	5.01607
1102.962	19.06111
1103.31	4.01285
1103.658	17.05472
