Data from N2 R9 sample 5_Subt2__2__18-47-15-303.txt Node

Date: Fri Aug 29 18:47:15 PDT 2025
User: uwsun
Spectrometer: HDX01956
Trigger mode: 0
Integration Time (sec): 5.000000E-1
Scans to average: 1
Nonlinearity correction enabled: true
Boxcar width: 0
Storing dark spectrum: false
XAxis mode: Wavelengths
Number of Pixels in Spectrum: 2068
>>>>>Begin Spectral Data<<<<<
194.03	240.64849
194.578	233.71532
195.127	254.7655
195.676	252.76214
196.225	270.68364
196.773	304.79258
197.321	359.90584
197.87	498.11654
198.418	523.14983
198.966	467.04542
199.513	454.96779
200.061	404.88661
200.609	527.19738
201.156	425.7873
201.704	416.90487
202.251	473.07538
202.798	495.09683
203.345	561.16624
203.892	554.17085
204.438	555.10964
204.985	485.96447
205.532	524.16914
206.078	552.1345
206.624	556.13708
207.17	555.07169
207.716	510.04002
208.262	512.83427
208.808	505.04077
209.354	556.12475
209.899	565.20534
210.445	550.13851
210.99	456.93363
211.535	562.10003
212.08	577.11105
212.625	564.1842
213.17	578.22751
213.715	506.93107
214.259	542.0553
214.804	561.16468
215.348	562.06732
215.892	561.12321
216.436	578.11378
216.98	597.08684
217.524	506.00752
218.068	579.22296
218.612	580.22642
219.155	504.0012
219.698	482.97882
220.242	513.09234
220.785	513.01319
221.328	495.05486
221.871	487.06428
222.414	512.08997
222.956	450.92885
223.499	430.83219
224.041	451.90772
224.583	525.95707
225.126	415.78874
225.668	446.93422
226.21	443.96379
226.751	416.77851
227.293	438.86309
227.835	430.90748
228.376	517.01202
228.918	484.05213
229.459	423.9113
230	463.94432
230.541	469.9244
231.082	477.98877
231.622	495.96969
232.163	426.89076
232.704	434.92877
233.244	449.95941
233.784	479.00832
234.324	403.75511
234.864	419.81691
235.404	487.9892
235.944	493.99591
236.484	490.04667
237.023	434.88014
237.563	471.9231
238.102	472.95065
238.641	471.021
239.18	425.84949
239.719	498.06425
240.258	455.87152
240.797	458.93391
241.335	493.02647
241.874	470.7499
242.412	473.96602
242.95	404.82904
243.488	489.94163
244.026	464.90487
244.564	466.80416
245.102	435.82998
245.64	543.09865
246.177	468.88667
246.715	486.9919
247.252	461.90052
247.789	508.79114
248.326	476.96267
248.863	480.87967
249.4	541.01961
249.936	475.81336
250.473	481.94315
251.009	485.92988
251.546	454.84208
252.082	477.87527
252.618	504.93205
253.154	500.00479
253.69	436.83169
254.226	435.88358
254.761	487.91389
255.297	478.87159
255.832	472.94015
256.367	507.99789
256.903	490.89348
257.438	521.01939
257.972	480.89254
258.507	435.83763
259.042	506.90771
259.576	454.80979
260.111	486.94193
260.645	546.96742
261.179	468.91397
261.713	504.92553
262.247	556.05179
262.781	482.83045
263.315	556.11961
263.849	498.04081
264.382	575.07905
264.915	502.97248
265.449	497.99985
265.982	518.97423
266.515	560.12043
267.048	528.90684
267.58	510.92054
268.113	503.88818
268.646	542.10089
269.178	457.84575
269.71	517.92483
270.243	570.05729
270.775	536.12829
271.307	558.10456
271.838	641.22861
272.37	549.10879
272.902	545.01057
273.433	533.9456
273.965	537.07359
274.496	541.1116
275.027	539.09852
275.558	551.09042
276.089	502.01068
276.62	579.2096
277.15	516.05466
277.681	584.01503
278.211	573.14675
278.741	523.92882
279.272	556.01999
279.802	532.09283
280.332	559.06238
280.861	600.16013
281.391	529.96925
281.921	596.15789
282.45	574.16812
282.98	569.21389
283.509	600.06828
284.038	558.01852
284.567	608.13466
285.096	597.1557
285.625	530.9684
286.153	544.02352
286.682	577.04663
287.21	583.1194
287.739	611.14111
288.267	604.1584
288.795	662.3915
289.323	545.01308
289.851	616.13598
290.378	603.05949
290.906	591.12769
291.433	609.20598
291.961	599.05685
292.488	629.23578
293.015	605.11147
293.542	656.29649
294.069	622.19701
294.596	657.27328
295.122	678.24431
295.649	633.07341
296.175	673.26459
296.702	622.18265
297.228	693.29904
297.754	629.08276
298.28	621.08093
298.806	617.14949
299.332	606.02113
299.857	670.13969
300.383	703.37232
300.908	606.13092
301.433	612.14665
301.958	680.19293
302.483	622.19643
303.008	676.28115
303.533	733.46007
304.058	738.30035
304.582	656.16581
305.107	653.30774
305.631	723.22446
306.155	695.19794
306.679	648.1325
307.203	714.21801
307.727	747.30081
308.251	748.36892
308.775	658.15606
309.298	657.16668
309.822	735.37725
310.345	807.36786
310.868	802.37074
311.391	795.41965
311.914	689.27819
312.437	739.21718
312.96	703.20081
313.482	811.3539
314.005	783.41545
314.527	761.45623
315.049	813.47578
315.571	755.15783
316.093	792.38991
316.615	778.31751
317.137	845.23091
317.659	888.48488
318.18	874.44943
318.702	851.338
319.223	825.10816
319.744	866.28071
320.265	852.38875
320.786	794.34177
321.307	898.49346
321.828	915.33339
322.348	842.31197
322.869	844.30287
323.389	645.66038
323.909	961.38872
324.43	937.47207
324.95	994.39362
325.47	936.45989
325.989	968.40626
326.509	976.26794
327.029	998.32577
327.548	1041.34985
328.067	990.43397
328.587	1055.58692
329.106	1005.33026
329.625	1129.81409
330.144	1017.35165
330.662	985.31665
331.181	1047.3946
331.7	1102.43497
332.218	1081.24795
332.736	1161.46422
333.255	1146.42261
333.773	1137.44657
334.291	1176.61736
334.808	1135.29058
335.326	1289.4101
335.844	1185.36853
336.361	1187.56083
336.879	1210.37341
337.396	1246.4673
337.913	1239.34189
338.43	1307.31679
338.947	1370.47544
339.464	1262.1562
339.981	1271.37283
340.497	1349.53323
341.014	1341.46461
341.53	1357.25934
342.046	1392.47612
342.562	1457.5681
343.078	1385.34994
343.594	1467.4138
344.11	1415.36821
344.626	1479.53017
345.141	1447.23589
345.657	1608.28196
346.172	1502.38009
346.687	1412.20447
347.202	1497.15378
347.717	1631.34061
348.232	1624.46579
348.747	1533.18513
349.261	1587.00015
349.776	1615.22995
350.29	1599.30681
350.805	1725.39563
351.319	1627.17365
351.833	1664.05004
352.347	1588.14959
352.861	1728.11547
353.374	1764.11519
353.888	1744.2208
354.401	1722.05056
354.915	1663.92391
355.428	1722.22163
355.941	1859.00664
356.454	1876.95243
356.967	1766.0677
357.48	1890.97258
357.993	1863.15718
358.505	1830.09341
359.018	2044.07391
359.53	2008.98507
360.042	1975.77506
360.554	1943.01929
361.066	1964.99138
361.578	1929.68482
362.09	1930.91996
362.602	2038.639
363.113	2006.77373
363.625	1987.6684
364.136	2218.53807
364.647	2008.63131
365.158	2183.64781
365.669	2147.73649
366.18	2158.66829
366.691	2138.47164
367.201	2196.64928
367.712	2102.49599
368.222	2107.48771
368.733	2206.25408
369.243	2287.23572
369.753	2331.34467
370.263	2332.40632
370.773	2393.44873
371.282	2475.2258
371.792	2401.01539
372.301	2622.0602
372.811	2627.28668
373.32	2505.66865
373.829	2624.78764
374.338	2757.52262
374.847	2861.45792
375.356	2878.44602
375.865	2924.08742
376.373	3145.02726
376.882	3293.18234
377.39	3310.99587
377.898	3265.89361
378.407	3409.66809
378.915	3594.56631
379.423	3830.53783
379.93	4038.52592
380.438	3993.5331
380.946	4286.69075
381.453	4352.81787
381.96	4482.15342
382.468	4656.86552
382.975	5213.78487
383.482	5636.58064
383.989	5407.55078
384.495	5504.12037
385.002	5817.29766
385.509	6192.90914
386.015	6556.2786
386.521	6777.56136
387.028	7161.21709
387.534	7455.65939
388.04	7679.70497
388.546	7679.7369
389.051	8041.57467
389.557	8564.58654
390.063	9684.73997
390.568	9928.18811
391.073	10094.00894
391.578	10619.06698
392.084	10600.10087
392.589	10643.35831
393.093	11219.03283
393.598	12432.5127
394.103	13742.52962
394.607	15341.66904
395.112	16373.82628
395.616	17152.491
396.12	18454.57074
396.624	20044.55505
397.128	21812.19703
397.632	24839.22846
398.136	26861.30174
398.639	26535.61611
399.143	28917.2175
399.646	27947.5076
400.15	25019.22298
400.653	20124.16724
401.156	13866.23708
401.659	5169.95759
402.162	1054.15589
402.664	0
403.167	0
403.67	0
404.172	0
404.674	0
405.176	0
405.678	0
406.18	0
406.682	0
407.184	0
407.686	0
408.187	0
408.688	0
409.19	0
409.691	0
410.192	0
410.693	0
411.194	435.30976
411.694	4082.94878
412.195	8864.71461
412.696	12089.80453
413.196	12760.96929
413.696	12863.67595
414.196	13703.56671
414.696	17261.84252
415.196	21764.24417
415.696	29583.19008
416.196	36460.31858
416.695	40057.39798
417.195	34111.37841
417.694	32350.18083
418.194	30684.29455
418.693	27870.20168
419.192	27373.58879
419.691	26930.58973
420.19	26303.96141
420.688	25758.45093
421.187	24995.38519
421.685	23597.9894
422.184	21966.35053
422.682	18948.68105
423.18	15642.2104
423.678	13651.94797
424.176	12464.27775
424.674	11750.62982
425.172	11392.36543
425.669	10975.39233
426.167	10245.16981
426.664	9339.41022
427.161	8473.61196
427.659	7857.80892
428.156	7115.71244
428.652	6834.37078
429.149	6394.24025
429.646	6319.79677
430.143	5867.91204
430.639	5691.11084
431.135	5069.47388
431.632	4906.27516
432.128	4558.73919
432.624	4267.54714
433.12	4028.56318
433.616	3969.54075
434.111	3734.52893
434.607	3572.59853
435.103	3609.5701
435.598	3581.59234
436.093	3459.83844
436.588	3285.94831
437.083	2999.19406
437.578	2968.32922
438.073	2632.68782
438.568	2737.79451
439.062	2591.57089
439.557	2536.94688
440.051	2402.92313
440.546	2242.03792
441.04	2233.22594
441.534	2130.49301
442.028	2109.41148
442.522	2051.43449
443.015	2046.24309
443.509	2103.56341
444.002	1975.60756
444.496	1921.36778
444.989	1900.68348
445.482	1878.74171
445.975	1835.48758
446.468	1808.41595
446.961	1852.41725
447.454	1813.58815
447.947	1644.70569
448.439	1723.83172
448.931	1653.62372
449.424	1664.9767
449.916	1656.87676
450.408	1551.6863
450.9	1570.87247
451.392	1468.9898
451.884	1484.8117
452.375	1433.95687
452.867	1491.8295
453.358	1434.78476
453.849	1378.68101
454.341	1328.80267
454.832	1358.72387
455.323	1339.9869
455.814	1404.90608
456.304	1284.90049
456.795	1264.89089
457.285	1263.88379
457.776	1280.95957
458.266	1247.99084
458.756	1303.07377
459.247	1143.97233
459.737	1074.95316
460.226	1092.87234
460.716	1047.98
461.206	1126.05141
461.695	1072.13362
462.185	981.96797
462.674	1058.98564
463.163	1072.93125
463.653	1005.8197
464.142	979.03455
464.63	1038.13069
465.119	883.92008
465.608	927.95461
466.096	860.85427
466.585	975.03606
467.073	913.06329
467.561	837.01405
468.05	934.04498
468.538	922.14313
469.026	883.06941
469.513	847.85013
470.001	779.90633
470.489	802.99221
470.976	757.93463
471.463	804.10802
471.951	756.07938
472.438	711.93268
472.925	599.81038
473.412	668.98084
473.899	637.86021
474.385	675.9957
474.872	659.90349
475.359	645.9566
475.845	550.67475
476.331	563.75257
476.817	546.85684
477.303	587.85351
477.789	572.88365
478.275	516.84174
478.761	513.81786
479.247	535.77779
479.732	511.84831
480.218	529.9385
480.703	528.88696
481.188	486.68572
481.673	443.69165
482.158	398.56537
482.643	480.8646
483.128	456.70968
483.612	443.72319
484.097	455.79459
484.581	395.65963
485.066	365.64444
485.55	339.53198
486.034	337.52332
486.518	329.56419
487.002	291.53096
487.486	294.53902
487.969	260.48173
488.453	348.66478
488.936	252.43016
489.42	288.48077
489.903	343.66174
490.386	303.35647
490.869	277.46151
491.352	295.56448
491.835	313.48831
492.318	299.51494
492.8	235.37517
493.283	239.48081
493.765	189.37199
494.247	275.50787
494.73	206.36074
495.212	244.47379
495.694	184.34381
496.175	147.28032
496.657	232.44167
497.139	218.29845
497.62	134.25796
498.102	177.35756
498.583	172.35488
499.064	174.31241
499.545	155.2894
500.026	154.28148
500.507	111.21414
500.988	144.29764
501.469	117.24406
501.949	102.21272
502.43	84.16653
502.91	148.24935
503.39	132.27847
503.87	78.15399
504.35	128.25424
504.83	60.11078
505.31	105.21396
505.79	60.12174
506.269	88.17463
506.749	50.09695
507.228	62.12349
507.707	86.16077
508.187	107.21764
508.666	49.10294
509.145	38.07601
509.623	57.11451
510.102	81.16791
510.581	112.23119
511.059	52.11196
511.538	115.25522
512.016	60.12357
512.494	11.02335
512.972	72.14775
513.45	-13.02607
513.928	40.08387
514.406	37.07639
514.884	85.18825
515.361	54.11182
515.839	35.06902
516.316	57.11864
516.793	74.16289
517.27	78.16426
517.747	33.07397
518.224	53.10672
518.701	10.01952
519.178	28.06044
519.654	44.09184
520.131	9.0196
520.607	16.03509
521.083	48.09547
521.56	-25.0524
522.036	13.02514
522.512	50.10858
522.987	2.00417
523.463	2.0042
523.939	1.00218
524.414	89.17905
524.89	22.04609
525.365	-32.0646
525.84	-5.01046
526.315	-2.00427
526.79	46.09103
527.265	2.00404
527.74	-37.08071
528.215	-10.02099
528.689	8.01567
529.164	25.04804
529.638	42.09575
530.112	-9.01885
530.587	-31.05886
531.061	-8.01715
531.534	21.04534
532.008	-38.08193
532.482	-16.03295
532.956	-34.07764
533.429	39.08378
533.903	19.03745
534.376	-5.00987
534.849	25.05155
535.322	9.01897
535.795	-7.01535
536.268	18.03852
536.741	-11.02376
537.213	-21.04373
537.686	-66.14553
538.158	-35.07028
538.631	57.12323
539.103	-7.014
539.575	-30.05653
540.047	-9.01776
540.519	6.01289
540.991	13.02859
541.463	1.00217
541.934	-9.0185
542.406	18.03824
542.877	-5.01012
543.348	51.10965
543.82	34.07459
544.291	68.14087
544.762	4.00847
545.233	52.11543
545.703	6.01182
546.174	89.18161
546.645	28.05897
547.115	91.19177
547.585	91.18307
548.056	67.14076
548.526	94.19133
548.996	170.3506
549.466	153.32284
549.935	148.29822
550.405	163.30193
550.875	204.40652
551.344	157.32168
551.814	168.32777
552.283	155.28711
552.752	161.31583
553.221	158.28762
553.69	201.37232
554.159	187.3847
554.628	235.43139
555.096	203.43154
555.565	241.44418
556.033	228.45181
556.502	202.41565
556.97	190.35836
557.438	233.46896
557.906	200.40876
558.374	102.20601
558.842	177.36676
559.31	239.45776
559.777	160.3365
560.245	178.36594
560.712	201.40493
561.18	221.41981
561.647	217.41905
562.114	193.38183
562.581	305.64243
563.048	258.51318
563.514	235.49848
563.981	262.517
564.448	271.52182
564.914	232.47028
565.381	352.67829
565.847	320.64036
566.313	334.66187
566.779	348.66413
567.245	355.70332
567.711	348.70736
568.176	347.6566
568.642	351.74679
569.108	395.81552
569.573	418.82484
570.038	494.84296
570.504	460.84343
570.969	485.00171
571.434	445.79845
571.899	490.95422
572.363	548.00124
572.828	578.0583
573.293	561.02995
573.757	528.97986
574.222	596.04525
574.686	518.93164
575.15	568.07821
575.614	547.0042
576.078	606.12365
576.542	599.07945
577.006	577.03175
577.469	584.1653
577.933	540.96475
578.396	660.2319
578.86	595.11666
579.323	551.05377
579.786	584.99665
580.249	535.97877
580.712	543.07657
581.175	490.99235
581.637	467.88888
582.1	468.84557
582.563	478.84248
583.025	427.8614
583.487	401.66929
583.95	380.67987
584.412	519.88112
584.874	466.93511
585.336	427.8428
585.797	337.6174
586.259	334.67425
586.721	366.72528
587.182	424.83393
587.643	343.66365
588.105	348.70155
588.566	352.62846
589.027	285.59053
589.488	272.53749
589.949	355.73326
590.41	314.51727
590.87	363.70571
591.331	349.64197
591.791	304.60185
592.252	267.52674
592.712	298.61843
593.172	283.54991
593.632	315.594
594.092	260.50389
594.552	266.4963
595.011	239.47705
595.471	297.57244
595.931	321.61215
596.39	222.46524
596.849	270.54506
597.308	307.57351
597.768	257.56867
598.227	265.55572
598.685	320.63353
599.144	296.59699
599.603	288.59047
600.062	241.43928
600.52	290.55585
600.978	307.62701
601.437	331.64932
601.895	327.59062
602.353	318.6057
602.811	287.54944
603.269	361.73462
603.727	350.71369
604.184	365.69336
604.642	397.82001
605.099	364.71592
605.557	420.85993
606.014	343.62427
606.471	397.83104
606.928	418.73823
607.385	471.93881
607.842	540.99815
608.299	562.05694
608.755	620.18914
609.212	541.96678
609.668	520.92564
610.125	632.21687
610.581	646.23016
611.037	649.18351
611.493	574.10553
611.949	499.99185
612.405	508.82682
612.861	619.17951
613.316	520.02199
613.772	609.1267
614.227	532.03087
614.683	634.08644
615.138	572.08952
615.593	581.09784
616.048	651.19676
616.503	588.18796
616.958	577.18783
617.412	614.17988
617.867	566.01803
618.321	598.00269
618.776	616.10647
619.23	575.11144
619.684	631.1605
620.138	601.15125
620.592	538.09374
621.046	612.18451
621.5	512.04978
621.954	602.12121
622.407	564.04718
622.861	518.06498
623.314	589.11625
623.768	507.00225
624.221	462.77645
624.674	457.90752
625.127	501.00102
625.58	508.99445
626.033	487.92786
626.485	448.93095
626.938	452.93758
627.39	475.95779
627.843	424.86183
628.295	430.87323
628.747	455.94654
629.199	405.81477
629.651	384.7759
630.103	398.80972
630.555	380.71817
631.006	297.63575
631.458	351.74711
631.909	372.77234
632.361	317.67504
632.812	333.69893
633.263	352.6884
633.714	379.7333
634.165	335.7431
634.616	324.70658
635.067	328.66944
635.518	320.70318
635.968	376.68626
636.419	316.6344
636.869	301.66408
637.319	285.61244
637.769	287.59654
638.219	337.74411
638.669	274.61021
639.119	294.6691
639.569	270.61001
640.019	308.66372
640.468	234.49495
640.918	357.79485
641.367	301.63094
641.816	277.58243
642.265	244.53439
642.714	282.61317
643.163	205.45059
643.612	227.51632
644.061	203.41065
644.51	280.60002
644.958	213.44727
645.406	270.60927
645.855	295.68019
646.303	278.61449
646.751	252.54352
647.199	274.58919
647.647	247.54016
648.095	259.56304
648.543	250.48938
648.99	299.67208
649.438	218.49214
649.885	284.66513
650.333	252.46668
650.78	275.62928
651.227	273.62972
651.674	268.58025
652.121	272.62854
652.568	247.57225
653.015	322.76766
653.461	250.56736
653.908	316.69439
654.354	256.58428
654.801	219.49369
655.247	311.64613
655.693	284.7037
656.139	276.63017
656.585	271.62013
657.031	238.53158
657.477	252.52134
657.922	239.5284
658.368	236.56051
658.813	281.62514
659.259	289.65998
659.704	223.50147
660.149	260.58071
660.594	259.58981
661.039	177.39379
661.484	270.61921
661.929	269.60366
662.373	213.51978
662.818	195.47035
663.262	169.39776
663.707	217.53269
664.151	193.45971
664.595	210.49184
665.039	280.66857
665.483	221.54532
665.927	214.49079
666.371	215.48269
666.814	226.52454
667.258	204.46955
667.701	270.56358
668.145	261.62738
668.588	211.5047
669.031	182.41891
669.474	180.42537
669.917	254.54595
670.36	203.49168
670.803	223.52484
671.245	188.39068
671.688	203.48483
672.13	181.39918
672.573	254.62546
673.015	179.42293
673.457	154.33287
673.899	231.54557
674.341	190.4504
674.783	205.48097
675.225	157.38127
675.666	136.32389
676.108	185.39705
676.549	206.47907
676.991	190.41332
677.432	166.3288
677.873	171.39147
678.314	158.37368
678.755	182.43609
679.196	173.39175
679.637	192.46198
680.078	163.37855
680.518	242.55144
680.959	130.31031
681.399	164.40193
681.839	183.43924
682.28	147.35953
682.72	159.36122
683.16	168.4131
683.6	220.4932
684.039	154.3206
684.479	162.39334
684.919	138.3165
685.358	210.52284
685.798	141.36621
686.237	168.4027
686.676	182.41858
687.115	167.38922
687.554	152.35879
687.993	189.41402
688.432	133.30387
688.871	147.33233
689.309	176.41576
689.748	170.35454
690.186	173.4097
690.625	158.36788
691.063	168.39917
691.501	169.41364
691.939	140.34705
692.377	155.37529
692.815	116.27753
693.253	141.33818
693.69	80.17817
694.128	120.29039
694.565	126.30053
695.003	151.38025
695.44	115.27088
695.877	107.25076
696.314	144.31045
696.751	152.34623
697.188	109.25154
697.625	164.37522
698.061	146.34864
698.498	147.35445
698.934	142.3409
699.371	76.18058
699.807	143.33735
700.243	122.29356
700.679	150.33919
701.115	149.35014
701.551	126.29719
701.987	146.32839
702.422	129.3061
702.858	152.36032
703.294	133.30191
703.729	161.39113
704.164	140.33597
704.599	145.32286
705.035	100.22548
705.47	109.2655
705.904	125.29145
706.339	140.32585
706.774	128.29991
707.209	106.24564
707.643	112.2697
708.078	126.30651
708.512	83.20849
708.946	125.29992
709.38	98.23366
709.814	111.25524
710.248	95.23279
710.682	110.26237
711.116	87.20867
711.549	107.27619
711.983	94.21887
712.416	123.29141
712.85	120.29899
713.283	108.25661
713.716	181.44974
714.149	114.27275
714.582	114.25736
715.015	156.38812
715.448	128.32193
715.881	144.31565
716.313	104.24492
716.746	65.15483
717.178	128.30741
717.61	112.28412
718.043	145.35964
718.475	112.27205
718.907	204.50864
719.339	77.17642
719.77	91.21693
720.202	144.36204
720.634	83.20316
721.065	98.23357
721.497	96.23633
721.928	87.21468
722.359	35.08564
722.79	94.2261
723.221	180.44783
723.652	171.43677
724.083	107.2426
724.514	116.26743
724.945	81.19205
725.375	91.21243
725.806	115.28732
726.236	136.34695
726.666	123.29141
727.096	66.16355
727.526	121.30657
727.956	111.2532
728.386	131.32183
728.816	91.23089
729.246	81.19804
729.675	108.26596
730.105	124.30491
730.534	97.2283
730.964	131.33025
731.393	183.44957
731.822	165.41729
732.251	121.30646
732.68	133.31327
733.109	88.21791
733.537	90.21845
733.966	94.23421
734.395	132.30456
734.823	171.38312
735.251	100.24172
735.68	131.32729
736.108	132.33271
736.536	149.34987
736.964	124.28781
737.392	116.29008
737.82	131.31384
738.247	98.23581
738.675	160.37987
739.102	70.17606
739.53	86.21963
739.957	126.3228
740.384	169.41318
740.811	140.353
741.238	138.33532
741.665	86.2008
742.092	127.30309
742.519	95.23563
742.945	136.32538
743.372	131.32314
743.798	149.38005
744.225	90.21516
744.651	125.31275
745.077	142.35201
745.503	160.38717
745.929	98.23599
746.355	205.50175
746.781	155.38107
747.207	32.07627
747.632	113.27514
748.058	118.29401
748.483	86.19953
748.908	94.23421
749.334	131.32064
749.759	91.21568
750.184	71.17049
750.609	136.33281
751.033	150.35283
751.458	160.35678
751.883	119.29451
752.307	139.32575
752.732	88.2203
753.156	107.26433
753.58	134.31741
754.005	116.29395
754.429	84.19867
754.853	103.25529
755.277	132.31146
755.7	109.27035
756.124	115.28482
756.548	133.31401
756.971	136.33059
757.394	121.31059
757.818	86.22179
758.241	117.29601
758.664	97.24515
759.087	39.08846
759.51	151.37274
759.933	121.29043
760.356	103.26393
760.778	108.26547
761.201	175.42068
761.623	143.34506
762.046	114.27077
762.468	152.36268
762.89	109.26907
763.312	127.30912
763.734	87.21033
764.156	113.27864
764.578	117.26936
765	69.16958
765.421	29.07449
765.843	117.30555
766.264	108.26115
766.686	112.28088
767.107	113.2735
767.528	44.11205
767.949	110.27914
768.37	95.23356
768.791	119.28737
769.212	76.19149
769.632	39.09208
770.053	68.17974
770.473	85.20751
770.894	108.27017
771.314	132.31412
771.734	83.19444
772.154	105.26914
772.575	86.2004
772.994	78.17832
773.414	82.19791
773.834	44.11106
774.254	105.25681
774.673	131.31742
775.093	48.11982
775.512	31.07728
775.931	116.2929
776.351	52.13013
776.77	-12.02992
777.189	39.0939
777.607	86.21979
778.026	28.07058
778.445	7.01777
778.864	106.27118
779.282	62.1502
779.701	66.16713
780.119	42.107
780.537	22.05557
780.955	75.19137
781.373	86.21296
781.791	29.06612
782.209	94.21706
782.627	27.07178
783.045	15.03508
783.462	58.14891
783.88	58.15067
784.297	34.08634
784.715	47.1214
785.132	54.13166
785.549	50.12589
785.966	64.16161
786.383	19.04733
786.8	31.07293
787.217	46.11001
787.633	32.0806
788.05	85.20239
788.466	92.21717
788.883	39.10018
789.299	51.12372
789.715	7.01727
790.131	57.14246
790.547	26.06563
790.963	70.17423
791.379	51.12963
791.795	21.04864
792.21	50.11784
792.626	71.16906
793.041	19.04745
793.457	43.10708
793.872	35.08315
794.287	10.0242
794.702	67.16564
795.117	34.08518
795.532	31.07835
795.947	29.07059
796.362	74.17725
796.776	109.25455
797.191	36.08888
797.605	-22.0527
798.02	32.0786
798.434	19.04296
798.848	20.0498
799.262	-1.00252
799.676	62.1519
800.09	63.15552
800.504	3.00739
800.918	-26.06156
801.331	67.17593
801.745	34.07892
802.158	33.08316
802.572	58.14136
802.985	27.06596
803.398	46.11048
803.811	66.17004
804.224	78.19421
804.637	20.0482
805.05	17.03993
805.462	31.07686
805.875	-25.06587
806.288	0
806.7	9.02289
807.112	45.10513
807.525	46.1142
807.937	-11.02762
808.349	32.0808
808.761	35.08678
809.173	7.01719
809.584	31.07728
809.996	19.04701
810.408	30.07796
810.819	10.02383
811.231	48.12448
811.642	53.12688
812.053	144.33793
812.464	203.47088
812.875	171.42938
813.286	120.30624
813.697	118.27399
814.108	30.07393
814.519	40.08993
814.929	52.13313
815.34	22.0539
815.75	0
816.16	29.07287
816.571	25.06545
816.981	16.03824
817.391	0
817.801	12.03013
818.211	25.06019
818.62	7.01706
819.03	16.03963
819.44	66.17251
819.849	29.07363
820.259	15.03877
820.668	2.00498
821.077	2.00503
821.486	23.05594
821.895	72.17796
822.304	33.08794
822.713	25.05967
823.122	13.03279
823.531	30.07172
823.939	31.0761
824.348	66.16068
824.756	25.06314
825.164	23.05838
825.573	-18.04587
825.981	19.04757
826.389	32.08095
826.797	16.04046
827.205	29.06714
827.612	48.11895
828.02	-23.055
828.428	37.09474
828.835	61.16067
829.243	60.14333
829.65	-6.01512
830.057	6.01474
830.464	12.02955
830.871	28.0676
831.278	29.07064
831.685	39.08767
832.092	65.15928
832.499	14.03101
832.905	23.05869
833.312	34.07817
833.718	30.07527
834.124	15.03467
834.531	17.04324
834.937	28.07234
835.343	13.0317
835.749	68.15896
836.155	11.02906
836.561	9.02237
836.966	27.06653
837.372	61.15538
837.777	2.00504
838.183	52.1161
838.588	31.07745
838.993	32.07843
839.399	27.06648
839.804	-31.07689
840.209	-14.03612
840.613	-13.02941
841.018	33.08403
841.423	52.13364
841.828	7.01788
842.232	80.19767
842.637	0
843.041	4.01036
843.445	32.08072
843.849	-5.01253
844.253	51.12158
844.657	-1.00255
845.061	0
845.465	7.01709
845.869	8.0188
846.272	26.06375
846.676	50.12127
847.079	-24.06194
847.483	44.11015
847.886	53.12924
848.289	4.01077
848.692	-11.02822
849.095	10.02426
849.498	70.1772
849.901	27.06241
850.304	10.02414
850.707	63.16058
851.109	57.14437
851.512	27.06677
851.914	-10.02551
852.316	54.13674
852.718	-17.04446
853.121	44.10816
853.523	29.06823
853.925	21.05512
854.326	13.03277
854.728	12.03111
855.13	-21.0549
855.531	22.05296
855.933	37.08925
856.334	-10.02524
856.736	-32.07307
857.137	-3.00706
857.538	25.06323
857.939	-4.01
858.34	33.08083
858.741	52.13606
859.142	34.08209
859.542	35.09268
859.943	38.09479
860.343	15.03744
860.744	29.07117
861.144	57.1391
861.544	3.00729
861.945	42.10734
862.345	-11.02725
862.745	32.07991
863.145	48.11502
863.544	36.09132
863.944	-3.00717
864.344	27.06746
864.743	60.14885
865.143	22.05686
865.542	-9.02116
865.941	9.02248
866.34	28.06748
866.74	-9.02441
867.139	-30.07303
867.537	43.10984
867.936	42.10141
868.335	58.14755
868.734	14.03604
869.132	8.01877
869.531	64.15464
869.929	22.05052
870.327	10.02419
870.726	14.03519
871.124	38.08918
871.522	58.14771
871.92	28.06944
872.318	47.11513
872.715	45.11166
873.113	5.0123
873.511	6.01509
873.908	-10.02554
874.306	13.03259
874.703	43.10786
875.1	35.08987
875.497	10.02419
875.894	13.0321
876.291	13.03216
876.688	7.01821
877.085	31.07475
877.482	21.0529
877.878	5.01215
878.275	17.04348
878.671	9.02025
879.068	31.0752
879.464	28.06804
879.86	-19.04559
880.256	42.10393
880.652	19.04863
881.048	28.06974
881.444	13.0312
881.84	13.03329
882.236	48.12086
882.631	21.05188
883.027	28.06817
883.422	24.0617
883.817	-13.03307
884.213	28.07219
884.608	-33.08224
885.003	7.01703
885.398	-17.0431
885.793	-8.02031
886.188	-7.0176
886.582	55.14108
886.977	20.0478
887.371	21.05343
887.766	7.01756
888.16	36.09016
888.554	60.14825
888.949	25.06312
889.343	37.0907
889.737	-24.06477
890.131	25.06305
890.525	12.03092
890.918	13.03296
891.312	33.0793
891.706	2.00529
892.099	61.15505
892.492	12.02614
892.886	0
893.279	11.02824
893.672	21.05377
894.065	9.02272
894.458	4.01015
894.851	58.14204
895.244	19.04882
895.637	16.03882
896.029	38.0932
896.422	31.07608
896.814	11.02756
897.206	6.01442
897.599	35.08688
897.991	24.05836
898.383	-33.0793
898.775	-3.00685
899.167	-2.00472
899.559	39.09899
899.951	-27.06466
900.342	60.15242
900.734	-24.06039
901.125	38.09997
901.517	-10.02484
901.908	70.16735
902.299	-9.02226
902.69	9.02142
903.082	20.04874
903.473	30.07216
903.863	22.05644
904.254	3.00703
904.645	76.18826
905.036	-32.07872
905.426	33.07588
905.817	17.042
906.207	-15.03621
906.597	-6.0142
906.987	40.10391
907.378	13.03311
907.768	18.04786
908.158	2.00492
908.547	4.01042
908.937	24.0619
909.327	24.0586
909.717	63.15968
910.106	-3.00728
910.495	36.09016
910.885	16.04079
911.274	16.04026
911.663	42.10681
912.052	38.09403
912.441	34.08674
912.83	37.08522
913.219	56.14647
913.608	8.01976
913.997	-10.02535
914.385	12.0289
914.774	14.03434
915.162	26.06228
915.55	15.03655
915.939	-4.0102
916.327	5.01259
916.715	39.09962
917.103	43.10603
917.491	47.11641
917.878	39.09613
918.266	22.05735
918.654	29.07439
919.041	4.01053
919.429	-10.02389
919.816	46.11673
920.203	-6.01471
920.591	42.10435
920.978	33.0811
921.365	-15.0398
921.752	-1.00241
922.139	1.0022
922.525	-10.0243
922.912	11.02703
923.299	12.03004
923.685	15.03937
924.072	-3.00699
924.458	-11.02756
924.844	-12.03004
925.231	-8.01884
925.617	-41.10598
926.003	25.0642
926.389	-6.01529
926.774	-16.04103
927.16	52.12914
927.546	-44.11418
927.931	55.13717
928.317	13.03018
928.702	21.04998
929.088	-46.11085
929.473	-25.06446
929.858	-17.04163
930.243	-17.04133
930.628	-37.0915
931.013	-9.02255
931.398	2.00465
931.783	93.24313
932.167	24.05897
932.552	14.03531
932.937	25.06235
933.321	15.03788
933.705	3.00763
934.09	60.1514
934.474	16.03827
934.858	6.01568
935.242	9.02103
935.626	-19.04923
936.009	-3.00805
936.393	3.0077
936.777	13.03351
937.16	5.01311
937.544	23.05449
937.927	-12.03079
938.311	22.054
938.694	40.10598
939.077	-18.04366
939.46	52.12768
939.843	56.11674
940.226	8.02068
940.609	-17.03956
940.991	16.04098
941.374	-14.03463
941.757	-2.00498
942.139	-35.08
942.522	55.1299
942.904	1.00243
943.286	46.11698
943.668	9.02348
944.05	26.06434
944.432	-22.05502
944.814	-3.00746
945.196	8.01965
945.578	-32.07726
945.959	-34.081
946.341	52.12763
946.722	32.07539
947.104	-17.04116
947.485	1.00235
947.866	9.02284
948.247	19.04821
948.628	42.10263
949.009	14.03608
949.39	23.05755
949.771	60.13932
950.152	8.01979
950.532	-43.10759
950.913	44.10628
951.293	-21.05738
951.674	1.00244
952.054	-13.03259
952.434	24.05987
952.814	-1.0024
953.194	31.0814
953.574	14.03472
953.954	3.00719
954.334	-22.05555
954.714	5.01229
955.093	48.11808
955.473	-8.02022
955.853	14.03647
956.232	30.08249
956.611	30.07224
956.99	4.01014
957.37	32.08181
957.749	7.01684
958.128	26.06579
958.506	-9.02358
958.885	25.06339
959.264	-45.11223
959.643	17.03895
960.021	-23.05776
960.4	-24.05522
960.778	57.14024
961.156	-2.00506
961.535	38.08879
961.913	29.06815
962.291	-1.00259
962.669	8.02042
963.047	-24.06205
963.424	24.06153
963.802	-6.01491
964.18	84.21127
964.557	7.01626
964.935	35.08318
965.312	-20.0527
965.69	61.15246
966.067	30.07333
966.444	13.03226
966.821	12.03114
967.198	41.09965
967.575	65.15939
967.952	24.05685
968.329	5.01227
968.705	31.06676
969.082	28.07209
969.458	-51.12469
969.835	13.03187
970.211	25.06444
970.587	19.04757
970.963	42.1079
971.339	32.08381
971.715	-15.0379
972.091	45.11092
972.467	10.02512
972.843	-9.02258
973.219	33.07951
973.594	7.01844
973.97	65.1543
974.345	2.00483
974.721	27.06567
975.096	-40.09843
975.471	11.02629
975.846	8.01937
976.221	10.02557
976.596	-2.00484
976.971	19.04718
977.346	44.10257
977.72	22.05632
978.095	-4.01043
978.469	27.06473
978.844	28.07068
979.218	14.03379
979.593	38.09126
979.967	11.02699
980.341	12.02784
980.715	39.09846
981.089	33.08287
981.463	47.10799
981.837	-9.02223
982.21	35.0817
982.584	-13.03177
982.957	3.00755
983.331	-1.00239
983.704	24.05926
984.078	-26.06497
984.451	42.10507
984.824	11.02698
985.197	18.04398
985.57	11.02778
985.943	47.11615
986.316	60.14716
986.688	8.01945
987.061	10.02362
987.434	28.07324
987.806	-18.04421
988.179	-2.00477
988.551	57.14442
988.923	-27.06743
989.295	27.06775
989.667	-42.1021
990.039	-19.04754
990.411	16.03708
990.783	18.04171
991.155	-54.1323
991.527	50.12313
991.898	-14.03529
992.27	28.06954
992.641	19.04793
993.012	42.09899
993.384	38.09085
993.755	13.03336
994.126	22.0532
994.497	-20.04972
994.868	35.08064
995.239	23.05602
995.61	-37.09454
995.98	-12.02949
996.351	-10.02503
996.722	-28.06594
997.092	-32.07697
997.462	-61.14558
997.833	29.06903
998.203	17.04147
998.573	-4.01006
998.943	-16.038
999.313	-4.00968
999.683	-11.0267
1000.053	-5.01163
1000.423	28.06832
1000.792	11.0287
1001.162	-20.04985
1001.531	51.12571
1001.901	69.17139
1002.27	42.09404
1002.639	8.02059
1003.009	9.02157
1003.378	3.00773
1003.747	-22.0527
1004.116	-43.1047
1004.485	-8.01933
1004.853	21.05347
1005.222	16.04059
1005.591	-16.03847
1005.959	-33.07561
1006.328	-74.17074
1006.696	-43.10552
1007.064	0
1007.433	26.06525
1007.801	17.04198
1008.169	1.00255
1008.537	11.02455
1008.905	4.0094
1009.273	35.08669
1009.64	-48.11664
1010.008	14.0336
1010.375	57.13822
1010.743	55.12688
1011.11	-21.05037
1011.478	-18.04509
1011.845	42.09891
1012.212	2.00457
1012.579	-5.0124
1012.946	44.10483
1013.313	20.04787
1013.68	11.02492
1014.047	8.01921
1014.414	-45.10822
1014.78	27.06736
1015.147	61.1472
1015.513	17.04121
1015.88	55.14049
1016.246	71.17456
1016.612	18.04147
1016.978	42.10305
1017.344	21.05216
1017.71	21.05148
1018.076	31.07336
1018.442	41.10561
1018.808	-2.00504
1019.174	-7.01774
1019.539	56.12875
1019.905	-36.0863
1020.27	9.02237
1020.636	14.03379
1021.001	7.01689
1021.366	2.00485
1021.731	9.0233
1022.096	10.0254
1022.461	28.06653
1022.826	1.0024
1023.191	-29.07708
1023.556	33.07758
1023.92	2.00496
1024.285	35.08564
1024.649	22.05418
1025.014	1.0025
1025.378	39.09821
1025.742	-1.00251
1026.107	17.0387
1026.471	68.15815
1026.835	9.02247
1027.199	8.0194
1027.562	26.06071
1027.926	22.05406
1028.29	-3.00766
1028.654	32.07386
1029.017	25.06171
1029.381	9.02166
1029.744	59.15018
1030.107	32.07595
1030.471	0
1030.834	30.0685
1031.197	-8.01948
1031.56	-15.03583
1031.923	2.00521
1032.286	34.08007
1032.648	-3.00724
1033.011	-19.0442
1033.374	51.1198
1033.736	15.03965
1034.099	40.09763
1034.461	-20.05113
1034.823	11.02757
1035.185	-9.02288
1035.548	4.00981
1035.91	2.00483
1036.272	-11.02533
1036.634	31.07608
1036.995	30.07076
1037.357	-33.08149
1037.719	38.09258
1038.08	-3.00719
1038.442	15.03583
1038.803	25.06028
1039.165	42.10609
1039.526	31.07514
1039.887	30.07202
1040.248	0
1040.609	36.08915
1040.97	34.0833
1041.331	62.15655
1041.692	3.00706
1042.053	25.05719
1042.413	12.02816
1042.774	46.1119
1043.134	14.03355
1043.495	41.10318
1043.855	15.03661
1044.215	-3.00751
1044.576	-9.02175
1044.936	21.04841
1045.296	15.03765
1045.656	14.03457
1046.016	28.06783
1046.375	23.05605
1046.735	-47.10859
1047.095	43.10073
1047.454	30.06382
1047.814	28.06755
1048.173	57.13593
1048.533	-5.01158
1048.892	-71.17424
1049.251	25.063
1049.61	15.03715
1049.969	33.078
1050.328	22.04796
1050.687	16.03916
1051.046	38.09268
1051.405	11.02754
1051.763	-37.08651
1052.122	-6.01511
1052.48	3.00742
1052.839	15.03551
1053.197	15.03552
1053.555	42.09586
1053.914	3.0074
1054.272	58.13993
1054.63	0
1054.988	-6.0144
1055.345	31.06699
1055.703	-12.0292
1056.061	2.00518
1056.419	-22.05762
1056.776	2.00489
1057.134	-14.0328
1057.491	10.02521
1057.848	44.10959
1058.206	13.03078
1058.563	-29.06495
1058.92	-3.00698
1059.277	33.08161
1059.634	14.03315
1059.991	21.05056
1060.348	21.04771
1060.704	7.01681
1061.061	32.07457
1061.418	8.01954
1061.774	11.02733
1062.131	-8.02134
1062.487	-8.01891
1062.843	29.07253
1063.199	12.03003
1063.555	5.01168
1063.911	68.17109
1064.267	46.09598
1064.623	35.08519
1064.979	24.05711
1065.335	43.10286
1065.691	-18.04367
1066.046	26.05743
1066.402	-1.00229
1066.757	13.03301
1067.112	32.07875
1067.468	-3.00715
1067.823	30.07235
1068.178	11.02678
1068.533	17.04144
1068.888	54.12885
1069.243	-26.06502
1069.598	-16.03933
1069.952	-56.12875
1070.307	-9.0225
1070.662	11.02629
1071.016	-13.02949
1071.371	3.00688
1071.725	32.07677
1072.079	6.01454
1072.434	12.02934
1072.788	-4.00962
1073.142	34.08382
1073.496	17.04056
1073.85	14.03268
1074.203	6.01467
1074.557	12.03209
1074.911	-2.00482
1075.265	39.09079
1075.618	28.0686
1075.971	-15.0361
1076.325	-16.04111
1076.678	-14.03241
1077.031	-19.04357
1077.385	12.02663
1077.738	-13.0297
1078.091	-38.08789
1078.444	19.04435
1078.796	18.04439
1079.149	25.06242
1079.502	-41.09849
1079.855	6.0141
1080.207	38.09375
1080.56	-10.02609
1080.912	26.06353
1081.264	2.00486
1081.617	-42.10404
1081.969	-3.00763
1082.321	-18.04448
1082.673	-8.01846
1083.025	57.13494
1083.377	-210.47563
1083.728	43.10038
1084.08	42.10492
1084.432	-9.02193
1084.783	28.06584
1085.135	0
1085.486	-15.03474
1085.838	18.04456
1086.189	41.09961
1086.54	32.07662
1086.891	-30.07689
1087.242	-7.01721
1087.593	49.11922
1087.944	-8.0183
1088.295	13.02975
1088.646	-10.02449
1088.996	0
1089.347	-6.01486
1089.698	-39.09368
1090.048	16.04176
1090.398	32.07442
1090.749	-16.03873
1091.099	-17.04323
1091.449	30.07494
1091.799	44.11019
1092.149	-64.15923
1092.499	-8.01971
1092.849	6.01536
1093.199	25.06289
1093.548	-10.02428
1093.898	32.08025
1094.248	48.12328
1094.597	-59.15335
1094.947	33.0882
1095.296	17.0422
1095.645	55.1428
1095.994	12.02901
1096.343	7.01774
1096.692	-4.01059
1097.041	-11.03005
1097.39	4.01011
1097.739	9.02354
1098.088	-2.0054
1098.437	-23.06111
1098.785	53.14269
1099.134	24.06395
1099.482	32.08818
1099.83	19.05014
1100.179	-16.04216
1100.527	45.11956
1100.875	-17.04541
1101.223	14.03736
1101.571	-8.02229
1101.919	-26.06875
1102.267	-7.01986
1102.615	0
1102.962	16.05148
1103.31	-3.00965
1103.658	14.04508
