Data from N2 R9 sample 11_Subt2__5__18-39-14-314.txt Node

Date: Fri Aug 29 18:39:14 PDT 2025
User: uwsun
Spectrometer: HDX01956
Trigger mode: 0
Integration Time (sec): 5.000000E-1
Scans to average: 1
Nonlinearity correction enabled: true
Boxcar width: 0
Storing dark spectrum: false
XAxis mode: Wavelengths
Number of Pixels in Spectrum: 2068
>>>>>Begin Spectral Data<<<<<
194.03	234.6329
194.578	232.71235
195.127	219.66317
195.676	221.67119
196.225	282.7125
196.773	282.738
197.321	381.95755
197.87	506.13264
198.418	514.13214
198.966	482.07573
199.513	460.9793
200.061	470.01515
200.609	567.27798
201.156	459.84308
201.704	422.91675
202.251	459.04644
202.798	512.13056
203.345	536.12037
203.892	505.07854
204.438	534.07276
204.985	516.01698
205.532	553.22657
206.078	539.11097
206.624	508.05001
207.17	563.08508
207.716	473.97435
208.262	476.78341
208.808	489.01135
209.354	491.00778
209.899	570.21471
210.445	487.02205
210.99	500.01173
211.535	560.09662
212.08	481.94894
212.625	518.09847
213.17	542.15995
213.715	424.79623
214.259	604.15896
214.804	531.10966
215.348	576.09024
215.892	535.07749
216.436	533.03799
216.98	552.0162
217.524	537.06167
218.068	545.15959
218.612	563.19483
219.155	539.06215
219.698	489.99145
220.242	497.06188
220.785	455.9124
221.328	521.10412
221.871	507.10339
222.414	503.07287
222.956	419.87088
223.499	474.90769
224.041	522.03172
224.583	485.89309
225.126	427.80918
225.668	469.9774
226.21	434.94602
226.751	415.77683
227.293	456.89476
227.835	472.98693
228.376	459.91234
228.918	482.04822
229.459	458.97928
230	450.92051
230.541	458.90505
231.082	466.96835
231.622	481.94538
232.163	458.95088
232.704	454.96737
233.244	482.02066
233.784	479.00832
234.324	436.8103
234.864	435.84489
235.404	463.9456
235.944	478.96893
236.484	460.99078
237.023	412.83973
237.563	408.81154
238.102	467.94166
238.641	487.05216
239.18	411.82417
239.719	463.99874
240.258	470.89699
240.797	435.89164
241.335	487.0153
241.874	450.72207
242.412	425.87745
242.95	427.87169
243.488	486.93653
244.026	429.84357
244.564	480.82524
245.102	503.94392
245.64	514.04676
246.177	478.90341
246.715	530.06912
247.252	505.97618
247.789	499.77916
248.326	436.88986
248.863	450.83092
249.4	499.95165
249.936	476.81485
250.473	501.97773
251.009	463.89241
251.546	468.86503
252.082	463.85257
252.618	520.9578
253.154	534.06486
253.69	496.93239
254.226	508.01292
254.761	498.932
255.297	509.92085
255.832	510.00513
256.367	485.95953
256.903	505.91734
257.438	536.04508
257.972	500.92511
258.507	440.84624
259.042	469.84932
259.576	423.76053
260.111	547.04307
260.645	499.89492
261.179	510.98609
261.713	489.90137
262.247	522.99721
262.781	477.82293
263.315	520.05564
263.849	466.98258
264.382	494.94691
264.915	504.97588
265.449	492.99093
265.982	542.01175
266.515	549.10118
267.048	499.86366
267.58	541.96878
268.113	477.84797
268.646	554.12223
269.178	479.8816
269.71	522.93258
270.243	561.04289
270.775	501.06259
271.307	504.01005
271.838	577.12278
272.37	520.05708
272.902	517.96685
273.433	481.86485
273.965	555.10502
274.496	583.18673
275.027	534.08954
275.558	599.17231
276.089	488.98739
276.62	579.2096
277.15	571.15277
277.681	558.9779
278.211	537.08351
278.741	511.91032
279.272	544.00093
279.802	542.1109
280.332	551.04919
280.861	596.15349
281.391	552.00398
281.921	529.04387
282.45	540.1073
282.98	556.18944
283.509	569.02108
284.038	556.01537
284.567	627.16469
285.096	592.14737
285.625	520.95252
286.153	523.99065
286.682	553.00912
287.21	566.09114
287.739	547.03751
288.267	541.0531
288.795	582.24461
289.323	535.99854
289.851	576.07269
290.378	584.03113
290.906	571.09473
291.433	537.08103
291.961	563.00252
292.488	646.26416
293.015	530.99338
293.542	554.12069
294.069	565.102
294.596	625.2204
295.122	608.13522
295.649	574.99012
296.175	636.20579
296.702	621.18103
297.228	680.27871
297.754	593.03044
298.28	652.12574
298.806	637.18095
299.332	575.97837
299.857	631.08447
300.383	664.30803
300.908	531.00906
301.433	619.1578
301.958	662.16676
302.483	626.20298
303.008	699.3174
303.533	717.43345
304.058	656.18029
304.582	608.09375
305.107	597.21087
305.631	686.17327
306.155	693.19512
306.679	661.15133
307.203	716.22077
307.727	625.12296
308.251	686.27483
308.775	646.13849
309.298	670.18581
309.822	714.34474
310.345	763.30846
310.868	773.33132
311.391	804.43243
311.914	729.33911
312.437	745.22505
312.96	744.25706
313.482	748.26999
314.005	751.36854
314.527	763.45936
315.049	801.45837
315.571	755.15783
316.093	831.44366
316.615	798.34417
317.137	820.20354
317.659	819.395
318.18	887.4658
318.702	785.25741
319.223	785.0681
319.744	859.27302
320.265	846.38125
320.786	823.38001
321.307	852.43462
321.828	887.30354
322.348	889.36658
322.869	911.37916
323.389	612.63499
323.909	963.39076
324.43	960.49836
324.95	916.31556
325.47	955.48145
325.989	981.41954
326.509	974.26618
327.029	976.30583
327.548	977.29379
328.067	1019.463
328.587	1037.5681
329.106	994.32042
329.625	1065.74174
330.144	962.30145
330.662	1066.3877
331.181	1025.37504
331.7	1104.43663
332.218	1118.2734
332.736	1103.41837
333.255	1133.41272
333.773	1134.4442
334.291	1157.60076
334.808	1161.3076
335.326	1166.33479
335.844	1139.3373
336.361	1179.55436
336.879	1213.37531
337.396	1279.48857
337.913	1232.33785
338.43	1319.32253
338.947	1290.4315
339.464	1281.16405
339.981	1222.34447
340.497	1350.5338
341.014	1288.43473
341.53	1329.248
342.046	1330.44392
342.562	1416.54757
343.078	1401.35664
343.594	1422.39575
344.11	1536.41236
344.626	1452.51799
345.141	1500.25085
345.657	1483.25221
346.172	1490.37603
346.687	1432.21057
347.202	1522.15892
347.717	1616.33739
348.232	1554.4447
348.747	1565.19131
349.261	1496.9913
349.776	1586.22486
350.29	1615.31019
350.805	1634.37774
351.319	1668.17849
351.833	1584.04432
352.347	1645.15687
352.861	1739.11587
353.374	1770.11529
353.888	1695.21635
354.401	1702.05017
354.915	1639.92399
355.428	1795.22665
355.941	1855.00694
356.454	1877.95233
356.967	1788.06749
357.48	1813.97916
357.993	1885.15661
358.505	1754.09391
359.018	1899.08882
359.53	2003.98584
360.042	2057.75622
360.554	1970.01607
361.066	1870.00169
361.578	1884.69449
362.09	1992.91017
362.602	1953.66107
363.113	1919.79147
363.625	2062.64839
364.136	2066.58826
364.647	1925.65227
365.158	2155.65661
365.669	2094.75096
366.18	2079.69127
366.691	2084.49025
367.201	2107.6765
367.712	2075.50499
368.222	2189.45848
368.733	2195.25872
369.243	2285.2366
369.753	2351.33605
370.263	2418.36952
370.773	2345.46851
371.282	2332.29133
371.792	2335.04798
372.301	2429.15688
372.811	2484.35425
373.32	2443.70271
373.829	2556.82468
374.338	2805.49537
374.847	2829.47609
375.356	2822.47782
375.865	2873.11505
376.373	3065.06892
376.882	3210.22676
377.39	3164.07046
377.898	3253.89926
378.407	3437.65859
378.915	3551.57591
379.423	3700.55814
379.93	3863.51896
380.438	3885.52447
380.946	4141.63359
381.453	4337.80899
381.96	4412.09246
382.468	4585.76993
382.975	5171.70359
383.482	5311.74523
383.989	5332.37941
384.495	5418.87481
385.002	5694.81888
385.509	5963.9156
386.015	6444.63705
386.521	6775.54905
387.028	6876.25922
387.534	7169.46516
388.04	7470.04823
388.546	7514.29618
389.051	7794.16695
389.557	8574.69696
390.063	9531.88911
390.568	9734.74202
391.073	9794.05805
391.578	10312.89575
392.084	10241.1008
392.589	10224.39121
393.093	10747.17993
393.598	12179.89659
394.103	13414.12102
394.607	14903.55531
395.112	16066.64976
395.616	16660.93865
396.12	17855.75036
396.624	19245.88194
397.128	21168.60574
397.632	23621.73879
398.136	25856.61642
398.639	26316.11808
399.143	27423.87094
399.646	27857.75029
400.15	24897.26612
400.653	20124.16724
401.156	13866.23708
401.659	5169.95759
402.162	1054.15589
402.664	0
403.167	0
403.67	0
404.172	0
404.674	0
405.176	0
405.678	0
406.18	0
406.682	0
407.184	0
407.686	0
408.187	0
408.688	0
409.19	0
409.691	0
410.192	0
410.693	0
411.194	435.30976
411.694	4082.94878
412.195	8864.71461
412.696	12089.80453
413.196	12760.96929
413.696	12863.67595
414.196	13703.56671
414.696	17261.84252
415.196	21764.24417
415.696	29583.19008
416.196	36460.31858
416.695	40057.39798
417.195	33956.17309
417.694	31981.24543
418.194	30536.85483
418.693	28353.37226
419.192	27242.81182
419.691	26700.62477
420.19	26219.97624
420.688	26218.39781
421.187	25426.57127
421.685	23919.61384
422.184	22221.43877
422.682	18957.77818
423.18	15443.49054
423.678	13356.65587
424.176	12400.35796
424.674	11564.0319
425.172	11055.91355
425.669	10589.63442
426.167	10070.19871
426.664	9064.74117
427.161	8285.08231
427.659	7723.92644
428.156	7087.55063
428.652	6758.03551
429.149	6361.11601
429.646	6101.03425
430.143	5878.94022
430.639	5595.90789
431.135	5220.67098
431.632	4927.29787
432.128	4543.73104
432.624	4227.54009
433.12	3938.54795
433.616	3808.52772
434.111	3675.53611
434.607	3461.63009
435.103	3521.59105
435.598	3524.60744
436.093	3333.89466
436.588	3219.98068
437.083	3045.16894
437.578	2873.38279
438.073	2649.67835
438.568	2671.83089
439.062	2506.61848
439.557	2504.96359
440.051	2292.97862
440.546	2197.05909
441.04	2069.29332
441.534	2217.46154
442.028	2232.36429
442.522	2036.43957
443.015	1976.26985
443.509	2021.58831
444.002	2014.59685
444.496	1824.39771
444.989	1856.69249
445.482	1886.74021
445.975	1773.50295
446.468	1741.43366
446.961	1830.42356
447.454	1693.61088
447.947	1582.71082
448.439	1637.83679
448.931	1595.63094
449.424	1611.97518
449.916	1643.87707
450.408	1543.68678
450.9	1487.86899
451.392	1509.99518
451.884	1456.81042
452.375	1343.9408
452.867	1440.82656
453.358	1319.77473
453.849	1229.6703
454.341	1353.8058
454.832	1349.72326
455.323	1317.98149
455.814	1278.88327
456.304	1227.88644
456.795	1270.8923
457.285	1351.90185
457.776	1257.95318
458.266	1162.96119
458.756	1111.99884
459.247	1124.96449
459.737	1082.95684
460.226	1095.87347
460.716	1089.00058
461.206	1063.01932
461.695	1019.09979
462.185	1035.99864
462.674	1050.98155
463.163	978.88595
463.653	1004.81927
464.142	960.02198
464.63	1015.1153
465.119	892.92615
465.608	933.95849
466.096	912.8866
466.585	955.02268
467.073	891.04594
467.561	858.03183
468.05	865.99356
468.538	882.10862
469.026	792.99087
469.513	771.798
470.001	780.90716
470.489	727.92295
470.976	726.90606
471.463	754.05561
471.951	720.0394
472.438	622.84018
472.925	623.83627
473.412	653.96319
473.899	692.91779
474.385	629.94078
474.872	594.83144
475.359	625.93253
475.845	608.73069
476.331	629.82259
476.817	539.84756
477.303	502.74901
477.789	489.77377
478.275	473.78085
478.761	514.81922
479.247	491.72349
479.732	500.83256
480.218	474.85291
480.703	468.799
481.188	445.636
481.673	417.65597
482.158	381.54411
482.643	411.75338
483.128	464.72045
483.612	402.66377
484.097	431.75743
484.581	397.66261
485.066	361.63804
485.55	278.44396
486.034	308.48233
486.518	230.40489
487.002	388.6906
487.486	290.53222
487.969	262.4852
488.453	315.60655
488.936	257.4381
489.42	279.46689
489.903	291.56843
490.386	267.31828
490.869	266.44452
491.352	290.55559
491.835	264.41774
492.318	229.40175
492.8	221.35423
493.283	203.41178
493.765	215.42057
494.247	195.36734
494.73	167.29544
495.212	209.40922
495.694	182.34024
496.175	127.24336
496.657	244.46316
497.139	215.29463
497.62	159.30424
498.102	146.29704
498.583	185.38059
499.064	97.17761
499.545	142.26599
500.026	182.3303
500.507	142.27191
500.988	167.3434
501.469	95.19914
501.949	201.40996
502.43	75.149
502.91	98.16736
503.39	97.20621
503.87	130.25351
504.35	151.29832
504.83	73.13434
505.31	80.16395
505.79	88.1774
506.269	131.25734
506.749	43.08351
507.228	30.0602
507.707	50.09431
508.187	141.28458
508.666	38.08003
509.145	11.02214
509.623	38.07668
510.102	54.11262
510.581	83.17244
511.059	46.09917
511.538	28.06326
512.016	63.12966
512.494	10.02124
512.972	46.09495
513.45	-18.03614
513.928	38.07971
514.406	29.05998
514.884	76.16863
515.361	-8.0168
515.839	13.02577
516.316	79.16362
516.793	55.12155
517.27	54.11432
517.747	55.12272
518.224	7.01424
518.701	15.02924
519.178	-6.01305
519.654	26.05449
520.131	6.01307
520.607	50.10886
521.083	-21.04244
521.56	-37.07776
522.036	29.05587
522.512	18.03936
522.987	-19.03979
523.463	35.07298
523.939	45.09716
524.414	45.09145
524.89	57.11848
525.365	-17.0342
525.84	-26.05463
526.315	7.01491
526.79	42.08319
527.265	-81.16694
527.74	-30.06534
528.215	30.06243
528.689	30.05845
529.164	-4.00774
529.638	20.0458
530.112	-43.09073
530.587	-25.0474
531.061	-42.09071
531.534	-16.03482
532.008	-15.03218
532.482	-10.02057
532.956	-12.02728
533.429	-30.0654
533.903	-4.00793
534.376	15.02948
534.849	-53.1112
535.322	-14.02965
535.795	6.01312
536.268	-39.0845
536.741	-27.05852
537.213	1.00207
537.686	-67.14776
538.158	-27.05412
538.631	-19.04175
539.103	-34.06842
539.575	1.00187
540.047	-44.08756
540.519	17.03642
540.991	1.0022
541.463	4.00869
541.934	-3.00616
542.406	13.02765
542.877	-22.04472
543.348	25.05405
543.82	39.08547
544.291	35.07304
544.762	-44.09417
545.233	38.0846
545.703	52.10131
546.174	70.14345
546.645	-3.00636
547.115	57.12101
547.585	84.16926
548.056	31.06564
548.526	52.10686
548.996	85.17865
549.466	87.18624
549.935	66.1355
550.405	129.24098
550.875	122.24776
551.344	99.2055
551.814	167.3259
552.283	154.28533
552.752	124.24538
553.221	151.27537
553.69	206.3811
554.159	210.42978
554.628	168.3136
555.096	173.37017
555.565	204.37948
556.033	210.4179
556.502	184.38015
556.97	159.30218
557.438	122.25183
557.906	148.30605
558.374	162.32268
558.842	109.22929
559.31	169.32917
559.777	121.25667
560.245	168.34616
560.712	162.32929
561.18	130.25243
561.647	99.19659
562.114	134.26877
562.581	173.37498
563.048	207.41663
563.514	131.28419
563.981	192.3851
564.448	209.40844
564.914	265.53312
565.381	250.49355
565.847	216.44266
566.313	242.48988
566.779	255.49763
567.245	275.55502
567.711	299.61455
568.176	326.62003
568.642	252.54771
569.108	305.64243
569.573	406.80342
570.038	414.72163
570.504	390.72768
570.969	399.84151
571.434	383.69815
571.899	410.81362
572.363	461.8621
572.828	515.9593
573.293	503.93834
573.757	526.97664
574.222	479.867
574.686	501.90498
575.15	540.03194
575.614	526.97226
576.078	553.0387
576.542	578.04712
577.006	570.02104
577.469	598.18941
577.933	506.91191
578.396	577.09879
578.86	595.11666
579.323	581.10321
579.786	540.93242
580.249	481.89195
580.712	560.10594
581.175	523.04941
581.637	548.02095
582.1	554.97905
582.563	532.92447
583.025	512.01097
583.487	482.78667
583.95	413.73264
584.412	457.78883
584.874	450.90634
585.336	434.85521
585.797	398.71796
586.259	471.92092
586.721	375.74155
587.182	444.86916
587.643	403.76854
588.105	366.73478
588.566	375.66556
589.027	325.66739
589.488	323.63064
589.949	365.75223
590.41	277.461
590.87	317.62304
591.331	323.59802
591.791	297.58896
592.252	277.54519
592.712	271.5658
593.172	306.59134
593.632	296.56077
594.092	279.53826
594.552	267.49804
595.011	266.52761
595.471	268.52014
595.931	253.49044
596.39	236.49305
596.849	275.55451
597.308	322.5993
597.768	259.57286
598.227	256.53792
598.685	244.49167
599.144	291.58759
599.603	279.57319
600.062	286.51536
600.52	241.4674
600.978	312.6365
601.437	306.60383
601.895	280.5118
602.353	362.68213
602.811	277.53158
603.269	299.61705
603.727	324.66458
604.184	312.60034
604.642	338.70739
605.099	393.76768
605.557	408.83763
606.014	343.62427
606.471	352.74419
606.928	343.61762
607.385	443.88875
607.842	538.99495
608.299	568.06668
608.755	531.03997
609.212	508.91552
609.668	451.81713
610.125	605.17234
610.581	614.17818
611.037	595.09964
611.493	557.0771
611.949	475.94943
612.405	460.75875
612.861	591.13369
613.316	510.00466
613.772	574.07108
614.227	515.00191
614.683	508.901
615.138	502.97387
615.593	529.0121
616.048	583.08979
616.503	542.1064
616.958	525.09322
617.412	595.14853
617.867	495.90785
618.321	625.04036
618.776	515.95026
619.23	542.0558
619.684	610.12771
620.138	547.06126
620.592	547.1098
621.046	504.00027
621.5	498.02424
621.954	514.97955
622.407	524.98407
622.861	486.00625
623.314	516.99673
623.768	453.90839
624.221	413.70336
624.674	470.93051
625.127	487.97792
625.58	474.93535
626.033	425.82192
626.485	398.83627
626.938	425.8869
627.39	419.85574
627.843	395.80819
628.295	368.7579
628.747	411.86339
629.199	382.77257
629.651	319.65418
630.103	360.73875
630.555	327.62602
631.006	336.71316
631.458	284.61332
631.909	335.70127
632.361	310.66114
632.812	290.61446
633.263	282.56065
633.714	308.60606
634.165	287.64299
634.616	262.57889
635.067	298.61236
635.518	283.62672
635.968	259.48671
636.419	233.47674
636.869	261.58065
637.319	247.53513
637.769	188.39939
638.219	254.57059
638.669	184.41742
639.119	218.50377
639.569	217.49557
640.019	226.49559
640.468	211.44855
640.918	234.53429
641.367	171.36874
641.816	217.46231
642.265	163.36309
642.714	184.40843
643.163	153.33997
643.612	135.31278
644.061	158.32292
644.51	200.43599
644.958	179.3787
645.406	172.3959
645.855	199.46763
646.303	242.53895
646.751	188.41105
647.199	207.45154
647.647	148.33043
648.095	182.40214
648.543	206.40745
648.99	174.40114
649.438	228.51366
649.885	213.50579
650.333	165.3122
650.78	164.38366
651.227	178.41837
651.674	183.40342
652.121	154.36422
652.568	198.46319
653.015	241.58349
653.461	179.41209
653.908	218.48892
654.354	222.51016
654.801	129.29616
655.247	193.41153
655.693	188.47401
656.139	171.3987
656.585	190.44186
657.031	108.2477
657.477	142.30101
657.922	185.41363
658.368	187.44833
658.813	226.50853
659.259	150.35215
659.704	136.31129
660.149	149.34042
660.594	153.35589
661.039	155.34642
661.484	232.53612
661.929	178.40692
662.373	122.30276
662.818	125.3055
663.262	130.30829
663.707	125.31207
664.151	159.3812
664.595	116.27668
665.039	156.38133
665.483	161.40165
665.927	161.37317
666.371	114.26125
666.814	137.32357
667.258	111.26024
667.701	189.40161
668.145	119.29375
668.588	119.28965
669.031	117.2728
669.474	122.29155
669.917	153.33601
670.36	130.3192
670.803	167.39733
671.245	135.28386
671.688	154.37125
672.13	72.16241
672.573	134.33727
673.015	109.26103
673.457	126.27398
673.899	172.41087
674.341	154.3676
674.783	103.24648
675.225	106.25988
675.666	73.17595
676.108	78.17127
676.549	125.29535
676.991	135.29711
677.432	135.26934
677.873	149.34262
678.314	107.25556
678.755	97.23619
679.196	44.10225
679.637	132.32123
680.078	118.27648
680.518	146.33914
680.959	101.24243
681.399	75.18684
681.839	121.29385
682.28	89.22002
682.72	65.15048
683.16	130.32191
683.6	134.30572
684.039	100.21068
684.479	62.15336
684.919	72.16732
685.358	111.28133
685.798	120.3128
686.237	85.20697
686.676	105.24521
687.115	96.22687
687.554	98.23375
687.993	99.22099
688.432	58.13452
688.871	87.19909
689.309	120.28655
689.748	79.16809
690.186	102.24487
690.625	75.17748
691.063	69.16707
691.501	107.26491
691.939	74.18565
692.377	77.18917
692.815	54.13072
693.253	65.15815
693.69	44.09873
694.128	61.14925
694.565	42.10179
695.003	77.19648
695.44	78.18505
695.877	27.06427
696.314	74.16194
696.751	92.2121
697.188	37.08661
697.625	97.22492
698.061	26.06351
698.498	120.29082
698.934	104.25148
699.371	9.02166
699.807	64.1533
700.243	52.12678
700.679	44.10164
701.115	71.16938
701.551	86.20442
701.987	89.20252
702.422	74.17745
702.858	44.10648
703.294	106.24194
703.729	75.18514
704.164	61.14859
704.599	35.07971
705.035	36.08224
705.47	44.10848
705.904	32.07598
706.339	106.24837
706.774	60.14246
707.209	89.20694
707.643	65.15792
708.078	30.07429
708.512	31.0786
708.946	83.20074
709.38	55.13222
709.814	31.07242
710.248	78.19173
710.682	39.09429
711.116	40.0968
711.549	31.08107
711.983	18.04254
712.416	20.04833
712.85	79.1983
713.283	88.2099
713.716	118.29657
714.149	95.22811
714.582	81.1841
715.015	68.17189
715.448	67.17036
715.881	94.20822
716.313	67.15892
716.746	55.13126
717.178	55.13392
717.61	116.29405
718.043	74.18592
718.475	58.14231
718.907	114.28888
719.339	38.08775
719.77	30.07235
720.202	50.12783
720.634	50.12313
721.065	44.10595
721.497	99.24358
721.928	26.06488
722.359	11.02703
722.79	20.04878
723.221	64.16259
723.652	97.25098
724.083	56.12828
724.514	55.12834
724.945	14.03362
725.375	25.05912
725.806	77.1937
726.236	89.22893
726.666	58.13914
727.096	81.20017
727.526	27.06955
727.956	52.12003
728.386	63.15672
728.816	28.07184
729.246	31.0765
729.675	27.06748
730.105	83.20564
730.534	31.0739
730.964	97.24602
731.393	79.1978
731.822	50.12904
732.251	63.16121
732.68	104.24635
733.109	58.14441
733.537	28.06875
733.966	55.13801
734.395	36.08465
734.823	67.15333
735.251	11.02703
735.68	84.21165
736.108	43.11011
736.536	30.07208
736.964	32.07562
737.392	44.11146
737.82	42.10232
738.247	56.13582
738.675	54.13082
739.102	26.06591
739.53	33.08506
739.957	36.09368
740.384	130.32014
740.811	45.11539
741.238	35.08669
741.665	12.02843
742.092	66.15935
742.519	-8.02022
742.945	44.10712
743.372	73.18199
743.798	70.18103
744.225	60.14426
744.651	34.08647
745.077	52.13102
745.503	71.17469
745.929	46.11186
746.355	87.2176
746.781	47.11785
747.207	-13.03125
747.632	-29.07248
748.058	58.14609
748.483	70.16293
748.908	56.1405
749.334	31.07728
749.759	30.07194
750.184	2.00487
750.609	74.18318
751.033	100.23751
751.458	57.12981
751.883	58.14515
752.307	61.14514
752.732	9.02285
753.156	37.09258
753.58	96.22907
754.005	22.05668
754.429	52.12375
754.853	16.04029
755.277	11.02656
755.7	74.18472
756.124	7.01768
756.548	40.09614
756.971	85.20859
757.394	39.10154
757.818	75.19379
758.241	30.07707
758.664	53.135
759.087	2.00457
759.51	67.16794
759.933	56.13608
760.356	85.21849
760.778	24.05991
761.201	74.1813
761.623	103.25042
762.046	45.1083
762.468	82.19828
762.89	47.11734
763.312	56.13811
763.734	40.09756
764.156	45.11235
764.578	28.06561
765	55.13552
765.421	-12.03104
765.843	56.14777
766.264	100.24217
766.686	64.16189
767.107	75.18282
767.528	-19.04892
767.949	37.09511
768.37	28.06969
768.791	60.14651
769.212	16.04075
769.632	14.03321
770.053	21.05594
770.473	48.11799
770.894	70.17631
771.314	35.08484
771.734	0
772.154	60.15501
772.575	89.20727
772.994	-11.0256
773.414	80.19315
773.834	29.0734
774.254	32.07933
774.673	47.11568
775.093	10.02513
775.512	30.0748
775.931	42.10745
776.351	35.08786
776.77	13.03227
777.189	66.15809
777.607	10.0259
778.026	35.08811
778.445	-23.05871
778.864	37.0958
779.282	31.07554
779.701	11.02813
780.119	7.01794
780.537	28.07065
780.955	55.14083
781.373	24.0601
781.791	21.04796
782.209	24.05619
782.627	47.12454
783.045	-2.00469
783.462	60.15399
783.88	16.04186
784.297	15.03822
784.715	2.00521
785.132	33.08077
785.549	-3.00763
785.966	21.05343
786.383	-10.02504
786.8	-3.0071
787.217	-15.03629
787.633	-8.02029
788.05	70.16716
788.466	91.21485
788.883	29.07462
789.299	4.00979
789.715	23.05659
790.131	47.11768
790.547	1.00254
790.963	26.06523
791.379	25.06384
791.795	40.09229
792.21	11.02612
792.626	6.01446
793.041	26.06485
793.457	23.05749
793.872	-14.03357
794.287	11.02661
794.702	17.04241
795.117	16.04021
795.532	16.04055
795.947	56.13562
796.362	47.11316
796.776	107.24997
797.191	23.05692
797.605	-41.09856
798.02	-12.02972
798.434	37.08334
798.848	29.07209
799.262	16.04014
799.676	51.1252
800.09	12.0299
800.504	27.06621
800.918	43.10046
801.331	45.1186
801.745	27.06276
802.158	23.05807
802.572	37.09053
802.985	56.13608
803.398	-13.03157
803.811	44.11379
804.224	31.07784
804.637	7.01691
805.05	52.12132
805.462	36.08918
805.875	16.04186
806.288	-12.02943
806.7	24.06088
807.112	13.03056
807.525	21.05237
807.937	17.04247
808.349	63.1582
808.761	29.07198
809.173	11.02699
809.584	7.01753
809.996	7.01736
810.408	-13.03403
810.819	26.06178
811.231	29.07545
811.642	55.13161
812.053	125.29443
812.464	165.38562
812.875	137.34611
813.286	65.16749
813.697	85.19866
814.108	41.10084
814.519	6.01358
814.929	70.17865
815.34	41.10009
815.75	-23.05941
816.16	-1.00253
816.571	60.15613
816.981	40.09515
817.391	47.1141
817.801	20.05014
818.211	28.06737
818.62	20.04864
819.03	-1.00248
819.44	55.14403
819.849	54.1365
820.259	34.08759
820.668	3.00747
821.077	-16.04036
821.486	36.08735
821.895	57.14128
822.304	32.08529
822.713	38.09047
823.122	13.03279
823.531	-15.03617
823.939	-25.06201
824.348	43.10513
824.756	50.12571
825.164	31.07857
825.573	-5.01271
825.981	33.08242
826.389	47.11857
826.797	-20.0509
827.205	-47.11045
827.612	51.12631
828.02	-30.07183
828.428	42.10745
828.835	31.08206
829.243	22.05294
829.65	-5.0126
830.057	17.04167
830.464	-2.00494
830.871	32.0772
831.278	31.07548
831.685	3.00679
832.092	51.12529
832.499	25.05525
832.905	45.11438
833.312	48.11004
833.718	10.02518
834.124	26.05997
834.531	29.07361
834.937	61.15669
835.343	44.10668
835.749	66.15434
836.155	2.00529
836.561	1.00249
836.966	18.04443
837.372	-4.01031
837.777	17.04272
838.183	-23.05215
838.588	23.05755
838.993	31.07599
839.399	-31.07714
839.804	-19.04702
840.209	28.07171
840.613	-28.06355
841.018	29.07389
841.423	4.01037
841.828	11.02808
842.232	40.09956
842.637	1.00239
843.041	3.00777
843.445	33.08322
843.849	-4.01002
844.253	56.13337
844.657	-6.01529
845.061	7.01608
845.465	10.0244
845.869	12.02818
846.272	17.04175
846.676	32.07787
847.079	-11.02832
847.483	34.08527
847.886	67.16296
848.289	-5.01348
848.692	22.05611
849.095	18.04361
849.498	70.1772
849.901	29.06701
850.304	2.00484
850.707	-3.00774
851.109	61.15439
851.512	9.02233
851.914	-12.03063
852.316	1.00256
852.718	-30.07863
853.121	1.00248
853.523	-5.01184
853.925	-2.00527
854.326	25.06289
854.728	28.07239
855.13	-16.04179
855.531	-23.05584
855.933	78.18669
856.334	2.00504
856.736	-18.04098
857.137	9.02114
857.538	0
857.939	-3.0075
858.34	44.10756
858.741	13.03424
859.142	-29.07085
859.542	4.01065
859.943	60.14907
860.343	-28.07042
860.744	59.14398
861.144	29.07114
861.544	-21.05123
861.945	13.03339
862.345	36.08843
862.745	2.00502
863.145	36.08646
863.544	28.07113
863.944	21.04998
864.344	17.04255
864.743	52.12919
865.143	31.07999
865.542	-52.12327
865.941	23.0573
866.34	37.08901
866.74	27.07281
867.139	-11.02668
867.537	16.04106
867.936	41.09901
868.335	5.01284
868.734	17.04374
869.132	24.05615
869.531	4.00977
869.929	-17.03934
870.327	23.0555
870.726	67.16679
871.124	20.0471
871.522	28.07168
871.92	11.02736
872.318	37.0908
872.715	63.1558
873.113	24.05884
873.511	9.02262
873.908	-31.07946
874.306	-1.00251
874.703	38.0954
875.1	31.07966
875.497	-3.00727
875.894	12.02964
876.291	9.02228
876.688	14.03637
877.085	25.06035
877.482	23.05792
877.878	-5.01217
878.275	15.03838
878.671	54.12037
879.068	-18.04407
879.464	0
879.86	-19.04559
880.256	51.12599
880.652	22.05628
881.048	72.1779
881.444	47.11208
881.84	0
882.236	22.05565
882.631	2.00496
883.027	30.07301
883.422	13.03349
883.817	-36.09194
884.213	49.12587
884.608	-12.02979
885.003	-47.11551
885.398	29.07293
885.793	22.05555
886.188	-14.03524
886.582	76.19423
886.977	24.05731
887.371	16.04075
887.766	-10.02516
888.16	9.02265
888.554	65.16046
888.949	48.12068
889.343	64.1561
889.737	23.0616
890.131	-1.00253
890.525	25.06426
890.918	16.04055
891.312	36.08646
891.706	33.08689
892.099	34.08683
892.492	0
892.886	-10.02476
893.279	23.05892
893.672	24.06142
894.065	24.06043
894.458	18.04557
894.851	90.2191
895.244	-9.02324
895.637	32.07741
896.029	10.02465
896.422	36.08826
896.814	29.07243
897.206	-21.05073
897.599	49.12131
897.991	28.06804
898.383	11.02621
898.775	-24.05504
899.167	-45.10699
899.559	42.10655
899.951	5.0119
900.342	16.04096
900.734	-50.12639
901.125	26.06854
901.517	7.01733
901.908	44.10571
902.299	0
902.69	-7.01671
903.082	34.08265
903.473	-28.06809
903.863	43.10991
904.254	-7.01644
904.645	78.19315
905.036	-20.04909
905.426	42.0964
905.817	13.03214
906.207	21.05035
906.597	-4.00946
906.987	16.04174
907.378	7.01785
907.768	24.06376
908.158	39.09535
908.547	-17.04444
908.937	30.07729
909.327	-4.00982
909.717	53.13457
910.106	-12.02918
910.495	42.10507
910.885	19.04841
911.274	8.02016
911.663	37.09418
912.052	25.06201
912.441	17.0435
912.83	16.03701
913.219	57.14906
913.608	1.00247
913.997	-29.07376
914.385	59.14081
914.774	17.04167
915.162	18.04318
915.55	34.08256
915.939	-36.0923
916.327	4.01007
916.715	11.02824
917.103	42.10358
917.491	68.16777
917.878	13.0322
918.266	32.08327
918.654	18.04626
919.041	-13.03431
919.429	-18.04307
919.816	64.16189
920.203	0
920.591	26.06478
920.978	32.07866
921.365	27.07114
921.752	-5.01205
922.139	5.01097
922.525	-26.06337
922.912	22.05396
923.299	2.00502
923.685	-17.04487
924.072	27.06258
924.458	4.01
924.844	25.06217
925.231	17.03984
925.617	-26.06703
926.003	37.09481
926.389	2.00509
926.774	4.01022
927.16	18.04498
927.546	-25.06467
927.931	27.06768
928.317	-3.00699
928.702	44.10427
929.088	-34.08175
929.473	22.05626
929.858	-20.049
930.243	-26.06332
930.628	-36.08902
931.013	19.04737
931.398	30.0693
931.783	46.12122
932.167	-14.03464
932.552	26.06544
932.937	-19.04776
933.321	-15.03809
933.705	-8.02038
934.09	55.1389
934.474	44.10467
934.858	26.06773
935.242	-8.01876
935.626	33.08474
936.009	25.06678
936.393	21.05372
936.777	-21.05445
937.16	2.00525
937.544	39.09211
937.927	15.0383
938.311	63.15346
938.694	56.14797
939.077	-8.01937
939.46	14.03462
939.843	33.06914
940.226	11.02841
940.609	2.00464
940.991	5.01283
941.374	31.07605
941.757	47.11607
942.139	-15.03415
942.522	39.0924
942.904	31.07481
943.286	43.10941
943.668	-6.01569
944.05	-5.01244
944.432	23.05705
944.814	38.09382
945.196	-12.02958
945.578	-43.10404
945.959	18.04246
946.341	56.13735
946.722	13.03074
947.104	7.01687
947.485	-19.04482
947.866	-29.0741
948.247	13.03302
948.628	31.07591
949.009	7.01806
949.39	72.17855
949.771	21.04914
950.152	19.0469
950.532	-48.12021
950.913	26.06301
951.293	-5.01363
951.674	15.03652
952.054	-25.0628
952.434	-17.04272
952.814	-20.04823
953.194	46.12048
953.574	24.05941
953.954	-44.1064
954.334	14.03512
954.714	-54.13416
955.093	25.06176
955.473	-7.01769
955.853	-14.03664
956.232	46.12616
956.611	3.00726
956.99	42.10571
957.37	31.07927
957.749	13.03124
958.128	-29.0741
958.506	-2.00523
958.885	18.04569
959.264	-7.01734
959.643	-19.04385
960.021	-15.03761
960.4	-3.00687
960.778	44.10852
961.156	10.02525
961.535	23.0539
961.913	39.09147
962.291	1.00259
962.669	-6.01535
963.047	19.04875
963.424	20.05131
963.802	-4.00993
964.18	53.13404
964.557	41.09462
964.935	26.0619
965.312	5.01312
965.69	19.04785
966.067	19.04654
966.444	-4.00996
966.821	32.08276
967.198	33.08032
967.575	37.0912
967.952	4.00951
968.329	19.04651
968.705	-13.02826
969.082	11.0284
969.458	-68.16678
969.835	44.10724
970.211	30.07726
970.587	28.06999
970.963	43.11045
971.339	14.03678
971.715	-5.01261
972.091	38.09379
972.467	-3.00755
972.843	-2.00501
973.219	56.13434
973.594	-13.03437
973.97	76.18003
974.345	3.00724
974.721	46.11148
975.096	17.04139
975.471	2.00479
975.846	16.03869
976.221	-11.02824
976.596	4.00967
976.971	-13.03247
977.346	29.0678
977.72	9.02309
978.095	11.02862
978.469	-11.02656
978.844	43.10825
979.218	25.06021
979.593	17.04099
979.967	3.00737
980.341	32.07395
980.715	30.07586
981.089	31.07787
981.463	-9.02091
981.837	-28.06941
982.21	37.08634
982.584	9.02191
982.957	-16.04043
983.331	26.06175
983.704	-13.03232
984.078	-16.03991
984.451	20.05023
984.824	6.01473
985.197	38.09251
985.57	2.00506
985.943	40.09898
986.316	39.09603
986.688	36.08705
987.061	59.13805
987.434	20.05238
987.806	-1.00245
988.179	-21.05023
988.551	47.11929
988.923	25.06185
989.295	20.05025
989.667	-37.08986
990.039	-2.00499
990.411	-25.05841
990.783	43.09915
991.155	-41.10021
991.527	85.20797
991.898	7.01758
992.27	-28.07025
992.641	29.07303
993.012	23.05441
993.384	-3.00723
993.755	24.06147
994.126	14.0339
994.497	-11.0273
994.868	12.02778
995.239	10.02442
995.61	14.03545
995.98	-3.00736
996.351	-25.06276
996.722	-25.05884
997.092	-10.02395
997.462	-21.04973
997.833	18.04293
998.203	4.00978
998.573	-19.0479
998.943	26.06125
999.313	-10.02424
999.683	25.06028
1000.053	10.02319
1000.423	52.12631
1000.792	2.00523
1001.162	5.01241
1001.531	33.08161
1001.901	8.02009
1002.27	-10.02263
1002.639	33.08456
1003.009	16.0383
1003.378	10.02575
1003.747	16.03805
1004.116	-24.05823
1004.485	19.04568
1004.853	1.00256
1005.222	26.06584
1005.591	28.06676
1005.959	-4.00911
1006.328	-4.0091
1006.696	-53.1303
1007.064	25.06316
1007.433	25.06276
1007.801	21.05182
1008.169	15.03811
1008.537	19.04234
1008.905	-4.00942
1009.273	10.02488
1009.64	-29.07022
1010.008	29.0694
1010.375	66.15977
1010.743	11.0256
1011.11	24.05707
1011.478	8.01995
1011.845	10.0237
1012.212	27.06139
1012.579	16.03952
1012.946	-7.01684
1013.313	57.13546
1013.68	22.04973
1014.047	-36.08718
1014.414	9.02142
1014.78	39.09709
1015.147	49.11851
1015.513	45.10851
1015.88	45.11515
1016.246	26.06445
1016.612	19.04376
1016.978	45.11035
1017.344	24.05958
1017.71	53.12915
1018.076	-24.0574
1018.442	43.11072
1018.808	57.14226
1019.174	59.14773
1019.539	83.18979
1019.905	8.01902
1020.27	-28.07007
1020.636	40.09607
1021.001	39.09354
1021.366	-44.10752
1021.731	41.10557
1022.096	-33.08444
1022.461	27.06417
1022.826	8.01916
1023.191	21.05535
1023.556	15.03539
1023.92	17.04204
1024.285	30.07347
1024.649	31.07622
1025.014	17.04235
1025.378	-20.0509
1025.742	11.0275
1026.107	-14.03207
1026.471	0
1026.835	-10.02505
1027.199	4.00971
1027.562	27.06303
1027.926	35.0858
1028.29	0
1028.654	9.02087
1029.017	12.02969
1029.381	25.05998
1029.744	12.0308
1030.107	23.05468
1030.471	-17.04121
1030.834	-21.04844
1031.197	31.07492
1031.56	55.1296
1031.923	12.03122
1032.286	55.129
1032.648	73.17375
1033.011	-30.06994
1033.374	29.06842
1033.736	-9.02389
1034.099	27.06606
1034.461	-11.02808
1034.823	-12.0302
1035.185	15.03798
1035.548	13.03184
1035.91	32.07688
1036.272	-18.04151
1036.634	49.11985
1036.995	-1.00237
1037.357	-15.03692
1037.719	17.04158
1038.08	-16.03846
1038.442	-22.05292
1038.803	21.05067
1039.165	26.06586
1039.526	25.06067
1039.887	13.03131
1040.248	-20.04989
1040.609	53.13083
1040.97	15.03688
1041.331	11.02803
1041.692	-21.04968
1042.053	20.0458
1042.413	38.08872
1042.774	7.01715
1043.134	42.1001
1043.495	25.06309
1043.855	19.04633
1044.215	36.08954
1044.576	11.02648
1044.936	23.05299
1045.296	24.06015
1045.656	51.12506
1046.016	39.09429
1046.375	-4.0098
1046.735	1.00229
1047.095	-18.04267
1047.454	33.07015
1047.814	11.02662
1048.173	46.10993
1048.533	-32.07448
1048.892	-15.03643
1049.251	40.10053
1049.61	-12.02987
1049.969	-10.02383
1050.328	9.01967
1050.687	-12.02952
1051.046	8.01962
1051.405	44.10951
1051.763	-37.08651
1052.122	-20.05048
1052.48	4.00989
1052.839	-18.04288
1053.197	-10.0238
1053.555	41.0936
1053.914	25.0614
1054.272	31.07517
1054.63	62.15116
1054.988	-15.03606
1055.345	10.02171
1055.703	27.06523
1056.061	-17.04422
1056.419	-3.00783
1056.776	35.08506
1057.134	-6.01404
1057.491	16.04029
1057.848	38.09475
1058.206	-2.00475
1058.563	9.02
1058.92	37.08546
1059.277	36.08898
1059.634	30.07082
1059.991	28.06732
1060.348	-22.05042
1060.704	-8.01926
1061.061	62.14362
1061.418	6.01466
1061.774	32.07921
1062.131	-20.05347
1062.487	35.08203
1062.843	8.02009
1063.199	-2.00502
1063.555	-54.12762
1063.911	-1.00255
1064.267	2.00421
1064.623	-11.027
1064.979	19.04526
1065.335	20.04805
1065.691	18.04338
1066.046	36.07935
1066.402	-25.05763
1066.757	52.13112
1067.112	38.09341
1067.468	-20.04783
1067.823	-3.00728
1068.178	-6.01466
1068.533	15.03658
1068.888	45.10756
1069.243	-10.02493
1069.598	28.06827
1069.952	-2.00455
1070.307	-2.00499
1070.662	8.01913
1071.016	-30.06828
1071.371	1.0023
1071.725	30.072
1072.079	12.02905
1072.434	-68.16876
1072.788	19.04548
1073.142	41.10095
1073.496	-13.03119
1073.85	31.07211
1074.203	21.05119
1074.557	16.04276
1074.911	51.12162
1075.265	6.01406
1075.618	37.0905
1075.971	50.11885
1076.325	9.02302
1076.678	-3.00693
1077.031	-7.01601
1077.385	23.05092
1077.738	-4.00912
1078.091	-33.07625
1078.444	21.049
1078.796	8.01977
1079.149	36.0897
1079.502	-9.02149
1079.855	-4.00942
1080.207	12.02975
1080.56	39.10091
1080.912	-15.03693
1081.264	25.06044
1081.617	22.05386
1081.969	-27.06899
1082.321	-21.05192
1082.673	-42.09756
1083.025	-3.00718
1083.377	-18.03917
1083.728	18.04223
1084.08	-1.00252
1084.432	0
1084.783	46.10778
1085.135	39.09786
1085.486	-19.04404
1085.838	-5.01243
1086.189	12.02931
1086.54	16.03843
1086.891	-22.0563
1087.242	17.04161
1087.593	19.04649
1087.944	-12.02748
1088.295	14.03203
1088.646	9.02196
1088.996	-42.10286
1089.347	-17.0422
1089.698	-54.13008
1090.048	62.16056
1090.398	-2.00468
1090.749	9.02168
1091.099	-8.02031
1091.449	35.08735
1091.799	21.05281
1092.149	-69.17183
1092.499	9.0221
1092.849	-22.05658
1093.199	45.1128
1093.548	12.02902
1093.898	-24.0608
1094.248	-9.02334
1094.597	-28.07239
1094.947	15.04021
1095.296	-11.02744
1095.645	19.04964
1095.994	19.04587
1096.343	21.05307
1096.692	-11.02917
1097.041	-2.00546
1097.39	9.02272
1097.739	39.10147
1098.088	25.0672
1098.437	-36.09586
1098.785	24.06492
1099.134	37.09837
1099.482	56.15373
1099.83	50.13127
1100.179	-21.05539
1100.527	37.09844
1100.875	-27.07224
1101.223	1.00267
1101.571	-11.03066
1101.919	-36.09535
1102.267	21.05933
1102.615	-3.00965
1102.962	18.0579
1103.31	0
1103.658	13.04186
