Data from N2 R9 sample 3_Subt2__1__19-16-45-760.txt Node

Date: Fri Aug 29 19:16:45 PDT 2025
User: uwsun
Spectrometer: HDX01956
Trigger mode: 0
Integration Time (sec): 5.000000E-1
Scans to average: 1
Nonlinearity correction enabled: true
Boxcar width: 0
Storing dark spectrum: false
XAxis mode: Wavelengths
Number of Pixels in Spectrum: 2068
>>>>>Begin Spectral Data<<<<<
194.03	260.70023
194.578	261.79832
195.127	299.89555
195.676	274.82619
196.225	342.85479
196.773	312.81232
197.321	483.18924
197.87	621.35759
198.418	624.34318
198.966	595.2974
199.513	583.20612
200.061	521.11325
200.609	640.42125
201.156	568.01327
201.704	576.20838
202.251	618.36439
202.798	583.26852
203.345	643.31263
203.892	587.23176
204.438	624.22795
204.985	568.10602
205.532	644.40171
206.078	615.2463
206.624	621.25159
207.17	634.20141
207.716	601.20067
208.262	625.98638
208.808	619.24355
209.354	602.20517
209.899	661.38116
210.445	618.26009
210.99	584.15936
211.535	657.25751
212.08	623.18657
212.625	676.38477
213.17	729.49786
213.715	570.03049
214.259	710.32803
214.804	586.2099
215.348	592.11621
215.892	664.29822
216.436	659.24553
216.98	651.16918
217.524	619.20066
218.068	627.31061
218.612	625.30873
219.155	619.19723
219.698	582.15323
220.242	614.27914
220.785	599.15958
221.328	615.27697
221.871	569.22228
222.414	600.25326
222.956	527.0672
223.499	527.99628
224.041	599.1629
224.583	582.0442
225.126	558.02212
225.668	545.1148
226.21	544.15621
226.751	452.83837
227.293	547.04863
227.835	546.12113
228.376	582.12204
228.918	563.20366
229.459	563.17456
230	565.12393
230.541	575.10347
231.082	507.04209
231.622	582.11505
232.163	523.06827
232.704	551.14745
233.244	519.09029
233.784	543.12725
234.324	519.94469
234.864	583.09087
235.404	554.10636
235.944	541.0791
236.484	578.21151
237.023	579.13363
237.563	586.1157
238.102	566.11363
238.641	586.23966
239.18	531.03359
239.719	610.27249
240.258	591.09333
240.797	580.14819
241.335	643.29481
241.874	572.88625
242.412	556.11241
242.95	487.98063
243.488	539.0238
244.026	544.0391
244.564	569.9551
245.102	582.0694
245.64	618.22926
246.177	565.04357
246.715	617.22014
247.252	614.15437
247.789	591.8983
248.326	519.03753
248.863	550.99023
249.4	568.06353
249.936	635.03965
250.473	585.1173
251.009	561.05428
251.546	601.07255
252.082	601.06702
252.618	621.11347
253.154	630.22872
253.69	591.08352
254.226	565.11192
254.761	591.07916
255.297	543.97387
255.832	575.11622
256.367	614.17648
256.903	561.00308
257.438	595.14413
257.972	592.06872
258.507	585.08436
259.042	621.07979
259.576	571.98783
260.111	621.16326
260.645	631.092
261.179	571.08629
261.713	605.08138
262.247	606.13259
262.781	568.95629
263.315	588.17547
263.849	596.21902
264.382	658.20996
264.915	632.18478
265.449	547.08603
265.982	629.14928
266.515	633.2454
267.048	606.0178
267.58	638.11264
268.113	622.06298
268.646	633.25944
269.178	590.05424
269.71	652.12454
270.243	668.20931
270.775	669.36763
271.307	669.2904
271.838	717.34941
272.37	653.28783
272.902	633.14844
273.433	612.06213
273.965	653.27094
274.496	689.36913
275.027	598.20267
275.558	612.19412
276.089	628.2283
276.62	644.32627
277.15	677.33399
277.681	681.15378
278.211	657.28967
278.741	635.0937
279.272	660.17961
279.802	687.36261
280.332	627.17221
280.861	667.2693
281.391	634.12954
281.921	666.27261
282.45	672.33747
282.98	657.37522
283.509	657.15279
284.038	664.18005
284.567	694.26798
285.096	642.22964
285.625	638.13257
286.153	631.16225
286.682	702.23355
287.21	700.3067
287.739	681.25014
288.267	693.30096
288.795	732.51517
289.323	671.20888
289.851	686.24323
290.378	706.20756
290.906	716.32541
291.433	769.4666
291.961	748.26931
292.488	731.4021
293.015	681.22756
293.542	730.41803
294.069	685.29855
294.596	748.41855
295.122	723.31209
295.649	776.26592
296.175	798.454
296.702	742.37021
297.228	789.44447
297.754	757.25935
298.28	749.26039
298.806	796.41815
299.332	775.24698
299.857	754.254
300.383	851.60365
300.908	733.32555
301.433	812.44746
301.958	801.36133
302.483	790.45903
303.008	858.55488
303.533	853.65224
304.058	821.41571
304.582	744.29251
305.107	769.49923
305.631	816.34775
306.155	787.32379
306.679	863.42444
307.203	892.45012
307.727	849.43926
308.251	876.55217
308.775	800.35414
309.298	800.36878
309.822	856.55676
310.345	933.52848
310.868	873.46411
311.391	927.59987
311.914	874.54782
312.437	971.49848
312.96	854.40058
313.482	905.47256
314.005	973.67505
314.527	902.66797
315.049	925.63201
315.571	925.34886
316.093	1021.68621
316.615	935.5173
317.137	960.34994
317.659	1017.64166
318.18	1021.62591
318.702	1007.51343
319.223	1044.30391
319.744	973.3931
320.265	1000.56379
320.786	1010.60878
321.307	1050.67468
321.828	1095.50946
322.348	1066.55523
322.869	1038.51321
323.389	885.81932
323.909	1180.59263
324.43	1158.70594
324.95	1091.48359
325.47	1127.66249
325.989	1115.54814
326.509	1122.38762
327.029	1157.45811
327.548	1171.45347
328.067	1225.64908
328.587	1235.76013
329.106	1162.45991
329.625	1329.01672
330.144	1255.54046
330.662	1297.56126
331.181	1283.57974
331.7	1349.61548
332.218	1306.38647
332.736	1381.614
333.255	1364.56866
333.773	1375.6116
334.291	1332.7426
334.808	1347.4144
335.326	1465.49818
335.844	1459.5212
336.361	1419.72643
336.879	1511.53008
337.396	1457.58903
337.913	1568.49156
338.43	1511.40036
338.947	1607.57821
339.464	1666.27014
339.981	1634.5284
340.497	1604.65709
341.014	1554.56385
341.53	1650.34579
342.046	1625.57234
342.562	1744.67819
343.078	1682.44562
343.594	1694.48362
344.11	1703.45697
344.626	1710.61341
345.141	1728.29439
345.657	1834.31072
346.172	1806.45119
346.687	1765.27382
347.202	1797.18987
347.717	1872.373
348.232	1859.51315
348.747	1904.21841
349.261	1830.00064
349.776	1957.25175
350.29	1875.34284
350.805	2042.41848
351.319	2033.1787
351.833	1936.04243
352.347	2039.15576
352.861	2009.10465
353.374	2067.09577
353.888	2006.22114
354.401	2022.03046
354.915	2113.86707
355.428	2071.21849
355.941	2181.95593
356.454	2269.87399
356.967	2162.02524
357.48	2190.91922
357.993	2245.11175
358.505	2236.03995
359.018	2299.02311
359.53	2332.91128
360.042	2389.65206
360.554	2362.9307
361.066	2240.93687
361.578	2466.50728
362.09	2346.82135
362.602	2382.52126
363.113	2406.65171
363.625	2454.50935
364.136	2489.42917
364.647	2354.51503
365.158	2540.51167
365.669	2564.58629
366.18	2621.48934
366.691	2550.29901
367.201	2521.52601
367.712	2596.29002
368.222	2659.25173
368.733	2694.01825
369.243	2696.03518
369.753	2815.10927
370.263	2820.17355
370.773	2910.19912
371.282	2860.02804
371.792	2835.78277
372.301	2988.86059
372.811	3074.05084
373.32	3017.37981
373.829	3120.50833
374.338	3302.21856
374.847	3371.1767
375.356	3458.12982
375.865	3499.80899
376.373	3742.76276
376.882	3974.87268
377.39	3959.7341
377.898	3907.65539
378.407	4305.53932
378.915	4509.59653
379.423	4543.59461
379.93	4639.7011
380.438	4818.86165
380.946	4995.20894
381.453	5267.72536
381.96	5355.29768
382.468	5828.20683
382.975	6307.60864
383.482	6588.7738
383.989	6451.62575
384.495	6886.38592
385.002	7058.27757
385.509	7367.1188
386.015	7868.10531
386.521	8359.96943
387.028	8630.06035
387.534	9023.60781
388.04	9438.87327
388.546	9213.74464
389.051	9752.17802
389.557	10488.48463
390.063	11794.23954
390.568	12081.20072
391.073	12271.24349
391.578	12772.59092
392.084	12861.5772
392.589	13192.2866
393.093	13789.05978
393.598	15347.32609
394.103	16894.36219
394.607	18804.3644
395.112	20061.54516
395.616	20989.57225
396.12	22502.66302
396.624	24830.6409
397.128	27507.232
397.632	30803.66017
398.136	33450.64694
398.639	33410.38141
399.143	31640.26676
399.646	28762.34442
400.15	25083.82847
400.653	20124.16724
401.156	13866.23708
401.659	5169.95759
402.162	1054.15589
402.664	0
403.167	0
403.67	0
404.172	0
404.674	0
405.176	0
405.678	0
406.18	0
406.682	0
407.184	0
407.686	0
408.187	0
408.688	0
409.19	0
409.691	0
410.192	0
410.693	0
411.194	435.30976
411.694	4082.94878
412.195	8864.71461
412.696	12089.80453
413.196	12760.96929
413.696	12863.67595
414.196	13703.56671
414.696	17261.84252
415.196	21764.24417
415.696	29583.19008
416.196	36460.31858
416.695	40057.39798
417.195	40193.84023
417.694	37923.19339
418.194	36708.67467
418.693	33376.68537
419.192	32141.89677
419.691	31518.70018
420.19	30945.07173
420.688	30462.94041
421.187	29214.95541
421.685	27734.47395
422.184	25524.92667
422.682	22323.03302
423.18	18457.25187
423.678	16270.18749
424.176	15125.8531
424.674	14089.17254
425.172	13700.59114
425.669	13096.59809
426.167	12367.41532
426.664	11076.32834
427.161	10176.52028
427.659	9161.68803
428.156	8620.95289
428.652	8203.72833
429.149	7694.26547
429.646	7442.69562
430.143	7290.78741
430.639	6744.06348
431.135	6235.60887
431.632	5900.82715
432.128	5537.68594
432.624	5022.89424
433.12	4785.91974
433.616	4845.92475
434.111	4528.6295
434.607	4373.54904
435.103	4377.55641
435.598	4261.53435
436.093	4100.63542
436.588	3913.70138
437.083	3778.82245
437.578	3443.07519
438.073	3129.40707
438.568	3226.51843
439.062	3087.2909
439.557	2963.71198
440.051	2803.70554
440.546	2662.82057
441.04	2650.02367
441.534	2616.28764
442.028	2613.19066
442.522	2446.27407
443.015	2383.09409
443.509	2404.4513
444.002	2436.44494
444.496	2277.22975
444.989	2248.58349
445.482	2284.63103
445.975	2229.35489
446.468	2250.25708
446.961	2165.30797
447.454	2139.49521
447.947	1994.64161
448.439	2059.77651
448.931	1986.55182
449.424	2012.94892
449.916	1954.84535
450.408	1891.63601
450.9	1824.85943
451.392	1797.00512
451.884	1778.79889
452.375	1690.97561
452.867	1808.8153
453.358	1670.78162
453.849	1653.66803
454.341	1694.81209
454.832	1589.72381
455.323	1600.02758
455.814	1686.9223
456.304	1582.94053
456.795	1545.9327
457.285	1535.924
457.776	1589.01228
458.266	1502.05067
458.756	1462.11709
459.247	1458.06597
459.737	1284.03458
460.226	1340.94537
460.716	1349.10311
461.206	1308.12802
461.695	1280.24589
462.185	1274.10826
462.674	1310.09074
463.163	1237.99551
463.653	1254.90411
464.142	1141.13049
464.63	1234.24545
465.119	1136.06654
465.608	1221.11231
466.096	1077.9757
466.585	1079.10065
467.073	1142.22127
467.561	1157.24686
468.05	1078.14187
468.538	1048.24336
469.026	1041.19143
469.513	964.92168
470.001	964.04595
470.489	1018.16527
470.976	965.10527
471.463	950.24899
471.951	880.20863
472.438	866.077
472.925	777.99079
473.412	828.15602
473.899	834.05375
474.385	755.08573
474.872	803.04933
475.359	729.05277
475.845	753.85837
476.331	752.94326
476.817	722.07477
477.303	741.02576
477.789	663.99712
478.275	627.99126
478.761	677.02803
479.247	658.92063
479.732	610.9852
480.218	633.0914
480.703	650.05449
481.188	613.83045
481.673	604.89924
482.158	548.74198
482.643	590.03145
483.128	472.73117
483.612	500.80328
484.097	560.95103
484.581	496.80546
485.066	450.77695
485.55	444.67567
486.034	381.58406
486.518	445.7395
487.002	407.72087
487.486	395.7058
487.969	344.62403
488.453	391.73914
488.936	412.67312
489.42	390.63288
489.903	409.77658
490.386	425.47775
490.869	337.55224
491.352	415.77107
491.835	343.53045
492.318	379.63882
492.8	329.51119
493.283	347.68071
493.765	304.58213
494.247	346.62766
494.73	260.44884
495.212	318.60658
495.694	276.50398
496.175	229.428
496.657	264.49868
497.139	334.44009
497.62	200.37889
498.102	192.38653
498.583	241.48953
499.064	189.33803
499.545	262.47623
500.026	188.34067
500.507	243.45394
500.988	281.56296
501.469	180.37022
501.949	226.45833
502.43	137.26824
502.91	177.29586
503.39	182.37973
503.87	182.35053
504.35	174.3419
504.83	132.23931
505.31	176.35285
505.79	132.26341
506.269	227.43583
506.749	105.20091
507.228	160.31142
507.707	191.34778
508.187	205.40766
508.666	119.24614
509.145	143.27906
509.623	88.17553
510.102	106.21851
510.581	162.33064
511.059	123.26079
511.538	123.27252
512.016	104.21207
512.494	175.35823
512.972	75.15381
513.45	83.16274
513.928	82.17033
514.406	102.20752
514.884	154.33614
515.361	108.22093
515.839	106.20553
516.316	110.22625
516.793	73.16073
517.27	107.2239
517.747	98.21672
518.224	121.23983
518.701	106.20219
519.178	27.0583
519.654	112.23025
520.131	90.19262
520.607	84.18157
521.083	40.07971
521.56	91.18586
522.036	115.21696
522.512	88.18956
522.987	63.12955
523.463	34.07091
523.939	78.16722
524.414	129.25713
524.89	78.16137
525.365	81.15927
525.84	-5.01046
526.315	91.19033
526.79	37.07337
527.265	45.09011
527.74	84.17853
528.215	52.10768
528.689	49.09503
529.164	59.11246
529.638	106.23852
530.112	46.09517
530.587	4.00753
531.061	45.09537
531.534	47.10092
532.008	32.06795
532.482	54.10946
532.956	33.07433
533.429	59.12619
533.903	80.15541
534.376	16.03144
534.849	45.09237
535.322	58.12091
535.795	87.18704
536.268	13.02785
536.741	91.19227
537.213	95.19271
537.686	67.14361
538.158	-28.05613
538.631	66.14241
539.103	14.02786
539.575	43.07957
540.047	59.11459
540.519	51.10847
540.991	85.18408
541.463	56.12037
541.934	108.21612
542.406	77.16148
542.877	55.10983
543.348	49.10539
543.82	133.28569
544.291	118.24171
544.762	65.13583
545.233	81.17871
545.703	83.16051
546.174	147.296
546.645	40.08401
547.115	141.29386
547.585	133.26498
548.056	75.15728
548.526	103.20922
548.996	155.32074
549.466	174.36546
549.935	196.39058
550.405	240.43601
550.875	207.41221
551.344	230.46346
551.814	269.51224
552.283	256.46225
552.752	207.40165
553.221	229.40936
553.69	321.57681
554.159	254.51464
554.628	284.51491
555.096	249.52402
555.565	341.61276
556.033	239.47239
556.502	252.51269
556.97	251.46633
557.438	250.5012
557.906	232.47071
558.374	187.3703
558.842	195.40243
559.31	226.43423
559.777	163.34258
560.245	198.40522
560.712	191.38567
561.18	219.41621
561.647	216.41721
562.114	174.34577
562.581	265.56309
563.048	240.47938
563.514	252.53255
563.981	293.57396
564.448	271.52182
564.914	345.68127
565.381	274.53789
565.847	313.62736
566.313	292.58432
566.779	356.67808
567.245	305.61133
567.711	284.5857
568.176	333.63226
568.642	279.60291
569.108	361.75101
569.573	370.73835
570.038	412.71852
570.504	345.6509
570.969	381.80673
571.434	349.64165
571.899	391.77935
572.363	390.74212
572.828	496.92826
573.293	441.83531
573.757	440.83443
574.222	419.76998
574.686	384.71435
575.15	461.89923
575.614	405.77123
576.078	426.82642
576.542	463.86456
577.006	428.79583
577.469	481.98414
577.933	404.74708
578.396	423.83687
578.86	433.84622
579.323	383.76341
579.786	411.73402
580.249	356.68072
580.712	369.76252
581.175	420.86421
581.637	366.71375
582.1	426.77793
582.563	325.59571
583.025	370.75619
583.487	336.57079
583.95	284.52069
584.412	332.59214
584.874	345.71165
585.336	316.63997
585.797	323.59384
586.259	330.66679
586.721	267.54135
587.182	344.68934
587.643	295.57733
588.105	247.50951
588.566	295.53445
589.027	235.49238
589.488	242.48158
589.949	303.63316
590.41	256.42851
590.87	275.54584
591.331	300.55863
591.791	265.52943
592.252	234.46522
592.712	276.57559
593.172	298.57699
593.632	319.60095
594.092	242.47103
594.552	225.42407
595.011	229.45815
595.471	207.40761
595.931	194.38138
596.39	218.45727
596.849	289.58087
597.308	274.51605
597.768	162.36557
598.227	267.55967
598.685	327.64633
599.144	251.51147
599.603	254.52477
600.062	253.45975
600.52	223.43435
600.978	287.58882
601.437	235.47146
601.895	264.4845
602.353	214.41792
602.811	271.52082
603.269	312.64199
603.727	278.57616
604.184	270.52478
604.642	261.55556
605.099	259.52201
605.557	275.58154
606.014	259.48144
606.471	250.54036
606.928	244.4505
607.385	325.6698
607.842	431.81836
608.299	452.87435
608.755	442.88531
609.212	395.73245
609.668	361.66906
610.125	424.85829
610.581	540.05439
611.037	406.78687
611.493	381.76896
611.949	288.60062
612.405	298.51363
612.861	349.70955
613.316	351.7185
613.772	368.72276
614.227	364.73482
614.683	435.78613
615.138	376.75137
615.593	306.61801
616.048	361.71286
616.503	345.7369
616.958	340.73833
617.412	326.6708
617.867	323.61806
618.321	373.66476
618.776	362.69353
619.23	317.65155
619.684	378.7403
620.138	420.84086
620.592	364.77057
621.046	373.76422
621.5	355.75497
621.954	343.68082
622.407	395.76536
622.861	300.64814
623.314	285.58102
623.768	316.65374
624.221	264.46767
624.674	268.55568
625.127	346.7174
625.58	326.66566
626.033	306.60865
626.485	205.44907
626.938	295.63338
627.39	236.50202
627.843	240.5083
628.295	253.53455
628.747	223.48788
629.199	261.5425
629.651	169.35833
630.103	176.37618
630.555	209.41154
631.006	226.49121
631.458	174.38462
631.909	252.53722
632.361	181.39683
632.812	185.40098
633.263	154.31531
633.714	219.43997
634.165	217.49318
634.616	170.38284
635.067	236.49174
635.518	193.43544
635.968	187.35764
636.419	186.38463
636.869	180.40719
637.319	186.40823
637.769	109.23555
638.219	244.54925
638.669	129.29592
639.119	196.45492
639.569	172.39637
640.019	134.29955
640.468	97.21133
640.918	158.36629
641.367	113.24671
641.816	115.25043
642.265	128.2872
642.714	147.32881
643.163	146.32489
643.612	135.31278
644.061	107.22122
644.51	118.26171
644.958	130.27798
645.406	135.31303
645.855	112.26765
646.303	133.30289
646.751	109.2423
647.199	163.35888
647.647	123.27604
648.095	138.30772
648.543	183.36391
648.99	102.23853
649.438	168.38314
649.885	143.34415
650.333	138.26284
650.78	140.32906
651.227	130.30841
651.674	112.25058
652.121	111.26471
652.568	108.25711
653.015	165.4052
653.461	111.25901
653.908	125.28571
654.354	147.34288
654.801	116.267
655.247	115.24937
655.693	135.34361
656.139	121.2849
656.585	134.31508
657.031	66.15265
657.477	99.21183
657.922	118.26748
658.368	103.25089
658.813	139.31834
659.259	109.25794
659.704	98.22602
660.149	69.16019
660.594	128.29921
661.039	109.24592
661.484	139.32715
661.929	140.3225
662.373	99.24672
662.818	126.30789
663.262	135.31984
663.707	147.36553
664.151	140.33687
664.595	101.2416
665.039	111.2736
665.483	89.22493
665.927	114.26669
666.371	64.14814
666.814	159.37393
667.258	59.13973
667.701	156.33387
668.145	142.34904
668.588	136.32997
669.031	81.1902
669.474	132.31484
669.917	98.21772
670.36	155.37881
670.803	149.35573
671.245	126.26546
671.688	151.36423
672.13	67.15129
672.573	123.31019
673.015	163.38632
673.457	99.21651
673.899	136.32712
674.341	127.30472
674.783	98.23474
675.225	103.25267
675.666	100.2398
676.108	94.2057
676.549	112.2653
676.991	91.20212
677.432	81.16363
677.873	116.2685
678.314	116.27658
678.755	119.28856
679.196	150.34126
679.637	141.34255
680.078	136.31753
680.518	182.41975
680.959	87.20938
681.399	113.27956
681.839	104.25337
682.28	83.20542
682.72	110.25238
683.16	136.33639
683.6	137.31238
684.039	95.20037
684.479	114.27929
684.919	48.11207
685.358	109.27636
685.798	120.3128
686.237	108.26184
686.676	185.42522
687.115	132.30977
687.554	123.29197
687.993	154.33985
688.432	91.20967
688.871	74.16979
689.309	71.17113
689.748	140.29392
690.186	192.45303
690.625	144.33621
691.063	94.22653
691.501	101.25033
691.939	115.28638
692.377	95.23261
692.815	74.17847
693.253	149.35682
693.69	62.1386
694.128	63.15409
694.565	135.32144
695.003	106.26909
695.44	119.28008
695.877	43.10203
696.314	121.26216
696.751	123.28182
697.188	103.23798
697.625	149.34193
698.061	75.18153
698.498	120.29082
698.934	99.23961
699.371	100.23651
699.807	113.26813
700.243	90.21787
700.679	142.32162
701.115	159.37291
701.551	107.25331
701.987	126.28457
702.422	99.23627
702.858	100.23943
703.294	80.18355
703.729	131.32004
704.164	111.26785
704.599	129.28819
705.035	69.15657
705.47	59.14506
705.904	117.27323
706.339	151.35068
706.774	85.20084
707.209	101.23429
707.643	142.33999
708.078	131.31837
708.512	79.19859
708.946	153.36514
709.38	93.22195
709.814	134.30671
710.248	136.33071
710.682	91.21784
711.116	74.17793
711.549	113.29137
711.983	74.17298
712.416	113.26824
712.85	119.29656
713.283	99.23564
713.716	183.45455
714.149	149.3541
714.582	138.31002
715.015	167.41466
715.448	149.37334
715.881	170.3706
716.313	110.25875
716.746	130.30579
717.178	115.27687
717.61	119.3015
718.043	97.2427
718.475	133.32178
718.907	211.52542
719.339	100.22806
719.77	108.25661
720.202	113.28569
720.634	90.22
721.065	122.28943
721.497	128.31324
721.928	106.26065
722.359	65.15815
722.79	107.25673
723.221	145.36305
723.652	183.46643
724.083	127.28677
724.514	155.35456
724.945	105.2478
725.375	95.22159
725.806	145.3603
726.236	164.41631
726.666	158.3718
727.096	166.40381
727.526	111.28173
727.956	99.22637
728.386	139.34098
728.816	113.28558
729.246	98.23884
729.675	114.28043
730.105	134.32889
730.534	132.30856
730.964	194.48353
731.393	216.52739
731.822	177.44668
732.251	129.32625
732.68	200.46493
733.109	136.3338
733.537	140.33661
733.966	168.41295
734.395	175.40031
734.823	170.38096
735.251	146.34984
735.68	192.47438
736.108	145.36462
736.536	155.36353
736.964	161.37095
737.392	170.42095
737.82	199.47054
738.247	156.37123
738.675	194.45757
739.102	139.34526
739.53	160.40328
739.957	163.41487
740.384	213.51648
740.811	184.46028
741.238	148.35895
741.665	153.35252
742.092	162.38403
742.519	119.29386
742.945	145.34631
743.372	155.38065
743.798	167.4246
744.225	202.47255
744.651	151.37603
745.077	147.36407
745.503	179.4316
745.929	194.45863
746.355	219.53461
746.781	177.43338
747.207	87.20517
747.632	132.32026
748.058	153.37879
748.483	159.36356
748.908	143.35312
749.334	170.41307
749.759	126.29661
750.184	125.29706
750.609	185.44859
751.033	180.42092
751.458	183.40612
751.883	179.43812
752.307	140.32803
752.732	87.21784
753.156	164.40088
753.58	186.43614
754.005	169.42421
754.429	161.37509
754.853	149.36618
755.277	148.34813
755.7	144.35488
756.124	129.31867
756.548	153.35982
756.971	152.36837
757.394	164.41779
757.818	153.38997
758.241	142.35766
758.664	138.34621
759.087	79.17773
759.51	182.4467
759.933	88.21255
760.356	112.28653
760.778	152.37058
761.201	132.3199
761.623	164.39416
762.046	195.45591
762.468	138.33016
762.89	143.35079
763.312	159.38468
763.734	115.27656
764.156	137.33632
764.578	173.39382
765	121.29451
765.421	94.23871
765.843	155.40216
766.264	159.38077
766.686	95.23898
767.107	93.22594
767.528	60.15237
767.949	128.32378
768.37	124.30322
768.791	86.20897
769.212	79.19895
769.632	87.20349
770.053	76.20061
770.473	102.24822
770.894	122.30442
771.314	133.31644
771.734	85.19905
772.154	101.25907
772.575	117.27097
772.994	79.18057
773.414	148.35274
773.834	53.13357
774.254	56.13821
774.673	101.24611
775.093	48.11982
775.512	55.13652
775.931	88.22332
776.351	77.19182
776.77	64.15738
777.189	62.14862
777.607	67.1718
778.026	88.21942
778.445	9.02284
778.864	70.18022
779.282	73.17649
779.701	71.17963
780.119	65.16492
780.537	28.07065
780.955	71.18129
781.373	75.18609
781.791	58.13147
782.209	72.16699
782.627	71.18738
783.045	35.08154
783.462	82.20964
783.88	36.09387
784.297	31.07877
784.715	32.08287
785.132	71.17256
785.549	70.17562
785.966	60.15161
786.383	31.07706
786.8	58.13574
787.217	30.07197
787.633	10.02529
788.05	112.2653
788.466	58.13781
788.883	15.03869
789.299	49.11891
789.715	72.17554
790.131	38.0953
790.547	37.09321
790.963	36.09016
791.379	43.10945
791.795	42.09687
792.21	57.13416
792.626	21.05048
793.041	34.08469
793.457	60.14896
793.872	18.0429
794.287	5.01211
794.702	54.13382
795.117	13.03269
795.532	63.15831
795.947	76.18336
796.362	23.05563
796.776	84.19713
797.191	-3.00746
797.605	6.01429
798.02	15.03696
798.434	57.12787
798.848	38.0943
799.262	9.02261
799.676	79.19293
800.09	11.02741
800.504	14.03441
800.918	-4.00943
801.331	65.17074
801.745	38.08813
802.158	31.07815
802.572	39.09539
802.985	90.2173
803.398	24.05788
803.811	67.17258
804.224	65.16222
804.637	-11.02666
805.05	49.11439
805.462	44.10884
805.875	10.02619
806.288	-47.11602
806.7	66.16618
807.112	18.04228
807.525	27.06726
807.937	21.05243
808.349	49.12335
808.761	-7.01749
809.173	-4.00984
809.584	58.14389
809.996	21.05194
810.408	-14.03666
810.819	21.04995
811.231	37.09613
811.642	68.16232
812.053	168.3924
812.464	190.44186
812.875	193.4827
813.286	104.26616
813.697	120.27853
814.108	76.18571
814.519	65.14539
814.929	64.16351
815.34	63.15317
815.75	37.09458
816.16	43.10778
816.571	15.03933
816.981	62.14686
817.391	57.13812
817.801	23.05763
818.211	21.0506
818.62	29.0704
819.03	17.0421
819.44	57.14922
819.849	59.14901
820.259	56.14372
820.668	-4.00997
821.077	23.05761
821.486	43.10419
821.895	56.13882
822.304	18.04809
822.713	27.06441
823.122	23.0579
823.531	30.07172
823.939	68.16579
824.348	23.05644
824.756	72.18031
825.164	25.06343
825.573	28.07078
825.981	52.12943
826.389	42.10605
826.797	35.0882
827.205	14.03251
827.612	52.12877
828.02	-16.03821
828.428	49.12521
828.835	26.06888
829.243	71.16925
829.65	-5.0126
830.057	36.08794
830.464	18.04428
830.871	43.10353
831.278	27.06579
831.685	52.11658
832.092	38.09358
832.499	47.10339
832.905	37.09418
833.312	51.11685
833.718	37.09271
834.124	40.092
834.531	50.12643
834.937	3.00778
835.343	45.10908
835.749	99.23001
836.155	24.06327
836.561	18.04467
836.966	24.05917
837.372	32.08193
837.777	10.02516
838.183	58.12933
838.588	-16.04031
838.993	41.10032
839.399	16.03948
839.804	-30.0744
840.209	3.00772
840.613	-9.02035
841.018	5.01279
841.423	14.03622
841.828	13.03317
842.232	67.16594
842.637	9.02147
843.041	21.05421
843.445	19.04804
843.849	20.04991
844.253	28.06704
844.657	2.00509
845.061	16.03668
845.465	-20.04907
845.869	31.07254
846.272	2.00493
846.676	39.09479
847.079	24.06142
847.483	52.12999
847.886	36.08807
848.289	10.0269
848.692	34.08653
849.095	-1.00243
849.498	70.1772
849.901	47.10821
850.304	18.04339
850.707	32.08201
851.109	17.04336
851.512	25.06185
851.914	-13.03318
852.316	25.06363
852.718	-7.01828
853.121	-10.02483
853.523	39.09158
853.925	-5.01318
854.326	-5.01265
854.728	16.04145
855.13	20.05192
855.531	30.07211
855.933	23.05563
856.334	7.01762
856.736	-45.10302
857.137	30.07018
857.538	17.04306
857.939	0
858.34	56.13659
858.741	41.10748
859.142	-17.04144
859.542	21.05574
859.943	2.00502
860.343	-15.03764
860.744	30.07361
861.144	23.05648
861.544	-30.07331
861.945	7.018
862.345	20.04927
862.745	-7.0176
863.145	40.09599
863.544	51.12903
863.944	-3.00717
864.344	-3.00754
864.743	52.12919
865.143	38.09793
865.542	19.04442
865.941	24.05978
866.34	26.06268
866.74	69.18479
867.139	33.07939
867.537	8.02056
867.936	1.00243
868.335	40.10208
868.734	15.03861
869.132	3.00705
869.531	71.17133
869.929	-23.05329
870.327	37.08905
870.726	86.21335
871.124	22.05179
871.522	16.04105
871.92	29.0719
872.318	35.08592
872.715	49.12149
873.113	54.13166
873.511	20.05016
873.908	-1.00255
874.306	-19.0479
874.703	26.06542
875.1	35.08987
875.497	9.02178
875.894	-10.0248
876.291	15.0371
876.688	14.03637
877.085	9.02179
877.482	16.04034
877.878	-5.01217
878.275	54.13723
878.671	38.08498
879.068	37.08965
879.464	12.02925
879.86	-22.05282
880.256	13.03234
880.652	32.08172
881.048	50.12404
881.444	41.09789
881.84	4.01026
882.236	14.03546
882.631	23.0568
883.027	1.00245
883.422	-11.02845
883.817	-31.0791
884.213	24.06192
884.608	-11.0273
885.003	15.03644
885.398	-22.05583
885.793	-6.01523
886.188	-8.02011
886.582	31.07985
886.977	12.02872
887.371	-7.0179
887.766	-5.01257
888.16	63.157
888.554	40.0992
888.949	48.12068
889.343	14.03446
889.737	-10.02693
890.131	20.05048
890.525	38.09746
890.918	24.06073
891.312	24.05777
891.706	50.13127
892.099	64.16259
892.492	-15.03286
892.886	-7.01732
893.279	-11.02834
893.672	6.0154
894.065	-11.02787
894.458	3.00761
894.851	44.10804
895.244	-10.02583
895.637	22.05332
896.029	8.01973
896.422	-21.05203
896.814	0
897.206	-4.00963
897.599	57.14091
897.991	-3.00733
898.383	9.02145
898.775	-29.06658
899.167	12.02822
899.559	48.12164
899.951	15.03563
900.342	23.05881
900.734	10.02501
901.125	63.16504
901.517	14.03462
901.908	27.06508
902.299	-9.02226
902.69	2.00477
903.082	43.10435
903.473	-32.07787
903.863	22.05644
904.254	11.02575
904.645	38.09479
905.036	-35.08615
905.426	51.11685
905.817	33.08128
906.207	-8.01929
906.597	-12.02843
906.987	12.03132
907.378	2.0051
907.768	-7.01869
908.158	22.05396
908.547	6.01562
908.937	3.00777
909.327	-4.00982
909.717	33.08409
910.106	15.03629
910.495	70.17423
910.885	46.11665
911.274	-10.02528
911.663	34.08659
912.052	7.01742
912.441	4.01026
912.83	-1.00232
913.219	42.11012
913.608	2.00495
913.997	-39.09937
914.385	41.09819
914.774	0
915.162	52.12394
915.55	6.01465
915.939	-13.03319
916.327	30.07518
916.715	14.03592
917.103	34.08398
917.491	19.0473
917.878	45.1108
918.266	11.02873
918.654	40.10241
919.041	34.08902
919.429	-15.03587
919.816	4.01023
920.203	-34.08379
920.591	14.03496
920.978	24.05908
921.365	15.0396
921.752	26.0623
922.139	12.02628
922.525	3.00727
922.912	34.08321
923.299	5.01253
923.685	-4.01053
924.072	38.08789
924.458	-24.06028
924.844	-8.02001
925.231	18.04218
925.617	-30.0774
926.003	5.01288
926.389	6.01526
926.774	22.05605
927.16	4.01002
927.546	2.00515
927.931	13.03267
928.317	6.01395
928.702	3.00717
929.088	-35.08417
929.473	29.07408
929.858	-20.049
930.243	-14.03402
930.628	-20.04931
931.013	22.05482
931.398	28.06471
931.783	39.10289
932.167	-5.01235
932.552	48.12034
932.937	20.04992
933.321	-5.01267
933.705	-22.05619
934.09	55.1389
934.474	15.03588
934.858	11.02873
935.242	0
935.626	9.02321
936.009	8.02143
936.393	32.0817
936.777	13.03351
937.16	11.02882
937.544	14.03323
937.927	30.0764
938.311	48.11725
938.694	37.09808
939.077	-16.03879
939.46	47.11551
939.843	22.04621
940.226	-21.05454
940.609	-36.08409
940.991	3.0077
941.374	-11.02719
941.757	23.05705
942.139	15.03394
942.522	28.06648
942.904	28.0676
943.286	37.09424
943.668	23.05986
944.05	-2.00497
944.432	27.06692
944.814	80.19599
945.196	-6.01478
945.578	-41.09916
945.959	48.11256
946.341	62.1519
946.722	54.12668
947.104	-18.04359
947.485	-6.01412
947.866	23.05823
948.247	-8.0204
948.628	6.01476
949.009	17.04379
949.39	-4.01006
949.771	20.04681
950.152	9.02226
950.532	-45.11263
950.913	23.05577
951.293	5.01361
951.674	-12.02937
952.054	-21.05271
952.434	22.0549
952.814	30.07167
953.194	57.14901
953.574	22.05448
953.954	0
954.334	16.04013
954.714	-18.04443
955.093	66.16182
955.473	-9.02275
955.853	17.04426
956.232	41.11254
956.611	-1.00242
956.99	-5.01269
957.37	-1.00257
957.749	29.06948
958.128	8.02031
958.506	-5.01309
958.885	17.04316
959.264	-30.07461
959.643	4.00919
960.021	-26.06532
960.4	9.02057
960.778	20.04954
961.156	-15.03805
961.535	-2.00471
961.913	16.0377
962.291	12.03099
962.669	12.0306
963.047	16.04108
963.424	-10.02579
963.802	13.03219
964.18	30.07619
964.557	22.05096
964.935	28.06663
965.312	25.06538
965.69	47.11777
966.067	57.13864
966.444	1.00249
966.821	38.09817
967.198	13.03176
967.575	2.00496
967.952	31.07333
968.329	-20.04931
968.705	12.02595
969.082	27.06952
969.458	-35.08532
969.835	13.03187
970.211	-37.0964
970.587	7.01757
970.963	54.13844
971.339	17.04464
971.715	6.0151
972.091	27.06677
972.467	6.01509
972.843	-14.03515
973.219	40.09625
973.594	12.03159
973.97	61.14491
974.345	-17.04121
974.721	30.07293
975.096	12.02925
975.471	-7.01679
975.846	-9.02187
976.221	-13.03338
976.596	-32.0779
976.971	25.06201
977.346	14.03283
977.72	26.06652
978.095	-4.01043
978.469	23.05519
978.844	56.14065
979.218	-8.01939
979.593	24.05779
979.967	15.03678
980.341	4.0093
980.715	14.0355
981.089	51.12765
981.463	-30.06999
981.837	-21.05199
982.21	52.12098
982.584	35.08478
982.957	-9.02271
983.331	3.00716
983.704	21.05188
984.078	-1.00249
984.451	43.10755
984.824	-20.04934
985.197	15.03667
985.57	48.12042
985.943	23.05709
986.316	49.12043
986.688	36.08705
987.061	-14.03323
987.434	42.10959
987.806	0
988.179	-20.04783
988.551	31.07891
988.923	-15.03738
989.295	6.01511
989.667	-14.03385
990.039	18.04474
990.411	-12.02796
990.783	29.06706
991.155	-73.17948
991.527	49.12069
991.898	6.01507
992.27	-3.00749
992.641	49.12296
993.012	40.09431
993.384	8.01924
993.755	8.02055
994.126	12.02907
994.497	-11.0273
994.868	9.02084
995.239	1.00245
995.61	2.00508
995.98	-6.01473
996.351	-17.04261
996.722	-16.03759
997.092	-17.04077
997.462	-47.11187
997.833	41.09736
998.203	1.00245
998.573	10.02508
998.943	-3.00711
999.313	29.06977
999.683	-8.01941
1000.053	22.0509
1000.423	-2.00491
1000.792	23.05988
1001.162	0
1001.531	10.02484
1001.901	-1.00252
1002.27	43.09626
1002.639	49.12521
1003.009	-2.0048
1003.378	20.0514
1003.747	4.00953
1004.116	-32.07776
1004.485	23.05525
1004.853	61.15422
1005.222	46.11607
1005.591	38.09043
1005.959	-48.11031
1006.328	-41.09398
1006.696	6.01459
1007.064	20.05057
1007.433	38.09516
1007.801	38.09348
1008.169	16.04065
1008.537	22.049
1008.905	-5.01177
1009.273	15.03729
1009.64	-23.05563
1010.008	47.11208
1010.375	43.10455
1010.743	33.07646
1011.11	-21.05037
1011.478	35.08684
1011.845	38.08956
1012.212	-1.00229
1012.579	22.05428
1012.946	25.05978
1013.313	19.04548
1013.68	28.06321
1014.047	-16.0386
1014.414	32.07583
1014.78	27.06736
1015.147	52.12569
1015.513	-4.00973
1015.88	18.04628
1016.246	43.10627
1016.612	45.1031
1016.978	12.02961
1017.344	-10.02498
1017.71	79.19157
1018.076	32.07571
1018.442	34.08769
1018.808	38.09516
1019.174	27.06799
1019.539	42.09683
1019.905	-22.0526
1020.27	-7.01745
1020.636	32.07697
1021.001	-1.00242
1021.366	-27.06577
1021.731	33.08509
1022.096	-36.09217
1022.461	-4.00956
1022.826	5.01198
1023.191	9.02377
1023.556	9.02126
1023.92	29.07156
1024.285	44.10748
1024.649	42.10305
1025.014	53.13117
1025.378	8.02026
1025.742	-19.04776
1026.107	3.00685
1026.471	20.04695
1026.835	19.04735
1027.199	-9.0219
1027.562	-16.03767
1027.926	17.04181
1028.29	23.05846
1028.654	44.10132
1029.017	26.06417
1029.381	22.05282
1029.744	12.0308
1030.107	38.09008
1030.471	12.02893
1030.834	-6.0138
1031.197	62.14896
1031.56	23.05453
1031.923	5.01302
1032.286	31.07305
1032.648	49.11717
1033.011	1.00232
1033.374	35.08247
1033.736	2.0053
1034.099	20.049
1034.461	-5.01275
1034.823	7.01756
1035.185	9.02281
1035.548	-8.01967
1035.91	-5.0121
1036.272	-7.01611
1036.634	44.10772
1036.995	7.01658
1037.357	7.01716
1037.719	22.05376
1038.08	31.07384
1038.442	3.00718
1038.803	-13.03157
1039.165	29.07342
1039.526	17.04132
1039.887	47.11247
1040.248	-20.04989
1040.609	16.03977
1040.97	-23.05694
1041.331	31.07871
1041.692	-41.09736
1042.053	19.04352
1042.413	-2.00471
1042.774	32.07805
1043.134	57.13546
1043.495	10.02531
1043.855	0
1044.215	34.08459
1044.576	21.05046
1044.936	14.03232
1045.296	27.06763
1045.656	46.11291
1046.016	29.07024
1046.375	-5.01225
1046.735	-48.11093
1047.095	-20.04743
1047.454	27.05747
1047.814	-4.00971
1048.173	71.16886
1048.533	-12.02782
1048.892	1.00242
1049.251	53.1329
1049.61	-2.00497
1049.969	15.03558
1050.328	-42.0928
1050.687	12.02939
1051.046	-20.04931
1051.405	21.05249
1051.763	-24.05597
1052.122	-26.0657
1052.48	10.02469
1052.839	-2.00475
1053.197	-28.06686
1053.555	9.02068
1053.914	5.01232
1054.272	58.13993
1054.63	-17.04206
1054.988	1.0024
1055.345	9.01954
1055.703	42.10118
1056.061	20.05169
1056.419	-18.04711
1056.776	62.14992
1057.134	17.03959
1057.491	9.02269
1057.848	-27.06812
1058.206	-15.0357
1058.563	-26.05819
1058.92	9.0209
1059.277	0
1059.634	2.00475
1059.991	11.02653
1060.348	-29.06655
1060.704	-13.03133
1061.061	75.17329
1061.418	-38.09362
1061.774	8.01989
1062.131	-18.0481
1062.487	4.00943
1062.843	18.04511
1063.199	4.01002
1063.555	-6.01405
1063.911	30.076
1064.267	81.16769
1064.623	-18.04425
1064.979	84.19759
1065.335	32.07671
1065.691	28.06735
1066.046	23.05083
1066.402	-29.0669
1066.757	11.02794
1067.112	9.02224
1067.468	-26.06225
1067.823	29.06995
1068.178	30.07279
1068.533	37.08986
1068.888	41.09808
1069.243	30.07426
1069.598	-16.03933
1069.952	-48.11018
1070.307	-6.01499
1070.662	12.02868
1071.016	-25.05684
1071.371	15.03434
1071.725	41.09819
1072.079	6.01454
1072.434	19.0464
1072.788	59.14016
1073.142	34.08382
1073.496	-20.04805
1073.85	10.02336
1074.203	18.0439
1074.557	-24.06456
1074.911	70.16633
1075.265	16.03742
1075.618	44.10748
1075.971	0
1076.325	28.07138
1076.678	14.03223
1077.031	-4.00914
1077.385	11.02441
1077.738	0
1078.091	-54.12529
1078.444	53.1229
1078.796	-30.07464
1079.149	16.04001
1079.502	-29.0695
1079.855	3.00706
1080.207	33.08149
1080.56	-25.0654
1080.912	25.0611
1081.264	-4.00972
1081.617	-14.0345
1081.969	3.00763
1082.321	-20.04943
1082.673	-9.02077
1083.025	13.03104
1083.377	-254.58041
1083.728	32.07486
1084.08	23.05765
1084.432	7.01701
1084.783	34.07985
1085.135	9.02271
1085.486	-32.07436
1085.838	16.03962
1086.189	-25.06149
1086.54	35.08375
1086.891	-17.04347
1087.242	-22.05424
1087.593	29.07082
1087.944	-10.02289
1088.295	44.10006
1088.646	26.06325
1088.996	-21.05123
1089.347	-36.08967
1089.698	-60.1447
1090.048	10.02613
1090.398	27.06286
1090.749	6.01446
1091.099	-20.05088
1091.449	35.08735
1091.799	6.01513
1092.149	-49.12158
1092.499	-9.02218
1092.849	-21.054
1093.199	28.0704
1093.548	6.01452
1093.898	19.04776
1094.248	1.00259
1094.597	-12.03094
1094.947	1.00269
1095.296	-9.02245
1095.645	44.11446
1095.994	1.00242
1096.343	-8.02032
1096.692	-38.10122
1097.041	1.00273
1097.39	28.07045
1097.739	18.047
1098.088	40.10725
1098.437	7.01851
1098.785	50.13468
1099.134	23.06129
1099.482	36.09914
1099.83	38.09997
1100.179	-10.02633
1100.527	18.04804
1100.875	-6.016
1101.223	44.11685
1101.571	11.03056
1101.919	-13.0343
1102.267	12.03395
1102.615	12.03855
1102.962	10.0322
1103.31	6.01928
1103.658	19.06114
