Data from N2 R9 sample 6_Subt2__3__18-48-12-802.txt Node

Date: Fri Aug 29 18:48:12 PDT 2025
User: uwsun
Spectrometer: HDX01956
Trigger mode: 0
Integration Time (sec): 5.000000E-1
Scans to average: 1
Nonlinearity correction enabled: true
Boxcar width: 0
Storing dark spectrum: false
XAxis mode: Wavelengths
Number of Pixels in Spectrum: 2068
>>>>>Begin Spectral Data<<<<<
194.03	206.55971
194.578	216.66462
195.127	228.68958
195.676	212.64464
196.225	270.68364
196.773	261.6855
197.321	357.90112
197.87	501.12258
198.418	514.13214
198.966	436.98416
199.513	454.96779
200.061	425.92857
200.609	493.1277
201.156	446.82188
201.704	441.95415
202.251	472.07331
202.798	458.0225
203.345	526.10186
203.892	479.02866
204.438	484.98513
204.985	441.88596
205.532	467.054
206.078	503.045
206.624	453.94951
207.17	527.02433
207.716	486.9982
208.262	456.75465
208.808	486.0058
209.354	432.9001
209.899	577.22778
210.445	511.06685
210.99	512.03322
211.535	552.08297
212.08	541.0506
212.625	515.09281
213.17	554.1826
213.715	434.81301
214.259	508.99868
214.804	529.10596
215.348	506.97554
215.892	485.98963
216.436	566.09375
216.98	538.99544
217.524	477.95784
218.068	490.05481
218.612	497.06968
219.155	470.9427
219.698	456.93152
220.242	500.06761
220.785	469.93743
221.328	478.02232
221.871	500.08974
222.414	514.09376
222.956	386.8082
223.499	413.80254
224.041	453.91133
224.583	477.88012
225.126	427.80918
225.668	437.9172
226.21	402.88222
226.751	367.69513
227.293	414.8204
227.835	409.86714
228.376	506.99475
228.918	466.0168
229.459	405.8759
230	403.83315
230.541	452.89445
231.082	458.95342
231.622	474.93316
232.163	458.95088
232.704	451.9616
233.244	384.83208
233.784	477.00454
234.324	391.7348
234.864	447.86571
235.404	438.89962
235.944	480.97254
236.484	495.05623
237.023	457.92192
237.563	469.91962
238.102	465.93806
238.641	513.10228
239.18	404.81144
239.719	526.1174
240.258	509.96225
240.797	471.95758
241.335	448.9438
241.874	452.72487
242.412	462.94591
242.95	437.89008
243.488	472.91261
244.026	451.88223
244.564	428.74604
245.102	453.86055
245.64	510.03954
246.177	421.80677
246.715	519.04953
247.252	502.97108
247.789	519.8057
248.326	439.89537
248.863	485.88772
249.4	522.98997
249.936	442.76354
250.473	460.90645
251.009	437.84756
251.546	484.89103
252.082	524.95017
252.618	473.88149
253.154	461.93639
253.69	471.89083
254.226	426.86708
254.761	468.88234
255.297	482.87799
255.832	478.95077
256.367	497.98051
256.903	477.87263
257.438	489.96563
257.972	508.93804
258.507	476.90756
259.042	443.80755
259.576	456.81294
260.111	492.95219
260.645	502.89961
261.179	454.88957
261.713	474.877
262.247	492.94672
262.781	492.84543
263.315	470.96665
263.849	529.09814
264.382	568.06772
264.915	499.96736
265.449	494.9945
265.982	542.01175
266.515	480.97965
267.048	488.84708
267.58	520.9362
268.113	465.8292
268.646	489.00502
269.178	493.90418
269.71	500.89833
270.243	529.99272
270.775	479.0207
271.307	574.13205
271.838	560.09404
272.37	503.02641
272.902	589.08039
273.433	566.99558
273.965	531.06304
274.496	518.06976
275.027	481.99484
275.558	503.00642
276.089	474.96214
276.62	541.13958
277.15	537.09245
277.681	527.93107
278.211	522.05681
278.741	454.82069
279.272	529.97854
279.802	541.1091
280.332	556.05744
280.861	539.05717
281.391	524.9613
281.921	561.09884
282.45	580.17874
282.98	540.15915
283.509	513.93519
284.038	518.95651
284.567	584.09625
285.096	598.15737
285.625	509.93495
286.153	507.96409
286.682	515.95026
287.21	549.06261
287.739	506.97086
288.267	520.01719
288.795	618.31144
289.323	578.06576
289.851	583.08387
290.378	567.00548
290.906	509.99193
291.433	611.20939
291.961	577.02379
292.488	608.20035
293.015	580.07213
293.542	576.15942
294.069	562.09691
294.596	626.22206
295.122	614.14474
295.649	617.05074
296.175	628.19292
296.702	592.1337
297.228	647.22639
297.754	576.00533
298.28	607.0604
298.806	603.12725
299.332	583.98985
299.857	604.04544
300.383	654.29132
300.908	561.05842
301.433	622.16256
301.958	658.1609
302.483	621.19479
303.008	657.25084
303.533	708.41838
304.058	657.18179
304.582	648.15394
305.107	582.18443
305.631	750.26105
306.155	643.12344
306.679	618.08847
307.203	684.17611
307.727	692.2223
308.251	709.31014
308.775	596.06388
309.298	673.19021
309.822	754.40631
310.345	685.19889
310.868	732.2743
311.391	774.38954
311.914	705.30273
312.437	790.28307
312.96	733.24211
313.482	773.30371
314.005	713.31163
314.527	733.41203
315.049	772.41577
315.571	695.08441
316.093	790.38712
316.615	767.30269
317.137	789.16886
317.659	846.43068
318.18	846.41367
318.702	839.32363
319.223	803.08629
319.744	793.1984
320.265	819.34711
320.786	792.33911
321.307	864.45015
321.828	859.27302
322.348	866.3401
322.869	914.38249
323.389	891.82272
323.909	915.34078
324.43	958.49609
324.95	877.2746
325.47	910.42989
325.989	915.35064
326.509	937.23302
327.029	994.32217
327.548	1019.33096
328.067	951.3938
328.587	1030.56071
329.106	966.29492
329.625	1058.73361
330.144	983.32091
330.662	1053.37666
331.181	1090.43168
331.7	1040.38199
332.218	1095.25771
332.736	1090.40772
333.255	1065.3588
333.773	1103.41933
334.291	1162.60516
334.808	1103.2689
335.326	1130.31054
335.844	1115.32035
336.361	1146.52711
336.879	1161.34145
337.396	1173.41726
337.913	1132.27597
338.43	1216.26982
338.947	1210.38274
339.464	1200.12879
339.981	1184.32122
340.497	1310.51003
341.014	1265.42111
341.53	1256.2158
342.046	1352.45567
342.562	1326.49815
343.078	1333.32687
343.594	1352.3648
344.11	1383.35482
344.626	1333.45797
345.141	1298.18359
345.657	1451.24293
346.172	1349.32073
346.687	1395.19908
347.202	1515.15752
347.717	1538.3183
348.232	1519.4329
348.747	1452.16655
349.261	1459.98624
349.776	1537.21504
350.29	1520.28765
350.805	1566.36087
351.319	1605.17063
351.833	1552.04097
352.347	1569.14672
352.861	1543.09807
353.374	1664.1105
353.888	1652.21126
354.401	1678.04939
354.915	1614.92373
355.428	1619.2091
355.941	1660.01124
356.454	1811.95826
356.967	1792.06742
357.48	1733.98267
357.993	1802.15736
358.505	1747.0938
359.018	1918.08748
359.53	1876.00118
360.042	1918.78638
360.554	1894.02419
361.066	1806.00601
361.578	1878.69571
362.09	1909.92285
362.602	1888.67585
363.113	1946.78634
363.625	1935.68087
364.136	2060.59006
364.647	1912.65528
365.158	2111.66982
365.669	2032.76639
366.18	2073.69291
366.691	2055.49981
367.201	1975.71095
367.712	2029.51969
368.222	2061.50305
368.733	2082.30428
369.243	2146.29532
369.753	2277.36737
370.263	2208.45544
370.773	2204.52236
371.282	2303.30396
371.792	2210.10699
372.301	2441.15109
372.811	2436.37579
373.32	2453.69724
373.829	2467.87225
374.338	2633.59274
374.847	2670.56626
375.356	2761.51246
375.865	2861.12159
376.373	2925.14414
376.882	3157.2556
377.39	3127.08984
377.898	2982.03553
378.407	3283.71429
378.915	3441.60414
379.423	3657.56664
379.93	3709.52719
380.438	3777.52275
380.946	3976.58665
381.453	4209.74039
381.96	4118.88224
382.468	4506.66935
382.975	4995.38369
383.482	5109.28631
383.989	5075.84232
384.495	5251.41787
385.002	5433.86345
385.509	5753.06201
386.015	6157.06344
386.521	6596.47565
387.028	6739.35846
387.534	7095.91933
388.04	7436.79089
388.546	7102.87068
389.051	7537.75259
389.557	8156.22361
390.063	9421.56711
390.568	9599.04532
391.073	9630.93751
391.578	10236.86883
392.084	10151.86809
392.589	10431.33107
393.093	10898.37348
393.598	12125.11009
394.103	13304.63839
394.607	14701.14671
395.112	15722.00754
395.616	16632.67258
396.12	17781.14472
396.624	19940.67328
397.128	21940.5513
397.632	24417.02586
398.136	26166.75467
398.639	26529.51931
399.143	28340.67864
399.646	27957.70966
400.15	25083.82847
400.653	20124.16724
401.156	13866.23708
401.659	5169.95759
402.162	1054.15589
402.664	0
403.167	0
403.67	0
404.172	0
404.674	0
405.176	0
405.678	0
406.18	0
406.682	0
407.184	0
407.686	0
408.187	0
408.688	0
409.19	0
409.691	0
410.192	0
410.693	0
411.194	435.30976
411.694	4082.94878
412.195	8864.71461
412.696	12089.80453
413.196	12760.96929
413.696	12863.67595
414.196	13703.56671
414.696	17261.84252
415.196	21764.24417
415.696	29583.19008
416.196	36460.31858
416.695	39588.3362
417.195	32061.80739
417.694	29990.43662
418.194	28733.597
418.693	26276.91877
419.192	25387.27067
419.691	24827.26771
420.19	24162.75072
420.688	23988.96185
421.187	23316.20818
421.685	22048.59825
422.184	20671.40708
422.682	17774.64983
423.18	14561.19813
423.678	12804.62718
424.176	12047.29726
424.674	11253.75176
425.172	10930.27217
425.669	10461.07936
426.167	9750.68578
426.664	8826.50282
427.161	7983.73705
427.659	7264.08407
428.156	6884.4158
428.652	6346.36007
429.149	6132.29619
429.646	5940.51309
430.143	5451.95147
430.639	5348.42694
431.135	4863.24004
431.632	4592.98372
432.128	4242.6031
432.624	4025.51982
433.12	3667.53223
433.616	3558.53714
434.111	3498.56788
434.607	3368.66028
435.103	3410.62217
435.598	3350.66164
436.093	3268.92526
436.588	2993.09833
437.083	2860.27125
437.578	2754.45031
438.073	2492.76485
438.568	2483.9316
439.062	2442.65392
439.557	2338.04776
440.051	2196.02546
440.546	2038.12969
441.04	2052.29982
441.534	2030.52583
442.028	1994.45088
442.522	1931.47282
443.015	1898.2977
443.509	1935.61152
444.002	1816.64451
444.496	1773.41194
444.989	1759.70916
445.482	1771.75882
445.975	1727.51328
446.468	1761.42857
446.961	1688.45942
447.454	1598.624
447.947	1508.71427
448.439	1565.83794
448.931	1491.63958
449.424	1572.97302
449.916	1543.87633
450.408	1445.68991
450.9	1339.85263
451.392	1403.97912
451.884	1382.80483
452.375	1297.93059
452.867	1303.81097
453.358	1321.77497
453.849	1259.67351
454.341	1312.80046
454.832	1141.6954
455.323	1198.94661
455.814	1258.87871
456.304	1290.90184
456.795	1224.88086
457.285	1285.88877
457.776	1247.9503
458.266	1118.94386
458.756	1131.00745
459.247	1060.9362
459.737	1018.92605
460.226	1065.86185
460.716	961.93277
461.206	916.93352
461.695	968.06518
462.185	923.93257
462.674	978.94255
463.163	933.86196
463.653	921.78141
464.142	907.98615
464.63	892.02594
465.119	770.83853
465.608	860.90941
466.096	864.85683
466.585	846.94503
467.073	891.04594
467.561	816.99678
468.05	813.95174
468.538	833.06455
469.026	816.01158
469.513	758.78863
470.001	672.81256
470.489	736.93151
470.976	778.95353
471.463	739.03947
471.951	726.04614
472.438	589.80417
472.925	591.80164
473.412	639.94653
473.899	552.76613
474.385	603.90892
474.872	565.79812
475.359	561.85315
475.845	504.62836
476.331	561.75039
476.817	555.86871
477.303	516.76666
477.789	481.76286
478.275	511.83474
478.761	479.77105
479.247	444.6636
479.732	467.78464
480.218	433.78731
480.703	463.79153
481.188	444.63477
481.673	420.66012
482.158	336.48661
482.643	425.7763
483.128	418.65773
483.612	367.61184
484.097	400.70865
484.581	394.65814
485.066	339.60259
485.55	316.49919
486.034	293.46084
486.518	304.52481
487.002	255.46952
487.486	285.52371
487.969	300.5503
488.453	330.63314
488.936	267.45392
489.42	279.46689
489.903	250.49309
490.386	263.31397
490.869	265.44297
491.352	258.4981
491.835	271.42796
492.318	170.30287
492.8	235.37517
493.283	246.4941
493.765	177.34935
494.247	222.41543
494.73	154.27337
495.212	261.50474
495.694	135.25531
496.175	118.22661
496.657	138.26873
497.139	225.30733
497.62	134.25796
498.102	120.24559
498.583	152.31503
499.064	109.19898
499.545	117.22051
500.026	95.17623
500.507	113.2179
500.988	109.22707
501.469	81.17032
501.949	136.28149
502.43	71.14119
502.91	83.14232
503.39	86.18326
503.87	47.09346
504.35	117.23299
504.83	70.12892
505.31	46.095
505.79	76.15364
506.269	63.12575
506.749	40.07774
507.228	58.11563
507.707	111.20622
508.187	112.22755
508.666	68.14226
509.145	-17.03444
509.623	52.10459
510.102	33.06914
510.581	78.16224
511.059	-2.00436
511.538	37.08345
512.016	67.13777
512.494	77.16112
512.972	24.04979
513.45	-57.11546
513.928	5.01056
514.406	-8.01668
514.884	39.0872
515.361	3.00628
515.839	20.03958
516.316	3.00632
516.793	53.11718
517.27	14.0299
517.747	-31.0704
518.224	1.00204
518.701	50.09667
519.178	-19.04143
519.654	13.02732
520.131	-21.04602
520.607	37.08078
521.083	15.03007
521.56	14.02909
522.036	10.01935
522.512	58.12574
522.987	-82.17413
523.463	-24.0507
523.939	29.06283
524.414	28.05712
524.89	-1.00211
525.365	-35.0707
525.84	-57.12059
526.315	-6.01282
526.79	-31.06245
527.265	-2.00405
527.74	-69.15154
528.215	-46.09734
528.689	-52.10329
529.164	-19.0369
529.638	-20.04616
530.112	-45.095
530.587	-36.06843
531.061	-48.1038
531.534	35.07534
532.008	-33.07107
532.482	3.00615
532.956	-20.04554
533.429	3.00649
533.903	-6.0119
534.376	-17.03366
534.849	9.01862
535.322	-17.03603
535.795	-36.07945
536.268	-15.03233
536.741	-42.09133
537.213	-16.03328
537.686	-58.12767
538.158	-90.18302
538.631	-17.03734
539.103	-71.14409
539.575	-1.00187
540.047	-8.01579
540.519	47.10005
540.991	22.04829
541.463	11.02387
541.934	-48.09953
542.406	-59.12745
542.877	-6.01215
543.348	30.06479
543.82	5.01104
544.291	2.0042
544.762	-6.01274
545.233	21.04692
545.703	-33.06559
546.174	34.07025
546.645	-25.05326
547.115	22.04706
547.585	37.07536
548.056	2.00426
548.526	23.04757
548.996	56.11845
549.466	102.21764
549.935	58.11929
550.405	107.20097
550.875	77.15798
551.344	96.19941
551.814	78.15544
552.283	184.33836
552.752	102.20288
553.221	74.13758
553.69	143.26872
554.159	138.28703
554.628	118.223
555.096	172.36811
555.565	146.27551
556.033	169.33952
556.502	107.22489
556.97	103.19842
557.438	126.25985
557.906	162.33395
558.374	87.17632
558.842	68.14434
559.31	82.16303
559.777	65.13956
560.245	98.20511
560.712	114.23426
561.18	70.13787
561.647	51.10241
562.114	48.09819
562.581	123.26945
563.048	128.26232
563.514	73.16032
563.981	110.22482
564.448	124.24722
564.914	161.33166
565.381	166.33419
565.847	206.42312
566.313	174.35772
566.779	195.38597
567.245	177.36528
567.711	201.42226
568.176	198.38832
568.642	163.36099
569.108	173.37498
569.573	261.53403
570.038	259.46994
570.504	217.42227
570.969	280.60597
571.434	282.5272
571.899	290.59162
572.363	339.65308
572.828	353.68398
573.293	344.66702
573.757	288.56644
574.222	301.56955
574.686	274.52366
575.15	321.64697
575.614	380.72802
576.078	333.66035
576.542	405.76711
577.006	372.70132
577.469	436.90117
577.933	377.70185
578.396	350.70428
578.86	392.77353
579.323	343.69004
579.786	337.61335
580.249	326.62788
580.712	335.69754
581.175	313.65957
581.637	342.67075
582.1	337.62925
582.563	336.61417
583.025	294.61122
583.487	236.41175
583.95	223.41514
584.412	317.56757
584.874	300.62509
585.336	270.55257
585.797	209.39527
586.259	279.57034
586.721	247.50309
587.182	295.59785
587.643	319.62076
588.105	239.49389
588.566	258.47182
589.027	212.44645
589.488	235.46841
589.949	250.52855
590.41	241.40506
590.87	230.46132
591.331	234.44287
591.791	193.39203
592.252	158.31969
592.712	220.46452
593.172	215.42455
593.632	237.45547
594.092	208.40813
594.552	194.36843
595.011	152.30953
595.471	197.38883
595.931	223.43539
596.39	205.43123
596.849	238.48399
597.308	270.50901
597.768	194.43492
598.227	269.56361
598.685	277.55392
599.144	264.53637
599.603	262.54033
600.062	182.3367
600.52	216.42142
600.978	245.50743
601.437	297.58731
601.895	272.49818
602.353	292.55969
602.811	255.49196
603.269	303.62474
603.727	291.60135
604.184	265.51567
604.642	333.6977
605.099	355.6997
605.557	380.78508
606.014	391.70298
606.471	351.74224
606.928	405.7177
607.385	406.82148
607.842	461.86893
608.299	576.0796
608.755	466.9282
609.212	548.97753
609.668	480.86327
610.125	566.10683
610.581	660.2526
611.037	616.13257
611.493	481.9485
611.949	501.99536
612.405	523.84767
612.861	559.08046
613.316	532.04267
613.772	544.02252
614.227	520.01046
614.683	619.06494
615.138	572.08952
615.593	569.07828
616.048	592.10419
616.503	535.09381
616.958	555.14811
617.412	592.14354
617.867	521.9493
618.321	592.99564
618.776	602.08515
619.23	506.99569
619.684	647.18522
620.138	626.192
620.592	539.09553
621.046	589.14617
621.5	540.10031
621.954	573.07476
622.407	574.06314
622.861	557.13527
623.314	549.05044
623.768	491.97595
624.221	502.83451
624.674	522.01918
625.127	470.94749
625.58	524.02018
626.033	501.95129
626.485	439.91408
626.938	483.99495
627.39	457.9253
627.843	439.88927
628.295	448.90605
628.747	430.89952
629.199	410.82388
629.651	382.77221
630.103	380.77627
630.555	392.73867
631.006	403.84286
631.458	402.84616
631.909	390.80646
632.361	328.69679
632.812	311.65593
633.263	337.66141
633.714	298.58776
634.165	327.72656
634.616	285.62667
635.067	363.73498
635.518	280.62046
635.968	312.57867
636.419	302.60826
636.869	314.69087
637.319	261.56377
637.769	259.5417
638.219	299.66546
638.669	239.53612
639.119	281.6412
639.569	244.5542
640.019	272.59067
640.468	175.37494
640.918	279.63124
641.367	203.43474
641.816	248.52479
642.265	259.56544
642.714	241.5286
643.163	277.59961
643.612	201.45959
644.061	195.39519
644.51	226.48995
644.958	251.52264
645.406	259.58576
645.855	257.59707
646.303	295.64975
646.751	196.42782
647.199	264.56891
647.647	232.50896
648.095	218.47805
648.543	272.52967
648.99	239.54383
649.438	289.64294
649.885	249.58716
650.333	266.49088
650.78	237.54648
651.227	268.61881
651.674	230.50203
652.121	212.49574
652.568	247.57225
653.015	308.73626
653.461	230.5241
653.908	254.56543
654.354	280.63595
654.801	185.41994
655.247	226.47844
655.693	238.59469
656.139	249.57162
656.585	241.55481
657.031	232.51882
657.477	206.43057
657.922	176.39424
658.368	273.64375
658.813	215.48487
659.259	205.47609
659.704	197.44537
660.149	187.42397
660.594	220.50495
661.039	240.52696
661.484	229.5295
661.929	214.48567
662.373	205.501
662.818	216.51893
663.262	164.38636
663.707	193.47588
664.151	205.48717
664.595	155.36694
665.039	198.4802
665.483	200.49541
665.927	169.39109
666.371	107.24555
666.814	188.43963
667.258	149.34672
667.701	230.48435
668.145	211.51202
668.588	191.45861
669.031	187.42999
669.474	175.41396
669.917	161.35299
670.36	204.49401
670.803	199.47054
671.245	167.34867
671.688	198.47334
672.13	131.29193
672.573	197.49021
673.015	191.45023
673.457	148.32031
673.899	156.3738
674.341	151.36064
674.783	148.35111
675.225	196.47249
675.666	147.34934
676.108	165.35565
676.549	167.39137
676.991	155.33969
677.432	111.22269
677.873	147.33815
678.314	170.40112
678.755	146.35223
679.196	111.25453
679.637	175.42243
680.078	122.28563
680.518	146.33914
680.959	137.32658
681.399	125.30856
681.839	138.33407
682.28	114.28053
682.72	105.24115
683.16	124.30739
683.6	90.20716
684.039	95.20037
684.479	81.19966
684.919	85.19702
685.358	140.353
685.798	112.29235
686.237	143.34441
686.676	111.25891
687.115	107.25233
687.554	110.26177
687.993	165.36328
688.432	127.29051
688.871	100.22824
689.309	85.20433
689.748	60.12819
690.186	123.29411
690.625	75.17748
691.063	104.25015
691.501	112.27703
691.939	104.25951
692.377	80.19643
692.815	53.12833
693.253	166.39624
693.69	84.18692
694.128	60.14683
694.565	114.27254
695.003	81.20654
695.44	88.20837
695.877	86.20237
696.314	142.30627
696.751	99.22792
697.188	74.17196
697.625	120.27698
698.061	28.06837
698.498	94.22893
698.934	82.1991
699.371	48.11467
699.807	104.24721
700.243	40.09774
700.679	110.25076
701.115	87.20692
701.551	117.27645
701.987	56.12828
702.422	55.13237
702.858	76.1828
703.294	76.17452
703.729	102.25054
704.164	50.12204
704.599	52.11802
705.035	28.06406
705.47	39.09624
705.904	56.13234
706.339	131.30544
706.774	67.15886
707.209	14.03303
707.643	56.13628
708.078	79.19387
708.512	34.08616
708.946	82.19836
709.38	35.08446
709.814	55.12789
710.248	71.17475
710.682	75.18009
711.116	9.02191
711.549	74.1921
711.983	27.0637
712.416	75.17934
712.85	74.18592
713.283	51.12251
713.716	100.25214
714.149	108.25869
714.582	73.16618
715.015	84.21173
715.448	113.28497
715.881	107.23638
716.313	74.17529
716.746	82.19469
717.178	72.17476
717.61	91.23171
718.043	59.14863
718.475	64.15685
718.907	86.21901
719.339	53.12202
719.77	37.08912
720.202	55.14049
720.634	48.11825
721.065	50.12027
721.497	68.16826
721.928	28.06984
722.359	31.07591
722.79	60.14525
723.221	67.17012
723.652	111.28651
724.083	52.11921
724.514	42.09826
724.945	33.07897
725.375	17.04026
725.806	76.19122
726.236	80.2061
726.666	56.13439
727.096	86.21233
727.526	50.12828
727.956	38.08796
728.386	50.12467
728.816	38.09732
729.246	47.11564
729.675	49.12198
730.105	61.15174
730.534	70.16562
730.964	87.22105
731.393	100.24944
731.822	73.18764
732.251	88.22419
732.68	59.14097
733.109	46.11478
733.537	66.16092
733.966	62.15538
734.395	3.0071
734.823	74.16911
735.251	41.10021
735.68	63.15934
736.108	73.18594
736.536	46.11018
736.964	31.07328
737.392	65.16404
737.82	100.24099
738.247	72.1741
738.675	89.21419
739.102	49.12371
739.53	91.2322
739.957	75.19386
740.384	102.25248
740.811	85.21643
741.238	34.08422
741.665	52.12222
742.092	60.14503
742.519	29.0728
742.945	41.09987
743.372	73.18199
743.798	46.11946
744.225	38.09175
744.651	56.14186
745.077	81.20303
745.503	76.18682
745.929	42.10221
746.355	122.3032
746.781	70.1748
747.207	-13.03125
747.632	39.09627
748.058	43.1086
748.483	45.10525
748.908	50.12558
749.334	70.17327
749.759	25.06001
750.184	34.08222
750.609	97.2391
751.033	68.16251
751.458	92.20804
751.883	82.20432
752.307	34.08132
752.732	-4.01018
753.156	56.13963
753.58	57.13703
754.005	81.20654
754.429	58.13787
754.853	51.12761
755.277	75.17893
755.7	68.16992
756.124	34.08545
756.548	73.17435
756.971	56.13816
757.394	64.16591
757.818	46.11946
758.241	62.1584
758.664	53.135
759.087	37.08396
759.51	75.18772
759.933	34.08296
760.356	67.17276
760.778	54.13406
761.201	74.1813
761.623	53.13006
762.046	57.13687
762.468	101.24335
762.89	87.21563
763.312	98.23983
763.734	62.1506
764.156	64.15923
764.578	46.1074
765	72.17685
765.421	35.08981
765.843	82.21543
766.264	83.20165
766.686	55.13935
767.107	7.01728
767.528	18.04605
767.949	46.11806
768.37	79.1948
768.791	73.17782
769.212	4.01021
769.632	7.01663
770.053	35.09302
770.473	29.07154
770.894	63.15888
771.314	52.12565
771.734	59.13887
772.154	77.19834
772.575	82.19123
772.994	27.06236
773.414	65.15738
773.834	29.0734
774.254	74.18203
774.673	10.02478
775.093	29.07264
775.512	54.13406
775.931	80.2033
776.351	3.00757
776.77	28.06931
777.189	33.07954
777.607	-2.00519
778.026	16.04042
778.445	-15.03823
778.864	54.13941
779.282	44.10696
779.701	5.0128
780.119	9.02306
780.537	16.04046
780.955	25.06435
781.373	-11.02772
781.791	-4.00918
782.209	62.14408
782.627	31.08236
783.045	-24.05656
783.462	27.06969
783.88	21.0549
784.297	25.06359
784.715	28.07256
785.132	28.0686
785.549	18.04558
785.966	42.10647
786.383	36.08941
786.8	50.1172
787.217	24.05764
787.633	-2.00507
788.05	71.16951
788.466	58.13781
788.883	-5.01294
789.299	40.09723
789.715	49.11998
790.131	14.03526
790.547	34.0857
790.963	33.08269
791.379	-7.01797
791.795	21.04864
792.21	14.03323
792.626	12.0289
793.041	22.05492
793.457	63.15632
793.872	-1.00239
794.287	-37.09033
794.702	20.04987
795.117	18.04522
795.532	-3.00763
795.947	69.16669
796.362	26.06285
796.776	94.22016
797.191	-18.04488
797.605	-32.0768
798.02	25.06149
798.434	12.02717
798.848	19.04732
799.262	-2.00503
799.676	28.06903
800.09	33.08191
800.504	41.10028
800.918	2.00471
801.331	44.11599
801.745	17.03959
802.158	12.03036
802.572	23.05642
802.985	51.12404
803.398	50.11999
803.811	80.2056
804.224	19.04781
804.637	3.00725
805.05	8.01883
805.462	70.17232
805.875	6.01573
806.288	-2.0049
806.7	40.10118
807.112	26.06097
807.525	3.00751
807.937	22.05492
808.349	65.16316
808.761	20.04972
809.173	-10.02464
809.584	59.14634
809.996	24.05932
810.408	-1.00261
810.819	43.10184
811.231	3.00784
811.642	44.10551
812.053	149.34932
812.464	185.43066
812.875	149.37562
813.286	108.2762
813.697	108.25127
814.108	31.07638
814.519	40.08993
814.929	50.12805
815.34	37.0904
815.75	22.05638
816.16	45.11276
816.571	66.17157
816.981	29.06913
817.391	25.06094
817.801	-9.02268
818.211	49.11744
818.62	-28.0687
819.03	31.07658
819.44	60.15699
819.849	22.05593
820.259	14.03619
820.668	-13.03247
821.077	-9.02267
821.486	36.08735
821.895	54.13391
822.304	27.07202
822.713	12.02871
823.122	44.11035
823.531	12.02879
823.939	-9.02226
824.348	48.11725
824.756	43.10825
825.164	86.21584
825.573	12.03042
825.981	40.09978
826.389	31.07843
826.797	34.0857
827.205	17.03945
827.612	14.03491
828.02	-24.0574
828.428	42.10745
828.835	47.12408
829.243	47.11256
829.65	4.01006
830.057	39.09521
830.464	-15.03712
830.871	64.15347
831.278	33.08032
831.685	9.02036
832.092	58.14231
832.499	3.00666
832.905	42.10681
833.312	-12.02784
833.718	4.01008
834.124	2.00463
834.531	54.13645
834.937	30.07748
835.343	35.085
835.749	11.026
836.155	46.12081
836.561	10.02485
836.966	6.01484
837.372	22.05642
837.777	12.03018
838.183	0
838.588	37.09234
838.993	25.06135
839.399	4.00989
839.804	-34.08438
840.209	-14.03612
840.613	-10.02261
841.018	34.08656
841.423	50.12855
841.828	39.09906
842.232	54.13406
842.637	38.09015
843.041	-32.08336
843.445	54.13567
843.849	-13.03263
844.253	35.08369
844.657	-6.01529
845.061	-4.00921
845.465	-20.04907
845.869	16.03755
846.272	-36.08928
846.676	22.05364
847.079	37.09448
847.483	52.12999
847.886	48.11716
848.289	-12.0324
848.692	28.07133
849.095	42.10129
849.498	72.18219
849.901	-10.02328
850.304	23.0554
850.707	19.04881
851.109	63.15939
851.512	31.07661
851.914	-6.0153
852.316	10.02552
852.718	-36.09445
853.121	1.00248
853.523	-10.02371
853.925	13.03417
854.326	11.02774
854.728	26.06724
855.13	23.05968
855.531	-23.05584
855.933	17.04116
856.334	-29.07345
856.736	9.02038
857.137	0
857.538	-2.00508
857.939	-18.04509
858.34	28.06865
858.741	21.05524
859.142	13.03151
859.542	-1.00266
859.943	50.12445
860.343	-27.0679
860.744	5.01232
861.144	44.10764
861.544	-32.07822
861.945	22.05642
862.345	-17.04217
862.745	4.01004
863.145	51.12214
863.544	2.0051
863.944	17.04049
864.344	75.18575
864.743	40.09959
865.143	10.0259
865.542	-6.0141
865.941	7.01749
866.34	-19.04619
866.74	34.09158
867.139	3.00726
867.537	48.1225
867.936	5.01216
868.335	39.09955
868.734	34.08723
869.132	26.0608
869.531	57.13791
869.929	-21.04864
870.327	38.09144
870.726	56.13969
871.124	13.03066
871.522	4.01028
871.92	7.01743
872.318	2.00494
872.715	48.11903
873.113	25.06128
873.511	16.04016
873.908	-11.0281
874.306	5.01255
874.703	38.0954
875.1	20.05149
875.497	-2.00485
875.894	-22.05468
876.291	14.03463
876.688	-2.00521
877.085	41.09867
877.482	7.01768
877.878	-12.02926
878.275	39.09937
878.671	25.05606
879.068	5.01219
879.464	9.02195
879.86	6.01433
880.256	48.11864
880.652	-17.04379
881.048	12.02998
881.444	22.05272
881.84	26.06642
882.236	28.07075
882.631	22.05434
883.027	39.09475
883.422	18.04633
883.817	-34.0868
884.213	-13.03375
884.608	-15.03726
885.003	17.04129
885.398	22.05539
885.793	34.08567
886.188	-18.04534
886.582	53.136
886.977	15.03588
887.371	40.10144
887.766	7.01756
888.16	43.10755
888.554	40.0992
888.949	72.18025
889.343	40.098
889.737	-5.01345
890.131	-2.00507
890.525	29.07449
890.918	0
891.312	33.0793
891.706	27.07116
892.099	20.0512
892.492	15.03265
892.886	8.01974
893.279	12.0308
893.672	-4.01029
894.065	-6.01519
894.458	2.00508
894.851	44.10804
895.244	28.07184
895.637	46.11098
896.029	13.03203
896.422	-7.0173
896.814	-8.02011
897.206	22.05272
897.599	75.1848
897.991	33.08011
898.383	16.03809
898.775	-36.08277
899.167	-21.0497
899.559	41.10403
899.951	33.07812
900.342	50.12724
900.734	-33.08316
901.125	30.07903
901.517	16.03955
901.908	51.12237
902.299	14.03448
902.69	40.09464
903.082	21.05117
903.473	-17.04125
903.863	37.09468
904.254	-1.00235
904.645	35.08735
905.036	15.03658
905.426	45.10323
905.817	15.03707
906.207	-29.07019
906.597	-15.03555
906.987	0
907.378	-4.01022
907.768	14.03725
908.158	-27.06682
908.547	-7.01827
908.937	25.06446
909.327	9.02204
909.717	52.13205
910.106	5.01212
910.495	42.10507
910.885	-4.01023
911.274	15.03775
911.663	29.07392
912.052	29.07188
912.441	18.04605
912.83	-18.04191
913.219	17.04476
913.608	22.0542
913.997	-4.01013
914.385	8.01928
914.774	37.09036
915.162	7.01683
915.55	32.07773
915.939	-26.06654
916.327	0
916.715	2.00514
917.103	93.22721
917.491	0
917.878	44.10836
918.266	46.11942
918.654	17.0437
919.041	-14.03696
919.429	7.01667
919.816	52.13182
920.203	29.07064
920.591	39.09695
920.978	32.07866
921.365	14.03697
921.752	40.09559
922.139	35.07628
922.525	-3.00728
922.912	38.09293
923.299	5.01253
923.685	3.00789
924.072	21.04873
924.458	8.01998
924.844	-13.03255
925.231	-14.03301
925.617	-37.09557
926.003	17.04371
926.389	21.05326
926.774	57.14431
927.16	61.15125
927.546	-21.05428
927.931	62.15443
928.317	1.00233
928.702	13.03099
929.088	4.00955
929.473	12.03074
929.858	-5.01222
930.243	-6.01456
930.628	-6.01475
931.013	20.04985
931.398	-6.01396
931.783	49.12906
932.167	16.03937
932.552	16.04034
932.937	2.00501
933.321	-18.04573
933.705	10.0254
934.09	47.11887
934.474	38.0905
934.858	24.06254
935.242	-10.02346
935.626	9.02321
936.009	28.07475
936.393	-1.00257
936.777	-17.04405
937.16	1.00262
937.544	29.06863
937.927	-31.0798
938.311	27.06621
938.694	74.19494
939.077	-29.07048
939.46	31.07641
939.843	1.00211
940.226	17.04387
940.609	-37.08644
940.991	-11.02831
941.374	8.01971
941.757	23.05705
942.139	-10.02274
942.522	-7.01673
942.904	9.02181
943.286	28.07143
943.668	-30.07879
944.05	17.04214
944.432	-3.00748
944.814	1.00249
945.196	-5.01231
945.578	-33.07969
945.959	11.02598
946.341	27.06658
946.722	30.07071
947.104	7.01687
947.485	-8.01883
947.866	16.04056
948.247	-23.05879
948.628	42.10263
949.009	-3.00775
949.39	14.03509
949.771	30.07007
950.152	10.02473
950.532	-69.17345
950.913	23.05577
951.293	10.02719
951.674	22.0535
952.054	14.03492
952.434	-17.04272
952.814	19.04548
953.194	42.11008
953.574	64.15726
953.954	22.05254
954.334	59.14682
954.714	-32.07918
955.093	18.04452
955.473	-2.00505
955.853	-11.02878
956.232	35.09616
956.611	27.06505
956.99	-17.04324
957.37	6.01541
957.749	-11.02655
958.128	1.00254
958.506	5.01307
958.885	24.06086
959.264	-19.04716
959.643	8.01836
960.021	2.005
960.4	-6.01376
960.778	18.04461
961.156	36.09048
961.535	9.02115
961.913	8.01888
962.291	-10.02592
962.669	-5.01279
963.047	13.03339
963.424	27.06919
963.802	-39.09747
964.18	63.15905
964.557	60.13794
964.935	36.08554
965.312	3.00787
965.69	60.14999
966.067	-2.00492
966.444	18.04462
966.821	28.07246
967.198	8.01956
967.575	46.1132
967.952	15.03559
968.329	46.11203
968.705	-4.00868
969.082	16.04128
969.458	-46.11236
969.835	-3.00738
970.211	14.03616
970.587	23.05755
970.963	28.07211
971.339	-10.02638
971.715	16.0402
972.091	39.09624
972.467	0
972.843	-31.07807
973.219	37.08908
973.594	-16.04232
973.97	41.09778
974.345	0
974.721	22.05356
975.096	12.02925
975.471	30.07145
975.846	8.01937
976.221	19.04852
976.596	-2.00484
976.971	14.03479
977.346	30.07013
977.72	7.01797
978.095	10.02602
978.469	-6.01448
978.844	26.06565
979.218	13.03138
979.593	16.03859
979.967	18.04412
980.341	3.00697
980.715	21.05319
981.089	24.06036
981.463	11.02546
981.837	5.01232
982.21	73.16914
982.584	-2.00488
982.957	-20.05057
983.331	44.10415
983.704	5.01239
984.078	-8.01993
984.451	73.18159
984.824	-30.07415
985.197	23.05615
985.57	49.12291
985.943	57.1406
986.316	56.13745
986.688	25.06058
987.061	21.0495
987.434	11.02886
987.806	-9.02207
988.179	-17.04063
988.551	36.09155
988.923	29.07169
989.295	53.13237
989.667	-54.13156
990.039	26.06452
990.411	3.00697
990.783	29.06706
991.155	-14.03404
991.527	69.16933
991.898	12.03011
992.27	-13.03253
992.641	50.12544
993.012	18.04262
993.384	-24.05806
993.755	11.02824
994.126	-22.05364
994.497	-16.03975
994.868	11.02547
995.239	-10.02451
995.61	-32.0817
995.98	-33.0814
996.351	5.01248
996.722	-37.08729
997.092	-8.01915
997.462	-9.02127
997.833	36.08557
998.203	16.03904
998.573	-33.0834
998.943	10.02363
999.313	3.00725
999.683	-16.03888
1000.053	-6.01396
1000.423	-8.01965
1000.792	1.00261
1001.162	-7.01741
1001.531	21.05205
1001.901	12.03012
1002.27	20.04499
1002.639	7.01802
1003.009	-12.02887
1003.378	18.04628
1003.747	-3.00716
1004.116	-1.00242
1004.485	-37.08989
1004.853	45.1141
1005.222	10.0254
1005.591	7.01676
1005.959	-36.08253
1006.328	-5.01138
1006.696	-19.04642
1007.064	28.0707
1007.433	39.09765
1007.801	32.07881
1008.169	50.12625
1008.537	38.08435
1008.905	-29.0686
1009.273	27.06697
1009.64	12.02883
1010.008	26.06225
1010.375	29.07069
1010.743	58.13372
1011.11	-28.06725
1011.478	-8.02001
1011.845	-6.01426
1012.212	-13.0298
1012.579	10.02473
1012.946	14.03355
1013.313	55.13076
1013.68	12.02718
1014.047	-17.04102
1014.414	-16.03827
1014.78	-24.06043
1015.147	12.02922
1015.513	-14.03413
1015.88	33.08462
1016.246	57.1405
1016.612	12.02768
1016.978	-3.00742
1017.344	21.05216
1017.71	37.09043
1018.076	74.17366
1018.442	11.02848
1018.808	1.00252
1019.174	16.04037
1019.539	57.13102
1019.905	10.02376
1020.27	8.01989
1020.636	24.05782
1021.001	45.10781
1021.366	-19.04621
1021.731	32.08253
1022.096	4.01017
1022.461	-19.04555
1022.826	-20.04816
1023.191	15.03957
1023.556	2.00473
1023.92	11.02723
1024.285	37.0905
1024.649	6.01482
1025.014	42.10416
1025.378	-6.01523
1025.742	15.03748
1026.107	42.09513
1026.471	24.0563
1026.835	23.05728
1027.199	-17.04143
1027.562	0
1027.926	26.06384
1028.29	41.10388
1028.654	-18.04196
1029.017	43.1058
1029.381	14.03366
1029.744	2.00514
1030.107	61.14396
1030.471	24.05773
1030.834	29.06623
1031.197	27.0653
1031.56	13.03088
1031.923	-21.05494
1032.286	54.12668
1032.648	27.06483
1033.011	7.0162
1033.374	10.02368
1033.736	8.02117
1034.099	7.01719
1034.461	-12.03064
1034.823	0
1035.185	20.05059
1035.548	4.00981
1035.91	28.06732
1036.272	-8.01841
1036.634	-4.00988
1036.995	19.04491
1037.357	20.04891
1037.719	26.06349
1038.08	11.0263
1038.442	-41.09897
1038.803	48.11524
1039.165	15.03807
1039.526	1.00244
1039.887	2.00483
1040.248	-25.06242
1040.609	70.17226
1040.97	10.02461
1041.331	11.02803
1041.692	-33.07824
1042.053	-11.02534
1042.413	-19.04486
1042.774	15.0367
1043.134	40.09537
1043.495	-10.0254
1043.855	28.06817
1044.215	8.02
1044.576	-13.03144
1044.936	30.06903
1045.296	40.09996
1045.656	36.08853
1046.016	-13.03174
1046.375	-6.0147
1046.735	-20.04596
1047.095	19.04472
1047.454	38.08069
1047.814	30.07235
1048.173	51.12176
1048.533	3.00693
1048.892	-38.09268
1049.251	1.00253
1049.61	40.09862
1049.969	16.03794
1050.328	-26.05726
1050.687	2.00491
1051.046	19.04651
1051.405	12.03004
1051.763	-28.06535
1052.122	1.00251
1052.48	-9.0223
1052.839	-54.12954
1053.197	-14.03334
1053.555	33.07546
1053.914	25.0614
1054.272	38.09203
1054.63	-16.03958
1054.988	11.02631
1055.345	-14.03055
1055.703	9.02182
1056.061	-5.01298
1056.419	-8.0209
1056.776	21.05117
1057.134	-2.00468
1057.491	15.03777
1057.848	38.09475
1058.206	-6.01426
1058.563	-3.00668
1058.92	48.11062
1059.277	61.15008
1059.634	7.0166
1059.991	23.05535
1060.348	-50.11523
1060.704	-27.06525
1061.061	17.03973
1061.418	-25.06144
1061.774	24.0595
1062.131	-23.06152
1062.487	-4.00945
1062.843	-5.01258
1063.199	9.02253
1063.555	-18.04224
1063.911	32.08103
1064.267	-1.00211
1064.623	6.01468
1064.979	75.17673
1065.335	30.07194
1065.691	20.04818
1066.046	1.00222
1066.402	-73.16987
1066.757	48.12112
1067.112	11.02717
1067.468	-22.05264
1067.823	11.02662
1068.178	-35.08595
1068.533	31.07537
1068.888	2.00482
1069.243	36.08902
1069.598	12.02934
1069.952	-31.07091
1070.307	-4.00999
1070.662	-16.03844
1071.016	-23.05227
1071.371	13.02977
1071.725	31.07438
1072.079	-5.01214
1072.434	-24.05908
1072.788	6.0144
1073.142	0
1073.496	-23.05529
1073.85	-9.0211
1074.203	40.09716
1074.557	21.05607
1074.911	73.17335
1075.265	-11.02586
1075.618	28.0686
1075.971	-4.00961
1076.325	-2.00513
1076.678	-9.02081
1077.031	6.01369
1077.385	14.03105
1077.738	-27.06186
1078.091	-37.08556
1078.444	-10.02348
1078.796	19.04685
1079.149	22.05496
1079.502	10.02379
1079.855	1.00235
1080.207	17.0421
1080.56	-13.03394
1080.912	16.03917
1081.264	13.0315
1081.617	-12.02956
1081.969	-5.01273
1082.321	7.01722
1082.673	-37.08586
1083.025	5.01196
1083.377	-9.01955
1083.728	32.07486
1084.08	17.04266
1084.432	10.02428
1084.783	-8.01894
1085.135	44.11031
1085.486	-4.00924
1085.838	-1.00248
1086.189	-40.09865
1086.54	21.05039
1086.891	20.05081
1087.242	12.0294
1087.593	9.02206
1087.944	4.00913
1088.295	15.03431
1088.646	19.04628
1088.996	-41.10039
1089.347	23.05667
1089.698	-14.03347
1090.048	47.12203
1090.398	17.03965
1090.749	15.0361
1091.099	-23.05854
1091.449	-6.01509
1091.799	41.10273
1092.149	-38.0941
1092.499	13.0319
1092.849	-10.02566
1093.199	44.11031
1093.548	-7.01699
1093.898	-23.05825
1094.248	35.09009
1094.597	-44.11407
1094.947	-5.01345
1095.296	3.00747
1095.645	4.01048
1095.994	4.00968
1096.343	30.0757
1096.692	-4.01059
1097.041	-26.0712
1097.39	24.06043
1097.739	11.02876
1098.088	43.11524
1098.437	-37.09854
1098.785	48.12933
1099.134	12.03204
1099.482	51.14012
1099.83	16.04225
1100.179	-4.01052
1100.527	21.05602
1100.875	-11.02935
1101.223	6.01603
1101.571	35.09686
1101.919	-48.12738
1102.267	34.09587
1102.615	-2.00643
1102.962	2.00645
1103.31	0
1103.658	12.03865
