Data from N2 R9 sample 12_Subt2__4__18-39-37-813.txt Node

Date: Fri Aug 29 18:39:37 PDT 2025
User: uwsun
Spectrometer: HDX01956
Trigger mode: 0
Integration Time (sec): 5.000000E-1
Scans to average: 1
Nonlinearity correction enabled: true
Boxcar width: 0
Storing dark spectrum: false
XAxis mode: Wavelengths
Number of Pixels in Spectrum: 2068
>>>>>Begin Spectral Data<<<<<
194.03	220.59639
194.578	231.70937
195.127	239.72177
195.676	241.72996
196.225	235.59874
196.773	305.79505
197.321	349.88219
197.87	597.31166
198.418	529.16158
198.966	465.04136
199.513	425.91168
200.061	453.98387
200.609	525.19331
201.156	447.82352
201.704	481.02986
202.251	498.1266
202.798	499.10479
203.345	541.12959
203.892	506.08045
204.438	548.09739
204.985	481.95741
205.532	435.99011
206.078	507.05239
206.624	530.09018
207.17	564.08675
207.716	508.0364
208.262	540.87302
208.808	486.0058
209.354	491.00778
209.899	574.22218
210.445	538.11661
210.99	532.06874
211.535	562.10003
212.08	548.06245
212.625	585.22269
213.17	552.17884
213.715	441.82469
214.259	544.0587
214.804	559.16104
215.348	542.03427
215.892	511.03474
216.436	534.03969
216.98	566.03837
217.524	497.9934
218.068	589.2414
218.612	571.20973
219.155	560.09818
219.698	489.99145
220.242	508.08285
220.785	489.97288
221.328	446.96228
221.871	494.07801
222.414	479.02689
222.956	462.95105
223.499	455.87531
224.041	422.85503
224.583	493.90601
225.126	451.84966
225.668	440.92288
226.21	442.96182
226.751	394.74135
227.293	462.90525
227.835	461.96628
228.376	544.05819
228.918	492.06774
229.459	424.91326
230	459.93701
230.541	495.96969
231.082	486.00356
231.622	510.99553
232.163	437.91153
232.704	473.00178
233.244	426.91481
233.784	468.9894
234.324	439.81527
234.864	420.81867
235.404	471.9602
235.944	437.89412
236.484	483.03325
237.023	416.84711
237.563	457.89863
238.102	523.03926
238.641	470.01905
239.18	435.86746
239.719	441.95578
240.258	494.93731
240.797	429.88054
241.335	467.97972
241.874	456.73046
242.412	458.93857
242.95	412.84393
243.488	494.95012
244.026	502.97015
244.564	432.75222
245.102	444.8453
245.64	495.01234
246.177	464.87995
246.715	478.97734
247.252	518.9982
247.789	537.82928
248.326	472.95546
248.863	499.91012
249.4	477.91454
249.936	448.77267
250.473	494.96567
251.009	433.8406
251.546	479.88293
252.082	513.93282
252.618	471.87819
253.154	461.93639
253.69	464.87909
254.226	481.96677
254.761	484.90893
255.297	437.80509
255.832	470.9366
256.367	528.03238
256.903	458.84188
257.438	561.08744
257.972	530.97329
258.507	457.87535
259.042	468.84773
259.576	503.88587
260.111	478.92819
260.645	549.97198
261.179	438.86147
261.713	451.83923
262.247	517.98885
262.781	523.89128
263.315	475.97583
263.849	530.09998
264.382	564.06123
264.915	487.9468
265.449	520.03882
265.982	543.01337
266.515	537.08004
267.048	449.78742
267.58	539.96569
268.113	504.88972
268.646	530.07941
269.178	504.9218
269.71	534.95107
270.243	573.06207
270.775	539.13387
271.307	576.13547
271.838	552.08042
272.37	547.10525
272.902	565.04252
273.433	578.01201
273.965	576.14132
274.496	582.18496
275.027	503.03338
275.558	519.03466
276.089	472.95852
276.62	524.10783
277.15	576.16155
277.681	555.97341
278.211	590.1762
278.741	499.8917
279.272	505.93974
279.802	561.14499
280.332	510.98231
280.861	560.093
281.391	516.94853
281.921	560.09714
282.45	600.21391
282.98	574.22324
283.509	584.04403
284.038	559.02009
284.567	607.13307
285.096	546.06966
285.625	564.02014
286.153	551.03494
286.682	591.06827
287.21	587.12601
287.739	519.99268
288.267	610.16824
288.795	593.26516
289.323	546.0147
289.851	616.13598
290.378	596.04908
290.906	546.05301
291.433	601.19233
291.961	565.00557
292.488	624.22738
293.015	534.99989
293.542	613.22355
294.069	621.19537
294.596	649.26015
295.122	619.15266
295.649	582.00033
296.175	618.17674
296.702	665.25137
297.228	647.22639
297.754	626.07844
298.28	653.12717
298.806	581.09194
299.332	647.07826
299.857	680.15363
300.383	649.28293
300.908	560.05679
301.433	639.18938
301.958	686.20159
302.483	612.17999
303.008	699.3174
303.533	667.34876
304.058	677.21162
304.582	654.16285
305.107	650.30262
305.631	693.18305
306.155	603.06448
306.679	646.12959
307.203	633.10303
307.727	655.16794
308.251	715.31927
308.775	627.11041
309.298	704.23513
309.822	765.42299
310.345	705.22751
310.868	706.23735
311.391	753.35903
311.914	733.34512
312.437	750.23158
312.96	715.21742
313.482	722.23433
314.005	706.30101
314.527	720.39127
315.049	804.46274
315.571	810.22237
316.093	855.47607
316.615	779.31885
317.137	867.25455
317.659	857.44502
318.18	796.34807
318.702	831.31398
319.223	821.10421
319.744	842.25416
320.265	816.34328
320.786	861.42898
321.307	890.48336
321.828	883.29922
322.348	950.43463
322.869	867.32949
323.389	608.63185
323.909	991.41902
324.43	992.53417
324.95	871.26818
325.47	954.48032
325.989	926.36238
326.509	901.19968
327.029	968.29848
327.548	990.30545
328.067	1000.44406
328.587	1019.549
329.106	1009.33381
329.625	1107.78962
330.144	999.33549
330.662	1039.36461
331.181	1082.42489
331.7	1021.36512
332.218	1137.28606
332.736	1139.44715
333.255	1090.37906
333.773	1083.40288
334.291	1141.58655
334.808	1179.31908
335.326	1203.35866
335.844	1145.34146
336.361	1149.52962
336.879	1130.32027
337.396	1259.47578
337.913	1241.34304
338.43	1287.30699
338.947	1343.46114
339.464	1354.19185
339.981	1268.37115
340.497	1300.5039
341.014	1273.42589
341.53	1315.24212
342.046	1313.43459
342.562	1408.54342
343.078	1421.36477
343.594	1393.38336
344.11	1434.37582
344.626	1419.50239
345.141	1428.23007
345.657	1491.25442
346.172	1485.3743
346.687	1525.23539
347.202	1505.15547
347.717	1543.31964
348.232	1510.42973
348.747	1533.18513
349.261	1555.99765
349.776	1575.22279
350.29	1573.30095
350.805	1699.39105
351.319	1717.18293
351.833	1603.04602
352.347	1602.15156
352.861	1724.11531
353.374	1775.11535
353.888	1634.20879
354.401	1739.05072
354.915	1623.92386
355.428	1819.22762
355.941	1855.00694
356.454	1853.95475
356.967	1808.06707
357.48	1855.97595
357.993	1811.15747
358.505	1824.09357
359.018	1934.08621
359.53	1974.99003
360.042	1972.77569
360.554	1963.01694
361.066	1908.99801
361.578	1966.67619
362.09	1928.92024
362.602	1877.67817
363.113	1910.79311
363.625	1942.67926
364.136	2027.59971
364.647	2047.62047
365.158	2094.67472
365.669	2167.73073
366.18	2214.65053
366.691	2068.49556
367.201	2158.66128
367.712	2077.50433
368.222	2159.46945
368.733	2149.27775
369.243	2209.26941
369.753	2297.35906
370.263	2317.41252
370.773	2229.5133
371.282	2383.26856
371.792	2313.05863
372.301	2437.15303
372.811	2507.34372
373.32	2369.74278
373.829	2464.87384
374.338	2698.55606
374.847	2781.50336
375.356	2723.53402
375.865	2862.12105
376.373	3086.05788
376.882	3229.21651
377.39	3215.04412
377.898	3176.9363
378.407	3388.67541
378.915	3498.58887
379.423	3739.55119
379.93	3887.51886
380.438	3989.53265
380.946	4166.64236
381.453	4394.84367
381.96	4357.04752
382.468	4685.90599
382.975	5187.73433
383.482	5415.99987
383.989	5426.59521
384.495	5474.0327
385.002	5630.57554
385.509	6077.39926
386.015	6347.09055
386.521	6736.31005
387.028	7069.57523
387.534	7248.05661
388.04	7596.03668
388.546	7481.01068
389.051	7757.81965
389.557	8459.44499
390.063	9559.21841
390.568	9828.92905
391.073	9875.11932
391.578	10367.63741
392.084	10430.73415
392.589	10144.25708
393.093	10804.00402
393.598	12319.90291
394.103	13575.292
394.607	14932.90212
395.112	16197.00574
395.616	16777.02638
396.12	17526.06354
396.624	19556.44935
397.128	21089.82094
397.632	23748.50186
398.136	25957.2823
398.639	25634.09861
399.143	27500.8639
399.646	27817.9832
400.15	24879.85158
400.653	20124.16724
401.156	13866.23708
401.659	5169.95759
402.162	1054.15589
402.664	0
403.167	0
403.67	0
404.172	0
404.674	0
405.176	0
405.678	0
406.18	0
406.682	0
407.184	0
407.686	0
408.187	0
408.688	0
409.19	0
409.691	0
410.192	0
410.693	0
411.194	435.30976
411.694	4082.94878
412.195	8864.71461
412.696	12089.80453
413.196	12760.96929
413.696	12863.67595
414.196	13703.56671
414.696	17261.84252
415.196	21764.24417
415.696	29583.19008
416.196	36460.31858
416.695	40057.39798
417.195	33771.52553
417.694	31479.07065
418.194	30541.93888
418.693	28068.11719
419.192	26996.50655
419.691	26450.45428
420.19	26274.61646
420.688	25870.6412
421.187	25025.67495
421.685	23942.80418
422.184	22110.53304
422.682	19198.32534
423.18	15603.68463
423.678	13461.17567
424.176	12238.02676
424.674	11614.73614
425.172	11380.20312
425.669	10582.5483
426.167	10009.52292
426.664	9220.2407
427.161	8297.17902
427.659	7651.45911
428.156	7049.33279
428.652	6714.84927
429.149	6345.05628
429.646	6136.15258
430.143	5817.78575
430.639	5559.83362
431.135	5126.54568
431.632	4765.13311
432.128	4409.6658
432.624	4149.52928
433.12	3846.53767
433.616	3826.5284
434.111	3596.54845
434.607	3493.62048
435.103	3480.60195
435.598	3493.61623
436.093	3407.86112
436.588	3071.05693
437.083	2986.20121
437.578	2811.41794
438.073	2644.68114
438.568	2637.84945
439.062	2472.63735
439.557	2455.98884
440.051	2285.98207
440.546	2204.05583
441.04	2112.27645
441.534	2102.50258
442.028	2161.39214
442.522	1980.45783
443.015	1974.27059
443.509	2019.58889
444.002	1973.60809
444.496	1912.37071
444.989	1796.70333
445.482	1810.75322
445.975	1836.48731
446.468	1800.41816
446.961	1727.45043
447.454	1719.60653
447.947	1626.70739
448.439	1680.83475
448.931	1576.63293
449.424	1682.97685
449.916	1574.87717
450.408	1472.68957
450.9	1487.86899
451.392	1481.99161
451.884	1482.81162
452.375	1333.9387
452.867	1401.82328
453.358	1318.77461
453.849	1299.67696
454.341	1267.79341
454.832	1241.71212
455.323	1267.96799
455.814	1290.88588
456.304	1298.90361
456.795	1264.89089
457.285	1273.88609
457.776	1268.95628
458.266	1152.95737
458.756	1228.0474
459.247	1033.92337
459.737	1095.96274
460.226	1088.87082
460.716	1073.9932
461.206	1031.00189
461.695	1056.12363
462.185	1053.00784
462.674	1002.95598
463.163	937.86415
463.653	983.81016
464.142	966.02598
464.63	948.06811
465.119	908.93678
465.608	897.9348
466.096	899.87871
466.585	923.00063
467.073	800.97085
467.561	851.02594
468.05	867.99513
468.538	856.08548
469.026	817.01247
469.513	821.8328
470.001	796.92037
470.489	778.97055
470.976	735.91443
471.463	738.03839
471.951	666.9785
472.438	698.91959
472.925	616.82877
473.412	654.96437
473.899	625.8473
474.385	604.91016
474.872	606.84502
475.359	577.87333
475.845	542.66681
476.331	683.87713
476.817	589.91289
477.303	547.80512
477.789	548.85251
478.275	472.77942
478.761	554.87294
479.247	529.77048
479.732	441.7462
480.218	470.84658
480.703	486.82573
481.188	429.61619
481.673	427.66976
482.158	325.47229
482.643	471.85034
483.128	438.68524
483.612	390.64609
484.097	387.68793
484.581	405.67448
485.066	334.59447
485.55	313.49487
486.034	377.57861
486.518	324.55636
487.002	259.4764
487.486	323.58787
487.969	279.51449
488.453	290.56177
488.936	271.46023
489.42	301.50068
489.903	267.52452
490.386	338.39255
490.869	232.39132
491.352	240.46535
491.835	323.50245
492.318	263.45729
492.8	229.36622
493.283	199.40404
493.765	214.41871
494.247	249.46285
494.73	159.28188
495.212	267.5156
495.694	215.39865
496.175	158.3005
496.657	217.41462
497.139	255.34491
497.62	141.27097
498.102	110.22563
498.583	165.34097
499.064	135.24481
499.545	161.30016
500.026	125.23015
500.507	131.25151
500.988	195.39845
501.469	101.21143
501.949	140.28951
502.43	74.14705
502.91	85.14567
503.39	138.29074
503.87	51.10132
504.35	168.33058
504.83	76.13975
505.31	114.23183
505.79	61.12374
506.269	120.23635
506.749	47.0912
507.228	69.13721
507.707	75.14059
508.187	139.28067
508.666	77.16076
509.145	-5.0101
509.623	57.11451
510.102	16.03365
510.581	95.19685
511.059	21.04552
511.538	79.17664
512.016	85.17408
512.494	93.19391
512.972	57.11737
513.45	45.08903
513.928	60.12524
514.406	25.05176
514.884	45.10049
515.361	36.07485
515.839	52.10213
516.316	46.09598
516.793	70.15422
517.27	61.12894
517.747	6.01352
518.224	29.05872
518.701	39.0756
519.178	-15.03268
519.654	60.1248
520.131	8.01743
520.607	42.0916
521.083	20.04004
521.56	17.0353
522.036	36.06923
522.512	79.1705
522.987	-17.03559
523.463	33.06884
523.939	45.09716
524.414	80.16128
524.89	28.05858
525.365	23.04584
525.84	-5.01046
526.315	11.02341
526.79	32.06353
527.265	31.06228
527.74	-23.05002
528.215	61.12606
528.689	-10.01967
529.164	30.05758
529.638	11.02523
530.112	-26.05466
530.587	-46.08766
531.061	-21.04515
531.534	15.03243
532.008	-16.03433
532.482	-9.01851
532.956	-41.09375
533.429	26.05601
533.903	69.1344
534.376	37.07234
534.849	-6.01246
535.322	22.04623
535.795	-7.01535
536.268	12.02572
536.741	6.01291
537.213	20.04127
537.686	-25.05465
538.158	-35.07028
538.631	-2.00438
539.103	5.00997
539.575	53.09783
540.047	17.03335
540.519	67.142
540.991	94.20318
541.463	53.114
541.934	26.05302
542.406	10.02128
542.877	20.04026
543.348	80.17092
543.82	108.23324
544.291	155.31485
544.762	59.12346
545.233	47.10444
545.703	78.15102
546.174	104.21149
546.645	80.16655
547.115	145.30193
547.585	130.25918
548.056	104.2167
548.526	171.34195
548.996	217.4428
549.466	246.50847
549.935	207.41145
550.405	233.42405
550.875	268.52611
551.344	228.45964
551.814	300.56696
552.283	323.57325
552.752	346.6491
553.221	314.54902
553.69	343.61287
554.159	370.72978
554.628	334.59786
555.096	330.68209
555.565	383.68082
556.033	395.75219
556.502	374.73975
556.97	369.66547
557.438	366.71409
557.906	416.80856
558.374	371.70305
558.842	416.81588
559.31	426.77911
559.777	379.7586
560.245	481.92132
560.712	478.90164
561.18	490.86996
561.647	465.84466
562.114	576.03606
562.581	587.158
563.048	596.09078
563.514	628.21611
563.981	675.20182
564.448	691.19546
564.914	734.31622
565.381	784.35355
565.847	832.46715
566.313	843.47152
566.779	845.41855
567.245	901.55735
567.711	913.61664
568.176	913.48978
568.642	975.79204
569.108	993.77506
569.573	1100.82573
570.038	1056.53394
570.504	1107.70348
570.969	1171.05121
571.434	1161.70675
571.899	1221.96934
572.363	1267.90578
572.828	1310.96803
573.293	1310.9645
573.757	1345.99876
574.222	1361.92331
574.686	1400.96349
575.15	1389.12229
575.614	1433.06226
576.078	1404.09954
576.542	1414.03272
577.006	1374.96811
577.469	1452.32577
577.933	1446.99679
578.396	1397.14339
578.86	1404.1234
579.323	1381.12358
579.786	1292.79563
580.249	1283.91278
580.712	1338.16965
581.175	1242.08511
581.637	1285.96768
582.1	1201.77135
582.563	1184.70957
583.025	1161.95013
583.487	1113.50291
583.95	1043.55189
584.412	1090.57
584.874	1034.80356
585.336	955.65183
585.797	986.51416
586.259	1010.72371
586.721	819.45057
587.182	980.67594
587.643	898.50739
588.105	836.49572
588.566	848.32135
589.027	792.45398
589.488	763.33365
589.949	842.54829
590.41	751.08804
590.87	777.36103
591.331	773.27052
591.791	719.28431
592.252	667.19123
592.712	722.35517
593.172	686.20411
593.632	675.15967
594.092	599.06567
594.552	654.10223
595.011	618.12373
595.471	698.21497
595.931	588.04741
596.39	637.21093
596.849	591.10369
597.308	601.03996
597.768	629.28168
598.227	638.22609
598.685	633.1601
599.144	582.09517
599.603	648.21902
600.062	638.04545
600.52	572.02042
600.978	635.19891
601.437	648.17482
601.895	680.11695
602.353	732.25349
602.811	686.18585
603.269	747.38532
603.727	727.35419
604.184	699.21896
604.642	735.40165
605.099	764.36031
605.557	803.50047
606.014	776.25743
606.471	798.5209
606.928	842.32342
607.385	848.5414
607.842	933.55569
608.299	1065.76014
608.755	963.69658
609.212	963.53492
609.668	907.45356
610.125	1056.8295
610.581	1105.87382
611.037	1050.72426
611.493	961.6816
611.949	999.75469
612.405	961.36809
612.861	1004.7373
613.316	1013.76358
613.772	1007.68136
614.227	1043.77879
614.683	1090.64527
615.138	980.6849
615.593	1013.71544
616.048	1086.78264
616.503	1064.91842
616.958	1072.96434
617.412	1047.80572
617.867	1014.61885
618.321	1084.58263
618.776	992.61332
619.23	1034.78276
619.684	988.65718
620.138	1022.76201
620.592	980.7945
621.046	946.68694
621.5	971.78735
621.954	952.62181
622.407	948.59506
622.861	877.6592
623.314	927.6143
623.768	841.53445
624.221	901.33474
624.674	831.50547
625.127	857.57317
625.58	843.51873
626.033	838.46008
626.485	748.44891
626.938	766.47606
627.39	769.44462
627.843	721.36493
628.295	721.36559
628.747	717.403
629.199	679.27839
629.651	652.23498
630.103	641.23038
630.555	694.2099
631.006	616.22584
631.458	592.19223
631.909	681.31484
632.361	561.12944
632.812	538.07634
633.263	563.04454
633.714	576.06047
634.165	542.14845
634.616	486.02152
635.067	538.04401
635.518	485.0268
635.968	565.98212
636.419	477.92205
636.869	496.04761
637.319	440.91392
637.769	442.88695
638.219	450.97008
638.669	426.91875
639.119	431.95361
639.569	409.89777
640.019	445.93069
640.468	405.82453
640.918	424.93089
641.367	376.77507
641.816	428.86996
642.265	437.918
642.714	365.77961
643.163	364.77326
643.612	344.76385
644.061	378.734
644.51	327.69361
644.958	343.69958
645.406	358.79328
645.855	401.90499
646.303	416.89295
646.751	331.70179
647.199	330.70104
647.647	390.82705
648.095	362.76968
648.543	377.71581
648.99	368.81544
649.438	380.82939
649.885	407.93014
650.333	386.69096
650.78	362.81383
651.227	330.75253
651.674	343.73072
652.121	324.74094
652.568	311.71136
653.015	335.79665
653.461	291.6549
653.908	308.67795
654.354	313.70614
654.801	293.65049
655.247	341.70372
655.693	301.74349
656.139	299.67951
656.585	316.71654
657.031	248.55277
657.477	246.50961
657.922	330.7157
658.368	287.67491
658.813	353.77357
659.259	255.58633
659.704	253.56543
660.149	261.58282
660.594	293.66264
661.039	251.54983
661.484	266.61052
661.929	249.56108
662.373	227.55249
662.818	261.62166
663.262	243.56366
663.707	252.61459
664.151	240.56649
664.595	210.49184
665.039	260.6232
665.483	274.66948
665.927	262.59508
666.371	222.49769
666.814	244.5643
667.258	210.48278
667.701	290.60264
668.145	265.63651
668.588	239.56861
669.031	182.41891
669.474	206.48436
669.917	226.4887
670.36	234.56345
670.803	215.5068
671.245	223.45979
671.688	256.60519
672.13	169.37365
672.573	264.64888
673.015	209.49093
673.457	216.46068
673.899	266.62395
674.341	169.40224
674.783	190.44709
675.225	194.46785
675.666	128.3053
676.108	150.32436
676.549	188.43877
676.991	151.3312
677.432	173.3421
677.873	188.42892
678.314	191.44883
678.755	211.50278
679.196	142.32358
679.637	193.46429
680.078	178.41216
680.518	173.39971
680.959	187.44149
681.399	169.4138
681.839	158.38104
682.28	113.27812
682.72	176.39846
683.16	179.43925
683.6	170.38504
684.039	138.28831
684.479	125.30561
684.919	141.32318
685.358	203.50605
685.798	138.35861
686.237	186.44432
686.676	164.37854
687.115	165.38471
687.554	167.39305
687.993	123.2732
688.432	112.25697
688.871	106.24165
689.309	144.34228
689.748	144.30205
690.186	139.33135
690.625	122.28608
691.063	144.34373
691.501	149.36605
691.939	137.3398
692.377	118.28769
692.815	94.22584
693.253	152.3638
693.69	112.24778
694.128	104.25243
694.565	129.30751
695.003	140.35325
695.44	144.33727
695.877	99.23237
696.314	129.27901
696.751	127.29075
697.188	111.25606
697.625	145.33302
698.061	85.20534
698.498	151.36381
698.934	89.21582
699.371	102.24114
699.807	137.32357
700.243	96.23213
700.679	136.30841
701.115	145.34101
701.551	83.1974
701.987	117.26473
702.422	118.28059
702.858	121.28855
703.294	115.262
703.729	111.27219
704.164	107.25839
704.599	105.23574
705.035	62.14088
705.47	93.22721
705.904	64.15101
706.339	141.32811
706.774	127.29763
707.209	71.16568
707.643	98.23661
708.078	116.28271
708.512	75.18867
708.946	63.15294
709.38	90.21492
709.814	127.2911
710.248	95.23279
710.682	74.17772
711.116	67.16131
711.549	102.26351
711.983	69.16145
712.416	144.33978
712.85	106.26478
713.283	85.20286
713.716	153.38211
714.149	140.33329
714.582	103.23305
715.015	136.3396
715.448	111.28003
715.881	139.30501
716.313	128.30003
716.746	60.14306
717.178	80.19388
717.61	119.3015
718.043	122.30387
718.475	123.29815
718.907	157.3948
719.339	36.08316
719.77	65.15572
720.202	99.25092
720.634	101.24639
721.065	73.17482
721.497	102.25082
721.928	103.25342
722.359	67.16296
722.79	100.24026
723.221	82.20765
723.652	145.37206
724.083	24.05533
724.514	102.23581
724.945	111.26166
725.375	69.16177
725.806	96.24067
726.236	111.28442
726.666	114.27056
727.096	90.22205
727.526	95.24181
727.956	73.16779
728.386	143.35053
728.816	59.15055
729.246	77.1884
729.675	40.09974
730.105	63.15666
730.534	76.17961
730.964	126.31793
731.393	114.28363
731.822	95.24326
732.251	85.21666
732.68	121.28567
733.109	82.20328
733.537	101.24464
733.966	119.29516
734.395	111.25718
734.823	122.2761
735.251	60.14612
735.68	139.34677
736.108	109.27587
736.536	103.24403
736.964	81.18961
737.392	96.24093
737.82	110.26458
738.247	111.26643
738.675	122.29177
739.102	101.25261
739.53	120.30463
739.957	79.20406
740.384	128.31533
740.811	117.29622
741.238	69.16983
741.665	65.15239
742.092	114.27275
742.519	81.20142
742.945	86.20772
743.372	109.26996
743.798	100.25727
744.225	80.19162
744.651	108.27105
745.077	109.27183
745.503	98.23991
745.929	101.24307
746.355	113.2813
746.781	115.28482
747.207	68.16095
747.632	21.05201
748.058	116.28913
748.483	82.1904
748.908	94.23421
749.334	94.23166
749.759	79.18767
750.184	78.18704
750.609	116.28493
751.033	83.19778
751.458	149.33301
751.883	135.33313
752.307	79.18731
752.732	56.141
753.156	118.29091
753.58	127.30123
754.005	102.25912
754.429	108.25424
754.853	71.177
755.277	108.25602
755.7	106.26306
756.124	97.24103
756.548	71.16964
756.971	100.24472
757.394	107.27533
757.818	102.26232
758.241	83.21126
758.664	116.29217
759.087	29.06591
759.51	79.19759
759.933	29.07082
760.356	119.30407
760.778	77.19036
761.201	129.31281
761.623	128.30974
762.046	117.27773
762.468	114.27399
762.89	150.36748
763.312	89.21816
763.734	112.26949
764.156	80.19846
764.578	114.26261
765	82.20104
765.421	82.20868
765.843	101.26449
766.264	120.28951
766.686	69.17439
767.107	68.16598
767.528	50.1272
767.949	87.22168
768.37	51.12641
768.791	70.1706
769.212	53.13409
769.632	46.10846
770.053	71.18757
770.473	89.21711
770.894	122.30442
771.314	125.29786
771.734	78.1829
772.154	103.26411
772.575	93.21641
772.994	62.1422
773.414	101.24289
773.834	67.16842
774.254	70.17232
774.673	92.22456
775.093	45.11239
775.512	63.15615
775.931	89.22581
776.351	75.18691
776.77	50.12327
777.189	23.05554
777.607	70.1794
778.026	68.17017
778.445	11.02791
778.864	97.24855
779.282	70.16933
779.701	62.15711
780.119	38.09688
780.537	14.03541
780.955	113.2864
781.373	57.1419
781.791	37.08423
782.209	55.12799
782.627	50.13243
783.045	76.17563
783.462	43.11069
783.88	33.0861
784.297	46.11657
784.715	48.12396
785.132	37.0905
785.549	69.17314
785.966	57.14411
786.383	22.05478
786.8	56.13111
787.217	18.04328
787.633	-13.03301
788.05	88.20942
788.466	47.11191
788.883	34.08741
789.299	34.08274
789.715	31.07616
790.131	62.15482
790.547	81.20245
790.963	43.10755
791.379	51.12963
791.795	32.07395
792.21	38.08977
792.626	31.07438
793.041	20.04994
793.457	58.14404
793.872	-2.00479
794.287	-24.05845
794.702	54.13382
795.117	-3.00757
795.532	8.0203
795.947	66.15953
796.362	61.14647
796.776	90.21096
797.191	24.05939
797.605	-35.08404
798.02	-6.01484
798.434	18.0407
798.848	5.01248
799.262	21.05264
799.676	51.1252
800.09	41.10162
800.504	42.10271
800.918	10.02351
801.331	52.13689
801.745	42.09733
802.158	14.0354
802.572	23.05642
802.985	30.07325
803.398	29.06987
803.811	35.09066
804.224	19.04781
804.637	-5.01211
805.05	15.03525
805.462	48.11864
805.875	1.00262
806.288	-7.01715
806.7	25.06341
807.112	25.05864
807.525	27.06726
807.937	-13.03266
808.349	39.09836
808.761	18.04477
809.173	-4.00984
809.584	31.07728
809.996	-33.08242
810.408	-26.06821
810.819	13.03097
811.231	51.13219
811.642	39.09361
812.053	101.23901
812.464	188.43738
812.875	150.37807
813.286	57.14708
813.697	81.18946
814.108	73.17848
814.519	14.03165
814.929	87.22136
815.34	32.07825
815.75	-18.04645
816.16	49.12269
816.571	13.0341
816.981	43.10223
817.391	28.06822
817.801	-19.04797
818.211	-11.02666
818.62	-11.0269
819.03	61.14986
819.44	38.0998
819.849	-1.00255
820.259	57.14626
820.668	-40.10039
821.077	22.05512
821.486	18.04382
821.895	74.18284
822.304	51.1355
822.713	32.07627
823.122	33.08293
823.531	23.05506
823.939	12.02956
824.348	51.12451
824.756	51.1282
825.164	45.11377
825.573	18.04558
825.981	39.0973
826.389	64.16097
826.797	19.04802
827.205	4.00931
827.612	33.082
828.02	-3.00715
828.428	6.01545
828.835	46.12146
829.243	36.08639
829.65	8.02011
830.057	23.05632
830.464	-23.05701
830.871	47.11307
831.278	-1.00245
831.685	26.0586
832.092	39.09603
832.499	18.03984
832.905	9.02302
833.312	47.10777
833.718	25.06278
834.124	37.08515
834.531	6.01529
834.937	40.10312
835.343	25.06083
835.749	69.16126
836.155	24.06327
836.561	8.01989
836.966	30.07388
837.372	38.09718
837.777	-1.00252
838.183	-19.04304
838.588	5.01255
838.993	56.13664
839.399	7.0173
839.804	5.01232
840.209	11.02826
840.613	-17.0385
841.018	30.07643
841.423	22.05684
841.828	34.08643
842.232	13.03252
842.637	40.09486
843.041	5.01294
843.445	29.07319
843.849	-8.02006
844.253	35.08369
844.657	2.00509
845.061	-2.0046
845.465	10.0244
845.869	39.09111
846.272	12.0295
846.676	32.07787
847.079	23.05887
847.483	47.1176
847.886	49.11958
848.289	24.06441
848.692	-4.01025
849.095	56.1347
849.498	55.1396
849.901	8.01856
850.304	29.06977
850.707	44.11253
851.109	68.17189
851.512	23.05692
851.914	-27.06909
852.316	33.08388
852.718	-35.09181
853.121	-7.01737
853.523	12.02833
853.925	-5.01318
854.326	-6.01518
854.728	26.06724
855.13	-5.01304
855.531	-26.06315
855.933	39.09404
856.334	-42.10662
856.736	-28.06388
857.137	8.0188
857.538	9.02283
857.939	-19.04761
858.34	32.0784
858.741	29.07618
859.142	-21.05123
859.542	17.04515
859.943	-15.03777
860.343	-18.04519
860.744	27.06628
861.144	30.07358
861.544	-6.0146
861.945	38.09718
862.345	3.00741
862.745	-22.05547
863.145	30.07213
863.544	-1.00255
863.944	-26.06244
864.344	40.0997
864.743	52.12919
865.143	34.08769
865.542	-3.00704
865.941	17.0424
866.34	53.12712
866.74	35.09426
867.139	37.08895
867.537	28.07171
867.936	-4.00974
868.335	33.08432
868.734	7.01804
869.132	30.0701
869.531	0
869.929	12.02761
870.327	-15.03646
870.726	47.11743
871.124	6.01417
871.522	-12.03094
871.92	39.09652
872.318	16.03942
872.715	35.087
873.113	25.06128
873.511	35.08754
873.908	-30.07689
874.306	-10.02517
874.703	62.15499
875.1	68.1736
875.497	1.00242
875.894	-32.07968
876.291	17.04203
876.688	-12.03131
877.085	59.14151
877.482	52.13027
877.878	-3.0073
878.275	2.00513
878.671	67.14894
879.068	70.16856
879.464	33.08011
879.86	-24.05764
880.256	21.05216
880.652	-6.01543
881.048	33.08212
881.444	3.00721
881.84	45.11458
882.236	18.04557
882.631	-18.04478
883.027	57.13801
883.422	12.03092
883.817	-18.04582
884.213	5.01294
884.608	-22.05472
885.003	37.08952
885.398	-18.04565
885.793	14.0354
886.188	0
886.582	34.08753
886.977	47.11174
887.371	20.0509
887.766	-13.03273
888.16	23.05773
888.554	29.07206
888.949	-3.00761
889.343	28.06875
889.737	-11.02962
890.131	-6.01522
890.525	13.03349
890.918	-6.01526
891.312	31.07452
891.706	35.09212
892.099	-10.02574
892.492	11.02396
892.886	5.01235
893.279	4.01028
893.672	-25.06453
894.065	-5.01265
894.458	27.06824
894.851	39.09585
895.244	7.01802
895.637	-3.0073
896.029	23.05657
896.422	22.05408
896.814	11.02756
897.206	-25.06044
897.599	80.19694
897.991	-11.02692
898.383	-10.02393
898.775	-14.03204
899.167	-7.01652
899.559	46.11661
899.951	29.06871
900.342	34.08677
900.734	-69.17501
901.125	53.13908
901.517	27.0666
901.908	66.15791
902.299	-3.00741
902.69	13.03092
903.082	8.01954
903.473	-23.05588
903.863	13.0334
904.254	-32.07554
904.645	-7.0176
905.036	-26.06389
905.426	40.09185
905.817	-16.03977
906.207	-38.09213
906.597	18.04239
906.987	64.16557
907.378	18.04581
907.768	17.04521
908.158	17.04173
908.547	-8.02088
908.937	3.00777
909.327	-9.02211
909.717	82.20713
910.106	-30.0732
910.495	54.13479
910.885	32.08135
911.274	32.08028
911.663	18.04597
912.052	40.09894
912.441	-11.02829
912.83	17.03931
913.219	34.08926
913.608	26.06401
913.997	-8.02027
914.385	39.09343
914.774	-14.03452
915.162	15.036
915.55	-1.00244
915.939	-15.03832
916.327	63.15695
916.715	11.02824
917.103	26.06431
917.491	52.12867
917.878	17.04207
918.266	2.00523
918.654	38.09732
919.041	-31.08206
919.429	-20.04787
919.816	6.01533
920.203	9.022
920.591	5.01251
920.978	39.09574
921.365	5.01322
921.752	17.04081
922.139	29.06329
922.525	-21.05113
922.912	3.00738
923.299	-10.02513
923.685	8.02102
924.072	56.12905
924.458	-1.0025
924.844	0
925.231	0
925.617	-16.04118
926.003	39.0999
926.389	5.01272
926.774	-6.01536
927.16	30.0748
927.546	8.02057
927.931	34.08512
928.317	14.0325
928.702	26.06183
929.088	1.00239
929.473	16.04096
929.858	-25.06131
930.243	9.02178
930.628	16.03918
931.013	6.01499
931.398	67.15363
931.783	45.1186
932.167	14.03446
932.552	47.11785
932.937	42.10442
933.321	-17.04318
933.705	48.12107
934.09	75.18874
934.474	16.03827
934.858	2.00523
935.242	1.00234
935.626	-9.02328
936.009	-5.01342
936.393	10.02563
936.777	40.10262
937.16	17.04449
937.544	35.08273
937.927	-34.08756
938.311	26.06377
938.694	29.07697
939.077	-25.06071
939.46	34.08376
939.843	58.12085
940.226	10.02583
940.609	-1.00232
940.991	25.06393
941.374	2.00493
941.757	18.04469
942.139	22.04971
942.522	77.18109
942.904	46.11069
943.286	26.06635
943.668	25.06505
944.05	42.10362
944.432	17.04221
944.814	66.16212
945.196	-28.06923
945.578	13.03112
945.959	12.02834
946.341	75.1833
946.722	42.09876
947.104	15.0361
947.485	11.0258
947.866	-13.03312
948.247	3.00763
948.628	59.14371
949.009	46.11789
949.39	9.02258
949.771	30.07007
950.152	23.05674
950.532	-22.05484
950.913	19.04611
951.293	16.04346
951.674	46.11136
952.054	6.01499
952.434	23.05738
952.814	28.06691
953.194	77.20061
953.574	49.12074
953.954	-4.0096
954.334	17.04263
954.714	-15.037
955.093	16.03959
955.473	4.01009
955.853	1.00261
956.232	30.08249
956.611	24.05786
956.99	38.09571
957.37	10.02566
957.749	3.00722
958.128	-14.03568
958.506	5.01307
958.885	-20.05111
959.264	-12.02975
959.643	39.08896
960.021	40.0993
960.4	17.03879
960.778	28.06926
961.156	-30.07629
961.535	-27.06389
961.913	10.02359
962.291	8.02068
962.669	-1.00256
963.047	33.08447
963.424	-11.02837
963.802	9.0223
964.18	16.04073
964.557	28.06478
964.935	16.03816
965.312	8.02098
965.69	19.04785
966.067	-5.0123
966.444	4.00994
966.821	44.11355
967.198	-22.0541
967.575	33.0814
967.952	34.08038
968.329	-11.02707
968.705	-26.05668
969.082	17.04385
969.458	-64.15685
969.835	20.04896
970.211	7.0181
970.587	41.10225
970.963	59.15113
971.339	4.01053
971.715	3.00755
972.091	40.09869
972.467	25.06264
972.843	17.04244
973.219	54.12959
973.594	11.02896
973.97	29.06932
974.345	-13.03149
974.721	21.05113
975.096	-13.03183
975.471	26.06197
975.846	22.05314
976.221	-27.0695
976.596	-24.05834
976.971	29.07188
977.346	13.03049
977.72	-11.02832
978.095	26.06747
978.469	23.05519
978.844	48.12073
979.218	-59.14436
979.593	36.08649
979.967	-16.03946
980.341	-1.00233
980.715	24.06075
981.089	15.03779
981.463	-34.07939
981.837	-21.05199
982.21	39.09097
982.584	26.06308
982.957	-1.00252
983.331	11.0262
983.704	-8.01987
984.078	-46.11537
984.451	64.15947
984.824	-37.09157
985.197	19.04642
985.57	6.01517
985.943	24.05956
986.316	25.06171
986.688	3.0073
987.061	2.00473
987.434	-10.02633
987.806	3.00734
988.179	22.05219
988.551	14.03574
988.923	55.13532
989.295	16.04023
989.667	-17.04113
990.039	-24.0601
990.411	20.04631
990.783	25.05785
991.155	-11.02673
991.527	69.16933
991.898	-36.0911
992.27	-16.04005
992.641	9.02275
993.012	15.03554
993.384	-12.02896
993.755	6.01541
994.126	-4.00972
994.497	-26.06471
994.868	-1.00232
995.239	9.02198
995.61	-39.09969
995.98	2.0049
996.351	9.02245
996.722	-26.06121
997.092	-31.07455
997.462	-16.03786
997.833	3.00718
998.203	56.13562
998.573	-9.02265
998.943	21.04952
999.313	-7.01696
999.683	-3.00727
1000.053	52.1196
1000.423	44.10704
1000.792	19.0495
1001.162	5.01241
1001.531	27.06685
1001.901	26.06509
1002.27	-4.00904
1002.639	22.05648
1003.009	35.08347
1003.378	10.02575
1003.747	3.00715
1004.116	11.02651
1004.485	-56.13653
1004.853	50.12666
1005.222	-20.05106
1005.591	23.05489
1005.959	-26.05949
1006.328	-32.07322
1006.696	-8.01951
1007.064	46.11578
1007.433	17.04273
1007.801	14.03459
1008.169	35.08861
1008.537	65.14347
1008.905	8.01879
1009.273	58.14304
1009.64	-36.08728
1010.008	-26.06287
1010.375	88.21215
1010.743	35.08106
1011.11	13.03098
1011.478	36.08931
1011.845	6.01423
1012.212	-28.06437
1012.579	10.02473
1012.946	9.02159
1013.313	46.10955
1013.68	20.04523
1014.047	-30.07257
1014.414	3.00715
1014.78	-1.00251
1015.147	-2.00488
1015.513	13.03154
1015.88	8.0206
1016.246	44.10872
1016.612	54.1235
1016.978	-4.0099
1017.344	-21.05256
1017.71	39.09528
1018.076	29.06865
1018.442	-15.03901
1018.808	34.08521
1019.174	-23.05844
1019.539	73.16726
1019.905	-6.0143
1020.27	-18.04496
1020.636	18.04341
1021.001	23.05533
1021.366	-26.06332
1021.731	49.126
1022.096	-31.0793
1022.461	16.03811
1022.826	-9.02163
1023.191	38.09987
1023.556	10.02361
1023.92	-4.00993
1024.285	17.04173
1024.649	6.01482
1025.014	35.08691
1025.378	-10.0254
1025.742	13.03249
1026.107	16.03643
1026.471	26.06097
1026.835	48.11899
1027.199	13.0315
1027.562	8.01874
1027.926	6.01479
1028.29	-3.00766
1028.654	17.03936
1029.017	19.04695
1029.381	-56.13643
1029.744	4.01028
1030.107	47.11122
1030.471	18.04335
1030.834	-5.0115
1031.197	5.01214
1031.56	-13.03104
1031.923	4.01042
1032.286	0
1032.648	24.05766
1033.011	-9.02089
1033.374	3.00711
1033.736	-51.13631
1034.099	-3.00738
1034.461	-1.00255
1034.823	5.01255
1035.185	-1.00254
1035.548	-34.08401
1035.91	-18.04366
1036.272	13.0298
1036.634	36.08826
1036.995	4.00948
1037.357	-13.03199
1037.719	31.07562
1038.08	27.06436
1038.442	-8.01919
1038.803	10.02418
1039.165	-26.06647
1039.526	28.06791
1039.887	-19.04604
1040.248	-35.08754
1040.609	36.08915
1040.97	18.04423
1041.331	3.00765
1041.692	-25.05918
1042.053	43.09801
1042.413	40.09336
1042.774	18.04402
1043.134	32.07642
1043.495	38.09568
1043.855	26.06332
1044.215	11.02748
1044.576	-4.00966
1044.936	-11.02552
1045.296	48.11977
1045.656	12.02964
1046.016	-5.01219
1046.375	-10.02452
1046.735	-17.03904
1047.095	-25.05935
1047.454	49.1038
1047.814	-1.00243
1048.173	26.06237
1048.533	-19.04411
1048.892	-19.04618
1049.251	8.02022
1049.61	22.05442
1049.969	-23.05495
1050.328	-50.11066
1050.687	18.04403
1051.046	49.11927
1051.405	4.01003
1051.763	-3.00697
1052.122	-4.01007
1052.48	7.01729
1052.839	-18.04288
1053.197	13.0308
1053.555	33.07546
1053.914	34.08336
1054.272	27.06552
1054.63	-18.04454
1054.988	-17.04088
1055.345	-16.03492
1055.703	22.0532
1056.061	31.07996
1056.419	-26.06815
1056.776	21.05117
1057.134	19.04423
1057.491	11.02772
1057.848	34.08484
1058.206	-2.00475
1058.563	38.08393
1058.92	6.01394
1059.277	19.04711
1059.634	5.01186
1059.991	11.02653
1060.348	0
1060.704	-13.03133
1061.061	58.13446
1061.418	4.00978
1061.774	28.06936
1062.131	-9.02402
1062.487	-1.00236
1062.843	31.07751
1063.199	-6.01506
1063.555	2.00468
1063.911	27.06843
1064.267	35.0732
1064.623	9.02201
1064.979	54.12776
1065.335	60.14306
1065.691	40.09599
1066.046	-29.06479
1066.402	-20.04605
1066.757	42.10609
1067.112	-15.03723
1067.468	-15.03584
1067.823	19.04592
1068.178	37.08965
1068.533	-9.02205
1068.888	37.08857
1069.243	-13.03243
1069.598	0
1069.952	-59.13572
1070.307	11.0274
1070.662	1.00239
1071.016	-18.04087
1071.371	17.0389
1071.725	9.02168
1072.079	27.06518
1072.434	2.0049
1072.788	16.03832
1073.142	44.10828
1073.496	-19.04564
1073.85	19.0443
1074.203	-2.0049
1074.557	6.01606
1074.911	22.05276
1075.265	16.03742
1075.618	28.0686
1075.971	14.03351
1076.325	-15.03853
1076.678	0
1077.031	-13.02977
1077.385	9.01998
1077.738	0
1078.091	-18.04147
1078.444	24.05597
1078.796	-20.04967
1079.149	36.0897
1079.502	-42.10091
1079.855	31.07251
1080.207	64.15715
1080.56	-15.03917
1080.912	1.00245
1081.264	-15.03654
1081.617	16.03921
1081.969	-26.06642
1082.321	-7.01726
1082.673	-25.05788
1083.025	-46.11106
1083.377	24.05177
1083.728	-6.01414
1084.08	6.01509
1084.432	-2.00487
1084.783	15.03536
1085.135	14.03529
1085.486	-31.07202
1085.838	-2.00497
1086.189	19.04635
1086.54	19.04561
1086.891	16.04068
1087.242	1.00245
1087.593	34.08296
1087.944	-14.03207
1088.295	0
1088.646	3.00733
1088.996	-25.06103
1089.347	20.04931
1089.698	-38.09126
1090.048	18.04697
1090.398	41.09518
1090.749	2.00483
1091.099	-20.05088
1091.449	30.07494
1091.799	23.05782
1092.149	-22.05432
1092.499	-11.02711
1092.849	-17.04368
1093.199	27.0679
1093.548	31.07469
1093.898	8.02015
1094.248	25.06446
1094.597	-44.11407
1094.947	27.07224
1095.296	-3.00747
1095.645	27.07044
1095.994	70.16735
1096.343	-7.01778
1096.692	-5.01324
1097.041	-13.03552
1097.39	19.04788
1097.739	-5.01311
1098.088	15.04038
1098.437	-22.05844
1098.785	21.05683
1099.134	19.05067
1099.482	47.12921
1099.83	32.08427
1100.179	10.02624
1100.527	50.13274
1100.875	-6.016
1101.223	20.05332
1101.571	20.05548
1101.919	-26.06875
1102.267	4.01133
1102.615	3.00965
1102.962	20.06432
1103.31	7.02249
1103.658	24.07718
