Data from N2 R9 sample 7_Subt2__2__18-46-26-804.txt Node

Date: Fri Aug 29 18:46:26 PDT 2025
User: uwsun
Spectrometer: HDX01956
Trigger mode: 0
Integration Time (sec): 5.000000E-1
Scans to average: 1
Nonlinearity correction enabled: true
Boxcar width: 0
Storing dark spectrum: false
XAxis mode: Wavelengths
Number of Pixels in Spectrum: 2068
>>>>>Begin Spectral Data<<<<<
194.03	237.6407
194.578	195.60165
195.127	215.65141
195.676	193.58836
196.225	227.57918
196.773	272.71305
197.321	387.97158
197.87	569.2574
198.418	514.13214
198.966	485.08177
199.513	451.96202
200.061	441.96026
200.609	504.15036
201.156	456.8382
201.704	469.00671
202.251	485.10003
202.798	500.10678
203.345	478.01173
203.892	515.09756
204.438	514.03726
204.985	466.93079
205.532	492.10487
206.078	547.12547
206.624	489.01496
207.17	531.03114
207.716	495.0128
208.262	558.89757
208.808	413.87027
209.354	504.03148
209.899	572.21845
210.445	501.04825
210.99	538.07932
211.535	514.0173
212.08	471.9314
212.625	535.13038
213.17	535.14667
213.715	475.88082
214.259	517.0125
214.804	543.13177
215.348	519.99748
215.892	537.08103
216.436	561.08537
216.98	512.95348
217.524	460.92733
218.068	550.16898
218.612	501.07738
219.155	489.9765
219.698	453.92602
220.242	510.08665
220.785	479.9552
221.328	468.00305
221.871	522.13248
222.414	512.08997
222.956	460.94736
223.499	414.80429
224.041	455.91493
224.583	491.90278
225.126	441.83286
225.668	461.96244
226.21	439.9559
226.751	375.70889
227.293	450.88424
227.835	476.99441
228.376	478.9459
228.918	481.04627
229.459	474.00806
230	409.84442
230.541	462.9121
231.082	418.8779
231.622	471.9279
232.163	458.95088
232.704	455.96928
233.244	387.83805
233.784	477.00454
234.324	384.72288
234.864	440.85358
235.404	460.94012
235.944	476.96532
236.484	536.13373
237.023	456.92011
237.563	463.90914
238.102	484.97212
238.641	512.10037
239.18	419.83866
239.719	482.03356
240.258	461.88173
240.797	452.92293
241.335	451.9495
241.874	483.76779
242.412	447.91831
242.95	406.83277
243.488	491.94503
244.026	483.93768
244.564	450.77985
245.102	462.87573
245.64	505.0305
246.177	485.91507
246.715	511.03521
247.252	447.87606
247.789	499.77916
248.326	455.92463
248.863	459.84563
249.4	566.0603
249.936	502.85339
250.473	499.97429
251.009	445.86143
251.546	470.86829
252.082	475.87204
252.618	458.8567
253.154	480.97076
253.69	519.97011
254.226	480.96498
254.761	481.90396
255.297	500.90664
255.832	473.94192
256.367	504.99269
256.903	504.91575
257.438	525.02626
257.972	463.86456
258.507	444.85312
259.042	491.88419
259.576	487.86127
260.111	483.93678
260.645	516.92138
261.179	489.95023
261.713	482.89002
262.247	525.00055
262.781	489.84094
263.315	495.01051
263.849	520.08159
264.382	528.00213
264.915	508.98269
265.449	470.95141
265.982	533.99875
266.515	550.10293
267.048	550.93909
267.58	514.92681
268.113	494.87433
268.646	549.11335
269.178	474.87349
269.71	506.90771
270.243	531.99599
270.775	541.13758
271.307	552.09419
271.838	597.15625
272.37	499.01916
272.902	536.99769
273.433	538.95324
273.965	535.07008
274.496	553.13323
275.027	551.11996
275.558	542.07484
276.089	470.95489
276.62	526.11158
277.15	515.05285
277.681	561.98239
278.211	561.12581
278.741	514.91496
279.272	472.88552
279.802	537.10188
280.332	546.04091
280.861	635.21767
281.391	525.96289
281.921	544.06976
282.45	535.09826
282.98	545.16864
283.509	538.97457
284.038	564.02794
284.567	587.10108
285.096	573.11551
285.625	541.98575
286.153	507.96409
286.682	551.00597
287.21	561.08278
287.739	589.10592
288.267	553.07344
288.795	594.26702
289.323	546.0147
289.851	646.18249
290.378	585.03264
290.906	510.99364
291.433	537.08103
291.961	576.02227
292.488	582.15592
293.015	549.02256
293.542	582.16991
294.069	609.1756
294.596	654.26836
295.122	627.16527
295.649	601.02783
296.175	650.22819
296.702	662.24663
297.228	654.23757
297.754	606.04947
298.28	637.10416
298.806	602.12566
299.332	612.02959
299.857	667.1355
300.383	606.20983
300.908	601.12295
301.433	574.08538
301.958	694.21309
302.483	633.21441
303.008	681.28907
303.533	671.35562
304.058	694.23668
304.582	573.03989
305.107	634.27519
305.631	690.17886
306.155	677.17243
306.679	701.2083
307.203	655.13484
307.727	682.20773
308.251	671.25154
308.775	569.02265
309.298	677.19605
309.822	707.33381
310.345	814.37715
310.868	699.2273
311.391	741.34141
311.914	705.30273
312.437	710.17868
312.96	669.15302
313.482	713.22185
314.005	715.31466
314.527	776.47961
315.049	792.44523
315.571	712.10553
316.093	770.35899
316.615	798.34417
317.137	812.19467
317.659	888.48488
318.18	803.35739
318.702	838.32243
319.223	825.10816
319.744	879.29488
320.265	800.3227
320.786	779.3217
321.307	853.43592
321.828	947.36668
322.348	883.35972
322.869	879.34321
323.389	881.81703
323.909	895.31937
324.43	994.53638
324.95	862.2585
325.47	868.38019
325.989	913.3485
326.509	888.18737
327.029	934.26665
327.548	974.29108
328.067	961.40422
328.587	1002.53071
329.106	1008.33292
329.625	1063.73942
330.144	993.33005
330.662	1027.35416
331.181	1011.36239
331.7	1057.39683
332.218	1058.23159
332.736	1120.43209
333.255	1067.36044
333.773	1141.44971
334.291	1123.57031
334.808	1135.29058
335.326	1235.37846
335.844	1207.38288
336.361	1226.59165
336.879	1168.34613
337.396	1179.42153
337.913	1266.35716
338.43	1236.28067
338.947	1293.43324
339.464	1256.15367
339.981	1261.36719
340.497	1317.51428
341.014	1308.44626
341.53	1300.23566
342.046	1351.45515
342.562	1407.5429
343.078	1359.33865
343.594	1447.40596
344.11	1370.34917
344.626	1419.50239
345.141	1434.23194
345.657	1468.24794
346.172	1414.34796
346.687	1413.20478
347.202	1465.14661
347.717	1508.30988
348.232	1489.42211
348.747	1485.17463
349.261	1506.99252
349.776	1645.23466
350.29	1514.28602
350.805	1607.3714
351.319	1663.17795
351.833	1556.04142
352.347	1615.15329
352.861	1695.11386
353.374	1678.11151
353.888	1705.21738
354.401	1647.0479
354.915	1675.92375
355.428	1661.21499
355.941	1745.01194
356.454	1825.95719
356.967	1774.06765
357.48	1808.97948
357.993	1798.1573
358.505	1756.09394
359.018	1891.08933
359.53	1932.99536
360.042	1903.7891
360.554	1897.02392
361.066	1895.99933
361.578	1930.68459
362.09	1844.9304
362.602	1964.65839
363.113	1932.78904
363.625	1981.6699
364.136	2078.58461
364.647	1936.64966
365.158	2121.66688
365.669	2069.75738
366.18	2037.70245
366.691	2101.4845
367.201	1998.70548
367.712	2150.47934
368.222	2057.50434
368.733	2089.30158
369.243	2191.27693
369.753	2307.35487
370.263	2331.40674
370.773	2230.51293
371.282	2335.29001
371.792	2301.06439
372.301	2415.16359
372.811	2559.31942
373.32	2417.71686
373.829	2443.88488
374.338	2699.55549
374.847	2695.55212
375.356	2715.53855
375.865	2848.1287
376.373	3144.02777
376.882	3070.3036
377.39	3149.07829
377.898	3070.98936
378.407	3385.67647
378.915	3560.57383
379.423	3626.5733
379.93	3878.51886
380.438	3856.52335
380.946	4146.6353
381.453	4221.74629
381.96	4369.05711
382.468	4557.73359
382.975	5099.56871
383.482	5276.66236
383.989	5301.31046
384.495	5455.98062
385.002	5641.61698
385.509	5789.20418
386.015	6400.38752
386.521	6661.86246
387.028	6892.3669
387.534	7210.77499
388.04	7270.52698
388.546	7221.83795
389.051	7527.65926
389.557	8423.05279
390.063	9513.66997
390.568	9699.29728
391.073	9719.08083
391.578	10184.15903
392.084	10531.13553
392.589	10507.41571
393.093	11243.38698
393.598	12198.15858
394.103	13639.14822
394.607	15128.19444
395.112	16228.32982
395.616	17262.49107
396.12	18536.2235
396.624	20457.1044
397.128	22182.13742
397.632	25205.72344
398.136	26882.65707
398.639	27236.59862
399.143	29226.36003
399.646	28030.15855
400.15	25070.49485
400.653	20124.16724
401.156	13866.23708
401.659	5169.95759
402.162	1054.15589
402.664	0
403.167	0
403.67	0
404.172	0
404.674	0
405.176	0
405.678	0
406.18	0
406.682	0
407.184	0
407.686	0
408.187	0
408.688	0
409.19	0
409.691	0
410.192	0
410.693	0
411.194	435.30976
411.694	4082.94878
412.195	8864.71461
412.696	12089.80453
413.196	12760.96929
413.696	12863.67595
414.196	13703.56671
414.696	17261.84252
415.196	21764.24417
415.696	29583.19008
416.196	36460.31858
416.695	39616.97385
417.195	32525.99528
417.694	30523.29588
418.194	28839.27116
418.693	26592.15243
419.192	25925.77849
419.691	25181.25007
420.19	24714.36547
420.688	24449.29407
421.187	23702.56093
421.685	22176.6151
422.184	20441.38952
422.682	18028.55183
423.18	14928.35358
423.678	13313.02125
424.176	12295.85643
424.674	11450.45925
425.172	11219.0623
425.669	10582.5483
426.167	9770.9047
426.664	8999.11743
427.161	8152.03163
427.659	7553.84106
428.156	7021.17357
428.652	6425.66557
429.149	6141.32728
429.646	5952.55106
430.143	5730.57298
430.639	5329.39268
431.135	5088.49746
431.632	4769.1369
432.128	4462.68998
432.624	4073.52238
433.12	3757.53263
433.616	3807.52768
434.111	3597.54827
434.607	3430.63979
435.103	3351.64071
435.598	3388.64881
436.093	3276.92144
436.588	3195.99268
437.083	2910.24329
437.578	2757.44861
438.073	2504.75833
438.568	2543.9
439.062	2470.63846
439.557	2435.99902
440.051	2311.96921
440.546	2177.06834
441.04	2087.28633
441.534	2118.49715
442.028	2104.41329
442.522	1996.45273
443.015	1956.27719
443.509	1925.61402
444.002	1884.63007
444.496	1808.40229
444.989	1874.68891
445.482	1800.75473
445.975	1681.52265
446.468	1761.42857
446.961	1692.45852
447.454	1610.62259
447.947	1604.70923
448.439	1523.83728
448.931	1503.63887
449.424	1562.97233
449.916	1576.8772
450.408	1505.68862
450.9	1480.86851
451.392	1407.97985
451.884	1422.80826
452.375	1342.94059
452.867	1314.81264
453.358	1320.77485
453.849	1319.67833
454.341	1245.7895
454.832	1263.71496
455.323	1144.92761
455.814	1238.87389
456.304	1235.88854
456.795	1178.86802
457.285	1271.88564
457.776	1279.9593
458.266	1152.95737
458.756	1175.0264
459.247	1085.9476
459.737	1060.94659
460.226	1124.88411
460.716	1035.97374
461.206	1016.99402
461.695	936.04243
462.185	991.97381
462.674	1024.96791
463.163	1011.90259
463.653	977.8075
464.142	947.01322
464.63	875.01265
465.119	897.92949
465.608	865.9129
466.096	896.87688
466.585	863.95787
467.073	834.99999
467.561	796.97918
468.05	854.9849
468.538	877.10421
469.026	788.98723
469.513	733.77023
470.001	728.86281
470.489	732.92772
470.976	715.89573
471.463	754.05561
471.951	770.09463
472.438	675.89607
472.925	573.78177
473.412	672.98551
473.899	632.85485
474.385	590.89277
474.872	574.80854
475.359	580.87709
475.845	573.69727
476.331	557.74602
476.817	541.85022
477.303	541.79774
477.789	509.80081
478.275	499.81786
478.761	470.75848
479.247	503.73847
479.732	416.70866
480.218	472.84975
480.703	446.76594
481.188	437.62612
481.673	436.6821
482.158	364.5226
482.643	408.74844
483.128	355.56876
483.612	336.56493
484.097	431.75743
484.581	337.57172
485.066	333.59284
485.55	310.49055
486.034	284.44784
486.518	295.51049
487.002	308.55957
487.486	293.53732
487.969	296.54351
488.453	286.55455
488.936	280.47435
489.42	229.38847
489.903	266.52267
490.386	313.36689
490.869	224.37865
491.352	273.52517
491.835	248.39423
492.318	177.31477
492.8	233.37219
493.283	174.3553
493.765	168.33229
494.247	203.38166
494.73	212.37066
495.212	208.40736
495.694	98.18702
496.175	82.15884
496.657	193.37091
497.139	150.20991
497.62	102.19787
498.102	131.26743
498.583	165.34097
499.064	105.19187
499.545	129.24241
500.026	92.17079
500.507	117.22539
500.988	126.26149
501.469	120.25015
501.949	153.31547
502.43	80.15875
502.91	90.15403
503.39	128.27027
503.87	65.12872
504.35	104.20773
504.83	102.18634
505.31	8.01666
505.79	85.17147
506.269	53.10603
506.749	-24.04736
507.228	44.08801
507.707	86.16077
508.187	122.2473
508.666	18.03807
509.145	10.02013
509.623	16.03245
510.102	45.09404
510.581	46.09636
511.059	1.00218
511.538	54.12136
512.016	95.19412
512.494	50.10525
512.972	-11.023
513.45	-52.10522
513.928	32.06721
514.406	-30.06287
514.884	7.01575
515.361	-1.0021
515.839	25.04941
516.316	33.06905
516.793	14.03121
517.27	17.03628
517.747	-12.02715
518.224	36.07277
518.701	-17.0334
519.178	-22.048
519.654	-5.01055
520.131	-18.03942
520.607	53.11532
521.083	-18.03635
521.56	-7.01461
522.036	-14.02725
522.512	21.04589
522.987	-8.01671
523.463	-30.06346
523.939	27.05852
524.414	-8.01645
524.89	-11.02321
525.365	-25.05039
525.84	-54.11417
526.315	-37.07958
526.79	-5.01001
527.265	-16.03249
527.74	-60.13152
528.215	-23.04843
528.689	-70.13962
529.164	12.02313
529.638	-11.02534
530.112	-70.14858
530.587	-70.13417
531.061	-58.12569
531.534	-8.01738
532.008	-13.02788
532.482	30.06115
532.956	-71.16333
533.429	-7.01519
533.903	-10.01984
534.376	4.00788
534.849	-33.06893
535.322	-17.03603
535.795	-26.05726
536.268	-64.1394
536.741	-12.02593
537.213	-6.01245
537.686	-75.16568
538.158	-56.113
538.631	-18.03954
539.103	-70.14203
539.575	-1.00187
540.047	-27.05352
540.519	-21.04536
540.991	14.03078
541.463	10.02171
541.934	14.02863
542.406	-41.08822
542.877	-37.07547
543.348	8.01736
543.82	11.02425
544.291	43.08958
544.762	-17.03617
545.233	29.06468
545.703	-39.07763
546.174	10.02077
546.645	-59.12663
547.115	25.05345
547.585	38.07738
548.056	-11.02351
548.526	63.12914
548.996	68.14345
549.466	172.36142
549.935	111.22557
550.405	94.17712
550.875	135.27334
551.344	113.23383
551.814	139.27306
552.283	131.24411
552.752	81.1619
553.221	176.31892
553.69	194.35998
554.159	210.42978
554.628	164.30644
555.096	177.3784
555.565	172.3225
556.033	196.39131
556.502	154.32031
556.97	108.2078
557.438	148.30372
557.906	158.326
558.374	122.24527
558.842	33.07058
559.31	61.12187
559.777	43.09277
560.245	118.24587
560.712	53.11041
561.18	89.17451
561.647	118.23328
562.114	139.27848
562.581	166.36034
563.048	160.32552
563.514	118.25669
563.981	160.32329
564.448	154.30488
564.914	217.44139
565.381	298.58169
565.847	241.4911
566.313	207.42239
566.779	245.47925
567.245	243.49405
567.711	262.543
568.176	239.46419
568.642	273.5907
569.108	281.595
569.573	354.70905
570.038	337.59934
570.504	283.54204
570.969	356.75792
571.434	353.64835
571.899	422.83508
572.363	452.84715
572.828	448.84836
573.293	435.82515
573.757	427.81234
574.222	425.77983
574.686	450.82343
575.15	431.8467
575.614	502.93346
576.078	461.88685
576.542	488.90561
577.006	498.90991
577.469	584.1653
577.933	462.84198
578.396	534.02736
578.86	537.02198
579.323	513.99165
579.786	461.81272
580.249	464.86407
580.712	537.06614
581.175	444.90865
581.637	484.91744
582.1	452.81999
582.563	446.79264
583.025	405.82115
583.487	448.73812
583.95	405.71994
584.412	452.78123
584.874	400.8149
585.336	387.77102
585.797	339.62075
586.259	358.71872
586.721	314.6298
587.182	405.80013
587.643	330.64048
588.105	303.61715
588.566	338.60565
589.027	271.56328
589.488	269.53194
589.949	317.66036
590.41	283.47021
590.87	297.58648
591.331	279.52223
591.791	233.46896
592.252	262.51749
592.712	283.58927
593.172	246.48223
593.632	285.54138
594.092	215.42116
594.552	239.44891
595.011	221.44296
595.471	230.45044
595.931	257.49772
596.39	197.41514
596.849	220.44922
597.308	225.42886
597.768	192.43061
598.227	214.45383
598.685	273.54643
599.144	190.39255
599.603	245.5072
600.062	197.36308
600.52	170.3353
600.978	208.43436
601.437	275.54661
601.895	236.43617
602.353	235.45664
602.811	223.43353
603.269	264.5491
603.727	250.52137
604.184	222.43642
604.642	214.46017
605.099	253.51062
605.557	301.63289
606.014	294.54174
606.471	265.57094
606.928	267.49013
607.385	343.70403
607.842	420.79961
608.299	490.93925
608.755	390.79055
609.212	406.75078
609.668	409.74896
610.125	484.9663
610.581	474.9415
611.037	505.95562
611.493	445.88493
611.949	355.72932
612.405	331.56549
612.861	451.89561
613.316	372.75786
613.772	409.79552
614.227	406.8117
614.683	473.84653
615.138	407.80747
615.593	410.8083
616.048	480.92141
616.503	449.93739
616.958	398.85358
617.412	471.9375
617.867	404.75792
618.321	428.75196
618.776	431.81197
619.23	431.86308
619.684	439.84737
620.138	477.94238
620.592	477.9848
621.046	439.88601
621.5	436.91086
621.954	435.84489
622.407	421.81067
622.861	387.82051
623.314	429.84595
623.768	370.75619
624.221	349.6046
624.674	371.75153
625.127	363.74979
625.58	398.79939
626.033	432.83406
626.485	305.65401
626.938	296.63539
627.39	306.64099
627.843	310.6465
628.295	326.67775
628.747	319.68373
629.199	275.56981
629.651	254.52854
630.103	249.52379
630.555	277.53671
631.006	233.50566
631.458	221.48371
631.909	275.58332
632.361	180.39473
632.812	241.51611
633.263	272.54203
633.714	214.43042
634.165	228.51702
634.616	206.46049
635.067	263.54471
635.518	189.42676
635.968	296.55118
636.419	197.40637
636.869	163.37001
637.319	172.37861
637.769	171.36463
638.219	147.33748
638.669	140.32044
639.119	175.40786
639.569	148.3427
640.019	181.40068
640.468	162.34806
640.918	194.44653
641.367	128.27857
641.816	126.27375
642.265	126.28283
642.714	125.28087
643.163	160.35501
643.612	122.28339
644.061	121.24937
644.51	115.25522
644.958	141.30079
645.406	90.21055
645.855	131.31192
646.303	187.42121
646.751	84.1877
647.199	158.34823
647.647	93.21
648.095	168.37229
648.543	144.28896
648.99	144.33397
649.438	173.39414
649.885	139.33478
650.333	131.24993
650.78	109.25774
651.227	106.25264
651.674	126.28108
652.121	145.34353
652.568	101.24077
653.015	180.44081
653.461	77.18088
653.908	148.33671
654.354	149.34741
654.801	96.22185
655.247	107.23242
655.693	72.1853
656.139	95.22481
656.585	111.26217
657.031	41.0953
657.477	43.09312
657.922	128.28956
658.368	145.35042
658.813	120.27588
659.259	52.12441
659.704	43.10026
660.149	87.20125
660.594	93.21889
661.039	85.19272
661.484	139.32715
661.929	125.28881
662.373	79.19759
662.818	83.20444
663.262	47.11324
663.707	87.2187
664.151	136.32749
664.595	53.12794
665.039	90.2227
665.483	84.21248
665.927	94.22077
666.371	24.05599
666.814	81.19339
667.258	35.08328
667.701	122.26302
668.145	116.28651
668.588	120.29202
669.031	50.11812
669.474	104.24939
669.917	78.174
670.36	105.25901
670.803	128.30682
671.245	79.16816
671.688	92.22439
672.13	62.14014
672.573	103.26068
673.015	94.22576
673.457	76.16702
673.899	71.17288
674.341	63.153
674.783	84.20174
675.225	81.19951
675.666	19.04626
676.108	44.0973
676.549	108.25602
676.991	59.13192
677.432	95.1913
677.873	90.20939
678.314	90.21566
678.755	59.14468
679.196	66.15271
679.637	65.16016
680.078	78.18419
680.518	54.12772
680.959	43.10435
681.399	33.08284
681.839	89.21744
682.28	58.1442
682.72	6.01405
683.16	62.15544
683.6	94.21619
684.039	-1.00215
684.479	50.12395
684.919	35.08193
685.358	73.18627
685.798	45.1188
686.237	68.1661
686.676	89.20849
687.115	77.18264
687.554	48.11559
687.993	85.19029
688.432	19.04441
688.871	22.051
689.309	73.17589
689.748	81.17227
690.186	84.20235
690.625	46.10947
691.063	80.1933
691.501	123.30363
691.939	89.22268
692.377	90.22058
692.815	18.04387
693.253	91.22033
693.69	47.10539
694.128	57.13957
694.565	58.14014
695.003	68.17379
695.44	48.11453
695.877	54.12786
696.314	110.23888
696.751	60.13921
697.188	69.1605
697.625	88.20442
698.061	71.17198
698.498	98.23849
698.934	73.17755
699.371	37.08857
699.807	131.30976
700.243	55.13402
700.679	105.23961
701.115	96.22793
701.551	90.21376
701.987	64.14637
702.422	37.08935
702.858	41.09927
703.294	78.17904
703.729	126.30812
704.164	87.21089
704.599	69.15606
705.035	32.07316
705.47	102.24878
705.904	22.05233
706.339	103.24148
706.774	84.19851
707.209	66.15416
707.643	86.20811
708.078	102.24924
708.512	40.10126
708.946	103.24817
709.38	88.21022
709.814	85.19647
710.248	108.264
710.682	78.18719
711.116	28.06791
711.549	91.23554
711.983	16.03783
712.416	143.33748
712.85	105.26233
713.283	72.17226
713.716	127.31867
714.149	82.19738
714.582	95.2153
715.015	95.23898
715.448	98.24781
715.881	140.30714
716.313	89.21021
716.746	77.18299
717.178	66.16038
717.61	107.27167
718.043	128.31846
718.475	96.23388
718.907	150.37767
719.339	57.13112
719.77	90.21459
720.202	99.25092
720.634	82.20075
721.065	38.09161
721.497	72.17803
721.928	73.1806
722.359	54.13166
722.79	60.14525
723.221	90.22758
723.652	92.23825
724.083	98.2226
724.514	83.19261
724.945	50.11926
725.375	66.15483
725.806	96.24067
726.236	105.26933
726.666	90.21459
727.096	89.21962
727.526	46.1181
727.956	54.12459
728.386	86.21304
728.816	66.1682
729.246	40.09854
729.675	75.18582
730.105	76.18854
730.534	85.20053
730.964	87.22105
731.393	148.36594
731.822	106.2709
732.251	109.27665
732.68	123.29028
733.109	85.2106
733.537	52.12711
733.966	80.19984
734.395	79.1842
734.823	102.23178
735.251	34.08321
735.68	105.26357
736.108	79.20101
736.536	64.15277
736.964	41.09673
737.392	105.26309
737.82	83.20066
738.247	108.25938
738.675	114.27306
739.102	85.21321
739.53	66.16915
739.957	61.15806
740.384	108.26704
740.811	81.20639
741.238	95.2327
741.665	31.07316
742.092	84.20212
742.519	18.04527
742.945	47.11436
743.372	43.10778
743.798	89.22941
744.225	77.18454
744.651	65.16439
745.077	69.17333
745.503	63.15523
745.929	35.08529
746.355	92.2299
746.781	56.14019
747.207	8.01915
747.632	27.0668
748.058	39.09857
748.483	72.16751
748.908	59.14794
749.334	61.15125
749.759	32.07671
750.184	27.06537
750.609	54.13416
751.033	104.24682
751.458	77.17465
751.883	88.21903
752.307	-1.00241
752.732	40.101
753.156	51.12728
753.58	79.18912
754.005	107.27158
754.429	62.14726
754.853	52.13008
755.277	70.16716
755.7	86.2142
756.124	28.07045
756.548	20.04825
756.971	53.13083
757.394	73.18895
757.818	65.16825
758.241	83.21126
758.664	2.00514
759.087	-4.00915
759.51	74.18525
759.933	27.06596
760.356	48.12418
760.778	4.01002
761.201	53.13035
761.623	89.21695
762.046	80.19126
762.468	77.18637
762.89	80.19854
763.312	75.18432
763.734	24.05871
764.156	48.11977
764.578	19.0446
765	55.13552
765.421	-8.02068
765.843	62.16344
766.264	125.30129
766.686	45.11422
767.107	43.10545
767.528	22.05624
767.949	56.14347
768.37	60.14847
768.791	46.11261
769.212	3.00766
769.632	1.00238
770.053	19.05063
770.473	43.1058
770.894	44.11134
771.314	80.19228
771.734	1.00238
772.154	24.06239
772.575	16.0378
772.994	-3.00697
773.414	58.14062
773.834	39.09853
774.254	32.07933
774.673	47.11568
775.093	16.04017
775.512	2.00501
775.931	35.08965
776.351	40.10032
776.77	11.02731
777.189	26.06275
777.607	13.03365
778.026	17.04293
778.445	-33.08438
778.864	80.2056
779.282	7.01713
779.701	23.05869
780.119	33.0842
780.537	-29.07392
780.955	66.16867
781.373	19.04763
781.791	3.00688
782.209	31.07248
782.627	41.10875
783.045	27.063
783.462	14.03622
783.88	-10.02628
784.297	18.04584
784.715	-13.03393
785.132	20.04907
785.549	25.06323
785.966	51.12908
786.383	-36.09058
786.8	63.1473
787.217	-3.00724
787.633	11.02781
788.05	55.13172
788.466	54.12841
788.883	29.07462
789.299	40.09723
789.715	43.10541
790.131	17.0428
790.547	36.09071
790.963	23.05773
791.379	13.03326
791.795	-5.01164
792.21	39.09211
792.626	10.02409
793.041	5.01252
793.457	20.05001
793.872	-10.02396
794.287	-3.00728
794.702	54.13382
795.117	-49.12459
795.532	-2.00508
795.947	24.05847
796.362	25.06044
796.776	67.15776
797.191	3.00745
797.605	-58.13988
798.02	-12.02972
798.434	7.01586
798.848	3.00749
799.262	33.08254
799.676	10.02474
800.09	-36.09048
800.504	20.04911
800.918	-3.00707
801.331	47.12383
801.745	3.00701
802.158	47.11815
802.572	60.14618
802.985	41.09991
803.398	25.06028
803.811	46.11892
804.224	30.07535
804.637	-12.02909
805.05	25.05864
805.462	16.03978
805.875	-30.07911
806.288	-8.01961
806.7	52.13126
807.112	-12.02835
807.525	-4.01002
807.937	7.01752
808.349	34.08582
808.761	44.10892
809.173	-6.01477
809.584	19.04747
809.996	5.0124
810.408	-1.00261
810.819	8.01907
811.231	17.04432
811.642	1.00242
812.053	117.27602
812.464	158.36977
812.875	166.4172
813.286	63.16239
813.697	97.22617
814.108	29.07148
814.519	43.09662
814.929	57.1458
815.34	-25.06178
815.75	2.00514
816.16	20.05034
816.571	32.08367
816.981	26.06202
817.391	46.11169
817.801	-10.02521
818.211	31.07455
818.62	10.02436
819.03	40.09865
819.44	60.15699
819.849	47.11895
820.259	64.16402
820.668	17.04223
821.077	10.02511
821.486	15.03654
821.895	71.17552
822.304	28.07468
822.713	9.02155
823.122	16.04033
823.531	16.03835
823.939	48.11747
824.348	35.0857
824.756	-6.01524
825.164	34.08613
825.573	10.02536
825.981	31.07745
826.389	37.09351
826.797	10.02531
827.205	-20.04675
827.612	37.09187
828.02	-50.12017
828.428	36.0922
828.835	14.03717
829.243	54.12915
829.65	-3.00755
830.057	35.08551
830.464	9.02218
830.871	39.09397
831.278	17.0415
831.685	29.06532
832.092	15.0371
832.499	-22.0491
832.905	-5.01282
833.312	47.10777
833.718	60.14972
834.124	16.03698
834.531	40.10133
834.937	20.05174
835.343	40.09705
835.749	37.08702
836.155	18.0475
836.561	31.07675
836.966	10.02472
837.372	7.018
837.777	-6.01514
838.183	20.04495
838.588	17.04258
838.993	28.06868
839.399	32.07872
839.804	18.04425
840.209	12.03082
840.613	13.02926
841.018	20.05104
841.423	35.09022
841.828	21.05351
842.232	74.18304
842.637	19.04524
843.041	-3.00778
843.445	43.10825
843.849	8.02001
844.253	24.05751
844.657	-1.00255
845.061	-7.01612
845.465	5.01221
845.869	10.0235
846.272	-29.07183
846.676	35.08513
847.079	0
847.483	57.14236
847.886	71.17256
848.289	17.04568
848.692	22.05611
849.095	52.12517
849.498	80.20215
849.901	28.06471
850.304	6.0145
850.707	30.07691
851.109	36.09152
851.512	26.06431
851.914	-2.0051
852.316	9.02297
852.718	-24.06284
853.121	15.03707
853.523	13.03068
853.925	7.01842
854.326	-17.04309
854.728	4.01038
855.13	13.03379
855.531	-22.0534
855.933	47.11316
856.334	2.00504
856.736	-18.04098
857.137	1.00235
857.538	-11.028
857.939	-7.0175
858.34	37.09056
858.741	6.01582
859.142	33.07969
859.542	30.07951
859.943	5.01255
860.343	-34.08561
860.744	18.04426
861.144	50.12218
861.544	-54.13254
861.945	-3.00773
862.345	31.07622
862.745	-13.03273
863.145	55.13161
863.544	39.09888
863.944	-14.03355
864.344	2.00502
864.743	82.20261
865.143	1.00259
865.542	-5.01175
865.941	10.02497
866.34	48.11524
866.74	20.05399
867.139	8.01934
867.537	56.14272
867.936	36.08702
868.335	1.00257
868.734	6.01547
869.132	2.0047
869.531	72.17371
869.929	-15.0347
870.327	27.0651
870.726	67.16679
871.124	32.07519
871.522	26.06659
871.92	16.03977
872.318	27.06638
872.715	68.16802
873.113	2.00492
873.511	-1.00252
873.908	-18.04603
874.306	-2.00503
874.703	46.11532
875.1	58.14833
875.497	62.14851
875.894	-25.06217
876.291	9.02228
876.688	4.01041
877.085	29.06995
877.482	21.0529
877.878	-4.00974
878.275	-2.00513
878.671	82.18172
879.068	9.02192
879.464	-3.00733
879.86	-15.03596
880.256	23.05711
880.652	11.0282
881.048	9.02249
881.444	18.04316
881.84	12.03073
882.236	29.07327
882.631	14.03463
883.027	37.08992
883.422	5.0129
883.817	-25.06372
884.213	23.05935
884.608	19.0469
885.003	16.03886
885.398	-2.00506
885.793	14.0354
886.188	-17.04281
886.582	56.14362
886.977	46.10938
887.371	36.09136
887.766	-20.05041
888.16	27.06773
888.554	36.08934
888.949	8.02026
889.343	9.02218
889.737	7.0188
890.131	24.06054
890.525	16.04119
890.918	17.04307
891.312	9.02173
891.706	28.07379
892.099	57.14498
892.492	16.03482
892.886	9.02221
893.279	-7.01802
893.672	-6.01544
894.065	30.07546
894.458	25.06321
894.851	53.12992
895.244	-21.05434
895.637	-3.0073
896.029	55.13447
896.422	14.03446
896.814	16.04005
897.206	-30.0726
897.599	49.12131
897.991	17.04139
898.383	26.06178
898.775	38.08607
899.167	-24.05683
899.559	34.08637
899.951	35.08283
900.342	20.05117
900.734	-11.02761
901.125	19.05014
901.517	30.07396
901.908	18.04346
902.299	-15.03714
902.69	33.07818
903.082	43.10435
903.473	0
903.863	23.059
904.254	12.02808
904.645	56.13923
905.036	-52.12839
905.426	26.05987
905.817	-12.0298
906.207	-48.11659
906.597	5.0118
906.987	10.02611
907.378	35.0888
907.768	36.09544
908.158	-22.0544
908.547	-6.01566
908.937	13.03359
909.327	28.06832
909.717	26.06633
910.106	-25.06094
910.495	38.09513
910.885	55.13925
911.274	14.03524
911.663	41.10429
912.052	21.05213
912.441	15.0384
912.83	0
913.219	54.14129
913.608	2.00495
913.997	-2.00506
914.385	59.14081
914.774	18.04412
915.162	-6.01446
915.55	42.10183
915.939	4.01018
916.327	41.10255
916.715	4.01028
917.103	37.09134
917.491	67.16533
917.878	37.09124
918.266	61.15795
918.654	33.08459
919.041	-8.0211
919.429	16.03803
919.816	33.08394
920.203	46.11169
920.591	58.14368
920.978	43.10548
921.365	-9.02386
921.752	20.04798
922.139	-13.02862
922.525	17.0411
922.912	-2.00493
923.299	14.03504
923.685	-3.0079
924.072	50.11537
924.458	-4.01001
924.844	30.07453
925.231	-1.00235
925.617	2.00513
926.003	34.08717
926.389	5.01272
926.774	16.0408
927.16	44.10943
927.546	7.01801
927.931	23.05769
928.317	30.06941
928.702	28.06656
929.088	-30.07208
929.473	34.08677
929.858	-26.06377
930.243	33.07948
930.628	32.07814
931.013	23.0573
931.398	47.10821
931.783	44.11599
932.167	21.05163
932.552	37.09294
932.937	36.0896
933.321	10.02528
933.705	12.03046
934.09	50.12639
934.474	28.06681
934.858	13.03394
935.242	-31.07302
935.626	23.05916
936.009	4.01072
936.393	52.13229
936.777	10.02579
937.16	1.00262
937.544	25.05921
937.927	19.04848
938.311	42.10271
938.694	32.08489
939.077	-42.10232
939.46	31.07641
939.843	15.03155
940.226	18.04644
940.609	-9.02091
940.991	16.04098
941.374	-12.02967
941.757	19.04716
942.139	-12.0273
942.522	37.0877
942.904	48.11546
943.286	16.04091
943.668	21.05468
944.05	7.01738
944.432	14.03478
944.814	28.06926
945.196	-53.13165
945.578	-12.02886
945.959	34.07995
946.341	51.1252
946.722	56.13132
947.104	6.01446
947.485	51.11868
947.866	29.07335
948.247	29.07345
948.628	28.0686
949.009	-6.01552
949.39	18.04508
949.771	63.1462
950.152	-7.01736
950.532	-31.0774
950.913	26.06301
951.293	-17.04642
951.674	-1.00244
952.054	25.06224
952.434	7.01751
952.814	25.05978
953.194	65.1697
953.574	28.06926
953.954	20.04778
954.334	1.00251
954.714	8.01965
955.093	27.06668
955.473	-15.03795
955.853	26.06759
956.232	30.08249
956.611	36.08659
956.99	33.08319
957.37	22.05634
957.749	1.00241
958.128	1.00254
958.506	-19.04987
958.885	19.04822
959.264	-13.03223
959.643	20.0458
960.021	30.07461
960.4	30.06828
960.778	84.20564
961.156	-3.00759
961.535	-17.04015
961.913	2.00472
962.291	-56.14632
962.669	-20.05129
963.047	29.07428
963.424	34.08702
963.802	31.0765
964.18	51.12903
964.557	40.09233
964.935	42.09968
965.312	27.07059
965.69	26.06539
966.067	19.04654
966.444	35.0865
966.821	45.11612
967.198	19.04637
967.575	51.12539
967.952	28.06627
968.329	-4.00983
968.705	28.06034
969.082	-11.02851
969.458	-57.13952
969.835	-19.04685
970.211	2.00518
970.587	37.09234
970.963	-3.00777
971.339	-18.04755
971.715	3.00755
972.091	44.10848
972.467	12.03014
972.843	-19.04775
973.219	92.21919
973.594	18.04734
973.97	43.10251
974.345	-16.03878
974.721	51.12349
975.096	24.05836
975.471	41.09744
975.846	18.04351
976.221	-13.03338
976.596	-12.0291
976.971	21.05213
977.346	12.02815
977.72	37.09448
978.095	24.0623
978.469	3.00723
978.844	49.12322
979.218	14.03379
979.593	19.0458
979.967	22.05388
980.341	9.02089
980.715	63.15837
981.089	2.00505
981.463	2.00464
981.837	-5.01234
982.21	33.07707
982.584	-5.0122
982.957	-10.02524
983.331	-12.02871
983.704	-2.00496
984.078	-11.02741
984.451	61.15207
984.824	2.00491
985.197	57.13827
985.57	33.08302
985.943	33.08176
986.316	31.07644
986.688	46.11102
987.061	9.02127
987.434	40.10441
987.806	13.03175
988.179	4.00952
988.551	68.17195
988.923	-4.00995
989.295	51.12742
989.667	-45.10945
990.039	18.04474
990.411	18.0417
990.783	14.03247
991.155	-41.10021
991.527	67.16448
991.898	17.04261
992.27	18.04478
992.641	24.06049
993.012	21.0497
993.384	-2.00482
993.755	-4.01029
994.126	30.07243
994.497	3.00743
994.868	18.04161
995.239	-26.06391
995.61	-5.0127
995.98	-10.02456
996.351	-8.02002
996.722	-32.07542
997.092	-35.08423
997.462	-41.09748
997.833	3.00718
998.203	30.07301
998.573	-17.04284
998.943	-4.00948
999.313	38.09126
999.683	-30.07309
1000.053	8.01856
1000.423	37.09013
1000.792	21.05469
1001.162	-4.00994
1001.531	14.03474
1001.901	0
1002.27	23.0517
1002.639	25.06415
1003.009	13.03113
1003.378	1.00258
1003.747	23.05462
1004.116	12.02892
1004.485	-26.06304
1004.853	18.04586
1005.222	-6.01528
1005.591	26.06202
1005.959	12.02725
1006.328	-37.08474
1006.696	-22.05378
1007.064	42.10579
1007.433	41.10262
1007.801	41.1008
1008.169	-4.0102
1008.537	31.06891
1008.905	7.01644
1009.273	24.05956
1009.64	-43.10439
1010.008	12.02881
1010.375	51.12381
1010.743	7.0163
1011.11	-19.04555
1011.478	19.04728
1011.845	3.00712
1012.212	-15.0344
1012.579	2.00495
1012.946	30.07167
1013.313	11.02637
1013.68	8.01813
1014.047	20.04792
1014.414	-17.04067
1014.78	14.03501
1015.147	24.05832
1015.513	20.04845
1015.88	62.15817
1016.246	75.18426
1016.612	19.04376
1016.978	-4.0099
1017.344	-1.00249
1017.71	36.088
1018.076	8.01902
1018.442	42.10817
1018.808	-7.01767
1019.174	4.01011
1019.539	93.21223
1019.905	-1.00238
1020.27	-6.01496
1020.636	24.05782
1021.001	28.0673
1021.366	-8.01942
1021.731	46.11835
1022.096	-20.05106
1022.461	21.04997
1022.826	-4.0096
1023.191	31.08157
1023.556	51.11948
1023.92	2.00496
1024.285	26.06372
1024.649	37.09087
1025.014	4.00999
1025.378	-2.00507
1025.742	52.12905
1026.107	25.05682
1026.471	43.1005
1026.835	35.08697
1027.199	8.0194
1027.562	18.04209
1027.926	35.0858
1028.29	-11.02813
1028.654	-19.0443
1029.017	15.0371
1029.381	8.01926
1029.744	-12.03093
1030.107	82.19274
1030.471	1.00242
1030.834	7.01606
1031.197	45.10847
1031.56	8.01902
1031.923	6.01562
1032.286	35.08241
1032.648	44.10531
1033.011	7.0162
1033.374	11.02604
1033.736	-1.00265
1034.099	2.00492
1034.461	-15.03832
1034.823	8.02006
1035.185	51.1283
1035.548	17.04161
1035.91	15.03616
1036.272	6.01377
1036.634	47.115
1036.995	33.07779
1037.357	9.02205
1037.719	41.09983
1038.08	16.03822
1038.442	5.01197
1038.803	39.09379
1039.165	6.01525
1039.526	25.06067
1039.887	22.0529
1040.248	-14.03488
1040.609	42.10389
1040.97	44.1076
1041.331	4.0102
1041.692	-14.03307
1042.053	39.08896
1042.413	6.0141
1042.774	26.06349
1043.134	31.07404
1043.495	12.03036
1043.855	12.0293
1044.215	9.02249
1044.576	-7.01691
1044.936	38.08729
1045.296	16.04016
1045.656	15.03703
1046.016	23.05577
1046.375	7.01711
1046.735	-16.03674
1047.095	21.04941
1047.454	17.03627
1047.814	-11.02673
1048.173	60.143
1048.533	-58.13569
1048.892	-15.03643
1049.251	28.07053
1049.61	-37.09251
1049.969	-8.01906
1050.328	10.02186
1050.687	-6.01474
1051.046	37.09026
1051.405	-8.0201
1051.763	-15.03492
1052.122	-23.05809
1052.48	-20.04965
1052.839	2.00475
1053.197	-6.01427
1053.555	42.09586
1053.914	25.0614
1054.272	16.03891
1054.63	-9.02223
1054.988	16.03824
1055.345	5.01087
1055.703	66.15827
1056.061	7.01813
1056.419	47.12165
1056.776	68.16424
1057.134	-10.02341
1057.491	18.04531
1057.848	32.07988
1058.206	2.00474
1058.563	-29.06495
1058.92	-13.03032
1059.277	43.10615
1059.634	29.06847
1059.991	55.13156
1060.348	-21.04812
1060.704	-16.03859
1061.061	40.09306
1061.418	6.01466
1061.774	-16.03995
1062.131	-21.05615
1062.487	-25.05928
1062.843	26.06507
1063.199	15.03752
1063.555	-19.0446
1063.911	10.02542
1064.267	7.01473
1064.623	-38.09375
1064.979	70.16511
1065.335	33.07909
1065.691	12.02895
1066.046	34.07497
1066.402	-15.03451
1066.757	17.04313
1067.112	3.00742
1067.468	-50.12027
1067.823	23.05554
1068.178	0
1068.533	15.03658
1068.888	36.0862
1069.243	15.03723
1069.598	13.03178
1069.952	-8.01822
1070.307	-20.0501
1070.662	-25.06017
1071.016	-25.05684
1071.371	26.05939
1071.725	29.06961
1072.079	-23.05605
1072.434	-31.07641
1072.788	24.0574
1073.142	7.01734
1073.496	0
1073.85	12.02802
1074.203	52.12602
1074.557	9.02408
1074.911	28.06707
1075.265	7.0164
1075.618	30.07347
1075.971	34.08107
1076.325	-6.01539
1076.678	-24.05566
1077.031	-24.05509
1077.385	22.04871
1077.738	12.02728
1078.091	-39.09022
1078.444	25.05829
1078.796	9.02223
1079.149	27.06739
1079.502	2.00476
1079.855	-34.08054
1080.207	48.11821
1080.56	34.08805
1080.912	17.04161
1081.264	8.0194
1081.617	-25.06174
1081.969	26.06582
1082.321	-15.03704
1082.673	-28.06486
1083.025	9.0215
1083.377	46.09875
1083.728	15.03521
1084.08	17.04266
1084.432	-6.01461
1084.783	59.13789
1085.135	7.01767
1085.486	-54.12603
1085.838	8.01984
1086.189	-27.06643
1086.54	21.05039
1086.891	13.03307
1087.242	16.03917
1087.593	50.12163
1087.944	-24.05509
1088.295	23.05253
1088.646	-14.03431
1088.996	-20.04878
1089.347	-34.08466
1089.698	-38.09126
1090.048	22.05737
1090.398	28.06517
1090.749	27.06483
1091.099	-13.03303
1091.449	9.02257
1091.799	-6.01516
1092.149	-33.08164
1092.499	0
1092.849	19.04852
1093.199	63.1574
1093.548	34.08187
1093.898	38.0952
1094.248	-16.04155
1094.597	-52.13499
1094.947	23.06158
1095.296	-18.04496
1095.645	18.04703
1095.994	22.05308
1096.343	28.07068
1096.692	-39.1039
1097.041	0
1097.39	1.00253
1097.739	14.03658
1098.088	50.13384
1098.437	-34.0905
1098.785	4.01086
1099.134	57.15104
1099.482	21.05797
1099.83	30.07903
1100.179	3.00788
1100.527	17.04538
1100.875	7.01862
1101.223	28.07456
1101.571	17.04718
1101.919	-2.00527
1102.267	8.02265
1102.615	6.01929
1102.962	17.05469
1103.31	7.02249
1103.658	21.06756
