Data from N2 R9 sample 4_Subt2__0__19-17-21-762.txt Node

Date: Fri Aug 29 19:17:21 PDT 2025
User: uwsun
Spectrometer: HDX01956
Trigger mode: 0
Integration Time (sec): 5.000000E-1
Scans to average: 1
Nonlinearity correction enabled: true
Boxcar width: 0
Storing dark spectrum: false
XAxis mode: Wavelengths
Number of Pixels in Spectrum: 2068
>>>>>Begin Spectral Data<<<<<
194.03	301.80518
194.578	328.99426
195.127	290.86967
195.676	318.95308
196.225	373.92701
196.773	369.95127
197.321	514.25847
197.87	698.50136
198.418	691.46623
198.966	667.43247
199.513	636.30037
200.061	606.27141
200.609	732.59477
201.156	569.0148
201.704	639.32216
202.251	657.4388
202.798	658.40918
203.345	711.42932
203.892	685.40671
204.438	719.38369
204.985	701.32247
205.532	681.47072
206.078	740.4573
206.624	674.34208
207.17	749.38006
207.716	658.29741
208.262	663.03373
208.808	700.38035
209.354	668.31715
209.899	819.65201
210.445	688.3808
210.99	689.33477
211.535	778.44614
212.08	730.35474
212.625	773.54913
213.17	796.61108
213.715	662.16919
214.259	746.38311
214.804	773.52987
215.348	694.27629
215.892	755.44473
216.436	769.41486
216.98	735.29201
217.524	748.40682
218.068	715.46576
218.612	706.45217
219.155	662.2674
219.698	708.36216
220.242	645.33459
220.785	644.23348
221.328	628.30023
221.871	648.36861
222.414	669.37628
222.956	599.19334
223.499	605.1204
224.041	608.17788
224.583	667.17099
225.126	616.11214
225.668	601.21399
226.21	640.3322
226.751	532.96714
227.293	589.11788
227.835	620.25215
228.376	661.25054
228.918	635.33673
229.459	603.24701
230	619.2161
230.541	588.12494
231.082	591.19212
231.622	631.19484
232.163	617.23382
232.704	600.23608
233.244	606.24902
233.784	626.27585
234.324	539.97614
234.864	562.05694
235.404	614.20938
235.944	613.20259
236.484	668.37268
237.023	651.25322
237.563	669.24842
238.102	628.21785
238.641	636.33091
239.18	613.17031
239.719	616.28332
240.258	643.17432
240.797	667.29393
241.335	640.28965
241.874	647.98063
242.412	626.23247
242.95	643.2467
243.488	652.20491
244.026	691.27363
244.564	611.01253
245.102	657.18482
245.64	638.26321
246.177	634.15113
246.715	639.25723
247.252	628.17669
247.789	690.01702
248.326	640.24412
248.863	653.14336
249.4	708.28057
249.936	680.09958
250.473	687.28017
251.009	664.21673
251.546	690.20354
252.082	655.14687
252.618	647.15245
253.154	643.25026
253.69	668.20131
254.226	701.33606
254.761	637.14984
255.297	580.02886
255.832	689.3017
256.367	662.25396
256.903	666.15914
257.438	710.32803
257.972	672.18874
258.507	671.21753
259.042	689.17683
259.576	630.07149
260.111	691.27236
260.645	713.20748
261.179	638.19429
261.713	652.15149
262.247	680.24799
262.781	621.02914
263.315	683.33574
263.849	736.45824
264.382	683.24816
264.915	721.32239
265.449	657.27146
265.982	763.34766
266.515	689.33795
267.048	645.07197
267.58	662.1473
268.113	704.17706
268.646	656.2983
269.178	724.24971
269.71	729.23198
270.243	708.26885
270.775	694.4108
271.307	758.43126
271.838	757.41087
272.37	694.35568
272.902	716.27202
273.433	730.228
273.965	729.39355
274.496	730.4369
275.027	713.39648
275.558	690.32174
276.089	721.37956
276.62	721.45944
277.15	763.47344
277.681	749.24601
278.211	763.46077
278.741	681.15877
279.272	701.23984
279.802	758.47881
280.332	741.34687
280.861	805.48123
281.391	722.25751
281.921	762.42267
282.45	760.48201
282.98	800.62213
283.509	802.3546
284.038	755.31062
284.567	772.3831
285.096	732.37195
285.625	733.26965
286.153	825.44683
286.682	754.30715
287.21	824.49162
287.739	776.39099
288.267	747.38394
288.795	809.646
289.323	771.35403
289.851	819.43478
290.378	788.31864
290.906	742.36475
291.433	816.53871
291.961	855.40963
292.488	790.49397
293.015	836.44816
293.542	817.55453
294.069	754.40562
294.596	841.55922
295.122	837.47561
295.649	834.33882
296.175	811.47289
296.702	835.50659
297.228	876.56906
297.754	850.37852
298.28	867.41289
298.806	850.49351
299.332	851.34031
299.857	857.38562
300.383	901.67731
300.908	792.411
301.433	874.53339
301.958	922.51669
302.483	841.53368
303.008	964.70056
303.533	892.71187
304.058	927.55411
304.582	870.46184
305.107	881.67246
305.631	944.50494
306.155	936.51169
306.679	902.473
307.203	918.48168
307.727	973.59514
308.251	960.66446
308.775	897.47911
309.298	999.61975
309.822	968.71118
310.345	981.58599
310.868	1077.7077
311.391	1028.72733
311.914	991.70251
312.437	1069.60329
312.96	1016.5926
313.482	1006.59143
314.005	987.69291
314.527	1023.8354
315.049	1083.83342
315.571	992.41736
316.093	1109.78783
316.615	1045.64442
317.137	1133.50813
317.659	1144.78191
318.18	1132.74677
318.702	1119.62656
319.223	1115.35899
319.744	1118.53001
320.265	1110.68163
320.786	1115.72391
321.307	1185.8189
321.828	1201.60057
322.348	1242.71668
322.869	1220.68167
323.389	965.86253
323.909	1294.68322
324.43	1394.9106
324.95	1261.62268
325.47	1233.76165
325.989	1261.67138
326.509	1323.52469
327.029	1358.5966
327.548	1369.58565
328.067	1277.69057
328.587	1336.84558
329.106	1357.59365
329.625	1434.11029
330.144	1368.61443
330.662	1442.64894
331.181	1376.64061
331.7	1444.67227
332.218	1519.48294
332.736	1534.69639
333.255	1533.65703
333.773	1584.72092
334.291	1603.91468
334.808	1529.49426
335.326	1658.56931
335.844	1644.59338
336.361	1717.879
336.879	1627.573
337.396	1626.66287
337.913	1707.53202
338.43	1755.46295
338.947	1751.62153
339.464	1731.2786
339.981	1777.5647
340.497	1848.73273
341.014	1841.64756
341.53	1769.3649
342.046	1827.62559
342.562	1920.7181
343.078	1934.48175
343.594	1967.52338
344.11	2022.49315
344.626	1985.66625
345.141	2031.3037
345.657	2053.31004
346.172	2025.46673
346.687	1948.27986
347.202	2083.17616
347.717	2139.36927
348.232	2091.5267
348.747	2100.20455
349.261	2057.97261
349.776	2168.23282
350.29	2153.33447
350.805	2282.39854
351.319	2231.14944
351.833	2209.99651
352.347	2243.12325
352.861	2263.06036
353.374	2312.04683
353.888	2304.17784
354.401	2374.951
354.915	2305.81445
355.428	2435.14917
355.941	2491.86417
356.454	2566.7725
356.967	2505.92987
357.48	2472.83371
357.993	2443.06137
358.505	2477.9724
359.018	2641.91221
359.53	2662.79349
360.042	2701.52024
360.554	2677.81773
361.066	2599.81884
361.578	2618.4398
362.09	2641.71077
362.602	2654.40142
363.113	2719.51824
363.625	2626.43301
364.136	2807.2763
364.647	2697.36228
365.158	2890.34375
365.669	2966.39408
366.18	2882.36235
366.691	2886.12787
367.201	2888.35121
367.712	2863.15377
368.222	2922.11449
368.733	3038.82818
369.243	2970.88485
369.753	3091.95713
370.263	3244.93926
370.773	3155.06487
371.282	3278.79321
371.792	3176.58978
372.301	3443.60334
372.811	3447.83952
373.32	3338.20382
373.829	3444.32904
374.338	3648.04465
374.847	3646.04046
375.356	3941.91307
375.865	3981.65121
376.373	4214.6408
376.882	4334.7697
377.39	4339.65428
377.898	4402.58851
378.407	4577.58854
378.915	4905.77971
379.423	5022.82576
379.93	5295.20827
380.438	5385.40419
380.946	5789.33482
381.453	5847.72038
381.96	6247.29485
382.468	6527.36233
382.975	7091.53888
383.482	7368.26355
383.989	7333.29978
384.495	7561.88196
385.002	7923.69504
385.509	8211.75887
386.015	8938.03752
386.521	9398.27946
387.028	9773.21438
387.534	10037.24994
388.04	10566.20026
388.546	10698.83194
389.051	10822.34344
389.557	11827.26308
390.063	13460.78215
390.568	13717.66714
391.073	13869.39095
391.578	14525.04255
392.084	14622.05811
392.589	14933.0772
393.093	15674.82423
393.598	17256.68983
394.103	19458.85543
394.607	21250.42877
395.112	22754.17077
395.616	24279.59251
396.12	25900.41281
396.624	28433.59222
397.128	30940.83887
397.632	34431.88863
398.136	37164.98273
398.639	35402.40836
399.143	32145.08814
399.646	28888.45294
400.15	25083.82847
400.653	20124.16724
401.156	13866.23708
401.659	5169.95759
402.162	1054.15589
402.664	0
403.167	0
403.67	0
404.172	0
404.674	0
405.176	0
405.678	0
406.18	0
406.682	0
407.184	0
407.686	0
408.187	0
408.688	0
409.19	0
409.691	0
410.192	0
410.693	0
411.194	435.30976
411.694	4082.94878
412.195	8864.71461
412.696	12089.80453
413.196	12760.96929
413.696	12863.67595
414.196	13703.56671
414.696	17261.84252
415.196	21764.24417
415.696	29583.19008
416.196	36460.31858
416.695	40057.39798
417.195	41392.74103
417.694	41868.61161
418.194	40193.72057
418.693	37093.78877
419.192	35963.52844
419.691	35491.19877
420.19	34863.18496
420.688	34538.77996
421.187	33424.43934
421.685	31869.99867
422.184	28679.97112
422.682	25009.08129
423.18	20949.63162
423.678	18314.14367
424.176	16800.4805
424.674	15985.60258
425.172	15370.82555
425.669	14543.17984
426.167	13796.98172
426.664	12503.13505
427.161	11364.66965
427.659	10422.37912
428.156	9679.999
428.652	9009.26216
429.149	8484.0509
429.646	8398.21056
430.143	7957.98293
430.639	7482.96406
431.135	7050.01991
431.632	6740.9831
432.128	6281.02883
432.624	5720.63625
433.12	5381.53341
433.616	5322.3951
434.111	4871.80692
434.607	4779.67287
435.103	4830.7231
435.598	4695.64097
436.093	4564.60512
436.588	4377.61833
437.083	4086.72474
437.578	3938.86002
438.073	3685.11447
438.568	3585.32234
439.062	3483.08181
439.557	3360.48771
440.051	3148.51009
440.546	3084.58328
441.04	2998.83245
441.534	2941.11939
442.028	2944.0157
442.522	2866.06127
443.015	2776.88874
443.509	2738.29607
444.002	2618.36243
444.496	2610.06916
444.989	2625.42735
445.482	2604.50171
445.975	2489.23997
446.468	2528.12722
446.961	2437.18791
447.454	2352.41336
447.947	2328.53241
448.439	2311.70253
448.931	2285.449
449.424	2268.89107
449.916	2299.75738
450.408	2162.55892
450.9	2103.80788
451.392	2037.97897
451.884	1988.76282
452.375	1917.96132
452.867	2064.76696
453.358	1964.73733
453.849	1927.61733
454.341	1840.79555
454.832	1811.69706
455.323	1809.03104
455.814	1873.90862
456.304	1841.93334
456.795	1825.92827
457.285	1748.92488
457.776	1854.01241
458.266	1692.06894
458.756	1701.15171
459.247	1606.08786
459.737	1556.09637
460.226	1585.9786
460.716	1514.14425
461.206	1572.19874
461.695	1511.33395
462.185	1416.15464
462.674	1477.13657
463.163	1423.04543
463.653	1402.9347
464.142	1402.24444
464.63	1470.34619
465.119	1279.12881
465.608	1310.14783
466.096	1250.04749
466.585	1302.21188
467.073	1272.29306
467.561	1218.28221
468.05	1278.25027
468.538	1272.39065
469.026	1123.24698
469.513	1154.01565
470.001	1189.18086
470.489	1164.26192
470.976	1134.21932
471.463	1113.38559
471.951	1082.3916
472.438	1000.18674
472.925	918.11412
473.412	985.30794
473.899	922.13026
474.385	925.26135
474.872	914.15072
475.359	877.20956
475.845	869.94822
476.331	862.03967
476.817	859.22676
477.303	820.10686
477.789	802.15541
478.275	767.16312
478.761	775.14315
479.247	720.98768
479.732	699.09955
480.218	705.19261
480.703	753.18683
481.188	703.92464
481.673	620.91862
482.158	613.81248
482.643	705.19583
483.128	578.86779
483.612	641.98895
484.097	597.00238
484.581	597.94214
485.066	523.88551
485.55	512.76349
486.034	463.69265
486.518	473.77999
487.002	485.84165
487.486	508.88134
487.969	431.76458
488.453	512.93928
488.936	446.72176
489.42	486.76747
489.903	503.93322
490.386	466.51571
490.869	478.75265
491.352	425.78769
491.835	415.6283
492.318	410.68525
492.8	423.63927
493.283	385.74848
493.765	325.61918
494.247	394.70601
494.73	376.6291
495.212	347.65724
495.694	337.60588
496.175	302.55425
496.657	349.64552
497.139	331.43658
497.62	237.44493
498.102	268.53008
498.583	310.61977
499.064	266.46631
499.545	266.48301
500.026	275.48729
500.507	281.51999
500.988	285.57045
501.469	184.3781
501.949	265.53263
502.43	212.40772
502.91	186.31013
503.39	246.50596
503.87	170.32836
504.35	252.48605
504.83	181.32405
505.31	202.40254
505.79	174.34383
506.269	254.48449
506.749	183.34355
507.228	166.32264
507.707	205.37195
508.187	202.40198
508.666	168.34367
509.145	158.30723
509.623	104.20667
510.102	134.27449
510.581	203.41046
511.059	155.32634
511.538	134.29621
512.016	206.41032
512.494	180.36805
512.972	147.29655
513.45	70.13767
513.928	142.29101
514.406	49.1009
514.884	148.32346
515.361	141.28628
515.839	181.34466
516.316	147.29982
516.793	196.42038
517.27	180.37055
517.747	123.27058
518.224	90.17968
518.701	125.23733
519.178	51.10955
519.654	152.30967
520.131	96.20519
520.607	142.30312
521.083	95.18689
521.56	91.18586
522.036	103.19489
522.512	119.25463
522.987	38.07858
523.463	109.22353
523.939	100.21337
524.414	119.23775
524.89	76.1573
525.365	79.15541
525.84	49.10126
526.315	53.11179
526.79	76.14933
527.265	67.13348
527.74	92.19519
528.215	71.14639
528.689	38.07389
529.164	91.1721
529.638	93.20983
530.112	26.05403
530.587	46.0857
531.061	60.12674
531.534	118.24948
532.008	47.09948
532.482	129.25701
532.956	28.06314
533.429	84.17869
533.903	116.22341
534.376	13.02556
534.849	82.16691
535.322	71.14758
535.795	78.16802
536.268	89.18755
536.741	35.07486
537.213	66.13477
537.686	39.0841
538.158	30.05934
538.631	81.17422
539.103	-2.00399
539.575	121.21954
540.047	67.12988
540.519	87.18358
540.991	87.18833
541.463	125.26469
541.934	77.15519
542.406	70.14703
542.877	47.09403
543.348	108.22934
543.82	94.20362
544.291	120.2457
544.762	52.10898
545.233	116.25406
545.703	47.09168
546.174	61.12527
546.645	72.15016
547.115	113.23697
547.585	135.26883
548.056	97.20243
548.526	132.26635
548.996	172.35456
549.466	252.52017
549.935	157.3157
550.405	154.2859
550.875	211.41979
551.344	189.38443
551.814	253.48364
552.283	232.42148
552.752	213.4127
553.221	197.35507
553.69	253.46256
554.159	249.50509
554.628	214.39491
555.096	227.48004
555.565	244.44938
556.033	273.53529
556.502	228.4664
556.97	184.34756
557.438	173.35301
557.906	167.34387
558.374	162.32268
558.842	169.35081
559.31	136.26698
559.777	79.16911
560.245	133.2762
560.712	97.20009
561.18	115.2241
561.647	105.20822
562.114	125.25124
562.581	128.2801
563.048	128.26232
563.514	114.2482
563.981	67.13827
564.448	90.18085
564.914	181.37118
565.381	184.36889
565.847	174.35998
566.313	174.35772
566.779	182.36133
567.245	143.29737
567.711	175.36975
568.176	150.29752
568.642	161.35671
569.108	198.42687
569.573	211.43662
570.038	241.43928
570.504	171.3364
570.969	246.53626
571.434	196.37422
571.899	232.47953
572.363	246.48452
572.828	277.54647
573.293	288.5659
573.757	289.56827
574.222	262.50048
574.686	233.44973
575.15	240.49273
575.614	243.48097
576.078	279.56025
576.542	284.55383
577.006	295.56667
577.469	336.71005
577.933	282.53738
578.396	285.58208
578.86	269.54616
579.323	292.59434
579.786	258.47898
580.249	245.48107
580.712	248.52639
581.175	297.62805
581.637	254.50852
582.1	305.57401
582.563	275.51042
583.025	212.44881
583.487	251.43619
583.95	216.4028
584.412	305.54777
584.874	224.47463
585.336	216.44747
585.797	214.40423
586.259	252.5183
586.721	225.46058
587.182	279.56749
587.643	217.43253
588.105	207.43084
588.566	202.37464
589.027	194.41016
589.488	228.4552
589.949	260.54849
590.41	212.35914
590.87	217.43656
591.331	241.45534
591.791	182.37062
592.252	166.33526
592.712	227.47856
593.172	164.32773
593.632	236.45366
594.092	218.42674
594.552	164.31373
595.011	176.35644
595.471	258.50193
595.931	201.39449
596.39	170.36037
596.849	187.3847
597.308	217.41442
597.768	201.44996
598.227	205.4356
598.685	239.48214
599.144	207.42604
599.603	280.57511
600.062	188.34728
600.52	147.2915
600.978	227.47204
601.437	231.46386
601.895	272.49818
602.353	288.55255
602.811	265.51002
603.269	239.49987
603.727	269.55863
604.184	173.34403
604.642	263.55957
605.099	297.59337
605.557	287.60531
606.014	236.44119
606.471	271.58311
606.928	295.53772
607.385	389.79015
607.842	416.79276
608.299	552.04064
608.755	454.90682
609.212	405.74912
609.668	394.72421
610.125	456.91631
610.581	543.05951
611.037	505.95562
611.493	395.79465
611.949	311.64527
612.405	337.57482
612.861	421.84188
613.316	317.6539
613.772	353.69576
614.227	362.73111
614.683	470.84181
615.138	385.76775
615.593	348.69606
616.048	437.84756
616.503	402.84802
616.958	432.9197
617.412	358.73133
617.867	331.63215
618.321	418.73631
618.776	377.71965
619.23	427.85586
619.684	377.73852
620.138	419.83905
620.592	388.81706
621.046	433.87511
621.5	394.83079
621.954	382.75132
622.407	409.78984
622.861	364.77562
623.314	345.69374
623.768	361.7393
624.221	349.6046
624.674	335.68419
625.127	327.68089
625.58	352.71451
626.033	360.70705
626.485	284.61174
626.938	371.78349
627.39	302.63317
627.843	303.63288
628.295	265.55843
628.747	328.70165
629.199	276.57176
629.651	242.50491
630.103	233.49186
630.555	270.52402
631.006	279.59955
631.458	214.46908
631.909	267.56734
632.361	233.50523
632.812	192.41553
633.263	216.43605
633.714	246.49113
634.165	214.48666
634.616	188.42182
635.067	235.48977
635.518	201.45274
635.968	210.3994
636.419	215.44171
636.869	206.46353
637.319	175.38497
637.769	159.33992
638.219	238.5364
638.669	132.30262
639.119	209.48384
639.569	172.39637
640.019	187.41344
640.468	163.35013
640.918	261.59268
641.367	177.38119
641.816	178.38244
642.265	173.38457
642.714	120.26991
643.163	195.42951
643.612	139.3218
644.061	123.25338
644.51	147.32406
644.958	132.28214
645.406	182.41808
645.855	170.40174
646.303	185.41688
646.751	94.20961
647.199	142.31402
647.647	167.37139
648.095	132.29471
648.543	149.29865
648.99	178.41003
649.438	162.3699
649.885	140.33712
650.333	157.29765
650.78	158.37006
651.227	186.43649
651.674	142.31573
652.121	130.30889
652.568	123.29197
653.015	196.47856
653.461	173.39876
653.908	178.4025
654.354	146.34061
654.801	80.18547
655.247	195.41562
655.693	165.41774
656.139	139.32613
656.585	134.31508
657.031	93.21394
657.477	108.23064
657.922	151.33999
658.368	150.36216
658.813	157.35827
659.259	94.22309
659.704	89.20564
660.149	97.22394
660.594	144.33555
661.039	128.28767
661.484	174.40673
661.929	141.32474
662.373	104.25894
662.818	100.24554
663.262	119.2828
663.707	104.26063
664.151	156.37422
664.595	81.1945
665.039	120.2953
665.483	121.30406
665.927	144.33489
666.371	61.14128
666.814	119.28204
667.258	63.14909
667.701	174.37094
668.145	150.36816
668.588	124.30153
669.031	105.2454
669.474	140.33341
669.917	111.24593
670.36	113.27833
670.803	133.31851
671.245	122.25726
671.688	82.20037
672.13	54.12226
672.573	125.31512
673.015	125.29843
673.457	96.21008
673.899	114.27535
674.341	120.28831
674.783	105.25117
675.225	112.27429
675.666	75.18071
676.108	139.30128
676.549	110.26066
676.991	152.33333
677.432	76.15371
677.873	139.32026
678.314	81.19442
678.755	119.28856
679.196	100.22981
679.637	181.43642
680.078	143.33342
680.518	140.32559
680.959	125.29866
681.399	123.30374
681.839	84.20541
682.28	113.27812
682.72	84.19374
683.16	89.22204
683.6	99.22747
684.039	157.32663
684.479	83.20451
684.919	46.10745
685.358	125.31602
685.798	128.33319
686.237	123.29736
686.676	118.27486
687.115	71.1686
687.554	78.18676
687.993	70.15719
688.432	111.25473
688.871	56.12895
689.309	52.12579
689.748	86.1827
690.186	130.31043
690.625	98.23088
691.063	96.23126
691.501	132.3253
691.939	127.31557
692.377	85.20851
692.815	111.26582
693.253	133.31948
693.69	54.12091
694.128	98.23813
694.565	137.32608
695.003	115.29147
695.44	92.21767
695.877	118.27594
696.314	81.17699
696.751	135.30856
697.188	95.21985
697.625	138.31739
698.061	79.19106
698.498	150.36147
698.934	86.20866
699.371	69.16417
699.807	93.22153
700.243	121.29121
700.679	140.31722
701.115	157.36836
701.551	116.27414
701.987	124.28017
702.422	121.28756
702.858	116.27689
703.294	89.20383
703.729	130.31766
704.164	100.24181
704.599	90.20268
705.035	75.16998
705.47	95.23201
705.904	102.2389
706.339	138.32132
706.774	124.29077
707.209	95.22063
707.643	108.26026
708.078	108.26361
708.512	57.14385
708.946	119.28585
709.38	110.26167
709.814	100.23045
710.248	103.25201
710.682	87.20843
711.116	90.21574
711.549	98.25335
711.983	103.2394
712.416	122.2891
712.85	116.28924
713.283	130.30758
713.716	163.40635
714.149	93.2234
714.582	117.26397
715.015	120.30051
715.448	136.34156
715.881	91.2017
716.313	96.22643
716.746	113.26668
717.178	127.30506
717.61	132.33366
718.043	150.3717
718.475	135.3265
718.907	168.42162
719.339	113.25703
719.77	56.13439
720.202	78.19843
720.634	99.2416
721.065	105.24992
721.497	139.33946
721.928	96.2365
722.359	62.15094
722.79	84.20243
723.221	118.29689
723.652	196.49842
724.083	94.21368
724.514	97.22448
724.945	103.24318
725.375	59.13859
725.806	144.35788
726.236	142.36188
726.666	136.3214
727.096	89.21962
727.526	136.34365
727.956	120.27323
728.386	166.40517
728.816	107.27071
729.246	88.21487
729.675	171.4162
730.105	131.32171
730.534	137.31993
730.964	167.41828
731.393	173.42579
731.822	151.38284
732.251	112.28412
732.68	170.39754
733.109	122.30022
733.537	107.25888
733.966	141.34831
734.395	165.37819
734.823	137.3091
735.251	72.17495
735.68	186.46006
736.108	139.34991
736.536	113.2672
736.964	120.27875
737.392	141.351
737.82	127.30449
738.247	163.38737
738.675	177.41885
739.102	113.28201
739.53	135.34179
739.957	134.34281
740.384	206.50016
740.811	161.40442
741.238	108.2639
741.665	137.31666
742.092	199.46836
742.519	115.28419
742.945	94.2267
743.372	146.35914
743.798	133.3402
744.225	137.32458
744.651	109.27351
745.077	157.38812
745.503	134.32585
745.929	149.35532
746.355	183.44973
746.781	185.4523
747.207	119.27888
747.632	71.17424
748.058	156.386
748.483	148.33916
748.908	122.30243
749.334	141.34447
749.759	133.31266
750.184	117.27848
750.609	158.38507
751.033	170.39832
751.458	189.41891
751.883	176.43101
752.307	137.32119
752.732	115.28648
753.156	180.43868
753.58	174.40896
754.005	179.4485
754.429	127.29786
754.853	123.30374
755.277	122.28843
755.7	135.33325
756.124	157.38584
756.548	166.3894
756.971	195.46875
757.394	156.39797
757.818	172.43693
758.241	121.30591
758.664	202.50091
759.087	39.08846
759.51	169.41579
759.933	120.28809
760.356	159.40341
760.778	133.32541
761.201	180.43228
761.623	180.4313
762.046	155.36523
762.468	171.40653
762.89	160.39125
763.312	149.36117
763.734	109.26243
764.156	132.32435
764.578	182.41355
765	152.36782
765.421	88.22371
765.843	169.43742
766.264	146.3505
766.686	140.34933
767.107	103.24976
767.528	75.18995
767.949	103.2617
768.37	118.28887
768.791	157.37641
769.212	93.23361
769.632	63.14805
770.053	116.30413
770.473	111.26967
770.894	116.28976
771.314	150.35572
771.734	100.23348
772.154	147.37402
772.575	103.23921
772.994	78.17832
773.414	120.28754
773.834	79.19816
774.254	90.22074
774.673	120.29137
775.093	47.11734
775.512	84.2074
775.931	91.23081
776.351	99.24564
776.77	39.09634
777.189	59.14151
777.607	76.19457
778.026	101.25124
778.445	42.10598
778.864	94.24099
779.282	92.22162
779.701	62.15711
780.119	71.17995
780.537	57.14308
780.955	71.18129
781.373	58.14436
781.791	62.14043
782.209	89.20572
782.627	68.17955
783.045	57.13222
783.462	69.17681
783.88	34.08869
784.297	48.12159
784.715	53.13676
785.132	59.14371
785.549	57.14334
785.966	18.04582
786.383	56.13857
786.8	71.16574
787.217	45.10764
787.633	17.04293
788.05	103.2444
788.466	81.19161
788.883	39.10018
789.299	46.11169
789.715	49.11998
790.131	45.11272
790.547	71.17777
790.963	76.18895
791.379	46.11702
791.795	17.0394
792.21	31.07333
792.626	44.10531
793.041	46.11433
793.457	42.10461
793.872	40.09493
794.287	9.02178
794.702	49.12154
795.117	52.12985
795.532	41.10344
795.947	61.14759
796.362	27.06525
796.776	73.17168
797.191	19.04706
797.605	-47.11311
798.02	24.05904
798.434	54.12121
798.848	30.07456
799.262	-6.01511
799.676	83.20255
800.09	52.12862
800.504	53.12934
800.918	5.01177
801.331	79.20702
801.745	0
802.158	48.12064
802.572	65.15821
802.985	66.16007
803.398	15.03624
803.811	79.20307
804.224	37.09281
804.637	25.06019
805.05	62.14436
805.462	66.1626
805.875	0
806.288	4.00978
806.7	12.03051
807.112	38.0889
807.525	45.11174
807.937	0
808.349	70.17556
808.761	63.1554
809.173	30.07336
809.584	55.13652
809.996	-15.03734
810.408	8.02087
810.819	8.01907
811.231	34.08839
811.642	82.19521
812.053	188.43738
812.464	232.53505
812.875	262.64706
813.286	122.31124
813.697	91.21243
814.108	49.12034
814.519	24.05414
814.929	52.13313
815.34	69.16757
815.75	40.10219
816.16	61.15241
816.571	37.09666
816.981	75.17721
817.391	76.1835
817.801	-7.01763
818.211	37.08888
818.62	32.07764
819.03	20.04951
819.44	75.19574
819.849	39.09885
820.259	31.07991
820.668	13.03232
821.077	30.07505
821.486	79.19013
821.895	79.19502
822.304	23.06139
822.713	11.02632
823.122	20.05038
823.531	42.10018
823.939	0
824.348	57.139
824.756	25.06314
825.164	84.21089
825.573	13.03295
825.981	110.27089
826.389	85.21298
826.797	39.09821
827.205	19.04407
827.612	86.21163
828.02	22.05215
828.428	38.09729
828.835	51.13455
829.243	33.07924
829.65	12.03014
830.057	12.02944
830.464	18.04428
830.871	68.16294
831.278	33.08032
831.685	51.11436
832.092	28.06908
832.499	25.05525
832.905	34.08659
833.312	56.12818
833.718	59.14725
834.124	22.05078
834.531	69.17389
834.937	68.17446
835.343	63.1522
835.749	37.08702
836.155	32.08424
836.561	63.15506
836.966	21.0518
837.372	59.15033
837.777	40.1001
838.183	37.08287
838.588	30.07497
838.993	89.21582
839.399	-16.03971
839.804	9.02216
840.209	-3.00772
840.613	-28.06355
841.018	25.06375
841.423	41.10557
841.828	27.06872
842.232	69.17083
842.637	18.04287
843.041	1.00259
843.445	-3.00761
843.849	14.03497
844.253	29.06942
844.657	-6.01529
845.061	1.0023
845.465	-26.06386
845.869	58.135
846.272	0
846.676	16.03905
847.079	27.06906
847.483	43.10767
847.886	43.10505
848.289	43.11505
848.692	50.12688
849.095	25.06049
849.498	84.21211
849.901	18.04168
850.304	13.03137
850.707	48.12267
851.109	64.16189
851.512	22.05446
851.914	-11.02807
852.316	29.07376
852.718	31.08041
853.121	1.00248
853.523	-13.03084
853.925	-8.0211
854.326	-8.02024
854.728	33.08524
855.13	-11.02871
855.531	10.02413
855.933	38.09165
856.334	18.04521
856.736	-59.13545
857.137	11.02583
857.538	12.03042
857.939	-5.0125
858.34	42.10271
858.741	9.02372
859.142	39.09407
859.542	27.07159
859.943	59.14661
860.343	-13.03261
860.744	15.03691
861.144	18.04425
861.544	0
861.945	21.05387
862.345	19.04682
862.745	12.03007
863.145	70.16703
863.544	-7.01789
863.944	18.04287
864.344	50.1244
864.743	98.24143
865.143	62.15912
865.542	-36.08508
865.941	15.03742
866.34	55.13187
866.74	19.0513
867.139	-23.05592
867.537	27.06916
867.936	-9.02194
868.335	33.08432
868.734	11.02833
869.132	15.03515
869.531	30.07295
869.929	-51.11882
870.327	-6.01456
870.726	35.08764
871.124	44.10314
871.522	7.01799
871.92	47.11615
872.318	24.05904
872.715	35.087
873.113	-17.042
873.511	13.03264
873.908	-35.08978
874.306	-1.00251
874.703	13.03279
875.1	53.13567
875.497	11.0266
875.894	-37.09221
876.291	46.11312
876.688	4.01041
877.085	52.12489
877.482	30.07546
877.878	13.03155
878.275	-15.03858
878.671	35.07832
879.068	59.14237
879.464	28.06804
879.86	-1.00239
880.256	49.12109
880.652	20.05119
881.048	48.11912
881.444	3.00721
881.84	20.05115
882.236	51.12834
882.631	20.04942
883.027	20.04876
883.422	15.03862
883.817	-23.05861
884.213	19.04906
884.608	-25.06221
885.003	21.05096
885.398	-7.01772
885.793	19.048
886.188	-22.05545
886.582	21.05419
886.977	30.07156
887.371	36.09136
887.766	34.08487
888.16	43.10755
888.554	3.00749
888.949	39.09821
889.343	9.02218
889.737	-34.09191
890.131	27.06807
890.525	0
890.918	10.02537
891.312	8.01932
891.706	-10.02652
892.099	43.10964
892.492	33.07156
892.886	10.02467
893.279	3.00771
893.672	-20.05158
894.065	8.0202
894.458	4.01015
894.851	33.08119
895.244	15.03857
895.637	17.04124
896.029	17.04186
896.422	19.04673
896.814	4.01004
897.206	-20.04831
897.599	54.13357
897.991	-11.02692
898.383	-29.06964
898.775	-7.016
899.167	-4.00943
899.559	55.1392
899.951	37.08753
900.342	18.04607
900.734	-63.15962
901.125	36.09474
901.517	22.05432
901.908	27.06508
902.299	5.01233
902.69	-2.00477
903.082	21.05117
903.473	1.00242
903.863	22.05644
904.254	-20.0471
904.645	67.16624
905.036	1.00244
905.426	39.08957
905.817	13.03214
906.207	-23.05561
906.597	-16.03793
906.987	33.08583
907.378	21.05341
907.768	21.05581
908.158	32.07834
908.547	-2.00522
908.937	29.07473
909.327	24.0586
909.717	57.14462
910.106	11.02663
910.495	42.10507
910.885	64.16178
911.274	25.0628
911.663	57.14457
912.052	53.13079
912.441	13.03329
912.83	15.0347
913.219	41.10751
913.608	13.03208
913.997	-23.05844
914.385	15.0361
914.774	26.06363
915.162	3.00722
915.55	40.09702
915.939	6.01527
916.327	31.07768
916.715	9.02311
917.103	38.09379
917.491	34.08441
917.878	29.07161
918.266	11.02873
918.654	22.0565
919.041	-37.09804
919.429	-25.05989
919.816	25.06368
920.203	23.05609
920.591	38.09448
920.978	61.14914
921.365	8.02115
921.752	12.02883
922.139	18.03937
922.525	4.00969
922.912	40.09778
923.299	11.02754
923.685	0
924.072	26.06028
924.458	6.01499
924.844	-31.07787
925.231	-28.0662
925.617	-19.04892
926.003	39.0999
926.389	32.081
926.774	34.08643
927.16	4.01002
927.546	-30.07767
927.931	27.06768
928.317	11.02555
928.702	22.05235
929.088	39.09247
929.473	12.03074
929.858	-63.15558
930.243	17.04107
930.628	3.00736
931.013	23.0573
931.398	34.07848
931.783	67.17593
932.167	1.00247
932.552	34.08545
932.937	32.0797
933.321	-29.07382
933.705	-8.02038
934.09	66.16636
934.474	5.01198
934.858	31.08068
935.242	1.00234
935.626	7.01806
936.009	15.04013
936.393	15.03841
936.777	0
937.16	12.03143
937.544	8.01901
937.927	-5.01281
938.311	49.11967
938.694	49.12962
939.077	29.06971
939.46	47.11551
939.843	48.10024
940.226	7.01809
940.609	-11.02557
940.991	-21.05413
941.374	37.09066
941.757	-16.03997
942.139	-56.12854
942.522	31.07356
942.904	8.01939
943.286	35.08918
943.668	5.01305
944.05	8.01986
944.432	11.02734
944.814	26.06434
945.196	-14.03453
945.578	-34.08212
945.959	43.10093
946.341	44.10816
946.722	31.07305
947.104	2.00483
947.485	12.02814
947.866	20.05066
948.247	29.07345
948.628	31.07591
949.009	8.02064
949.39	18.04508
949.771	23.0538
950.152	32.07881
950.532	-56.14044
950.913	16.03885
951.293	10.02719
951.674	28.06801
952.054	-21.05271
952.434	16.03997
952.814	35.08353
953.194	46.12048
953.574	85.20805
953.954	-12.02884
954.334	28.07007
954.714	-20.04938
955.093	32.07895
955.473	-29.07355
955.853	24.06241
956.232	53.1452
956.611	10.02417
956.99	1.00254
957.37	-2.00514
957.749	0
958.128	9.02284
958.506	19.04955
958.885	8.02034
959.264	14.03454
959.643	21.04808
960.021	27.06719
960.4	-4.00917
960.778	42.10362
961.156	20.05041
961.535	0
961.913	56.13091
962.291	-7.01814
962.669	17.04332
963.047	9.02313
963.424	38.09718
963.802	9.0223
964.18	61.15406
964.557	67.15382
964.935	12.02864
965.312	-12.03158
965.69	9.02271
966.067	-35.08659
966.444	33.08158
966.821	19.04925
967.198	54.13092
967.575	15.03712
967.952	16.03796
968.329	5.01227
968.705	30.06462
969.082	12.03098
969.458	-30.07306
969.835	41.09998
970.211	28.07214
970.587	39.0973
970.963	36.09259
971.339	-12.03167
971.715	17.0427
972.091	32.07907
972.467	43.10739
972.843	-7.01755
973.219	99.23555
973.594	15.03947
973.97	48.11432
974.345	14.03374
974.721	37.08982
975.096	3.00732
975.471	19.04535
975.846	-5.01214
976.221	21.0536
976.596	8.01933
976.971	36.08911
977.346	67.15548
977.72	25.06397
978.095	-7.01827
978.469	25.05996
978.844	71.17784
979.218	-36.08771
979.593	8.01932
979.967	23.05632
980.341	2.00465
980.715	11.02791
981.089	45.11276
981.463	-5.01161
981.837	-32.07939
982.21	39.09097
982.584	-7.01709
982.957	-19.04804
983.331	41.0971
983.704	4.00991
984.078	-10.02492
984.451	65.16193
984.824	-29.07167
985.197	42.10217
985.57	16.04037
985.943	30.07437
986.316	36.08869
986.688	6.01459
987.061	42.0986
987.434	54.14062
987.806	18.04392
988.179	13.0309
988.551	34.0865
988.923	18.04459
989.295	75.18657
989.667	-2.00483
990.039	24.05958
990.411	5.01161
990.783	27.06246
991.155	-33.08053
991.527	73.17901
991.898	22.0551
992.27	-46.11578
992.641	59.14778
993.012	46.10833
993.384	42.10033
993.755	-9.02318
994.126	-4.00972
994.497	15.03706
994.868	3.00696
995.239	4.00978
995.61	-6.01525
995.98	41.09976
996.351	-41.10321
996.722	-1.00234
997.092	-7.01676
997.462	-41.09748
997.833	23.05481
998.203	57.13801
998.573	-6.01509
998.943	31.07296
999.313	-49.11962
999.683	-40.09763
1000.053	30.0693
1000.423	32.07802
1000.792	16.04171
1001.162	13.03221
1001.531	38.09389
1001.901	7.01758
1002.27	19.04275
1002.639	11.0283
1003.009	11.02635
1003.378	-6.01549
1003.747	36.08528
1004.116	-7.01693
1004.485	22.05286
1004.853	21.05347
1005.222	44.11106
1005.591	12.0287
1005.959	-19.04341
1006.328	-33.07552
1006.696	-15.03662
1007.064	16.04049
1007.433	27.06775
1007.801	37.09103
1008.169	43.10871
1008.537	-8.01793
1008.905	16.03752
1009.273	34.08422
1009.64	-26.06292
1010.008	39.09315
1010.375	96.23108
1010.743	64.14737
1011.11	15.03573
1011.478	13.03239
1011.845	48.11291
1012.212	5.01142
1012.579	-9.02233
1012.946	61.14486
1013.313	44.10483
1013.68	4.00907
1014.047	-14.03376
1014.414	31.07347
1014.78	-11.02763
1015.147	62.14958
1015.513	25.06051
1015.88	86.21847
1016.246	67.16485
1016.612	56.12802
1016.978	-23.05711
1017.344	46.11374
1017.71	45.10982
1018.076	-7.01669
1018.442	47.12094
1018.808	3.00756
1019.174	-2.00506
1019.539	99.22564
1019.905	-5.01191
1020.27	-8.01995
1020.636	63.15064
1021.001	-6.01451
1021.366	-18.04377
1021.731	25.06455
1022.096	-20.05106
1022.461	13.03098
1022.826	8.01916
1023.191	27.07109
1023.556	24.05652
1023.92	55.13507
1024.285	31.07591
1024.649	27.06643
1025.014	22.05476
1025.378	9.02279
1025.742	17.04246
1026.107	-26.0597
1026.471	48.11207
1026.835	15.03741
1027.199	-6.01459
1027.562	27.06303
1027.926	3.0074
1028.29	28.07111
1028.654	48.11044
1029.017	43.1058
1029.381	1.00241
1029.744	21.05381
1030.107	36.08537
1030.471	-26.06313
1030.834	13.02979
1031.197	50.1204
1031.56	-52.12508
1031.923	-1.00261
1032.286	4.00948
1032.648	47.11243
1033.011	30.06911
1033.374	31.07311
1033.736	1.00265
1034.099	14.03434
1034.461	-3.00765
1034.823	-21.05294
1035.185	18.04555
1035.548	10.02451
1035.91	-24.05827
1036.272	-1.0023
1036.634	51.12469
1036.995	19.04491
1037.357	-16.03939
1037.719	6.01471
1038.08	15.03584
1038.442	26.06197
1038.803	35.08423
1039.165	11.02794
1039.526	2.00487
1039.887	-7.01692
1040.248	-9.0224
1040.609	24.05956
1040.97	39.09546
1041.331	-19.04867
1041.692	-24.05681
1042.053	27.06174
1042.413	15.03518
1042.774	40.09742
1043.134	33.07879
1043.495	29.07314
1043.855	3.00734
1044.215	7.0175
1044.576	-33.08011
1044.936	37.08501
1045.296	45.11235
1045.656	48.11777
1046.016	58.13972
1046.375	34.08268
1046.735	-47.10859
1047.095	44.10306
1047.454	3.00642
1047.814	-15.03648
1048.173	24.0576
1048.533	-12.02782
1048.892	-23.05594
1049.251	50.12544
1049.61	-15.03735
1049.969	8.019
1050.328	-26.05726
1050.687	6.01471
1051.046	8.01962
1051.405	24.05995
1051.763	-27.063
1052.122	-29.07332
1052.48	-12.02975
1052.839	3.00712
1053.197	-9.02141
1053.555	47.10717
1053.914	5.01232
1054.272	10.02434
1054.63	15.03689
1054.988	-20.04812
1055.345	13.0282
1055.703	18.04356
1056.061	9.0233
1056.419	12.03125
1056.776	34.08265
1057.134	-10.02341
1057.491	-21.05323
1057.848	-13.03271
1058.206	6.01422
1058.563	-24.0537
1058.92	18.04173
1059.277	30.07423
1059.634	49.11524
1059.991	-1.00242
1060.348	-25.05733
1060.704	3.00721
1061.061	60.13904
1061.418	3.00733
1061.774	0
1062.131	6.01597
1062.487	-22.05213
1062.843	28.07005
1063.199	23.05744
1063.555	-40.09427
1063.911	20.05075
1064.267	10.02103
1064.623	-40.09872
1064.979	97.22759
1065.335	26.0624
1065.691	34.08169
1066.046	-3.00667
1066.402	-8.01838
1066.757	13.03301
1067.112	21.05178
1067.468	-33.07912
1067.823	36.08672
1068.178	35.08484
1068.533	21.05115
1068.888	43.10282
1069.243	-6.01495
1069.598	39.09489
1069.952	-67.15437
1070.307	-24.06017
1070.662	-5.01199
1071.016	-50.11426
1071.371	-26.06001
1071.725	20.04809
1072.079	-5.01214
1072.434	-22.05414
1072.788	30.07167
1073.142	8.01982
1073.496	12.02866
1073.85	-24.05643
1074.203	27.06574
1074.557	23.06139
1074.911	36.0861
1075.265	-21.04947
1075.618	31.07591
1075.971	7.01678
1076.325	38.09671
1076.678	0
1077.031	20.0455
1077.385	40.08824
1077.738	0
1078.091	-52.1206
1078.444	8.01872
1078.796	34.08361
1079.149	2.00501
1079.502	-32.07674
1079.855	-3.00706
1080.207	34.08395
1080.56	-4.01043
1080.912	32.07811
1081.264	15.03633
1081.617	-18.04439
1081.969	1.00254
1082.321	-26.06434
1082.673	-27.06253
1083.025	-5.01198
1083.377	-242.55166
1083.728	45.10501
1084.08	12.03014
1084.432	-3.0073
1084.783	54.12633
1085.135	-17.04309
1085.486	-15.03474
1085.838	-12.02987
1086.189	-13.0319
1086.54	39.09326
1086.891	-50.12859
1087.242	-14.03446
1087.593	30.07325
1087.944	33.07488
1088.295	21.04798
1088.646	-4.00979
1088.996	-72.17731
1089.347	-2.00495
1089.698	-25.05989
1090.048	1.00262
1090.398	-12.02815
1090.749	0
1091.099	-14.03558
1091.449	26.065
1091.799	32.08031
1092.149	-41.10158
1092.499	8.01965
1092.849	1.00256
1093.199	35.08789
1093.548	-3.00727
1093.898	1.00252
1094.248	14.03617
1094.597	-45.11668
1094.947	8.02147
1095.296	2.00498
1095.645	10.02617
1095.994	8.01935
1096.343	46.11574
1096.692	3.00794
1097.041	-26.0712
1097.39	19.04788
1097.739	44.11438
1098.088	58.15505
1098.437	-13.03448
1098.785	17.04604
1099.134	4.01069
1099.482	27.07446
1099.83	8.02115
1100.179	-2.00526
1100.527	44.11692
1100.875	-30.0803
1101.223	33.0878
1101.571	-3.00835
1101.919	-37.09801
1102.267	5.01416
1102.615	-5.01609
1102.962	14.04506
1103.31	5.01607
1103.658	20.06435
