Data from N2 R9 sample 6_Subt2__0__18-48-09-800.txt Node

Date: Fri Aug 29 18:48:09 PDT 2025
User: uwsun
Spectrometer: HDX01956
Trigger mode: 0
Integration Time (sec): 5.000000E-1
Scans to average: 1
Nonlinearity correction enabled: true
Boxcar width: 0
Storing dark spectrum: false
XAxis mode: Wavelengths
Number of Pixels in Spectrum: 2068
>>>>>Begin Spectral Data<<<<<
194.03	202.5492
194.578	208.64067
195.127	209.63374
195.676	215.6535
196.225	247.62797
196.773	261.6855
197.321	352.88929
197.87	565.24958
198.418	493.09057
198.966	462.03526
199.513	402.86662
200.061	401.88059
200.609	507.15652
201.156	417.77402
201.704	418.90884
202.251	478.08567
202.798	479.06484
203.345	454.96779
203.892	460.99376
204.438	508.02654
204.985	451.90396
205.532	493.10689
206.078	489.01903
206.624	473.98705
207.17	572.10008
207.716	473.97435
208.262	525.85235
208.808	431.9046
209.354	473.97654
209.899	528.1353
210.445	473.99756
210.99	488.99191
211.535	592.15065
212.08	486.95768
212.625	579.21174
213.17	509.09696
213.715	430.80631
214.259	484.95688
214.804	518.08555
215.348	510.98231
215.892	500.01496
216.436	494.97253
216.98	476.89434
217.524	508.01104
218.068	518.1085
218.612	567.20229
219.155	499.99416
219.698	503.01479
220.242	470.00995
220.785	449.90162
221.328	460.98951
221.871	509.10728
222.414	457.98622
222.956	443.91584
223.499	414.80429
224.041	441.88964
224.583	456.84579
225.126	443.83622
225.668	447.93611
226.21	421.92022
226.751	375.70889
227.293	454.89126
227.835	454.95308
228.376	496.97739
228.918	481.04627
229.459	397.86007
230	456.93152
230.541	440.87315
231.082	443.92527
231.622	486.95408
232.163	425.88886
232.704	415.89176
233.244	436.93426
233.784	479.00832
234.324	432.80366
234.864	455.87952
235.404	476.96929
235.944	442.90333
236.484	498.06196
237.023	419.85264
237.563	415.82411
238.102	408.83385
238.641	446.97382
239.18	416.83323
239.719	473.01619
240.258	454.86981
240.797	468.95213
241.335	477.99849
241.874	425.68679
242.412	449.922
242.95	442.89924
243.488	468.90574
244.026	445.87173
244.564	462.7981
245.102	422.80771
245.64	497.01598
246.177	441.84102
246.715	472.96639
247.252	452.88482
247.789	532.82276
248.326	440.8972
248.863	437.80953
249.4	467.89753
249.936	404.70494
250.473	458.90293
251.009	467.89926
251.546	476.87806
252.082	469.86232
252.618	482.89626
253.154	448.91269
253.69	437.83339
254.226	467.94166
254.761	483.90727
255.297	466.85228
255.832	468.93305
256.367	504.99269
256.903	446.82229
257.438	564.09248
257.972	451.84465
258.507	455.87194
259.042	470.85092
259.576	450.80348
260.111	497.96072
260.645	507.9074
261.179	478.93129
261.713	478.88351
262.247	511.9788
262.781	457.79261
263.315	509.03585
263.849	513.06866
264.382	535.01372
264.915	502.97248
265.449	477.96403
265.982	516.97095
266.515	523.05522
267.048	477.83039
267.58	531.95331
268.113	473.84173
268.646	511.04513
269.178	462.85393
269.71	491.88419
270.243	565.0493
270.775	527.1115
271.307	522.04185
271.838	576.1211
272.37	468.96427
272.902	529.98636
273.433	534.94713
273.965	547.09109
274.496	512.05877
275.027	490.00957
275.558	488.98151
276.089	505.01603
276.62	538.134
277.15	512.04741
277.681	468.83952
278.211	547.1012
278.741	485.8698
279.272	497.92668
279.802	556.13605
280.332	488.9449
280.861	573.11498
281.391	569.03051
281.921	566.10735
282.45	553.13068
282.98	583.24003
283.509	602.0713
284.038	525.96774
284.567	579.08818
285.096	498.98825
285.625	522.9557
286.153	531.0022
286.682	577.04663
287.21	542.05079
287.739	577.08654
288.267	527.0292
288.795	651.37165
289.323	553.02595
289.851	637.16862
290.378	602.05801
290.906	570.09307
291.433	587.16831
291.961	517.93294
292.488	556.11087
293.015	597.09894
293.542	602.20461
294.069	563.09861
294.596	603.18349
295.122	586.10001
295.649	550.95476
296.175	573.1028
296.702	645.21962
297.228	634.20551
297.754	615.06255
298.28	541.96279
298.806	605.13044
299.332	633.05892
299.857	622.07154
300.383	656.29467
300.908	593.11016
301.433	603.13226
301.958	620.10454
302.483	586.13681
303.008	684.29382
303.533	671.35562
304.058	680.21606
304.582	664.17761
305.107	655.31115
305.631	654.128
306.155	678.17385
306.679	650.13541
307.203	715.21939
307.727	679.20334
308.251	682.26864
308.775	631.11635
309.298	692.21785
309.822	709.33694
310.345	764.30983
310.868	674.19105
311.391	703.28478
311.914	707.30578
312.437	781.27161
312.96	766.28662
313.482	727.24124
314.005	702.29491
314.527	708.37196
315.049	788.43937
315.571	727.12396
316.093	741.31756
316.615	802.34946
317.137	775.15292
317.659	826.40431
318.18	835.39943
318.702	831.31398
319.223	778.06095
319.744	828.23844
320.265	725.22321
320.786	825.38262
321.307	834.41109
321.828	854.26749
322.348	851.32257
322.869	839.29702
323.389	914.83553
323.909	883.30636
324.43	969.50852
324.95	897.29577
325.47	859.36934
325.989	928.36451
326.509	898.19685
327.029	977.30675
327.548	950.26913
328.067	1022.46596
328.587	976.50226
329.106	969.29769
329.625	1096.77722
330.144	1002.33821
330.662	993.32391
331.181	1020.37054
331.7	1013.35793
332.218	1096.2584
332.736	1147.4534
333.255	1070.36289
333.773	1124.43627
334.291	1110.55841
334.808	1087.25776
335.326	1121.30432
335.844	1116.32106
336.361	1118.5033
336.879	1057.26742
337.396	1237.46136
337.913	1182.30787
338.43	1234.2796
338.947	1276.42332
339.464	1209.13294
339.981	1229.34863
340.497	1316.51368
341.014	1286.43356
341.53	1271.22273
342.046	1277.41412
342.562	1340.50623
343.078	1309.31557
343.594	1356.36667
344.11	1420.37024
344.626	1392.48903
345.141	1430.2307
345.657	1503.25766
346.172	1434.35574
346.687	1415.2054
347.202	1458.14496
347.717	1541.31911
348.232	1482.41951
348.747	1485.17463
349.261	1410.97822
349.776	1496.20563
350.29	1494.28044
350.805	1634.37774
351.319	1572.16554
351.833	1526.03778
352.347	1608.15237
352.861	1618.10761
353.374	1613.10584
353.888	1690.21582
354.401	1666.04888
354.915	1637.92398
355.428	1696.21908
355.941	1673.01161
356.454	1863.95377
356.967	1720.06726
357.48	1794.9803
357.993	1751.1559
358.505	1712.09279
359.018	1835.09191
359.53	1900.99883
360.042	1883.79258
360.554	1925.02123
361.066	1846.00356
361.578	1908.68944
362.09	1870.92764
362.602	1884.6767
363.113	1921.7911
363.625	1978.67064
364.136	1922.62745
364.647	1861.66638
365.158	1961.7089
365.669	2071.75688
366.18	2051.69881
366.691	2092.48756
367.201	2069.68717
367.712	2043.5153
368.222	2053.50563
368.733	2242.23864
369.243	2188.27818
369.753	2290.36199
370.263	2353.39753
370.773	2313.4813
371.282	2262.32141
371.792	2238.0941
372.301	2403.1693
372.811	2419.38327
373.32	2329.76413
373.829	2404.9052
374.338	2650.58316
374.847	2751.52039
375.356	2766.50963
375.865	2829.13913
376.373	3067.06786
376.882	3118.27702
377.39	3004.15575
377.898	3029.01098
378.407	3216.74101
378.915	3549.57638
379.423	3579.58421
379.93	3772.52227
380.438	3784.52266
380.946	4035.60128
381.453	4130.7043
381.96	4270.98241
382.468	4415.56089
382.975	4935.28216
383.482	5073.20938
383.989	5218.13119
384.495	5307.56735
385.002	5504.11206
385.509	5805.26792
386.015	6224.42186
386.521	6617.59997
387.028	6732.31281
387.534	6908.56234
388.04	7356.17335
388.546	7246.03703
389.051	7520.59401
389.557	8157.23417
390.063	9377.03685
390.568	9611.19659
391.073	9812.2964
391.578	10168.95461
392.084	10137.67237
392.589	10226.41996
393.093	10605.12169
393.598	12300.627
394.103	13194.13562
394.607	14827.65552
395.112	15775.57918
395.616	16582.19626
396.12	17649.06924
396.624	19760.1515
397.128	22009.28207
397.632	24450.51265
398.136	26115.9112
398.639	26365.91392
399.143	28325.48207
399.646	27977.09493
400.15	24981.29315
400.653	20124.16724
401.156	13866.23708
401.659	5169.95759
402.162	1054.15589
402.664	0
403.167	0
403.67	0
404.172	0
404.674	0
405.176	0
405.678	0
406.18	0
406.682	0
407.184	0
407.686	0
408.187	0
408.688	0
409.19	0
409.691	0
410.192	0
410.693	0
411.194	435.30976
411.694	4082.94878
412.195	8864.71461
412.696	12089.80453
413.196	12760.96929
413.696	12863.67595
414.196	13703.56671
414.696	17261.84252
415.196	21764.24417
415.696	29583.19008
416.196	36460.31858
416.695	39596.5179
417.195	31847.44164
417.694	30167.38048
418.194	28409.50264
418.693	26057.01848
419.192	25102.94082
419.691	24833.33504
420.19	24240.52813
420.688	24282.71005
421.187	23309.14757
421.685	21934.69327
422.184	20526.13581
422.682	17838.38262
423.18	14656.54195
423.678	12854.35001
424.176	11992.51536
424.674	11337.90748
425.172	10975.86644
425.669	10535.98353
426.167	9781.01433
426.664	8724.5672
427.161	8030.08976
427.659	7371.72322
428.156	6897.48711
428.652	6457.79166
429.149	6150.35848
429.646	5893.36611
430.143	5578.22228
430.639	5271.29049
431.135	4944.32725
431.632	4837.2034
432.128	4380.65346
432.624	4037.52033
433.12	3772.53315
433.616	3781.52705
434.111	3503.56678
434.607	3253.70195
435.103	3426.61737
435.598	3330.6686
436.093	3171.97271
436.588	3072.0564
437.083	2951.22052
437.578	2737.45997
438.073	2488.76702
438.568	2567.88721
439.062	2390.68241
439.557	2385.02463
440.051	2283.98306
440.546	2082.11084
441.04	2014.31401
441.534	1976.54195
442.028	2081.42151
442.522	1899.48209
443.015	1882.30315
443.509	1871.62676
444.002	1788.64984
444.496	1798.4051
444.989	1806.70164
445.482	1769.75909
445.975	1756.50688
446.468	1711.44097
446.961	1648.46793
447.454	1685.61216
447.947	1612.70859
448.439	1570.83796
448.931	1455.64124
449.424	1557.97196
449.916	1508.87472
450.408	1432.68993
450.9	1396.86051
451.392	1400.97856
451.884	1338.79995
452.375	1265.92267
452.867	1445.82691
453.358	1321.77497
453.849	1276.6751
454.341	1216.78387
454.832	1192.70471
455.323	1226.95568
455.814	1229.87164
456.304	1208.88128
456.795	1168.86504
457.285	1215.87182
457.776	1264.95516
458.266	1158.95967
458.756	1124.00431
459.247	1089.94938
459.737	1031.93254
460.226	968.8199
460.716	1086.99961
461.206	977.97133
461.695	998.08579
462.185	974.96383
462.674	940.92039
463.163	958.87547
463.653	958.7989
464.142	890.97397
464.63	903.03442
465.119	829.88237
465.608	837.89308
466.096	881.86758
466.585	842.94198
467.073	840.0042
467.561	877.04761
468.05	843.97613
468.538	857.08638
469.026	838.03097
469.513	715.75667
470.001	723.85843
470.489	735.93056
470.976	760.93735
471.463	754.05561
471.951	702.01899
472.438	627.84556
472.925	567.77509
473.412	667.97967
473.899	573.78995
474.385	620.92982
474.872	579.81429
475.359	569.86327
475.845	583.70692
476.331	583.77418
476.817	527.83156
477.303	515.7654
477.789	422.68059
478.275	466.77078
478.761	487.78216
479.247	512.74962
479.732	366.63187
480.218	450.8147
480.703	444.76291
481.188	405.58607
481.673	439.6862
482.158	346.49955
482.643	426.77793
483.128	381.60591
483.612	373.62082
484.097	409.7229
484.581	376.63117
485.066	349.61876
485.55	279.44543
486.034	259.41136
486.518	313.53905
487.002	257.47296
487.486	303.55426
487.969	270.49901
488.453	315.60655
488.936	253.43175
489.42	275.4607
489.903	264.51899
490.386	271.32258
490.869	303.50123
491.352	298.56981
491.835	232.37049
492.318	223.39184
492.8	218.34972
493.283	217.43877
493.765	159.31515
494.247	250.46459
494.73	222.38712
495.212	178.35108
495.694	116.2204
496.175	109.20978
496.657	245.46494
497.139	215.29463
497.62	105.20354
498.102	87.17938
498.583	156.32303
499.064	87.1597
499.545	87.16518
500.026	97.17985
500.507	123.23661
500.988	139.28763
501.469	112.23389
501.949	116.24117
502.43	85.16848
502.91	95.16237
503.39	125.26411
503.87	96.18872
504.35	133.26386
504.83	87.15954
505.31	105.21396
505.79	92.1853
506.269	56.11196
506.749	48.09311
507.228	2.00404
507.707	65.12214
508.187	101.20572
508.666	37.07794
509.145	-25.05074
509.623	62.12441
510.102	31.06498
510.581	112.23119
511.059	2.00435
511.538	32.07224
512.016	95.19412
512.494	44.09274
512.972	45.09291
513.45	-39.07868
513.928	23.0484
514.406	-24.05023
514.884	37.08276
515.361	9.01882
515.839	-1.00199
516.316	26.05449
516.793	48.10624
517.27	42.08915
517.747	21.04719
518.224	9.01831
518.701	24.04669
519.178	-7.01522
519.654	40.08357
520.131	-7.0153
520.607	38.08295
521.083	-14.02825
521.56	-15.03137
522.036	-15.0292
522.512	52.11288
522.987	-15.03139
523.463	-37.07838
523.939	23.0499
524.414	47.09547
524.89	-46.09781
525.365	20.03989
525.84	-68.14421
526.315	10.02129
526.79	12.02394
527.265	-42.0858
527.74	-11.02386
528.215	0
528.689	-43.08523
529.164	-22.04276
529.638	11.02523
530.112	-63.13352
530.587	-35.06652
531.061	-20.04299
531.534	-41.0897
532.008	6.01281
532.482	-16.03295
532.956	-50.11454
533.429	3.00649
533.903	-38.0759
534.376	-19.03764
534.849	-12.02495
535.322	-40.0852
535.795	8.01749
536.268	-59.12837
536.741	-47.10231
537.213	-14.02911
537.686	-41.08993
538.158	-39.07839
538.631	-29.06385
539.103	-53.10712
539.575	19.03537
540.047	-40.07952
540.519	-2.0043
540.991	5.01101
541.463	-15.03273
541.934	-37.07653
542.406	-29.06224
542.877	1.00202
543.348	-36.07885
543.82	9.01985
544.291	39.08132
544.762	-13.02764
545.233	-6.01348
545.703	-53.10584
546.174	21.04351
546.645	-6.01273
547.115	-9.01938
547.585	41.08343
548.056	13.02764
548.526	1.00208
548.996	83.17452
549.466	119.25297
549.935	36.07441
550.405	95.17896
550.875	111.22599
551.344	111.22979
551.814	124.24446
552.283	96.18044
552.752	105.2087
553.221	136.24896
553.69	192.35645
554.159	165.34113
554.628	72.1376
555.096	123.26603
555.565	162.3045
556.033	124.2517
556.502	94.19813
556.97	137.26176
557.438	103.21352
557.906	169.34783
558.374	73.14842
558.842	67.14225
559.31	78.15522
559.777	47.10131
560.245	114.23775
560.712	110.22625
561.18	39.07737
561.647	113.22366
562.114	85.17242
562.581	124.27158
563.048	171.34703
563.514	104.22691
563.981	156.3155
564.448	137.27231
564.914	169.34752
565.381	204.40709
565.847	210.43095
566.313	173.35574
566.779	170.33845
567.245	190.39096
567.711	232.48405
568.176	185.36394
568.642	226.49392
569.108	243.51882
569.573	291.59136
570.038	271.49021
570.504	211.41118
570.969	301.64849
571.434	250.47107
571.899	308.62577
572.363	363.69528
572.828	351.68043
573.293	360.69537
573.757	360.69604
574.222	334.62689
574.686	346.64974
575.15	431.8467
575.614	371.71232
576.078	387.75775
576.542	418.78922
577.006	435.80744
577.469	443.9142
577.933	370.69002
578.396	424.83865
578.86	401.78962
579.323	390.77609
579.786	432.76735
580.249	414.78052
580.712	343.71293
581.175	327.68695
581.637	410.7912
582.1	384.70867
582.563	357.6491
583.025	322.66525
583.487	277.47806
583.95	285.52239
584.412	356.63101
584.874	351.72305
585.336	278.56791
585.797	333.61069
586.259	320.64807
586.721	254.51653
587.182	306.61858
587.643	277.54442
588.105	260.53476
588.566	277.50414
589.027	227.47646
589.488	244.48533
589.949	313.65261
590.41	210.35594
590.87	301.59382
591.331	230.43573
591.791	198.40173
592.252	192.38546
592.712	249.5224
593.172	245.48039
593.632	281.53431
594.092	206.40439
594.552	290.53786
595.011	173.35061
595.471	258.50193
595.931	211.41313
596.39	232.48513
596.849	239.48591
597.308	241.45757
597.768	217.48418
598.227	272.56952
598.685	296.58931
599.144	262.53255
599.603	298.60959
600.062	221.40487
600.52	262.50558
600.978	291.59649
601.437	315.62027
601.895	262.48107
602.353	310.59161
602.811	307.58488
603.269	345.70462
603.727	368.74733
604.184	336.64278
604.642	369.76697
605.099	389.76058
605.557	399.82082
606.014	397.71267
606.471	388.81382
606.928	393.6986
607.385	449.89954
607.842	611.10788
608.299	603.1228
608.755	532.04169
609.212	513.92335
609.668	525.93334
610.125	640.22994
610.581	707.32664
611.037	606.11694
611.493	561.08381
611.949	556.08878
612.405	556.89282
612.861	639.21179
613.316	565.09886
613.772	630.15953
614.227	566.088
614.683	587.01837
615.138	635.1913
615.593	588.1092
616.048	663.2152
616.503	666.32182
616.958	602.23243
617.412	618.18644
617.867	614.091
618.321	630.04727
618.776	625.12008
619.23	657.24538
619.684	663.2097
620.138	643.21939
620.592	601.20455
621.046	625.20597
621.5	618.23725
621.954	609.13231
622.407	544.01499
622.861	607.22333
623.314	602.13733
623.768	509.00574
624.221	498.82877
624.674	545.05838
625.127	504.00633
625.58	539.04571
626.033	553.03513
626.485	494.01417
626.938	445.92451
627.39	467.94339
627.843	416.84711
628.295	477.95829
628.747	445.9278
629.199	453.90126
629.651	410.8235
630.103	341.70277
630.555	413.77424
631.006	402.84095
631.458	382.80761
631.909	459.93446
632.361	385.80771
632.812	334.70088
633.263	346.67763
633.714	314.61699
634.165	368.81068
634.616	331.72077
635.067	334.68076
635.518	348.7602
635.968	358.65638
636.419	267.5421
636.869	263.58486
637.319	274.5902
637.769	259.5417
638.219	312.69252
638.669	267.59548
639.119	307.69684
639.569	255.57789
640.019	314.67577
640.468	242.51097
640.918	307.69062
641.367	263.55592
641.816	293.6139
642.265	277.60243
642.714	216.47626
643.163	298.64217
643.612	217.49458
644.061	258.51533
644.51	259.55753
644.958	224.46923
645.406	274.61779
645.855	282.65191
646.303	339.73976
646.751	243.52512
647.199	286.6134
647.647	275.59782
648.095	271.58763
648.543	311.6
648.99	319.71409
649.438	299.6638
649.885	313.72887
650.333	304.55567
650.78	249.57277
651.227	292.67099
651.674	284.61279
652.121	278.64164
652.568	291.6683
653.015	372.87832
653.461	241.54794
653.908	320.70259
654.354	319.71879
654.801	268.59808
655.247	308.64033
655.693	305.75281
656.139	262.5999
656.585	270.61797
657.031	215.48249
657.477	224.46632
657.922	277.60755
658.368	249.5899
658.813	238.53421
659.259	214.4961
659.704	245.54845
660.149	245.5489
660.594	256.58334
661.039	181.40235
661.484	263.604
661.929	262.5888
662.373	179.43958
662.818	221.53044
663.262	197.46112
663.707	211.51854
664.151	244.57548
664.595	230.53657
665.039	242.58205
665.483	203.50256
665.927	265.60152
666.371	142.32358
666.814	223.51788
667.258	187.43188
667.701	229.48235
668.145	236.56999
668.588	207.49551
669.031	165.38107
669.474	217.50913
669.917	231.49897
670.36	184.44726
670.803	207.4887
671.245	164.34263
671.688	209.49858
672.13	173.38217
672.573	204.50698
673.015	174.41151
673.457	143.30982
673.899	191.4546
674.341	177.42063
674.783	153.36262
675.225	192.4632
675.666	168.39763
676.108	179.38467
676.549	199.46343
676.991	200.43414
677.432	119.2383
677.873	172.39368
678.314	154.3645
678.755	177.42452
679.196	152.34567
679.637	182.43875
680.078	136.31753
680.518	165.38183
680.959	154.36591
681.399	158.38765
681.839	148.3576
682.28	166.40456
682.72	113.25911
683.16	151.37247
683.6	135.30794
684.039	164.34066
684.479	135.32945
684.919	95.21976
685.358	145.36528
685.798	149.38646
686.237	135.32564
686.676	176.40527
687.115	144.33714
687.554	110.26177
687.993	126.27969
688.432	149.33933
688.871	130.29492
689.309	168.39748
689.748	124.26125
690.186	154.36605
690.625	77.18215
691.063	118.28307
691.501	130.32049
691.939	115.28638
692.377	118.28769
692.815	131.31252
693.253	126.30307
693.69	107.23697
694.128	122.29511
694.565	120.28655
695.003	143.36063
695.44	75.17803
695.877	68.16058
696.314	139.3
696.751	112.25718
697.188	109.25154
697.625	142.32633
698.061	114.27389
698.498	94.22893
698.934	92.22297
699.371	44.10519
699.807	127.30054
700.243	80.19403
700.679	91.20825
701.115	111.26278
701.551	98.23241
701.987	117.26473
702.422	104.24797
702.858	93.22297
703.294	141.31955
703.729	94.23123
704.164	91.22042
704.599	101.22694
705.035	39.08903
705.47	29.07169
705.904	69.16265
706.339	119.27812
706.774	57.13541
707.209	70.16338
707.643	82.19858
708.078	90.22041
708.512	68.17128
708.946	82.19836
709.38	56.1346
709.814	96.22141
710.248	66.1626
710.682	88.21078
711.116	35.08478
711.549	65.169
711.983	102.23712
712.416	69.16518
712.85	51.12866
713.283	64.15336
713.716	131.32847
714.149	110.26338
714.582	99.22418
715.015	141.35176
715.448	116.29238
715.881	83.18428
716.313	72.17062
716.746	73.17362
717.178	80.19388
717.61	95.24172
718.043	70.176
718.475	65.15928
718.907	99.25154
719.339	24.05557
719.77	55.13202
720.202	39.0999
720.634	79.19351
721.065	92.21952
721.497	83.20481
721.928	36.08967
722.359	27.06616
722.79	31.07546
723.221	61.15505
723.652	152.38954
724.083	33.07594
724.514	80.18576
724.945	56.13342
725.375	40.09431
725.806	78.19618
726.236	73.1883
726.666	92.21927
727.096	109.26798
727.526	96.24431
727.956	42.09714
728.386	58.14441
728.816	22.0565
729.246	34.08385
729.675	67.16624
730.105	97.23971
730.534	51.12111
730.964	92.23355
731.393	103.25678
731.822	111.28343
732.251	77.19654
732.68	106.25099
733.109	84.20816
733.537	45.11015
733.966	90.22441
734.395	56.13116
734.823	71.16235
735.251	64.15575
735.68	118.29551
736.108	101.25599
736.536	76.181
736.964	5.01188
737.392	97.2434
737.82	79.19114
738.247	65.15738
738.675	112.26837
739.102	45.11369
739.53	65.16661
739.957	65.1683
740.384	115.28398
740.811	79.20137
741.238	59.14548
741.665	45.10591
742.092	107.25634
742.519	15.03775
742.945	68.1648
743.372	69.17214
743.798	93.23955
744.225	70.16799
744.651	73.18436
745.077	61.15345
745.503	55.13572
745.929	85.20519
746.355	159.39249
746.781	75.18711
747.207	61.14458
747.632	32.0791
748.058	57.1436
748.483	98.22683
748.908	78.19491
749.334	53.1316
749.759	41.09811
750.184	34.08222
750.609	104.25602
751.033	85.20247
751.458	72.16347
751.883	104.25809
752.307	25.05989
752.732	1.00254
753.156	61.15196
753.58	83.19854
754.005	65.16621
754.429	58.13787
754.853	101.25042
755.277	55.13172
755.7	79.19702
756.124	30.07546
756.548	41.09852
756.971	91.22307
757.394	73.18895
757.818	53.13747
758.241	78.19871
758.664	110.27736
759.087	14.03192
759.51	62.15555
759.933	34.08296
760.356	83.21342
760.778	77.19036
761.201	88.21503
761.623	90.21935
762.046	118.28005
762.468	75.1816
762.89	105.25939
763.312	47.11611
763.734	43.10482
764.156	78.19357
764.578	87.20149
765	91.22274
765.421	36.09236
765.843	81.21284
766.264	119.28715
766.686	69.17439
767.107	45.11031
767.528	13.03329
767.949	69.17637
768.37	58.14357
768.791	84.20419
769.212	43.10899
769.632	-3.00714
770.053	64.16928
770.473	109.26491
770.894	56.1414
771.314	101.24178
771.734	54.12722
772.154	84.21611
772.575	82.19123
772.994	3.00696
773.414	84.20266
773.834	52.13107
774.254	52.12844
774.673	47.11568
775.093	-8.02017
775.512	12.03002
775.931	53.13533
776.351	30.07537
776.77	22.05452
777.189	29.06995
777.607	67.1718
778.026	29.07308
778.445	19.04814
778.864	50.12917
779.282	36.08764
779.701	54.13704
780.119	16.04095
780.537	26.06563
780.955	48.12306
781.373	17.04263
781.791	-3.00688
782.209	92.21252
782.627	50.13243
783.045	39.09079
783.462	21.05426
783.88	36.09387
784.297	53.13414
784.715	22.05707
785.132	16.03929
785.549	15.038
785.966	29.07368
786.383	8.01997
786.8	77.17954
787.217	23.05525
787.633	22.05551
788.05	30.07219
788.466	83.19626
788.883	28.07206
789.299	9.022
789.715	34.08348
790.131	27.06785
790.547	22.05557
790.963	-15.03791
791.379	51.12963
791.795	16.03709
792.21	48.11317
792.626	42.10056
793.041	2.00501
793.457	54.13421
793.872	37.08786
794.287	14.03385
794.702	63.15586
795.117	-13.03284
795.532	16.04055
795.947	62.14998
796.362	56.1346
796.776	66.15543
797.191	28.06923
797.605	-41.09856
798.02	-10.02475
798.434	-7.01591
798.848	9.02245
799.262	-7.01763
799.676	50.12277
800.09	-1.0025
800.504	24.05889
800.918	51.11896
801.331	34.08978
801.745	-24.05634
802.158	33.08316
802.572	-3.00739
802.985	52.12645
803.398	19.04587
803.811	87.22332
804.224	12.03024
804.637	-13.03152
805.05	26.06097
805.462	33.08179
805.875	15.03925
806.288	-15.03681
806.7	52.13126
807.112	33.07728
807.525	40.09941
807.937	0
808.349	25.06321
808.761	22.05468
809.173	29.07093
809.584	13.03252
809.996	-7.0174
810.408	-7.01831
810.819	53.12528
811.231	11.02871
811.642	-4.00968
812.053	112.26448
812.464	159.37204
812.875	165.41476
813.286	120.30624
813.697	68.15946
814.108	57.13978
814.519	24.05414
814.929	59.15086
815.34	59.14355
815.75	34.08695
816.16	48.12021
816.571	47.12258
816.981	26.06202
817.391	-3.00735
817.801	-13.03279
818.211	32.07694
818.62	27.06557
819.03	26.06429
819.44	70.18284
819.849	46.11644
820.259	19.04908
820.668	-6.01497
821.077	14.03512
821.486	43.10419
821.895	49.12163
822.304	64.16967
822.713	-10.02403
823.122	21.05288
823.531	-6.01444
823.939	45.11019
824.348	25.06133
824.756	42.10575
825.164	1.00255
825.573	32.08083
825.981	74.18344
826.389	13.033
826.797	28.07065
827.205	6.01395
827.612	49.1214
828.02	-25.0598
828.428	56.14292
828.835	8.02126
829.243	43.10306
829.65	40.09996
830.057	29.07093
830.464	-8.01977
830.871	24.05799
831.278	41.09965
831.685	22.04963
832.092	0
832.499	-7.01557
832.905	1.00256
833.312	-2.00463
833.718	18.04526
834.124	54.12385
834.531	27.06855
834.937	28.07234
835.343	29.07051
835.749	19.04484
836.155	28.07376
836.561	-14.03495
836.966	7.01731
837.372	44.11241
837.777	26.06523
838.183	29.06506
838.588	5.01255
838.993	52.12697
839.399	-32.07965
839.804	-28.06941
840.209	40.10223
840.613	-20.04532
841.018	41.10425
841.423	-8.02078
841.828	47.11921
842.232	45.1119
842.637	13.03099
843.041	30.07732
843.445	-1.00254
843.849	37.09204
844.253	22.05274
844.657	-20.0511
845.061	-12.02767
845.465	-5.01223
845.869	7.01646
846.272	4.00985
846.676	50.12127
847.079	-3.00771
847.483	31.07779
847.886	56.13648
848.289	5.01346
848.692	14.03575
849.095	5.01214
849.498	54.13708
849.901	38.08764
850.304	50.11981
850.707	39.09983
851.109	28.07128
851.512	4.00993
851.914	-55.14143
852.316	29.07376
852.718	-30.07863
853.121	21.05184
853.523	-2.00473
853.925	-14.03697
854.326	0
854.728	38.09807
855.13	-17.04441
855.531	13.03135
855.933	-5.01216
856.334	7.01762
856.736	-28.06388
857.137	-29.06863
857.538	-11.028
857.939	-29.0728
858.34	36.08813
858.741	61.15936
859.142	-2.00486
859.542	34.09005
859.943	33.08239
860.343	-10.02507
860.744	45.1101
861.144	54.13186
861.544	-51.12511
861.945	9.02313
862.345	23.05663
862.745	17.04257
863.145	51.12214
863.544	-19.04867
863.944	30.07128
864.344	-3.00754
864.743	23.05744
865.143	49.12604
865.542	-9.02116
865.941	13.03244
866.34	63.15082
866.74	21.05669
867.139	-19.04616
867.537	22.0564
867.936	30.0726
868.335	40.10208
868.734	-2.00516
869.132	48.11176
869.531	-6.01469
869.929	-38.08831
870.327	0
870.726	26.06521
871.124	37.08685
871.522	44.11233
871.92	45.11125
872.318	43.10541
872.715	46.11412
873.113	13.03194
873.511	16.04016
873.908	-29.07431
874.306	14.03509
874.703	22.05539
875.1	46.11789
875.497	8.01936
875.894	-34.08469
876.291	37.09114
876.688	14.03637
877.085	-4.00971
877.482	42.10541
877.878	-11.02681
878.275	21.05368
878.671	40.08942
879.068	23.05588
879.464	37.08976
879.86	-8.01915
880.256	80.19658
880.652	59.14996
881.048	54.13387
881.444	19.04555
881.84	30.07659
882.236	59.14826
882.631	67.16412
883.027	6.01467
883.422	7.01805
883.817	-1.00254
884.213	-5.01296
884.608	3.00743
885.003	22.05338
885.398	-8.02025
885.793	2.00507
886.188	-10.02515
886.582	55.14108
886.977	16.03827
887.371	36.09136
887.766	-38.09609
888.16	32.0802
888.554	53.13112
888.949	36.09071
889.343	57.13921
889.737	-34.09191
890.131	23.05803
890.525	57.1457
890.918	25.06325
891.312	33.0793
891.706	38.09997
892.099	62.15756
892.492	18.03916
892.886	17.04189
893.279	18.04615
893.672	29.07415
894.065	22.05541
894.458	71.17803
894.851	41.10073
895.244	16.04114
895.637	25.06055
896.029	-24.05954
896.422	8.01972
896.814	39.09723
897.206	-26.06287
897.599	111.27169
897.991	2.00488
898.383	-13.03112
898.775	22.04999
899.167	-40.09501
899.559	58.14672
899.951	32.07577
900.342	18.04607
900.734	-49.12384
901.125	24.06329
901.517	-3.00744
901.908	63.15082
902.299	-8.01978
902.69	21.04987
903.082	42.10194
903.473	-16.03882
903.863	-3.00773
904.254	50.11615
904.645	46.11458
905.036	-38.09358
905.426	47.10777
905.817	-4.00992
906.207	-27.06533
906.597	23.05411
906.987	-3.00785
907.378	14.03565
907.768	8.02131
908.158	7.01722
908.547	18.04678
908.937	22.05676
909.327	27.06589
909.717	97.24436
910.106	-5.01214
910.495	24.06023
910.885	24.0611
911.274	4.01009
911.663	39.09923
912.052	23.05707
912.441	37.09434
912.83	5.01159
913.219	89.23148
913.608	13.03208
913.997	2.00506
914.385	49.11717
914.774	-4.00984
915.162	15.036
915.55	17.04141
915.939	-29.07426
916.327	25.06271
916.715	24.06147
917.103	39.09624
917.491	58.14336
917.878	33.08143
918.266	49.12714
918.654	5.01288
919.041	17.04464
919.429	-4.00954
919.816	10.02554
920.203	14.0342
920.591	51.1265
920.978	57.13947
921.365	15.0396
921.752	-23.05563
922.139	-28.06184
922.525	13.03145
922.912	25.06128
923.299	-5.01256
923.685	0
924.072	9.02094
924.458	17.04238
924.844	-38.09558
925.231	18.04218
925.617	-4.01027
926.003	20.0514
926.389	26.06589
926.774	0
927.16	39.09709
927.546	-3.00773
927.931	53.13223
928.317	6.01395
928.702	31.07364
929.088	-7.01674
929.473	12.03074
929.858	-48.11821
930.243	-3.00727
930.628	10.02452
931.013	32.07959
931.398	48.11049
931.783	70.18372
932.167	-18.04457
932.552	15.03783
932.937	22.0549
933.321	3.00759
933.705	-3.00764
934.09	75.18874
934.474	33.07867
934.858	44.11426
935.242	-11.02581
935.626	1.00258
936.009	17.04547
936.393	-2.00514
936.777	23.05918
937.16	6.01573
937.544	15.03559
937.927	-8.02051
938.311	42.10271
938.694	47.12438
939.077	-3.00726
939.46	85.20743
939.843	30.0629
940.226	5.01293
940.609	28.06458
940.991	-15.03862
941.374	14.03445
941.757	34.08416
942.139	-27.06161
942.522	41.0971
942.904	3.00728
943.286	35.08918
943.668	11.02869
944.05	44.10852
944.432	15.03726
944.814	31.07664
945.196	-40.09912
945.578	-14.03369
945.959	25.05889
946.341	29.07148
946.722	24.05663
947.104	28.06722
947.485	0
947.866	-26.0664
948.247	4.01018
948.628	33.08077
949.009	29.07454
949.39	46.11462
949.771	1.00235
950.152	1.00248
950.532	-11.02736
950.913	33.07987
951.293	-16.04369
951.674	7.01707
952.054	-23.05776
952.434	45.11182
952.814	-27.0652
953.194	54.14124
953.574	43.10607
953.954	-20.04814
954.334	32.08002
954.714	2.00492
955.093	-1.00248
955.473	7.01764
955.853	26.06759
956.232	52.14248
956.611	23.05546
956.99	-26.06624
957.37	-15.03866
957.749	14.03364
958.128	36.09094
958.506	11.02873
958.885	6.01526
959.264	-10.02478
959.643	46.10478
960.021	15.03741
960.4	18.04107
960.778	39.09627
961.156	23.05794
961.535	-11.02595
961.913	78.18155
962.291	-20.05194
962.669	-17.04358
963.047	25.06408
963.424	15.03852
963.802	40.09854
964.18	47.119
964.557	9.0209
964.935	74.17454
965.312	2.00525
965.69	37.09288
966.067	-11.02709
966.444	32.07912
966.821	27.06989
967.198	37.08999
967.575	20.04945
967.952	-14.03341
968.329	30.07328
968.705	40.08598
969.082	-9.02332
969.458	-28.06817
969.835	-5.0123
970.211	-9.02334
970.587	31.07745
970.963	42.1079
971.339	25.06556
971.715	11.02766
972.091	-2.00497
972.467	27.06763
972.843	-1.0025
973.219	65.15566
973.594	31.08135
973.97	65.1543
974.345	3.00724
974.721	17.04143
975.096	-8.01957
975.471	11.02629
975.846	14.03387
976.221	12.03068
976.596	0
976.971	9.02239
977.346	-8.01884
977.72	13.03333
978.095	13.03381
978.469	22.0528
978.844	65.16299
979.218	-6.01454
979.593	11.02655
979.967	-8.0197
980.341	7.01626
980.715	20.05066
981.089	23.05786
981.463	9.02084
981.837	-11.02718
982.21	59.13708
982.584	2.00487
982.957	-16.04043
983.331	6.01431
983.704	0
984.078	-26.06497
984.451	42.10507
984.824	-13.03203
985.197	27.06587
985.57	1.00253
985.943	65.1601
986.316	15.0371
986.688	45.10863
987.061	27.06357
987.434	-7.01842
987.806	18.04392
988.179	-20.04783
988.551	24.06116
988.923	14.03471
989.295	45.11255
989.667	8.01926
990.039	-3.00748
990.411	30.06933
990.783	-7.0163
991.155	-20.04869
991.527	83.20316
991.898	27.06756
992.27	-16.04005
992.641	39.09804
993.012	33.07791
993.384	18.0432
993.755	0
994.126	-5.01215
994.497	-21.05222
994.868	-7.01626
995.239	25.06087
995.61	-2.00508
995.98	4.0098
996.351	-20.05016
996.722	23.05363
997.092	-62.14998
997.462	-54.1287
997.833	-7.01678
998.203	21.05119
998.573	15.03759
998.943	-1.00237
999.313	-17.04125
999.683	17.04105
1000.053	17.03937
1000.423	4.0098
1000.792	34.08836
1001.162	-9.02239
1001.531	13.03227
1001.901	9.0226
1002.27	-8.0181
1002.639	15.03856
1003.009	-11.02646
1003.378	14.03602
1003.747	22.05225
1004.116	2.00483
1004.485	-8.01933
1004.853	43.10906
1005.222	16.04059
1005.591	17.04062
1005.959	-38.08715
1006.328	16.03625
1006.696	3.0073
1007.064	20.05057
1007.433	21.05275
1007.801	15.03706
1008.169	29.0735
1008.537	8.01787
1008.905	-27.06385
1009.273	27.06697
1009.64	-21.05077
1010.008	-22.05316
1010.375	78.1884
1010.743	30.06955
1011.11	13.03098
1011.478	32.07944
1011.845	32.07551
1012.212	-36.0829
1012.579	0
1012.946	48.11427
1013.313	24.0574
1013.68	21.04748
1014.047	5.01202
1014.414	-20.04787
1014.78	-3.00753
1015.147	52.12569
1015.513	2.00486
1015.88	58.14807
1016.246	-5.01247
1016.612	37.08491
1016.978	3.00741
1017.344	18.04474
1017.71	48.11707
1018.076	27.06394
1018.442	45.11583
1018.808	23.05776
1019.174	6.01517
1019.539	100.22788
1019.905	-6.0143
1020.27	15.03725
1020.636	41.09845
1021.001	49.1173
1021.366	-46.11245
1021.731	45.11579
1022.096	-46.11797
1022.461	0
1022.826	32.0763
1023.191	4.01057
1023.556	9.02126
1023.92	63.15449
1024.285	39.09535
1024.649	8.01975
1025.014	23.05724
1025.378	13.03289
1025.742	-16.0402
1026.107	20.0455
1026.471	73.16961
1026.835	4.01
1027.199	-10.02434
1027.562	-29.06844
1027.926	9.02217
1028.29	31.07868
1028.654	11.0255
1029.017	1.00248
1029.381	-12.029
1029.744	21.05381
1030.107	48.11357
1030.471	55.13151
1030.834	32.07304
1031.197	2.00486
1031.56	8.01902
1031.923	-11.02873
1032.286	33.07773
1032.648	26.06244
1033.011	-10.02322
1033.374	33.07779
1033.736	-2.0053
1034.099	68.16511
1034.461	-24.0614
1034.823	-8.02012
1035.185	50.1258
1035.548	-10.0246
1035.91	41.09834
1036.272	-7.01611
1036.634	41.10043
1036.995	48.11282
1037.357	10.0245
1037.719	-2.00491
1038.08	20.04774
1038.442	61.14441
1038.803	25.06028
1039.165	45.11361
1039.526	-2.00488
1039.887	7.01688
1040.248	-46.11528
1040.609	40.09898
1040.97	-15.03708
1041.331	32.08124
1041.692	-53.12615
1042.053	0
1042.413	-27.06385
1042.774	23.05619
1043.134	57.13546
1043.495	39.09818
1043.855	-3.00735
1044.215	32.07965
1044.576	25.06003
1044.936	7.01618
1045.296	59.14693
1045.656	42.10316
1046.016	11.02673
1046.375	29.07059
1046.735	-26.05982
1047.095	27.06345
1047.454	42.08911
1047.814	20.04833
1048.173	25.05998
1048.533	-6.01389
1048.892	-4.00969
1049.251	23.05798
1049.61	-22.05486
1049.969	2.00476
1050.328	-14.03075
1050.687	-7.0172
1051.046	-2.00491
1051.405	17.04252
1051.763	26.06004
1052.122	-10.0252
1052.48	-9.0223
1052.839	-11.02617
1053.197	-10.0238
1053.555	47.10717
1053.914	10.02463
1054.272	55.13277
1054.63	5.01232
1054.988	17.04062
1055.345	-6.01307
1055.703	14.0339
1056.061	1.00259
1056.419	11.02865
1056.776	-1.00245
1057.134	-11.02576
1057.491	1.00252
1057.848	0
1058.206	1.00237
1058.563	-4.00891
1058.92	10.02322
1059.277	4.00994
1059.634	31.07316
1059.991	10.02413
1060.348	-13.02974
1060.704	-43.10423
1061.061	20.04672
1061.418	-27.06638
1061.774	-2.00498
1062.131	1.00266
1062.487	6.01414
1062.843	3.00754
1063.199	-3.00753
1063.555	-9.02108
1063.911	36.0911
1064.267	53.11041
1064.623	-26.06401
1064.979	17.04051
1065.335	60.14306
1065.691	-4.00968
1066.046	4.00888
1066.402	-43.09947
1066.757	-19.04852
1067.112	38.09341
1067.468	-38.09119
1067.823	-32.07808
1068.178	-2.00488
1068.533	43.10431
1068.888	27.06476
1069.243	-21.05247
1069.598	25.06099
1069.952	-28.06401
1070.307	-31.07782
1070.662	-43.10384
1071.016	-25.05684
1071.371	10.02292
1071.725	22.05288
1072.079	11.02663
1072.434	-40.09876
1072.788	16.03832
1073.142	19.04697
1073.496	5.01196
1073.85	14.03268
1074.203	-5.01225
1074.557	8.02141
1074.911	18.0432
1075.265	14.03275
1075.618	43.10505
1075.971	-22.05302
1076.325	-17.04368
1076.678	-43.1001
1077.031	-24.05509
1077.385	15.03326
1077.738	-5.01141
1078.091	-33.07625
1078.444	15.03504
1078.796	-22.05466
1079.149	15.03752
1079.502	-38.09123
1079.855	5.01175
1080.207	43.10599
1080.56	32.0829
1080.912	16.03917
1081.264	22.05322
1081.617	5.01228
1081.969	4.01017
1082.321	11.02703
1082.673	-54.12574
1083.025	-7.01678
1083.377	-27.05887
1083.728	-1.00235
1084.08	30.0751
1084.432	4.00972
1084.783	37.08685
1085.135	15.0378
1085.486	-17.03939
1085.838	0
1086.189	25.06092
1086.54	43.10274
1086.891	-31.07946
1087.242	29.07082
1087.593	0
1087.944	-18.04127
1088.295	11.02518
1088.646	3.00733
1088.996	27.06528
1089.347	27.06648
1089.698	-22.05268
1090.048	13.03395
1090.398	13.03035
1090.749	-40.09727
1091.099	-47.12014
1091.449	52.12938
1091.799	29.07282
1092.149	-66.16427
1092.499	0
1092.849	-12.03081
1093.199	53.13266
1093.548	10.02419
1093.898	19.04776
1094.248	52.13346
1094.597	-28.07239
1094.947	-3.00807
1095.296	12.02981
1095.645	12.03139
1095.994	24.05788
1096.343	8.02027
1096.692	-33.08782
1097.041	-38.10425
1097.39	18.04537
1097.739	19.0496
1098.088	26.06987
1098.437	-52.13883
1098.785	65.17465
1099.134	66.17463
1099.482	5.01384
1099.83	21.0554
1100.179	-1.00263
1100.527	51.13537
1100.875	24.06367
1101.223	31.0825
1101.571	18.04995
1101.919	-37.09801
1102.267	13.03677
1102.615	1.00322
1102.962	11.03541
1103.31	0
1103.658	16.0515
