Data from N2 R9 sample 12_Subt2__1__18-39-34-815.txt Node

Date: Fri Aug 29 18:39:34 PDT 2025
User: uwsun
Spectrometer: HDX01956
Trigger mode: 0
Integration Time (sec): 5.000000E-1
Scans to average: 1
Nonlinearity correction enabled: true
Boxcar width: 0
Storing dark spectrum: false
XAxis mode: Wavelengths
Number of Pixels in Spectrum: 2068
>>>>>Begin Spectral Data<<<<<
194.03	245.66146
194.578	232.71235
195.127	235.71007
195.676	230.69768
196.225	255.64739
196.773	293.76535
197.321	393.98557
197.87	550.22016
198.418	540.18303
198.966	498.10784
199.513	454.96779
200.061	496.06546
200.609	580.30386
201.156	409.76068
201.704	475.0183
202.251	493.1164
202.798	546.1972
203.345	504.06082
203.892	517.10135
204.438	556.11139
204.985	496.98382
205.532	539.19894
206.078	539.11097
206.624	528.08655
207.17	514.0021
207.716	512.04363
208.262	556.89485
208.808	433.9084
209.354	517.05503
209.899	562.19971
210.445	545.1294
210.99	515.03857
211.535	598.16068
212.08	586.12598
212.625	535.13038
213.17	569.21074
213.715	421.79118
214.259	527.02969
214.804	580.1991
215.348	534.02094
215.892	535.07749
216.436	610.16655
216.98	524.97292
217.524	502.00047
218.068	522.11612
218.612	584.23381
219.155	528.04312
219.698	510.02729
220.242	563.186
220.785	471.941
221.328	501.06628
221.871	517.12281
222.414	523.11078
222.956	441.91211
223.499	452.87016
224.041	461.92572
224.583	511.93485
225.126	457.8597
225.668	441.92477
226.21	433.94404
226.751	443.82352
227.293	465.91048
227.835	488.01491
228.376	495.97565
228.918	498.07941
229.459	457.97735
230	502.013
230.541	445.88204
231.082	523.07117
231.622	501.98005
232.163	460.9546
232.704	442.94425
233.244	479.01496
233.784	510.0664
234.324	402.75342
234.864	407.79578
235.404	474.96565
235.944	429.87935
236.484	487.04093
237.023	458.92372
237.563	476.9318
238.102	522.03751
238.641	534.14231
239.18	470.92964
239.719	519.10418
240.258	496.94065
240.797	445.91008
241.335	489.01903
241.874	525.82457
242.412	474.96785
242.95	471.9519
243.488	521.99554
244.026	482.93596
244.564	540.91357
245.102	466.88245
245.64	482.99043
246.177	511.95799
246.715	549.1027
247.252	542.03677
247.789	490.7671
248.326	486.98064
248.863	496.90534
249.4	507.96503
249.936	498.8475
250.473	521.01024
251.009	479.91971
251.546	514.93915
252.082	548.98764
252.618	483.89789
253.154	489.98692
253.69	517.96685
254.226	458.92542
254.761	491.92049
255.297	515.93028
255.832	499.98769
256.367	497.98051
256.903	506.91892
257.438	565.09416
257.972	528.9701
258.507	466.89065
259.042	452.82208
259.576	472.83799
260.111	550.04804
260.645	519.92602
261.179	478.93129
261.713	467.86555
262.247	484.93312
262.781	478.82443
263.315	506.03044
263.849	527.09447
264.382	586.09676
264.915	573.08957
265.449	508.01762
265.982	554.03113
266.515	546.0959
267.048	587.99234
267.58	512.92368
268.113	508.89585
268.646	509.0415
269.178	514.93773
269.71	557.98615
270.243	589.08745
270.775	596.23829
271.307	591.16099
271.838	644.23348
272.37	552.11409
272.902	581.06782
273.433	618.07087
273.965	518.04008
274.496	605.22544
275.027	578.16773
275.558	598.17062
276.089	517.03735
276.62	601.24953
277.15	504.03288
277.681	500.88957
278.211	541.0906
278.741	510.90878
279.272	519.96244
279.802	610.23136
280.332	532.0176
280.861	579.12507
281.391	544.99298
281.921	565.10565
282.45	632.26941
282.98	597.266
283.509	583.04251
284.038	508.94039
284.567	632.17254
285.096	620.19372
285.625	578.04179
286.153	568.06248
286.682	619.11102
287.21	610.16373
287.739	636.18056
288.267	567.097
288.795	634.34076
289.323	539.0034
289.851	629.15623
290.378	604.06098
290.906	559.07478
291.433	642.26166
291.961	614.07915
292.488	587.16451
293.015	636.15946
293.542	597.19597
294.069	613.1822
294.596	708.35563
295.122	646.19499
295.649	665.11808
296.175	645.22021
296.702	628.19234
297.228	669.26138
297.754	721.21117
298.28	684.17109
298.806	681.24889
299.332	624.0464
299.857	691.16886
300.383	696.36088
300.908	609.13568
301.433	644.19722
301.958	724.25569
302.483	678.28683
303.008	692.30642
303.533	779.53529
304.058	759.33012
304.582	695.22282
305.107	682.35677
305.631	754.26641
306.155	700.20497
306.679	663.15421
307.203	728.23728
307.727	754.31061
308.251	724.33291
308.775	694.20799
309.298	684.20625
309.822	762.41845
310.345	758.3016
310.868	791.35588
311.391	790.41251
311.914	780.41468
312.437	802.29823
312.96	781.30653
313.482	799.33819
314.005	787.42125
314.527	808.52882
315.049	868.5539
315.571	735.13371
316.093	873.50003
316.615	855.41821
317.137	850.23632
317.659	920.52513
318.18	849.41753
318.702	920.41819
319.223	826.10914
319.744	885.30138
320.265	856.39374
320.786	881.45425
321.307	889.48209
321.828	928.34702
322.348	919.40045
322.869	905.37249
323.389	683.68854
323.909	964.39178
324.43	1110.65867
324.95	977.37704
325.47	1030.56349
325.989	1045.48283
326.509	1037.32004
327.029	1013.33914
327.548	971.28837
328.067	1004.44807
328.587	1061.59313
329.106	1090.40293
329.625	1121.80524
330.144	1034.36665
330.662	1013.34182
331.181	1164.49197
331.7	1112.44323
332.218	1125.2781
332.736	1180.47865
333.255	1150.42562
333.773	1191.48792
334.291	1230.66294
334.808	1246.35964
335.326	1247.38568
335.844	1250.40987
336.361	1312.65531
336.879	1240.39206
337.396	1271.48349
337.913	1334.39318
338.43	1366.344
338.947	1346.46276
339.464	1348.1897
339.981	1353.41627
340.497	1426.57565
341.014	1409.49988
341.53	1394.27348
342.046	1416.48783
342.562	1460.56955
343.078	1438.37146
343.594	1493.42359
344.11	1502.40098
344.626	1432.50863
345.141	1529.25825
345.657	1612.28275
346.172	1580.40413
346.687	1545.23999
347.202	1557.16544
347.717	1610.33607
348.232	1624.46579
348.747	1604.19796
349.261	1552.99738
349.776	1627.2319
350.29	1658.31848
350.805	1771.40268
351.319	1737.18433
351.833	1649.04925
352.347	1711.16284
352.861	1744.11603
353.374	1792.11547
353.888	1747.22102
354.401	1847.04799
354.915	1798.9176
355.428	1933.22777
355.941	1933.99941
356.454	1981.93851
356.967	1837.06607
357.48	1866.97496
357.993	1874.15693
358.505	1901.09008
359.018	2061.07147
359.53	2059.97659
360.042	2032.76228
360.554	2045.00523
361.066	1993.98733
361.578	2023.66175
362.09	2058.89775
362.602	2038.639
363.113	2152.73649
363.625	2088.64091
364.136	2128.56883
364.647	2143.59121
365.158	2248.62625
365.669	2308.68573
366.18	2226.64656
366.691	2237.43487
367.201	2149.66404
367.712	2209.45777
368.222	2351.39418
368.733	2250.23516
369.243	2384.19153
369.753	2468.28342
370.263	2503.33115
370.773	2432.43215
371.282	2458.23386
371.792	2519.9545
372.301	2633.05448
372.811	2647.27686
373.32	2598.61689
373.829	2589.80677
374.338	2825.48401
374.847	2902.43466
375.356	2947.40693
375.865	3030.03117
376.373	3183.00786
376.882	3346.15452
377.39	3360.9715
377.898	3249.90115
378.407	3517.63306
378.915	3730.54159
379.423	3894.53093
379.93	4090.53153
380.438	4083.5458
380.946	4437.76698
381.453	4520.92968
381.96	4677.34621
382.468	4937.29178
382.975	5521.43848
383.482	5598.47619
383.989	5537.86318
384.495	5734.82954
385.002	5790.19001
385.509	6241.12725
386.015	6757.47819
386.521	7137.85629
387.028	7396.92099
387.534	7501.01736
388.04	8008.42153
388.546	7869.43287
389.051	8074.90482
389.557	8789.06497
390.063	10164.6906
390.568	10217.9091
391.073	10327.12297
391.578	10873.57498
392.084	10850.62522
392.589	10692.05556
393.093	11431.1175
393.598	12801.76389
394.103	14137.75408
394.607	15558.14508
395.112	16731.44325
395.616	17437.06483
396.12	18860.81116
396.624	20324.95886
397.128	22249.87132
397.632	25072.71773
398.136	27012.82265
398.639	27207.14339
399.143	29203.04428
399.646	28075.06923
400.15	25083.82847
400.653	20124.16724
401.156	13866.23708
401.659	5169.95759
402.162	1054.15589
402.664	0
403.167	0
403.67	0
404.172	0
404.674	0
405.176	0
405.678	0
406.18	0
406.682	0
407.184	0
407.686	0
408.187	0
408.688	0
409.19	0
409.691	0
410.192	0
410.693	0
411.194	435.30976
411.694	4082.94878
412.195	8864.71461
412.696	12089.80453
413.196	12760.96929
413.696	12863.67595
414.196	13703.56671
414.696	17261.84252
415.196	21764.24417
415.696	29583.19008
416.196	36460.31858
416.695	40057.39798
417.195	35409.14257
417.694	33414.88391
418.194	32033.72153
418.693	29035.78996
419.192	28266.11319
419.691	27984.79246
420.19	27362.93492
420.688	26973.92018
421.187	26179.21199
421.685	24923.02241
422.184	23052.13707
422.682	19967.19829
423.18	16121.68913
423.678	14172.49266
424.176	12977.69668
424.674	12081.27277
425.172	11672.12582
425.669	11088.81643
426.167	10659.97112
426.664	9576.79163
427.161	8714.63676
427.659	8029.98016
428.156	7468.83429
428.652	7025.2432
429.149	6658.28161
429.646	6505.49211
430.143	6231.91864
430.639	5674.07377
431.135	5446.00673
431.632	5162.58028
432.128	4836.923
432.624	4409.58072
433.12	4141.58985
433.616	3972.54114
434.111	3869.51933
434.607	3637.58244
435.103	3817.53484
435.598	3663.57307
436.093	3571.79227
436.588	3399.89475
437.083	3155.10996
437.578	3030.29456
438.073	2724.63628
438.568	2822.74709
439.062	2628.55004
439.557	2521.95473
440.051	2431.90812
440.546	2392.96359
441.04	2239.22332
441.534	2233.45547
442.028	2275.34666
442.522	2131.406
443.015	2230.16553
443.509	2144.54999
444.002	1981.60596
444.496	1959.35508
444.989	1920.67909
445.482	1908.73594
445.975	1945.45636
446.468	1921.38197
446.961	1898.40344
447.454	1845.58098
447.947	1690.70062
448.439	1766.82773
448.931	1703.61616
449.424	1722.97654
449.916	1745.87216
450.408	1608.68187
450.9	1580.87262
451.392	1548.99935
451.884	1568.81284
452.375	1427.95595
452.867	1543.83094
453.358	1430.78455
453.849	1432.68171
454.341	1443.81394
454.832	1336.72229
455.323	1280.97166
455.814	1423.90866
456.304	1368.91735
456.795	1349.90874
457.285	1389.90813
457.776	1315.96861
458.266	1276.99982
458.756	1199.03616
459.247	1175.98495
459.737	1170.99437
460.226	1103.87646
460.716	1113.01206
461.206	1054.01449
461.695	1074.13485
462.185	1055.00891
462.674	1052.98258
463.163	1098.94265
463.653	956.79798
464.142	962.02332
464.63	930.05483
465.119	976.97973
465.608	987.99214
466.096	894.87565
466.585	993.04783
467.073	949.09086
467.561	895.06229
468.05	864.99278
468.538	906.12948
469.026	871.05932
469.513	848.85079
470.001	804.92689
470.489	792.98324
470.976	796.96945
471.463	839.14345
471.951	780.10542
472.438	722.94364
472.925	668.8835
473.412	726.04614
473.899	648.87193
474.385	648.96369
474.872	658.90241
475.359	681.99905
475.845	625.74656
476.331	608.80071
476.817	580.9013
477.303	623.89586
477.789	595.91302
478.275	534.86673
478.761	562.88352
479.247	573.82332
479.732	440.74471
480.218	519.92315
480.703	516.86963
481.188	508.71179
481.673	443.69165
482.158	355.51111
482.643	472.85193
483.128	410.64663
483.612	392.64905
484.097	398.70547
484.581	392.65516
485.066	362.63964
485.55	280.4469
486.034	322.50221
486.518	345.5891
487.002	350.62909
487.486	292.53562
487.969	294.54011
488.453	338.64724
488.936	298.50239
489.42	313.51892
489.903	321.62257
490.386	284.33645
490.869	300.49668
491.352	346.6539
491.835	286.44969
492.318	261.45405
492.8	284.44707
493.283	196.39822
493.765	217.42428
494.247	293.53868
494.73	172.30389
495.212	234.45546
495.694	171.32055
496.175	126.2415
496.657	272.51278
497.139	228.31113
497.62	148.28395
498.102	172.34786
498.583	179.36874
499.064	168.3021
499.545	163.30374
500.026	209.3767
500.507	184.34875
500.988	160.32953
501.469	95.19914
501.949	180.36888
502.43	75.149
502.91	99.16903
503.39	161.33748
503.87	157.3042
504.35	210.40913
504.83	93.17028
505.31	123.24962
505.79	88.1774
506.269	173.33648
506.749	62.11987
507.228	96.1897
507.707	119.22064
508.187	165.33118
508.666	55.11539
509.145	51.1017
509.623	74.14808
510.102	41.08575
510.581	134.27523
511.059	33.07134
511.538	76.17003
512.016	102.20809
512.494	132.27284
512.972	34.07037
513.45	-2.004
513.928	37.07763
514.406	21.04351
514.884	44.09828
515.361	52.10772
515.839	48.09436
516.316	85.17581
516.793	79.17372
517.27	124.25849
517.747	42.09397
518.224	5.01018
518.701	38.07368
519.178	20.04325
519.654	62.1289
520.131	20.04345
520.607	77.16668
521.083	53.1053
521.56	4.00833
522.036	24.04629
522.512	85.18322
522.987	9.01873
523.463	3.0063
523.939	45.09716
524.414	33.06725
524.89	81.16746
525.365	14.02796
525.84	-40.08431
526.315	21.0446
526.79	42.08319
527.265	28.05629
527.74	31.06665
528.215	41.08511
528.689	19.03711
529.164	59.11246
529.638	51.11605
530.112	-3.00627
530.587	-31.05886
531.061	28.05956
531.534	25.05393
532.008	-18.03864
532.482	70.14138
532.956	-10.02272
533.429	51.10927
533.903	39.07651
534.376	29.05681
534.849	29.05974
535.322	54.11267
535.795	3.00657
536.268	46.09785
536.741	91.19227
537.213	86.17481
537.686	15.03251
538.158	-2.00399
538.631	87.18688
539.103	15.02984
539.575	44.0814
540.047	80.1546
540.519	55.11687
540.991	40.08746
541.463	99.21083
541.934	96.19264
542.406	73.15322
542.877	84.16661
543.348	103.21896
543.82	117.25219
544.291	141.28732
544.762	88.18296
545.233	122.26686
545.703	129.24672
546.174	127.25691
546.645	108.22343
547.115	181.37387
547.585	185.36411
548.056	141.29138
548.526	187.37256
548.996	289.58006
549.466	292.59732
549.935	251.49378
550.405	260.46995
550.875	320.62048
551.344	269.53718
551.814	369.68559
552.283	407.70661
552.752	379.70523
553.221	312.54581
553.69	473.81689
554.159	428.83268
554.628	492.84497
555.096	494.98351
555.565	505.8694
556.033	516.95377
556.502	536.01834
556.97	476.835
557.438	448.85707
557.906	515.9774
558.374	541.98276
558.842	512.98142
559.31	539.95774
559.777	500.97277
560.245	586.09244
560.712	566.04307
561.18	595.02628
561.647	708.2058
562.114	668.17367
562.581	770.45466
563.048	806.39828
563.514	807.49681
563.981	818.40341
564.448	892.4623
564.914	944.60297
565.381	953.57265
565.847	996.68246
566.313	1040.72292
566.779	1081.70037
567.245	1086.78659
567.711	1146.90866
568.176	1152.75705
568.642	1182.06031
569.108	1267.10718
569.573	1354.09327
570.038	1368.80229
570.504	1372.9518
570.969	1435.34429
571.434	1398.91121
571.899	1517.24801
572.363	1504.10639
572.828	1620.21562
573.293	1678.24924
573.757	1662.24196
574.222	1612.10433
574.686	1659.14301
575.15	1708.37406
575.614	1762.28884
576.078	1720.3382
576.542	1758.2698
577.006	1713.20527
577.469	1748.57408
577.933	1694.16047
578.396	1687.37632
578.86	1687.34513
579.323	1691.3731
579.786	1604.01563
580.249	1582.15311
580.712	1595.4062
581.175	1547.38831
581.637	1554.19661
582.1	1508.02309
582.563	1475.9446
583.025	1389.19093
583.487	1374.70237
583.95	1343.82273
584.412	1380.81467
584.874	1278.08793
585.336	1239.98507
585.797	1174.70551
586.259	1215.96181
586.721	1143.85743
587.182	1165.89546
587.643	1085.73027
588.105	1088.82258
588.566	1028.51975
589.027	979.71408
589.488	996.63616
589.949	989.75248
590.41	857.20168
590.87	975.62063
591.331	953.48954
591.791	926.56723
592.252	831.42235
592.712	800.47312
593.172	911.50643
593.632	847.38945
594.092	833.39378
594.552	789.2818
595.011	782.36371
595.471	792.34491
595.931	748.27821
596.39	782.43487
596.849	783.39385
597.308	791.30092
597.768	771.52093
598.227	763.42278
598.685	816.42764
599.144	806.43452
599.603	781.42189
600.062	833.29223
600.52	798.34198
600.978	811.46618
601.437	810.40895
601.895	871.35614
602.353	878.44568
602.811	854.41149
603.269	845.52933
603.727	896.60003
604.184	860.43713
604.642	924.6824
605.099	983.6528
605.557	959.72382
606.014	977.49542
606.471	957.75449
606.928	1013.51521
607.385	1096.869
607.842	1118.77152
608.299	1236.9484
608.755	1224.01139
609.212	1159.74642
609.668	1120.68881
610.125	1234.03799
610.581	1342.13256
611.037	1302.99214
611.493	1311.08709
611.949	1211.01024
612.405	1147.5401
612.861	1298.07386
613.316	1280.07384
613.772	1184.88309
614.227	1222.98591
614.683	1307.84858
615.138	1259.00602
615.593	1231.96439
616.048	1357.06323
616.503	1316.22199
616.958	1281.22492
617.412	1241.03105
617.867	1222.83816
618.321	1221.7096
618.776	1304.94025
619.23	1188.96596
619.684	1177.87456
620.138	1267.04405
620.592	1150.01585
621.046	1155.95053
621.5	1080.93447
621.954	1137.84247
622.407	1131.81014
622.861	1146.02661
623.314	1104.83441
623.768	1033.79473
624.221	1092.52616
624.674	970.69606
625.127	996.76537
625.58	974.69683
626.033	926.57654
626.485	908.69246
626.938	945.74374
627.39	912.6538
627.843	940.6857
628.295	836.53954
628.747	897.68141
629.199	827.50125
629.651	848.53049
630.103	835.52886
630.555	758.29951
631.006	751.44815
631.458	727.41924
631.909	790.48596
632.361	695.35668
632.812	678.31311
633.263	671.21197
633.714	698.24639
634.165	700.43271
634.616	602.23354
635.067	629.19453
635.518	640.30975
635.968	603.03624
636.419	616.14962
636.869	603.24422
637.319	535.0859
637.769	504.99689
638.219	584.22087
638.669	555.16195
639.119	561.20559
639.569	518.10898
640.019	512.05309
640.468	500.99592
640.918	542.15845
641.367	456.92307
641.816	519.0313
642.265	543.1122
642.714	470.98101
643.163	493.01599
643.612	398.87382
644.061	431.82634
644.51	438.90652
644.958	475.93975
645.406	484.04232
645.855	459.02157
646.303	486.02555
646.751	444.91811
647.199	468.96427
647.647	447.93611
648.095	448.93468
648.543	466.86564
648.99	422.92455
649.438	462.99082
649.885	404.92384
650.333	425.75315
650.78	443.97934
651.227	442.98507
651.674	434.90628
652.121	455.01097
652.568	397.89231
653.015	518.18616
653.461	397.874
653.908	469.99737
654.354	391.86801
654.801	360.78807
655.247	459.92212
655.693	391.94974
656.139	402.89447
656.585	377.84424
657.031	373.8098
657.477	345.69886
657.922	361.77775
658.368	370.85597
658.813	434.93479
659.259	356.80198
659.704	396.85882
660.149	339.74477
660.594	342.76572
661.039	302.65442
661.484	344.77717
661.929	358.78865
662.373	333.79433
662.818	335.78654
663.262	334.76073
663.707	319.76822
664.151	319.74138
664.595	316.72468
665.039	287.68436
665.483	323.78197
665.927	328.73498
666.371	197.44391
666.814	310.7075
667.258	277.62825
667.701	336.69106
668.145	333.78946
668.588	251.59578
669.031	221.50471
669.474	254.59162
669.917	321.67999
670.36	286.68185
670.803	289.6714
671.245	347.69551
671.688	272.64101
672.13	239.52067
672.573	322.78292
673.015	224.52462
673.457	196.41984
673.899	271.63506
674.341	208.49135
674.783	249.57917
675.225	260.61916
675.666	209.49074
676.108	233.49488
676.549	246.56756
676.991	211.45695
677.432	227.4432
677.873	224.50733
678.314	256.59392
678.755	222.52787
679.196	261.58041
679.637	220.52653
680.078	254.57925
680.518	211.48381
680.959	207.48681
681.399	210.51026
681.839	204.48768
682.28	178.43284
682.72	167.37878
683.16	209.51002
683.6	205.461
684.039	180.37255
684.479	192.46355
684.919	143.32764
685.358	188.46994
685.798	196.50422
686.237	171.40966
686.676	198.45392
687.115	171.39823
687.554	184.43162
687.993	184.4035
688.432	163.37016
688.871	187.41931
689.309	165.39061
689.748	199.41234
690.186	169.40054
690.625	186.43068
691.063	152.36227
691.501	216.52405
691.939	179.44055
692.377	119.29008
692.815	170.40252
693.253	180.4285
693.69	144.31645
694.128	160.38426
694.565	167.39519
695.003	155.39005
695.44	141.33044
695.877	111.25993
696.314	171.36653
696.751	202.45546
697.188	104.24024
697.625	157.35971
698.061	114.27389
698.498	148.35679
698.934	158.37816
699.371	137.32169
699.807	148.34881
700.243	111.26765
700.679	149.33699
701.115	175.40915
701.551	196.456
701.987	178.39774
702.422	83.19869
702.858	155.36722
703.294	171.38517
703.729	172.41699
704.164	165.39408
704.599	135.30122
705.035	106.23872
705.47	74.18143
705.904	113.26409
706.339	186.42897
706.774	138.32271
707.209	79.18405
707.643	128.30729
708.078	112.27317
708.512	85.21344
708.946	147.35123
709.38	120.28491
709.814	95.21915
710.248	136.33071
710.682	98.23429
711.116	69.16606
711.549	148.37929
711.983	75.17529
712.416	99.23564
712.85	134.33303
713.283	137.3237
713.716	130.32602
714.149	182.42977
714.582	147.32962
715.015	145.36148
715.448	159.39767
715.881	159.34743
716.313	131.30688
716.746	108.25513
717.178	117.28158
717.61	147.37058
718.043	155.38374
718.475	126.30525
718.907	181.45318
719.339	108.24591
719.77	104.2473
720.202	127.32028
720.634	103.25117
721.065	114.27087
721.497	141.34422
721.928	91.22439
722.359	62.15094
722.79	100.24026
723.221	131.32883
723.652	206.52292
724.083	138.31091
724.514	159.36342
724.945	94.22232
725.375	90.21014
725.806	127.31661
726.236	152.38667
726.666	122.2891
727.096	117.28722
727.526	81.20668
727.956	110.25097
728.386	111.2737
728.816	111.28063
729.246	100.24363
729.675	121.29726
730.105	115.28325
730.534	87.20517
730.964	135.34009
731.393	180.44244
731.822	156.39516
732.251	110.27914
732.68	155.36353
733.109	84.20816
733.537	140.33661
733.966	173.42485
734.395	143.32922
734.823	109.24733
735.251	110.26538
735.68	117.29305
736.108	146.36707
736.536	97.23008
736.964	110.25602
737.392	126.31451
737.82	101.24335
738.247	137.32721
738.675	162.38447
739.102	113.28201
739.53	101.25726
739.957	123.31528
740.384	172.42028
740.811	137.34562
741.238	116.28303
741.665	84.1962
742.092	127.30309
742.519	100.24781
742.945	104.25034
743.372	101.25051
743.798	151.38501
744.225	147.3476
744.651	155.3857
745.077	107.26694
745.503	131.31873
745.929	130.31114
746.355	184.45211
746.781	161.39538
747.207	72.17029
747.632	78.19117
748.058	148.36675
748.483	149.34138
748.908	101.25134
749.334	146.35636
749.759	119.28052
750.184	85.20356
750.609	125.30652
751.033	235.54359
751.458	110.24783
751.883	139.34274
752.307	111.26156
752.732	140.34718
753.156	99.24492
753.58	139.32893
754.005	162.40715
754.429	118.27724
754.853	125.30856
755.277	159.3732
755.7	144.35488
756.124	127.31385
756.548	116.27477
756.971	175.42227
757.394	108.27785
757.818	147.37508
758.241	152.38216
758.664	142.35599
759.087	91.20422
759.51	144.35592
759.933	123.29512
760.356	153.3886
760.778	152.37058
761.201	167.40206
761.623	129.3121
762.046	149.35151
762.468	118.28339
762.89	131.32207
763.312	155.37529
763.734	102.2459
764.156	128.31475
764.578	142.32528
765	110.26829
765.421	93.23621
765.843	120.31323
766.264	165.39468
766.686	167.41466
767.107	101.24501
767.528	84.21241
767.949	136.34353
768.37	96.23598
768.791	143.34376
769.212	76.19149
769.632	69.16196
770.053	103.27064
770.473	106.25776
770.894	126.31417
771.314	165.39016
771.734	82.19213
772.154	119.30428
772.575	133.30705
772.994	47.10812
773.414	118.28285
773.834	109.27193
774.254	104.25441
774.673	148.35746
775.093	96.23755
775.512	95.23408
775.931	85.21582
776.351	86.21389
776.77	40.0988
777.189	92.21927
777.607	115.2924
778.026	77.19238
778.445	36.09094
778.864	114.29124
779.282	60.14541
779.701	48.12194
780.119	49.12468
780.537	54.13562
780.955	77.19641
781.373	50.12463
781.791	20.04569
782.209	97.22385
782.627	58.15341
783.045	61.14139
783.462	73.18692
783.88	34.08869
784.297	44.11154
784.715	35.09059
785.132	56.13648
785.549	30.07581
785.966	76.19149
786.383	33.082
786.8	49.11488
787.217	58.1384
787.633	36.09061
788.05	85.20239
788.466	63.14955
788.883	33.08486
789.299	29.07064
789.715	58.14178
790.131	34.08533
790.547	76.19012
790.963	50.1249
791.379	58.14724
791.795	43.09915
792.21	75.1759
792.626	34.08153
793.041	50.12418
793.457	26.06495
793.872	58.13718
794.287	-14.03403
794.702	53.13136
795.117	24.06023
795.532	28.0708
795.947	111.26602
796.362	49.11793
796.776	94.22016
797.191	56.13776
797.605	-6.01433
798.02	7.01727
798.434	67.14999
798.848	33.08197
799.262	25.06262
799.676	46.11303
800.09	44.109
800.504	6.01477
800.918	-1.00236
801.331	76.19926
801.745	43.09963
802.158	43.10817
802.572	31.07593
802.985	68.16486
803.398	77.18384
803.811	46.11892
804.224	13.03275
804.637	15.03618
805.05	24.0563
805.462	35.08672
805.875	39.10164
806.288	-26.06393
806.7	17.04318
807.112	42.09818
807.525	32.07965
807.937	11.02751
808.349	37.09334
808.761	26.06457
809.173	34.08308
809.584	45.1119
809.996	-4.00994
810.408	22.05725
810.819	48.11357
811.231	26.06768
811.642	45.10789
812.053	117.27602
812.464	197.45751
812.875	152.38298
813.286	106.27118
813.697	113.26264
814.108	79.19293
814.519	35.07877
814.929	90.22888
815.34	5.01229
815.75	31.07932
816.16	74.18445
816.571	61.15871
816.981	31.07387
817.391	15.03663
817.801	-44.11158
818.211	37.08888
818.62	18.04379
819.03	39.0962
819.44	70.18284
819.849	51.12899
820.259	38.09783
820.668	23.05707
821.077	-21.05302
821.486	48.1162
821.895	49.12163
822.304	15.04009
822.713	21.05016
823.122	13.03279
823.531	4.00961
823.939	2.00494
824.348	1.00246
824.756	60.15058
825.164	61.15378
825.573	-5.01271
825.981	67.1663
826.389	50.12607
826.797	-3.00761
827.205	10.02324
827.612	30.07459
828.02	0
828.428	41.10491
828.835	28.07416
829.243	6.01448
829.65	3.00755
830.057	41.10006
830.464	38.09313
830.871	25.0604
831.278	39.09482
831.685	31.0698
832.092	49.12043
832.499	5.0111
832.905	21.0536
833.312	44.10095
833.718	26.06528
834.124	-2.00464
834.531	70.17638
834.937	38.098
835.343	36.08741
835.749	36.08468
836.155	6.01586
836.561	-26.06504
836.966	49.12025
837.372	32.08193
837.777	27.06773
838.183	24.05389
838.588	34.0849
838.993	19.04668
839.399	0
839.804	1.00247
840.209	0
840.613	7.01577
841.018	33.08403
841.423	16.04138
841.828	-13.03332
842.232	34.08472
842.637	-1.00239
843.041	17.04391
843.445	9.02279
843.849	14.03497
844.253	47.11213
844.657	15.03809
845.061	19.04353
845.465	5.01221
845.869	41.09575
846.272	-13.0321
846.676	17.04149
847.079	17.04356
847.483	58.14483
847.886	37.0905
848.289	14.03764
848.692	47.11934
849.095	26.06289
849.498	61.15466
849.901	5.01161
850.304	11.02655
850.707	22.05648
851.109	47.11925
851.512	29.07169
851.914	-13.03318
852.316	13.03316
852.718	-17.04446
853.121	10.02474
853.523	13.03068
853.925	-29.07677
854.326	-2.00506
854.728	12.03111
855.13	-30.07855
855.531	-11.02664
855.933	33.07966
856.334	8.02013
856.736	-32.07307
857.137	-20.04725
857.538	-1.00254
857.939	8.01995
858.34	29.07109
858.741	16.04212
859.142	25.06046
859.542	10.02659
859.943	62.15398
860.343	14.03495
860.744	20.04916
861.144	34.08333
861.544	-31.07577
861.945	33.08447
862.345	17.0419
862.745	54.13431
863.145	53.12688
863.544	2.0051
863.944	0
864.344	31.0774
864.743	33.08227
865.143	24.062
865.542	-2.0047
865.941	41.10181
866.34	47.11286
866.74	40.10764
867.139	4.00968
867.537	44.11237
867.936	-17.0415
868.335	-27.06972
868.734	16.04118
869.132	5.01174
869.531	25.06085
869.929	-32.07427
870.327	13.03143
870.726	62.15448
871.124	23.05413
871.522	30.07678
871.92	41.10143
872.318	24.05904
872.715	34.08453
873.113	32.07834
873.511	-16.04039
873.908	-30.07689
874.306	22.05506
874.703	15.03782
875.1	31.07966
875.497	8.01936
875.894	-20.04969
876.291	-7.01738
876.688	14.03637
877.085	18.04351
877.482	35.08795
877.878	-11.02681
878.275	-4.01027
878.671	42.09385
879.068	24.0583
879.464	22.05352
879.86	4.00956
880.256	35.08672
880.652	-8.02057
881.048	47.11666
881.444	39.09315
881.84	36.09181
882.236	46.11586
882.631	34.08379
883.027	-6.0147
883.422	13.03349
883.817	-43.10995
884.213	-8.02075
884.608	-10.02482
885.003	16.03886
885.398	15.03782
885.793	55.13806
886.188	-13.03271
886.582	37.09521
886.977	35.0834
887.371	11.02804
887.766	7.01756
888.16	32.0802
888.554	38.09427
888.949	14.03541
889.343	63.15369
889.737	-28.07562
890.131	-9.02284
890.525	12.03092
890.918	17.04307
891.312	51.12214
891.706	21.0554
892.099	78.19766
892.492	28.06078
892.886	-11.02724
893.279	-1.00257
893.672	-2.00514
894.065	19.04788
894.458	12.03041
894.851	34.08364
895.244	14.03601
895.637	27.06537
896.029	-2.00494
896.422	50.12227
896.814	29.07243
897.206	-13.03136
897.599	64.15802
897.991	0
898.383	-7.01674
898.775	27.06129
899.167	-19.04495
899.559	49.12415
899.951	25.05928
900.342	43.10957
900.734	-14.03516
901.125	54.14168
901.517	36.08866
901.908	54.12949
902.299	1.00247
902.69	-2.00477
903.082	23.05602
903.473	-1.00242
903.863	8.02057
904.254	-2.00469
904.645	52.12938
905.036	-21.05155
905.426	57.13044
905.817	11.0272
906.207	-18.04348
906.597	-13.0308
906.987	27.0703
907.378	-1.00255
907.768	9.02397
908.158	11.02703
908.547	15.039
908.937	29.07473
909.327	19.04644
909.717	42.10685
910.106	-7.01701
910.495	46.11499
910.885	8.02042
911.274	8.02016
911.663	31.07899
912.052	67.16491
912.441	15.0384
912.83	-14.03257
913.219	58.15165
913.608	20.04929
913.997	6.01517
914.385	10.02409
914.774	35.08551
915.162	-10.02412
915.55	31.07531
915.939	-4.0102
916.327	16.0402
916.715	-18.04644
917.103	74.18143
917.491	39.09673
917.878	33.08143
918.266	16.04175
918.654	4.01031
919.041	-32.08472
919.429	-20.04787
919.816	1.00256
920.203	1.00245
920.591	17.04243
920.978	30.07377
921.365	19.05013
921.752	52.12398
922.139	21.04591
922.525	0
922.912	38.09293
923.299	4.01003
923.685	38.09936
924.072	-8.01867
924.458	-14.0351
924.844	22.05474
925.231	-10.02356
925.617	-63.16346
926.003	22.05652
926.389	-2.00509
926.774	-11.02819
927.16	20.04996
927.546	-15.03873
927.931	45.11243
928.317	-11.02566
928.702	32.07601
929.088	-25.06001
929.473	7.01795
929.858	-36.08846
930.243	-19.04621
930.628	0
931.013	9.02248
931.398	41.09451
931.783	14.03709
932.167	9.02218
932.552	42.10541
932.937	39.09702
933.321	9.02275
933.705	-12.03059
934.09	37.09375
934.474	26.06206
934.858	28.07291
935.242	-30.07065
935.626	-31.08049
936.009	-4.01074
936.393	54.13733
936.777	-6.01552
937.16	-11.02892
937.544	-33.07903
937.927	15.0383
938.311	23.05644
938.694	59.15582
939.077	-11.02664
939.46	31.07641
939.843	-19.04027
940.226	20.05158
940.609	-13.03023
940.991	-8.02057
941.374	-27.06695
941.757	19.04716
942.139	19.04296
942.522	10.02382
942.904	11.02664
943.286	14.0358
943.668	19.04949
944.05	20.04954
944.432	33.0817
944.814	-7.01743
945.196	-55.13667
945.578	-25.06028
945.959	-14.03323
946.341	43.10572
946.722	23.05428
947.104	38.09106
947.485	20.04683
947.866	-19.04846
948.247	8.02034
948.628	26.06372
949.009	-7.01811
949.39	35.08738
949.771	45.1048
950.152	18.04444
950.532	-49.12273
950.913	42.10148
951.293	-7.01909
951.674	-13.03182
952.054	-18.04516
952.434	32.0797
952.814	20.04787
953.194	40.10487
953.574	69.16939
953.954	43.10227
954.334	18.04513
954.714	-23.05682
955.093	33.0814
955.473	20.05029
955.853	31.08052
956.232	21.05782
956.611	14.03382
956.99	12.03037
957.37	30.07672
957.749	-29.07024
958.128	35.08843
958.506	17.04435
958.885	-8.0204
959.264	-42.10469
959.643	51.11605
960.021	-3.00751
960.4	-9.02065
960.778	46.11341
961.156	-37.09421
961.535	5.01176
961.913	4.00945
962.291	-9.02333
962.669	-11.02817
963.047	13.03339
963.424	22.05642
963.802	-9.02237
964.18	14.03565
964.557	-2.00466
964.935	59.13957
965.312	0
965.69	51.1277
966.067	22.05386
966.444	5.01242
966.821	11.02855
967.198	19.04637
967.575	15.03712
967.952	5.01189
968.329	9.02207
968.705	8.01731
969.082	0
969.458	-24.05838
969.835	5.01227
970.211	11.02842
970.587	20.05007
970.963	11.02841
971.339	2.00527
971.715	18.04521
972.091	47.11581
972.467	20.05016
972.843	-3.00752
973.219	50.12008
973.594	-3.00792
973.97	15.03595
974.345	9.02171
974.721	19.04628
975.096	-31.07616
975.471	25.0596
975.846	31.07475
976.221	-1.00256
976.596	-1.00242
976.971	42.10385
977.346	25.0585
977.72	16.04101
978.095	2.00521
978.469	16.03844
978.844	43.10825
979.218	-56.13694
979.593	53.12693
979.967	-20.04936
980.341	39.09
980.715	20.05066
981.089	17.04281
981.463	-44.10294
981.837	-30.0744
982.21	87.20101
982.584	34.08237
982.957	-18.0455
983.331	44.10415
983.704	-5.01241
984.078	6.01491
984.451	44.11003
984.824	-1.00246
985.197	35.08525
985.57	33.08302
985.943	52.12839
986.316	45.11068
986.688	7.01702
987.061	42.0986
987.434	60.15608
987.806	31.07546
988.179	-34.08153
988.551	36.09155
988.923	18.04459
989.295	-4.01009
989.667	-14.03385
990.039	10.02489
990.411	26.06013
990.783	53.12197
991.155	-30.07317
991.527	65.15963
991.898	32.07999
992.27	-13.03253
992.641	30.07554
993.012	16.0379
993.384	-22.0532
993.755	18.04615
994.126	-27.06589
994.497	0
994.868	10.02316
995.239	2.00489
995.61	20.05059
995.98	-4.00981
996.351	3.00749
996.722	-29.06831
997.092	-12.02875
997.462	29.06802
997.833	8.01912
998.203	49.11882
998.573	0
998.943	9.02127
999.313	0
999.683	-17.04132
1000.053	8.01856
1000.423	60.14552
1000.792	37.0961
1001.162	-3.00745
1001.531	35.08653
1001.901	6.01507
1002.27	-5.0113
1002.639	17.04368
1003.009	-17.04094
1003.378	-19.04916
1003.747	24.05698
1004.116	-22.05336
1004.485	-7.01691
1004.853	21.05347
1005.222	26.06584
1005.591	55.13046
1005.959	-56.1289
1006.328	-35.08013
1006.696	-15.03662
1007.064	30.07573
1007.433	27.06775
1007.801	56.1373
1008.169	17.04318
1008.537	20.04456
1008.905	-31.07336
1009.273	21.05214
1009.64	-19.04592
1010.008	11.02641
1010.375	75.18125
1010.743	51.11774
1011.11	-30.07208
1011.478	-7.0175
1011.845	-13.03094
1012.212	-23.05282
1012.579	22.05428
1012.946	44.10483
1013.313	49.11663
1013.68	27.06097
1014.047	-33.07987
1014.414	16.03803
1014.78	4.01002
1015.147	28.06799
1015.513	10.02427
1015.88	25.0642
1016.246	14.03478
1016.612	13.02998
1016.978	7.01729
1017.344	15.0373
1017.71	72.17482
1018.076	72.16903
1018.442	33.08512
1018.808	13.0327
1019.174	-11.02789
1019.539	70.16048
1019.905	-8.01907
1020.27	10.02485
1020.636	31.07458
1021.001	26.06251
1021.366	1.00242
1021.731	15.0388
1022.096	-23.05875
1022.461	-14.03353
1022.826	30.07156
1023.191	27.07109
1023.556	13.03068
1023.92	6.01487
1024.285	39.09535
1024.649	19.04682
1025.014	46.11399
1025.378	-19.04834
1025.742	-19.04776
1026.107	8.01825
1026.471	65.15126
1026.835	-10.02505
1027.199	-18.04387
1027.562	-17.04003
1027.926	25.0614
1028.29	26.06605
1028.654	-32.0748
1029.017	0
1029.381	-12.029
1029.744	3.00771
1030.107	22.05231
1030.471	44.10543
1030.834	13.02979
1031.197	16.03878
1031.56	5.0119
1031.923	24.0623
1032.286	59.13827
1032.648	41.09819
1033.011	16.03696
1033.374	49.11515
1033.736	-18.04785
1034.099	12.02944
1034.461	-1.00255
1034.823	-34.08591
1035.185	19.04807
1035.548	29.07082
1035.91	2.00483
1036.272	2.00459
1036.634	-2.00494
1036.995	-10.02377
1037.357	-12.02952
1037.719	-22.0542
1038.08	-3.00719
1038.442	5.01197
1038.803	-14.03401
1039.165	-22.05621
1039.526	7.01704
1039.887	15.03611
1040.248	-9.0224
1040.609	28.06944
1040.97	1.00246
1041.331	30.07619
1041.692	4.00942
1042.053	20.0458
1042.413	26.06085
1042.774	22.05376
1043.134	38.09064
1043.495	57.14303
1043.855	14.03417
1044.215	26.06478
1044.576	-37.08989
1044.936	43.09868
1045.296	35.08754
1045.656	24.05915
1046.016	36.08708
1046.375	2.00489
1046.735	-19.04366
1047.095	37.08678
1047.454	9.01923
1047.814	21.05073
1048.173	26.06237
1048.533	-14.03247
1048.892	-56.13704
1049.251	42.10552
1049.61	0
1049.969	36.08504
1050.328	20.04362
1050.687	-4.00983
1051.046	24.05869
1051.405	31.07734
1051.763	-25.05831
1052.122	21.05262
1052.48	28.0689
1052.839	-22.05246
1053.197	5.01186
1053.555	30.06864
1053.914	37.09066
1054.272	43.10404
1054.63	-8.01976
1054.988	-39.09418
1055.345	-21.04589
1055.703	2.00485
1056.061	22.05684
1056.419	-12.03138
1056.776	28.06814
1057.134	-16.0375
1057.491	-3.00758
1057.848	17.04255
1058.206	-17.04048
1058.563	-13.02902
1058.92	14.03248
1059.277	1.00249
1059.634	-16.03811
1059.991	61.14575
1060.348	-28.06424
1060.704	-21.05069
1061.061	63.14591
1061.418	-27.06638
1061.774	-12.02994
1062.131	7.01863
1062.487	8.01885
1062.843	43.10728
1063.199	2.00501
1063.555	-4.00936
1063.911	39.09864
1064.267	-3.00633
1064.623	-41.10121
1064.979	27.06422
1065.335	15.03607
1065.691	50.11976
1066.046	-6.01334
1066.402	-35.08084
1066.757	-6.01529
1067.112	-11.02728
1067.468	-21.05023
1067.823	22.05314
1068.178	35.08484
1068.533	-7.01714
1068.888	35.08382
1069.243	21.05207
1069.598	17.04153
1069.952	-22.05023
1070.307	-19.04759
1070.662	-22.05292
1071.016	-72.16526
1071.371	-18.04148
1071.725	52.12427
1072.079	-1.00243
1072.434	18.04397
1072.788	13.03116
1073.142	27.06665
1073.496	6.01434
1073.85	5.01169
1074.203	18.0439
1074.557	4.01071
1074.911	41.09796
1075.265	20.04673
1075.618	33.08077
1075.971	5.01199
1076.325	2.00512
1076.678	-27.06266
1077.031	-5.01143
1077.385	-7.01559
1077.738	-3.00684
1078.091	-41.09488
1078.444	14.03271
1078.796	-15.03722
1079.149	36.0897
1079.502	-8.0191
1079.855	-15.0354
1080.207	-6.01492
1080.56	2.00521
1080.912	-14.03446
1081.264	7.01698
1081.617	23.0563
1081.969	-23.05873
1082.321	35.08564
1082.673	-12.02771
1083.025	3.00718
1083.377	44.0945
1083.728	55.12809
1084.08	30.0751
1084.432	13.03155
1084.783	46.10778
1085.135	31.0779
1085.486	-19.04404
1085.838	13.03221
1086.189	1.00245
1086.54	13.03124
1086.891	-11.0281
1087.242	0
1087.593	59.14329
1087.944	8.01825
1088.295	58.13153
1088.646	3.00733
1088.996	-40.09793
1089.347	-33.08215
1089.698	-30.07194
1090.048	-3.00786
1090.398	0
1090.749	22.05288
1091.099	9.02278
1091.449	6.01505
1091.799	13.03274
1092.149	-108.27085
1092.499	22.0539
1092.849	4.01024
1093.199	30.0754
1093.548	14.03384
1093.898	-10.02527
1094.248	-12.03114
1094.597	-22.05682
1094.947	-18.04852
1095.296	11.02733
1095.645	22.05745
1095.994	-8.01941
1096.343	24.06062
1096.692	0
1097.041	-22.0602
1097.39	5.01263
1097.739	15.03919
1098.088	35.09392
1098.437	-15.0398
1098.785	19.05144
1099.134	42.11157
1099.482	29.07995
1099.83	27.07116
1100.179	5.01313
1100.527	16.04272
1100.875	-6.016
1101.223	17.04535
1101.571	11.03056
1101.919	-31.08204
1102.267	36.10148
1102.615	-4.01287
1102.962	14.04506
1103.31	8.0257
1103.658	13.04186
