Data from N2 R9 sample 10_Subt2__7__18-42-54-308.txt Node

Date: Fri Aug 29 18:42:54 PDT 2025
User: uwsun
Spectrometer: HDX01956
Trigger mode: 0
Integration Time (sec): 5.000000E-1
Scans to average: 1
Nonlinearity correction enabled: true
Boxcar width: 0
Storing dark spectrum: false
XAxis mode: Wavelengths
Number of Pixels in Spectrum: 2068
>>>>>Begin Spectral Data<<<<<
194.03	471.22174
194.578	473.4025
195.127	489.42281
195.676	477.39503
196.225	511.2356
196.773	632.55165
197.321	807.86883
197.87	1094.15302
198.418	1126.16341
198.966	1113.16136
199.513	1027.91613
200.061	1008.92928
200.609	1133.25854
201.156	1053.6485
201.704	1001.90527
202.251	1063.12853
202.798	1087.11276
203.345	1153.08385
203.892	1083.02542
204.438	1137.97187
204.985	1066.83422
205.532	1171.26458
206.078	1215.12862
206.624	1159.05022
207.17	1134.89169
207.716	1085.92805
208.262	1144.54159
208.808	1117.99019
209.354	1084.93173
209.899	1194.20247
210.445	1130.03851
210.99	1091.91378
211.535	1183.98186
212.08	1188.95841
212.625	1222.19728
213.17	1187.18897
213.715	1119.74629
214.259	1170.94455
214.804	1125.0444
215.348	1132.85746
215.892	1163.00848
216.436	1169.93916
216.98	1216.875
217.524	1155.95894
218.068	1166.14852
218.612	1128.10103
219.155	1067.84618
219.698	1053.86042
220.242	1013.92536
220.785	1023.78292
221.328	1021.93026
221.871	1062.04015
222.414	1045.96995
222.956	954.74591
223.499	1011.68622
224.041	1052.82544
224.583	1043.65448
225.126	977.60439
225.668	973.79999
226.21	1028.95722
226.751	960.55671
227.293	1033.75225
227.835	1010.85976
228.376	1046.79587
228.918	1019.96584
229.459	993.87632
230	955.72976
230.541	1039.7748
231.082	1053.90191
231.622	1009.73722
232.163	1037.87484
232.704	1022.9082
233.244	984.85793
233.784	990.85289
234.324	939.52809
234.864	963.63577
235.404	1025.82678
235.944	1037.83397
236.484	1068.99916
237.023	1016.78696
237.563	978.68771
238.102	1065.85342
238.641	1026.96379
239.18	949.66663
239.719	1124.07913
240.258	1052.72661
240.797	1066.87418
241.335	1100.98551
241.874	1035.39039
242.412	1069.88877
242.95	1031.81672
243.488	1021.71599
244.026	1035.74621
244.564	1043.52755
245.102	1094.75709
245.64	1114.96393
246.177	1053.71246
246.715	1056.87686
247.252	1096.82106
247.789	1122.44254
248.326	1035.82568
248.863	1066.66847
249.4	1075.76598
249.936	1066.54092
250.473	1124.87187
251.009	1095.793
251.546	1070.68347
252.082	1057.65957
252.618	1084.71738
253.154	1005.78828
253.69	1106.77044
254.226	1121.92253
254.761	1101.75691
255.297	1037.62614
255.832	1005.75421
256.367	1086.84793
256.903	1058.65493
257.438	1115.88068
257.972	1070.70091
258.507	1056.73224
259.042	1154.73106
259.576	1028.56507
260.111	1082.80066
260.645	1144.71699
261.179	1081.80637
261.713	1074.69271
262.247	1177.89587
262.781	1108.5961
263.315	1096.93712
263.849	1138.04466
264.382	1156.86555
264.915	1152.88833
265.449	1150.96773
265.982	1187.87018
266.515	1224.0781
267.048	1204.70219
267.58	1204.79469
268.113	1100.64462
268.646	1207.08482
269.178	1145.76023
269.71	1152.72908
270.243	1216.90132
270.775	1149.09552
271.307	1207.03208
271.838	1201.99685
272.37	1209.07728
272.902	1155.82366
273.433	1173.74133
273.965	1189.02326
274.496	1171.06832
275.027	1168.04433
275.558	1202.02198
276.089	1141.96529
276.62	1277.25985
277.15	1251.13726
277.681	1254.80476
278.211	1223.08474
278.741	1133.69885
279.272	1209.86251
279.802	1192.08869
280.332	1237.97178
280.861	1268.0669
281.391	1182.8148
281.921	1251.05772
282.45	1239.14487
282.98	1243.26757
283.509	1274.88386
284.038	1215.85868
284.567	1305.02455
285.096	1260.05948
285.625	1244.87038
286.153	1248.95166
286.682	1316.95119
287.21	1233.00336
287.739	1261.9852
288.267	1249.02952
288.795	1358.42178
289.323	1219.89559
289.851	1334.02856
290.378	1338.91248
290.906	1295.05793
291.433	1339.20702
291.961	1308.89366
292.488	1338.19749
293.015	1248.93141
293.542	1309.19763
294.069	1323.12544
294.596	1386.22801
295.122	1297.01788
295.649	1342.85396
296.175	1410.18059
296.702	1397.16722
297.228	1462.23423
297.754	1349.89062
298.28	1385.94039
298.806	1410.12373
299.332	1465.91455
299.857	1426.9487
300.383	1430.31993
300.908	1384.09783
301.433	1408.13329
301.958	1502.08631
302.483	1446.24326
303.008	1486.27393
303.533	1477.44277
304.058	1534.15982
304.582	1438.05357
305.107	1415.34338
305.631	1525.0429
306.155	1467.02605
306.679	1462.02615
307.203	1502.03867
307.727	1523.12731
308.251	1518.25424
308.775	1541.10391
309.298	1600.17238
309.822	1627.39858
310.345	1587.144
310.868	1677.22077
311.391	1609.2904
311.914	1593.31104
312.437	1647.06008
312.96	1636.12341
313.482	1647.14585
314.005	1706.38474
314.527	1668.51248
315.049	1755.4521
315.571	1754.94216
316.093	1813.36837
316.615	1822.2568
317.137	1736.87487
317.659	1839.31402
318.18	1826.27287
318.702	1884.13026
319.223	1802.69504
319.744	1878.97711
320.265	1843.21476
320.786	1949.31946
321.307	1883.32711
321.828	1977.00434
322.348	1963.12475
322.869	1990.1079
323.389	1749.05334
323.909	2041.03377
324.43	2124.27234
324.95	2015.97543
325.47	2062.2339
325.989	2182.07821
326.509	2150.78327
327.029	2212.86139
327.548	2158.83297
328.067	2181.08868
328.587	2233.26525
329.106	2211.85786
329.625	2370.57165
330.144	2321.87998
330.662	2232.86725
331.181	2405.90981
331.7	2382.89803
332.218	2400.56973
332.736	2481.85667
333.255	2475.80089
333.773	2540.85132
334.291	2563.11469
334.808	2567.54948
335.326	2555.59681
335.844	2684.60688
336.361	2764.95768
336.879	2711.57847
337.396	2799.68659
337.913	2767.471
338.43	2895.3158
338.947	2900.53836
339.464	2853.08059
339.981	2925.44108
340.497	2943.6464
341.014	2949.52938
341.53	2967.14704
342.046	3137.42917
342.562	3081.55676
343.078	3061.24461
343.594	3159.25409
344.11	3250.16878
344.626	3264.39678
345.141	3297.89689
345.657	3359.87469
346.172	3282.11843
346.687	3303.8583
347.202	3350.71091
347.717	3459.90661
348.232	3461.10747
348.747	3435.7039
349.261	3545.33958
349.776	3515.70739
350.29	3667.75008
350.805	3781.7877
351.319	3710.50768
351.833	3655.34573
352.347	3714.47616
352.861	3733.39405
353.374	3844.3291
353.888	3782.52003
354.401	3833.24283
354.915	3813.07038
355.428	3945.43146
355.941	4016.08495
356.454	4118.95875
356.967	4046.14768
357.48	4038.03118
357.993	4072.26027
358.505	4149.12853
359.018	4392.9982
359.53	4263.94652
360.042	4330.64848
360.554	4289.9654
361.066	4312.92138
361.578	4350.52069
362.09	4429.76839
362.602	4415.47136
363.113	4462.59476
363.625	4529.44234
364.136	4628.34338
364.647	4532.40648
365.158	4655.43268
365.669	4786.46757
366.18	4736.41753
366.691	4752.21374
367.201	4756.40383
367.712	4802.21185
368.222	4870.1898
368.733	4929.01663
369.243	5098.0157
369.753	5183.10242
370.263	5318.14407
370.773	5320.19207
371.282	5395.07416
371.792	5343.93912
372.301	5584.06325
372.811	5710.20189
373.32	5652.99156
373.829	5792.07908
374.338	6205.44825
374.847	6256.50681
375.356	6406.68709
375.865	6561.28124
376.373	7008.05369
376.882	7303.28243
377.39	7260.51832
377.898	7282.89393
378.407	7736.02094
378.915	8099.90498
379.423	8522.53708
379.93	8745.49394
380.438	9120.98595
380.946	9536.80822
381.453	9935.52541
381.96	10175.22817
382.468	10893.55886
382.975	11713.6446
383.482	12237.54553
383.989	12211.52406
384.495	12586.90969
385.002	13329.0123
385.509	13909.76021
386.015	14902.40887
386.521	15658.16716
387.028	16315.21575
387.534	16633.112
388.04	17421.20523
388.546	17662.1086
389.051	18390.93865
389.557	19875.04708
390.063	22087.40606
390.568	22603.65994
391.073	23074.35745
391.578	24131.48082
392.084	24383.88276
392.589	24841.98209
393.093	26445.20731
393.598	29258.56139
394.103	32317.95427
394.607	34989.92709
395.112	37679.27829
395.616	39914.44347
396.12	42809.14086
396.624	43698.68025
397.128	43068.01223
397.632	41414.05101
398.136	39172.79427
398.639	36273.96993
399.143	32503.66402
399.646	28888.45294
400.15	25083.82847
400.653	20124.16724
401.156	13866.23708
401.659	5169.95759
402.162	1054.15589
402.664	0
403.167	0
403.67	0
404.172	0
404.674	0
405.176	0
405.678	0
406.18	0
406.682	0
407.184	0
407.686	0
408.187	0
408.688	0
409.19	0
409.691	0
410.192	0
410.693	0
411.194	435.30976
411.694	4082.94878
412.195	8864.71461
412.696	12089.80453
413.196	12760.96929
413.696	12863.67595
414.196	13703.56671
414.696	17261.84252
415.196	21764.24417
415.696	29583.19008
416.196	36460.31858
416.695	40057.39798
417.195	41392.74103
417.694	42311.08144
418.194	43882.52025
418.693	44704.85811
419.192	45402.14938
419.691	45678.73777
420.19	46397.77183
420.688	47237.71801
421.187	47797.94428
421.685	49398.46854
422.184	45405.05683
422.682	39475.25083
423.18	33237.59136
423.678	29243.25542
424.176	27295.9642
424.674	25508.72291
425.172	24486.42676
425.669	23332.02816
426.167	21844.71483
426.664	19780.02905
427.161	18268.79952
427.659	16635.21021
428.156	15839.88839
428.652	14746.5315
429.149	14118.19667
429.646	13668.87468
430.143	12971.03739
430.639	12251.37528
431.135	11491.67109
431.632	10826.61267
432.128	10021.17002
432.624	9545.59858
433.12	9055.18808
433.616	8643.65299
434.111	8334.26516
434.607	8005.18337
435.103	8185.15308
435.598	7885.76857
436.093	7656.83454
436.588	7124.33391
437.083	6777.43969
437.578	6492.85026
438.073	6042.26185
438.568	5988.20749
439.062	5737.05007
439.557	5617.0171
440.051	5370.90821
440.546	5119.88184
441.04	5096.99293
441.534	5043.17008
442.028	4903.1167
442.522	4682.16931
443.015	4731.98603
443.509	4604.33799
444.002	4521.37523
444.496	4377.15768
444.989	4336.51788
445.482	4400.55348
445.975	4264.30393
446.468	4251.22067
446.961	4207.2542
447.454	4095.49334
447.947	4017.64947
448.439	3951.86695
448.931	3865.61938
449.424	3932.0807
449.916	3826.99413
450.408	3743.75831
450.9	3659.08185
451.392	3526.35397
451.884	3545.05721
452.375	3451.35067
452.867	3475.12421
453.358	3402.09962
453.849	3301.99469
454.341	3304.20036
454.832	3219.11217
455.323	3182.57941
455.814	3267.37627
456.304	3163.46087
456.795	3125.47235
457.285	3094.47652
457.776	3081.6103
458.266	3019.71511
458.756	2968.85602
459.247	2878.81776
459.737	2720.90693
460.226	2763.71457
460.716	2680.00364
461.206	2621.08828
461.695	2620.30712
462.185	2558.09712
462.674	2592.03552
463.163	2586.91766
463.653	2487.79293
464.142	2432.27612
464.63	2405.39803
465.119	2319.19259
465.608	2369.19281
466.096	2306.08355
466.585	2342.30425
467.073	2313.46016
467.561	2225.49893
468.05	2196.40258
468.538	2226.62363
469.026	2145.54017
469.513	2099.13315
470.001	2038.37375
470.489	2063.52354
470.976	1996.48322
471.463	1923.76514
471.951	1809.78715
472.438	1836.56554
472.925	1787.54379
473.412	1778.77806
473.899	1731.55449
474.385	1665.75473
474.872	1672.58579
475.359	1693.75687
475.845	1535.26705
476.331	1531.42826
476.817	1554.75993
477.303	1462.57792
477.789	1453.68849
478.275	1441.76486
478.761	1390.68157
479.247	1397.51397
479.732	1338.73062
480.218	1315.86818
480.703	1293.73133
481.188	1322.39264
481.673	1190.46645
482.158	1208.29499
482.643	1286.84892
483.128	1153.43994
483.612	1176.5364
484.097	1140.63845
484.581	1127.51301
485.066	1114.58988
485.55	1044.31212
486.034	1028.28196
486.518	1016.42738
487.002	992.49301
487.486	980.48987
487.969	991.50533
488.453	963.56729
488.936	874.24556
489.42	861.21424
489.903	931.54385
490.386	902.8356
490.869	858.20424
491.352	845.40235
491.835	818.0911
492.318	778.16968
492.8	780.05399
493.283	763.34906
493.765	778.31893
494.247	817.30513
494.73	755.13259
495.212	833.39074
495.694	721.16838
496.175	615.03887
496.657	693.17099
497.139	665.78064
497.62	602.02761
498.102	672.20234
498.583	648.19273
499.064	592.94961
499.545	614.01555
500.026	615.99413
500.507	604.02661
500.988	607.12299
501.469	493.94249
501.949	561.0491
502.43	511.91221
502.91	489.74798
503.39	578.0983
503.87	536.94475
504.35	594.05047
504.83	557.9013
505.31	503.93229
505.79	514.93488
506.269	549.97248
506.749	416.73624
507.228	431.78487
507.707	467.79107
508.187	504.93252
508.666	390.75766
509.145	407.74454
509.623	462.84155
510.102	411.78913
510.581	447.85329
511.059	441.87003
511.538	495.0096
512.016	432.81526
512.494	461.88258
512.972	423.79925
513.45	314.58208
513.928	401.77364
514.406	348.66832
514.884	425.8743
515.361	395.75548
515.839	414.74377
516.316	351.6827
516.793	398.81636
517.27	404.78973
517.747	309.65314
518.224	313.59255
518.701	367.65576
519.178	328.66245
519.654	412.78972
520.131	369.742
520.607	331.67756
521.083	330.61328
521.56	325.62852
522.036	343.61097
522.512	331.67572
522.987	265.52009
523.463	344.66797
523.939	348.70252
524.414	362.68247
524.89	324.63334
525.365	339.62608
525.84	309.6013
526.315	332.65729
526.79	330.60961
527.265	336.62754
527.74	296.60001
528.215	304.59396
528.689	317.57548
529.164	308.5516
529.638	320.68839
530.112	316.61419
530.587	229.40725
531.061	261.52701
531.534	306.62028
532.008	296.59233
532.482	297.56858
532.956	266.57051
533.429	335.67363
533.903	358.64943
534.376	270.49876
534.849	310.59821
535.322	311.61182
535.795	297.60961
536.268	301.60471
536.741	295.59539
537.213	264.51483
537.686	244.50298
538.158	275.51271
538.631	323.65849
539.103	267.50002
539.575	297.51478
540.047	320.58285
540.519	324.64806
540.991	328.67339
541.463	308.62605
541.934	296.56653
542.406	318.63134
542.877	327.61179
543.348	319.64619
543.82	359.73354
544.291	346.67218
544.762	348.68155
545.233	338.70551
545.703	356.6435
546.174	445.83465
546.645	361.7045
547.115	408.79981
547.585	405.75586
548.056	375.73425
548.526	491.90914
548.996	500.95471
549.466	576.10088
549.935	546.99966
550.405	553.92518
550.875	582.05652
551.344	574.06367
551.814	595.04212
552.283	652.05774
552.752	588.03605
553.221	699.09828
553.69	738.18425
554.159	712.29045
554.628	751.20005
555.096	696.31912
555.565	687.1244
556.033	763.32245
556.502	623.15897
556.97	599.01562
557.438	585.08059
557.906	606.12309
558.374	532.96861
558.842	526.00319
559.31	575.01071
559.777	494.96247
560.245	541.01961
560.712	489.9199
561.18	575.99845
561.647	603.05561
562.114	629.11627
562.581	627.22547
563.048	692.23629
563.514	625.21116
563.981	647.16019
564.448	710.22223
564.914	681.23759
565.381	765.32732
565.847	825.45743
566.313	797.40785
566.779	829.39768
567.245	873.52002
567.711	839.51382
568.176	882.45148
568.642	847.60625
569.108	934.69464
569.573	1026.73706
570.038	980.45634
570.504	1009.59666
570.969	1094.95561
571.434	1029.57263
571.899	1119.85587
572.363	1181.82124
572.828	1256.91675
573.293	1197.85469
573.757	1201.86093
574.222	1194.77433
574.686	1153.74147
575.15	1225.96141
575.614	1271.91983
576.078	1270.97484
576.542	1281.91666
577.006	1240.84875
577.469	1329.20127
577.933	1266.84703
578.396	1240.98949
578.86	1276.00163
579.323	1176.91611
579.786	1229.74166
580.249	1192.82488
580.712	1266.09345
581.175	1125.94893
581.637	1211.894
582.1	1201.77135
582.563	1143.67089
583.025	1074.84607
583.487	1111.50117
583.95	1074.58334
584.412	1121.59944
584.874	1050.82387
585.336	1060.78323
585.797	1010.54026
586.259	989.69725
586.721	987.67307
587.182	1039.74919
587.643	1058.69997
588.105	944.64269
588.566	912.39509
589.027	915.62859
589.488	943.57156
589.949	978.73787
590.41	862.20681
590.87	939.57601
591.331	920.45151
591.791	879.50635
592.252	827.417
592.712	931.65884
593.172	873.45852
593.632	899.45377
594.092	855.42212
594.552	907.42557
595.011	861.47069
595.471	888.46948
595.931	966.55594
596.39	893.59343
596.849	948.61671
597.308	946.49012
597.768	867.6722
598.227	944.6825
598.685	973.63327
599.144	914.58198
599.603	990.70848
600.062	970.44576
600.52	969.55507
600.978	997.71832
601.437	1071.73699
601.895	1094.59537
602.353	1084.68503
602.811	1131.72941
603.269	1178.95469
603.727	1128.89602
604.184	1195.81821
604.642	1201.03503
605.099	1244.94649
605.557	1277.11116
606.014	1329.82934
606.471	1347.23127
606.928	1360.82868
607.385	1439.23295
607.842	1569.17587
608.299	1655.30575
608.755	1651.40366
609.212	1626.12152
609.668	1604.08251
610.125	1691.45374
610.581	1798.50142
611.037	1682.29595
611.493	1703.42024
611.949	1526.32074
612.405	1530.80667
612.861	1627.36536
613.316	1569.34275
613.772	1628.27257
614.227	1637.36125
614.683	1659.09695
615.138	1620.32563
615.593	1660.33696
616.048	1664.30897
616.503	1666.55547
616.958	1625.57406
617.412	1628.38778
617.867	1555.11375
618.321	1639.00319
618.776	1662.21579
619.23	1538.30622
619.684	1635.27601
620.138	1605.35147
620.592	1561.45071
621.046	1544.34013
621.5	1515.41731
621.954	1519.20506
622.407	1508.1628
622.861	1467.38372
623.314	1461.19543
623.768	1464.26093
624.221	1398.77023
624.674	1370.14901
625.127	1293.11786
625.58	1336.10971
626.033	1274.97078
626.485	1204.08126
626.938	1250.1327
627.39	1201.01974
627.843	1209.02008
628.295	1095.88779
628.747	1180.05896
629.199	1091.85
629.651	1059.81004
630.103	1032.79723
630.555	1075.68992
631.006	1008.82553
631.458	1018.85209
631.909	988.76928
632.361	925.70846
632.812	894.64328
633.263	922.56044
633.714	949.58679
634.165	868.70974
634.616	869.67447
635.067	850.52864
635.518	839.64056
635.968	830.34144
636.419	814.4458
636.869	812.5978
637.319	751.45023
637.769	703.32431
638.219	769.54253
638.669	708.43276
639.119	740.5297
639.569	709.45606
640.019	762.48029
640.468	677.29148
640.918	725.48896
641.367	634.22951
641.816	663.27391
642.265	720.41653
642.714	686.36157
643.163	700.37647
643.612	586.23371
644.061	612.12069
644.51	638.25968
644.958	670.26358
645.406	618.29319
645.855	658.40493
646.303	661.3421
646.751	561.12788
647.199	611.21672
647.647	581.1789
648.095	619.24069
648.543	634.12721
648.99	618.29605
649.438	659.35142
649.885	631.37483
650.333	618.03914
650.78	582.2473
651.227	583.25938
651.674	596.1981
652.121	609.31057
652.568	564.22218
653.015	646.44171
653.461	565.19804
653.908	608.25203
654.354	553.18429
654.801	528.11289
655.247	573.11922
655.693	534.25995
656.139	539.16321
656.585	505.09903
657.031	464.98781
657.477	465.91608
657.922	533.104
658.368	518.16097
658.813	540.13473
659.259	487.06562
659.704	524.10347
660.149	514.0857
660.594	446.97712
661.039	417.8814
661.484	528.14601
661.929	528.11971
662.373	457.06196
662.818	486.1052
663.262	440.98062
663.707	448.05022
664.151	477.07179
664.595	433.96961
665.039	474.08743
665.483	429.01558
665.927	434.95123
666.371	373.81015
666.814	429.95552
667.258	406.89662
667.701	451.90355
668.145	452.04474
668.588	423.97058
669.031	410.90053
669.474	428.96256
669.917	382.79841
670.36	391.91332
670.803	416.94209
671.245	386.7667
671.688	403.92544
672.13	329.70303
672.573	414.98918
673.015	413.93131
673.457	353.73044
673.899	405.92408
674.341	382.87179
674.783	334.7638
675.225	327.76866
675.666	334.76503
676.108	341.70719
676.549	365.82208
676.991	361.75669
677.432	324.61803
677.873	336.74361
678.314	361.82006
678.755	334.777
679.196	288.63686
679.637	340.795
680.078	332.74517
680.518	315.70717
680.959	296.68399
681.399	312.74354
681.839	316.73919
682.28	282.67232
682.72	313.68881
683.16	309.73992
683.6	337.73726
684.039	266.53994
684.479	267.63546
684.919	229.51559
685.358	331.80585
685.798	292.73854
686.237	298.69654
686.676	286.64405
687.115	303.68721
687.554	251.58106
687.993	290.62171
688.432	291.64363
688.871	264.58258
689.309	229.53539
689.748	308.62263
690.186	288.66683
690.625	234.53665
691.063	257.60014
691.501	257.6187
691.939	292.70361
692.377	282.66638
692.815	249.58054
693.253	255.59827
693.69	227.49012
694.128	211.50181
694.565	275.63712
695.003	281.69104
695.44	256.5864
695.877	207.47559
696.314	272.57028
696.751	232.51989
697.188	219.49429
697.625	268.60031
698.061	242.56722
698.498	264.62241
698.934	259.60789
699.371	245.56312
699.807	219.509
700.243	223.52627
700.679	275.60596
701.115	268.61511
701.551	244.56228
701.987	210.46614
702.422	225.52397
702.858	239.55701
703.294	236.5245
703.729	249.5949
704.164	241.5672
704.599	235.51348
705.035	164.36494
705.47	228.54297
705.904	155.35926
706.339	253.57569
706.774	169.3928
707.209	179.4088
707.643	222.5234
708.078	244.5804
708.512	175.4323
708.946	230.54078
709.38	209.48768
709.814	169.38409
710.248	218.52194
710.682	193.453
711.116	181.42633
711.549	216.54694
711.983	214.48646
712.416	231.53582
712.85	177.43644
713.283	217.50475
713.716	231.56873
714.149	231.54028
714.582	209.46266
715.015	221.54331
715.448	205.50844
715.881	230.495
716.313	183.42433
716.746	199.46179
717.178	157.37497
717.61	194.48494
718.043	190.46737
718.475	173.4154
718.907	251.62047
719.339	139.31451
719.77	131.30988
720.202	175.43753
720.634	193.46271
721.065	188.44032
721.497	172.41746
721.928	151.36822
722.359	139.33351
722.79	157.37311
723.221	165.41163
723.652	196.49842
724.083	150.33711
724.514	217.49018
724.945	147.34409
725.375	128.29662
725.806	183.45156
726.236	213.53598
726.666	174.40817
727.096	185.44842
727.526	184.46094
727.956	139.31527
728.386	162.3957
728.816	154.38635
729.246	144.34793
729.675	136.33319
730.105	161.39318
730.534	177.41009
730.964	197.49074
731.393	179.44007
731.822	179.45157
732.251	173.43409
732.68	189.44032
733.109	125.30743
733.537	150.35997
733.966	188.4604
734.395	174.3981
734.823	177.39607
735.251	156.37308
735.68	188.46483
736.108	161.40369
736.536	168.39302
736.964	135.31266
737.392	170.42095
737.82	195.46144
738.247	191.45145
738.675	191.45076
739.102	163.4031
739.53	129.32695
739.957	117.30022
740.384	168.41081
740.811	193.482
741.238	155.37543
741.665	117.27151
742.092	174.41151
742.519	114.28177
742.945	138.33004
743.372	167.4092
743.798	176.44677
744.225	159.3751
744.651	138.34447
745.077	156.38572
745.503	162.39187
745.929	129.30881
746.355	211.51585
746.781	110.27268
747.207	52.12346
747.632	135.32736
748.058	131.32563
748.483	155.3547
748.908	122.30243
749.334	129.31586
749.759	130.30579
750.184	134.3179
750.609	155.37797
751.033	186.43444
751.458	139.3113
751.883	166.40728
752.307	121.28457
752.732	161.39772
753.156	160.3914
753.58	142.33584
754.005	157.39494
754.429	98.23115
754.853	144.35422
755.277	137.32295
755.7	144.35488
756.124	119.29451
756.548	107.2539
756.971	145.35187
757.394	142.36315
757.818	141.36015
758.241	110.27865
758.664	135.33887
759.087	54.12211
759.51	138.34147
759.933	106.25515
760.356	129.32904
760.778	136.33257
761.201	170.40905
761.623	189.45209
762.046	193.45141
762.468	137.32783
762.89	139.34123
763.312	114.27815
763.734	110.26478
764.156	147.3602
764.578	116.26711
765	131.31826
765.421	90.22871
765.843	124.32345
766.264	168.40163
766.686	92.23156
767.107	75.18282
767.528	78.19745
767.949	107.27167
768.37	117.28648
768.791	137.32971
769.212	54.1366
769.632	83.19429
770.053	113.29641
770.473	99.24106
770.894	122.30442
771.314	139.33033
771.734	92.21514
772.154	95.24394
772.575	68.15902
772.994	66.15125
773.414	91.21926
773.834	28.07088
774.254	61.15042
774.673	82.20052
775.093	66.16421
775.512	47.11683
775.931	84.21332
776.351	75.18691
776.77	46.11349
777.189	93.22161
777.607	93.23738
778.026	69.17264
778.445	34.08591
778.864	103.26365
779.282	100.24053
779.701	78.1971
780.119	39.09941
780.537	49.12318
780.955	127.32108
781.373	37.09244
781.791	68.15383
782.209	83.19208
782.627	81.21341
783.045	78.18018
783.462	60.15399
783.88	63.16352
784.297	50.12661
784.715	61.15718
785.132	39.09535
785.549	43.1084
785.966	65.1641
786.383	57.14102
786.8	70.16344
787.217	83.1971
787.633	18.04545
788.05	87.20708
788.466	62.1472
788.883	25.06437
789.299	52.12612
789.715	63.15386
790.131	50.12513
790.547	80.19998
790.963	40.1001
791.379	48.12207
791.795	104.2369
792.21	70.16434
792.626	42.10056
793.041	33.08221
793.457	53.13175
793.872	78.18376
794.287	41.09864
794.702	43.10677
795.117	16.04021
795.532	41.10344
795.947	66.15953
796.362	82.19611
796.776	82.19251
797.191	73.17901
797.605	-24.05751
798.02	35.08592
798.434	54.12121
798.848	18.04483
799.262	53.13208
799.676	74.18089
800.09	49.12127
800.504	79.19186
800.918	54.12588
801.331	16.04238
801.745	7.01633
802.158	49.12313
802.572	91.22042
802.985	71.17204
803.398	74.17678
803.811	77.198
804.224	81.20157
804.637	36.08649
805.05	45.10513
805.462	27.06699
805.875	27.07051
806.288	-10.02452
806.7	35.08861
807.112	24.0563
807.525	43.10681
807.937	31.07726
808.349	69.17308
808.761	28.06951
809.173	45.10974
809.584	83.20496
809.996	-15.03734
810.408	22.05725
810.819	36.08537
811.231	109.27969
811.642	150.35242
812.053	261.59845
812.464	294.66964
812.875	300.73571
813.286	171.43246
813.697	134.31016
814.108	97.2361
814.519	47.10552
814.929	81.20632
815.34	69.16757
815.75	59.15023
816.16	50.12517
816.571	33.08627
816.981	54.12811
817.391	32.0779
817.801	40.09992
818.211	99.235
818.62	26.06315
819.03	79.19344
819.44	100.25986
819.849	23.05846
820.259	65.16656
820.668	-19.04751
821.077	4.01005
821.486	71.17113
821.895	53.13146
822.304	85.22456
822.713	-5.012
823.122	46.11532
823.531	12.02879
823.939	53.12958
824.348	32.0784
824.756	51.1282
825.164	92.23065
825.573	23.05819
825.981	58.1442
826.389	59.14853
826.797	46.1157
827.205	20.04639
827.612	56.13857
828.02	15.03561
828.428	66.16814
828.835	63.16588
829.243	52.12441
829.65	68.16906
830.057	-4.00984
830.464	58.14162
830.871	68.16294
831.278	52.12612
831.685	74.16515
832.092	41.10091
832.499	51.1121
832.905	57.14457
833.312	47.10777
833.718	89.22091
834.124	30.06914
834.531	37.09378
834.937	46.11847
835.343	36.08741
835.749	71.16587
836.155	55.14423
836.561	56.13801
836.966	47.11538
837.372	51.13013
837.777	54.13479
838.183	43.09618
838.588	42.10473
838.993	61.1487
839.399	10.0247
839.804	-16.03958
840.209	49.12503
840.613	25.05613
841.018	28.07136
841.423	48.12345
841.828	23.05858
842.232	86.21226
842.637	25.05946
843.041	8.0207
843.445	35.08824
843.849	29.07225
844.253	50.11922
844.657	30.07597
845.061	30.06858
845.465	-16.03923
845.869	50.11656
846.272	-24.05939
846.676	31.07546
847.079	30.0767
847.483	34.08527
847.886	52.12683
848.289	43.11505
848.692	44.11178
849.095	46.11085
849.498	70.1772
849.901	39.08993
850.304	74.17651
850.707	39.09983
851.109	67.16939
851.512	69.16933
851.914	-5.01274
852.316	31.07882
852.718	-26.0681
853.121	41.10084
853.523	-7.01658
853.925	24.06297
854.326	27.0679
854.728	43.11088
855.13	-16.04179
855.531	-3.00726
855.933	49.11793
856.334	4.01007
856.736	3.0068
857.137	4.00941
857.538	7.01776
857.939	19.04728
858.34	67.16308
858.741	29.07618
859.142	43.10364
859.542	26.06895
859.943	38.09479
860.343	20.04987
860.744	10.02463
861.144	72.17522
861.544	-20.04878
861.945	23.05898
862.345	37.09087
862.745	21.05254
863.145	35.08407
863.544	39.09888
863.944	53.12537
864.344	30.07491
864.743	33.08227
865.143	51.13114
865.542	7.01641
865.941	-5.01252
866.34	17.04105
866.74	40.10764
867.139	11.02657
867.537	28.07171
867.936	55.13247
868.335	-12.03091
868.734	27.06935
869.132	5.01174
869.531	52.12593
869.929	0
870.327	24.0579
870.726	55.13722
871.124	59.13789
871.522	14.03593
871.92	27.06697
872.318	117.28286
872.715	54.13377
873.113	28.0686
873.511	38.09499
873.908	-13.03322
874.306	15.03759
874.703	27.06792
875.1	35.08987
875.497	20.04829
875.894	-6.01487
876.291	11.02722
876.688	22.05707
877.085	58.13914
877.482	16.04034
877.878	28.06776
878.275	51.12967
878.671	28.06275
879.068	54.13043
879.464	17.04139
879.86	-2.00478
880.256	50.12354
880.652	-6.01543
881.048	46.1142
881.444	44.10499
881.84	30.07659
882.236	49.12335
882.631	39.09603
883.027	75.18098
883.422	10.02577
883.817	-18.04582
884.213	21.05421
884.608	7.01732
885.003	69.16594
885.398	-14.03548
885.793	41.10318
886.188	-14.03524
886.582	87.22191
886.977	27.06444
887.371	60.15161
887.766	-47.11904
888.16	70.17423
888.554	33.08194
888.949	63.15797
889.343	71.17294
889.737	11.02952
890.131	4.01013
890.525	13.03349
890.918	48.12094
891.312	40.09599
891.706	89.23211
892.099	52.13238
892.492	-15.03286
892.886	58.14183
893.279	29.07421
893.672	37.09448
894.065	43.1079
894.458	74.18545
894.851	77.18791
895.244	28.07184
895.637	57.13723
896.029	7.01727
896.422	36.08826
896.814	10.02506
897.206	-4.00963
897.599	59.14581
897.991	30.07287
898.383	7.01669
898.775	16.0364
899.167	-4.00943
899.559	35.0889
899.951	33.07812
900.342	54.13733
900.734	-32.08063
901.125	58.15207
901.517	28.06906
901.908	33.07945
902.299	-9.02226
902.69	23.0546
903.082	61.14753
903.473	-21.051
903.863	42.10738
904.254	-29.06842
904.645	73.18093
905.036	-16.03924
905.426	52.11912
905.817	26.06412
906.207	16.0384
906.597	-38.09047
906.987	31.08066
907.378	41.10392
907.768	42.11124
908.158	18.04418
908.547	-4.01043
908.937	18.04647
909.327	37.09013
909.717	14.03579
910.106	14.03388
910.495	26.06523
910.885	12.03061
911.274	24.0603
911.663	55.13955
912.052	63.15518
912.441	5.01282
912.83	26.06001
913.219	38.0997
913.608	13.03208
913.997	-17.04315
914.385	37.08868
914.774	9.02209
915.162	19.04557
915.55	56.13541
915.939	-34.08714
916.327	25.06271
916.715	-12.03093
917.103	40.09869
917.491	72.17751
917.878	32.07898
918.266	36.09362
918.654	56.14297
919.041	-26.06877
919.429	-33.07918
919.816	18.04591
920.203	13.03176
920.591	53.13141
920.978	31.07622
921.365	20.05276
921.752	23.05514
922.139	-3.00659
922.525	-24.05847
922.912	0
923.299	8.02004
923.685	5.01315
924.072	27.06258
924.458	32.07956
924.844	21.05226
925.231	-18.04247
925.617	-9.02313
926.003	21.05396
926.389	8.02034
926.774	15.03826
927.16	14.03501
927.546	14.03597
927.931	59.14703
928.317	-1.00233
928.702	55.13006
929.088	-12.02873
929.473	22.05626
929.858	-40.09836
930.243	8.01936
930.628	27.06599
931.013	-13.0326
931.398	73.16719
931.783	32.08453
932.167	29.07119
932.552	19.04788
932.937	71.17559
933.321	1.00253
933.705	31.07843
934.09	72.18129
934.474	33.07867
934.858	52.13485
935.242	-6.01406
935.626	0
936.009	16.0428
936.393	30.07662
936.777	24.06175
937.16	39.10168
937.544	27.06392
937.927	-6.01538
938.311	47.11483
938.694	54.14273
939.077	-5.0121
939.46	59.14468
939.843	21.04412
940.226	21.05415
940.609	6.0139
940.991	6.01539
941.374	-26.06445
941.757	53.13074
942.139	-10.02274
942.522	33.07828
942.904	20.04836
943.286	63.15973
943.668	26.06764
944.05	23.05694
944.432	27.06692
944.814	37.09137
945.196	-18.04443
945.578	7.01678
945.959	31.07293
946.341	61.14947
946.722	14.0331
947.104	-1.00241
947.485	25.05847
947.866	26.06579
948.247	22.05579
948.628	3.00738
949.009	-5.01293
949.39	29.07248
949.771	3.00704
950.152	27.06655
950.532	-26.06485
950.913	39.09429
951.293	5.01361
951.674	34.08249
952.054	-8.02003
952.434	46.11428
952.814	66.15658
953.194	37.09706
953.574	47.11585
953.954	3.00719
954.334	27.06758
954.714	-2.00492
955.093	39.0961
955.473	42.10518
955.853	23.05982
956.232	50.13704
956.611	63.15076
956.99	22.05557
957.37	14.03591
957.749	12.02884
958.128	7.01777
958.506	26.06773
958.885	39.09864
959.264	36.08846
959.643	12.02752
960.021	40.0993
960.4	-34.07839
960.778	44.10852
961.156	5.01264
961.535	21.04923
961.913	22.05177
962.291	-7.01814
962.669	-8.02047
963.047	0
963.424	26.06663
963.802	-4.00993
964.18	65.16404
964.557	37.08546
964.935	13.03103
965.312	14.03668
965.69	39.09786
966.067	29.0709
966.444	48.11834
966.821	39.10074
967.198	15.03663
967.575	40.09854
967.952	52.12251
968.329	40.09753
968.705	4.00866
969.082	14.03613
969.458	-12.02913
969.835	-1.00246
970.211	-4.01036
970.587	42.10473
970.963	45.11555
971.339	38.09943
971.715	35.08764
972.091	3.00745
972.467	32.08008
972.843	23.05736
973.219	65.15566
973.594	22.05782
973.97	59.14022
974.345	7.01689
974.721	59.14264
975.096	36.08735
975.471	37.088
975.846	-8.01943
976.221	-18.04626
976.596	15.0362
976.971	74.1819
977.346	50.11642
977.72	26.06652
978.095	15.039
978.469	5.01204
978.844	17.043
979.218	-42.10244
979.593	36.08649
979.967	-5.01231
980.341	2.00465
980.715	41.10347
981.089	29.07287
981.463	-19.04423
981.837	42.10278
982.21	53.12329
982.584	23.05584
982.957	-33.08364
983.331	17.04045
983.704	21.05188
984.078	27.06682
984.451	55.13727
984.824	-7.01723
985.197	35.08525
985.57	-1.00253
985.943	49.12105
986.316	52.12773
986.688	49.1182
987.061	16.03775
987.434	17.04455
987.806	36.08754
988.179	-28.06707
988.551	23.05863
988.923	30.07415
989.295	46.11503
989.667	-40.0972
990.039	16.03978
990.411	64.1469
990.783	32.07395
991.155	-6.01457
991.527	73.17901
991.898	-7.01762
992.27	3.00748
992.641	19.04793
993.012	29.06852
993.384	-6.01446
993.755	25.06402
994.126	17.04115
994.497	9.02226
994.868	25.05772
995.239	12.02929
995.61	-16.04073
995.98	-6.01473
996.351	-27.0678
996.722	-32.07542
997.092	19.04526
997.462	-51.12148
997.833	28.06666
998.203	53.12842
998.573	34.0849
998.943	-8.01897
999.313	2.00484
999.683	33.07945
1000.053	6.01393
1000.423	37.09013
1000.792	13.0339
1001.162	-30.07491
1001.531	38.09389
1001.901	38.09492
1002.27	7.01579
1002.639	-14.03617
1003.009	-8.01924
1003.378	-20.05176
1003.747	28.06643
1004.116	8.01929
1004.485	-4.00966
1004.853	35.0889
1005.222	48.12107
1005.591	26.06202
1005.959	-42.0964
1006.328	10.02269
1006.696	7.01702
1007.064	22.05561
1007.433	44.11007
1007.801	50.12272
1008.169	39.09867
1008.537	21.04678
1008.905	5.01175
1009.273	17.04224
1009.64	-26.06292
1010.008	36.08603
1010.375	52.12621
1010.743	33.07646
1011.11	-18.04315
1011.478	19.04728
1011.845	12.02843
1012.212	-26.05975
1012.579	16.03952
1012.946	27.06454
1013.313	44.10483
1013.68	-2.00454
1014.047	-53.12876
1014.414	-14.03347
1014.78	-13.03267
1015.147	54.13048
1015.513	46.1109
1015.88	67.17078
1016.246	65.15998
1016.612	21.04835
1016.978	33.0811
1017.344	31.07686
1017.71	36.088
1018.076	7.01664
1018.442	33.08512
1018.808	22.05525
1019.174	18.0454
1019.539	69.15822
1019.905	5.01189
1020.27	-6.01496
1020.636	53.12697
1021.001	6.01448
1021.366	-19.04621
1021.731	12.03106
1022.096	-35.08959
1022.461	28.06653
1022.826	18.04303
1023.191	11.02904
1023.556	15.03539
1023.92	26.06419
1024.285	45.1099
1024.649	25.06153
1025.014	38.0943
1025.378	23.05809
1025.742	-14.03516
1026.107	-23.05278
1026.471	38.0889
1026.835	23.05728
1027.199	-11.02677
1027.562	11.02576
1027.926	32.07849
1028.29	19.04833
1028.654	40.09218
1029.017	29.07154
1029.381	-5.01207
1029.744	-5.01287
1030.107	21.04995
1030.471	-6.01451
1030.834	9.02064
1031.197	89.21273
1031.56	20.04745
1031.923	16.04159
1032.286	71.166
1032.648	43.10294
1033.011	39.08968
1033.374	39.09183
1033.736	-26.06921
1034.099	5.01228
1034.461	17.04318
1034.823	22.05504
1035.185	36.09081
1035.548	41.09991
1035.91	-14.03393
1036.272	-4.0092
1036.634	55.13437
1036.995	14.03312
1037.357	14.03427
1037.719	14.03426
1038.08	28.06674
1038.442	-1.0024
1038.803	12.02901
1039.165	14.03554
1039.526	35.08478
1039.887	6.01447
1040.248	-6.01493
1040.609	30.07437
1040.97	37.0906
1041.331	20.05088
1041.692	-25.05918
1042.053	14.0321
1042.413	30.07016
1042.774	52.12636
1043.134	33.07879
1043.495	22.05555
1043.855	43.10439
1044.215	0
1044.576	-7.01691
1044.936	51.11685
1045.296	32.08008
1045.656	53.12992
1046.016	37.08949
1046.375	28.06817
1046.735	-48.11093
1047.095	23.05409
1047.454	36.07648
1047.814	13.03145
1048.173	70.16652
1048.533	-10.02317
1048.892	5.0121
1049.251	51.12793
1049.61	5.01241
1049.969	-16.03818
1050.328	-13.02855
1050.687	3.00736
1051.046	26.06356
1051.405	27.06741
1051.763	-24.05597
1052.122	21.05262
1052.48	19.04683
1052.839	-1.00237
1053.197	33.07788
1053.555	44.10039
1053.914	41.10039
1054.272	25.06069
1054.63	-34.08438
1054.988	-10.02402
1055.345	-15.03273
1055.703	7.01697
1056.061	10.02589
1056.419	17.04423
1056.776	2.00489
1057.134	-20.04692
1057.491	27.06785
1057.848	27.06746
1058.206	41.09654
1058.563	42.09269
1058.92	16.03711
1059.277	19.04711
1059.634	34.0802
1059.991	50.11972
1060.348	1.00228
1060.704	-33.07984
1061.061	36.08382
1061.418	-3.00734
1061.774	-16.03995
1062.131	-10.02669
1062.487	-1.00236
1062.843	11.0276
1063.199	20.04998
1063.555	18.04194
1063.911	29.07348
1064.267	55.11453
1064.623	-11.027
1064.979	49.11605
1065.335	24.05762
1065.691	26.06256
1066.046	7.01552
1066.402	1.00229
1066.757	21.05324
1067.112	26.06405
1067.468	28.06635
1067.823	24.05795
1068.178	11.02678
1068.533	55.13312
1068.888	31.0743
1069.243	7.0174
1069.598	8.01958
1069.952	-38.08705
1070.307	19.04726
1070.662	-1.0024
1071.016	-40.09122
1071.371	-19.0438
1071.725	15.0361
1072.079	2.00485
1072.434	-12.02948
1072.788	2.0048
1073.142	44.10828
1073.496	-15.036
1073.85	38.08827
1074.203	42.10198
1074.557	9.02408
1074.911	47.11217
1075.265	29.06764
1075.618	23.0564
1075.971	25.05971
1076.325	19.04852
1076.678	-41.09541
1077.031	3.00685
1077.385	40.08824
1077.738	-40.09189
1078.091	-29.06695
1078.444	30.06988
1078.796	-2.00495
1079.149	21.05247
1079.502	-20.04785
1079.855	38.08876
1080.207	29.07167
1080.56	15.03897
1080.912	45.10957
1081.264	31.07486
1081.617	-4.00984
1081.969	-12.03058
1082.321	23.0564
1082.673	-20.04626
1083.025	59.13962
1083.377	-249.56842
1083.728	-9.02122
1084.08	22.05515
1084.432	3.00729
1084.783	33.07752
1085.135	-8.02024
1085.486	-30.06969
1085.838	25.0618
1086.189	-37.0912
1086.54	63.14995
1086.891	16.04068
1087.242	17.04161
1087.593	39.09507
1087.944	11.02507
1088.295	-5.01148
1088.646	38.09223
1088.996	-20.04878
1089.347	37.09093
1089.698	-47.11307
1090.048	22.05737
1090.398	37.08597
1090.749	1.00241
1091.099	0
1091.449	17.04257
1091.799	23.05782
1092.149	-36.08911
1092.499	26.06365
1092.849	6.01536
1093.199	29.0729
1093.548	19.04588
1093.898	32.08025
1094.248	19.04904
1094.597	-29.07499
1094.947	17.04556
1095.296	-17.04246
1095.645	48.12478
1095.994	8.01935
1096.343	13.0329
1096.692	-21.05578
1097.041	-12.03279
1097.39	55.13771
1097.739	48.12469
1098.088	19.05112
1098.437	-30.0798
1098.785	43.11596
1099.134	10.02671
1099.482	34.09366
1099.83	42.11042
1100.179	-23.06068
1100.527	-8.02144
1100.875	-27.07224
1101.223	35.09309
1101.571	21.05824
1101.919	-20.05283
1102.267	0
1102.615	-2.00643
1102.962	10.0322
1103.31	-2.00643
1103.658	19.06114
