Data from N2 R9 sample 11_Subt2__0__18-39-09-315.txt Node

Date: Fri Aug 29 18:39:09 PDT 2025
User: uwsun
Spectrometer: HDX01956
Trigger mode: 0
Integration Time (sec): 5.000000E-1
Scans to average: 1
Nonlinearity correction enabled: true
Boxcar width: 0
Storing dark spectrum: false
XAxis mode: Wavelengths
Number of Pixels in Spectrum: 2068
>>>>>Begin Spectral Data<<<<<
194.03	236.6381
194.578	232.71235
195.127	244.73636
195.676	258.77965
196.225	277.70049
196.773	291.76038
197.321	351.88693
197.87	520.16068
198.418	513.13017
198.966	538.18707
199.513	430.92141
200.061	491.05584
200.609	546.23585
201.156	444.8186
201.704	482.03178
202.251	467.063
202.798	474.0548
203.345	567.17716
203.892	505.07854
204.438	562.12184
204.985	502.99433
205.532	542.20488
206.078	540.11278
206.624	526.08291
207.17	580.11336
207.716	501.02371
208.262	533.8634
208.808	478.99284
209.354	476.98207
209.899	577.22778
210.445	529.1001
210.99	533.0705
211.535	554.08639
212.08	540.0489
212.625	569.19341
213.17	559.192
213.715	443.82803
214.259	560.08576
214.804	559.16104
215.348	565.07225
215.892	577.15104
216.436	598.14687
216.98	519.96484
217.524	529.04778
218.068	536.14264
218.612	558.18549
219.155	548.07764
219.698	504.01658
220.242	521.10748
220.785	491.9764
221.328	516.09469
221.871	516.12087
222.414	499.06524
222.956	436.90278
223.499	417.80954
224.041	515.01953
224.583	537.97598
225.126	476.89126
225.668	486.00715
226.21	442.96182
226.751	400.75153
227.293	455.89301
227.835	440.92655
228.376	478.9459
228.918	487.05799
229.459	412.8897
230	465.94796
230.541	492.96449
231.082	438.91585
231.622	460.90858
232.163	456.94715
232.704	460.97887
233.244	423.90895
233.784	485.01963
234.324	424.79035
234.864	457.88297
235.404	481.97835
235.944	469.95264
236.484	499.06386
237.023	458.92372
237.563	441.87043
238.102	464.93625
238.641	454.98961
239.18	452.8978
239.719	497.06234
240.258	492.93397
240.797	500.00803
241.335	503.045
241.874	446.71647
242.412	473.96602
242.95	476.96091
243.488	468.90574
244.026	492.9531
244.564	531.90053
245.102	479.90419
245.64	462.95362
246.177	437.8342
246.715	492.00097
247.252	476.92651
247.789	529.81883
248.326	481.97167
248.863	454.83746
249.4	496.94662
249.936	526.88842
250.473	493.96394
251.009	477.91631
251.546	514.93915
252.082	562.00772
252.618	507.9369
253.154	486.98154
253.69	444.8453
254.226	494.98992
254.761	473.89068
255.297	508.91927
255.832	541.0586
256.367	488.96479
256.903	520.94099
257.438	524.02454
257.972	526.96691
258.507	474.90418
259.042	497.89363
259.576	422.75893
260.111	567.07605
260.645	506.90585
261.179	516.99626
261.713	478.88351
262.247	498.95689
262.781	488.83945
263.315	491.00324
263.849	517.07605
264.382	579.08551
264.915	535.02657
265.449	480.96943
265.982	548.02145
266.515	538.08181
267.048	544.93033
267.58	541.96878
268.113	501.88511
268.646	550.11513
269.178	544.98495
269.71	540.96027
270.243	565.0493
270.775	535.12643
271.307	561.10973
271.838	583.13286
272.37	560.1282
272.902	581.06782
273.433	500.89464
273.965	552.09981
274.496	580.18142
275.027	489.00773
275.558	510.0188
276.089	521.04443
276.62	595.23868
277.15	593.19123
277.681	526.92954
278.211	584.16584
278.741	508.90568
279.272	554.01682
279.802	562.14677
280.332	559.06238
280.861	579.12507
281.391	527.96608
281.921	616.19113
282.45	589.19461
282.98	558.19321
283.509	590.05315
284.038	608.09599
284.567	634.17567
285.096	584.134
285.625	561.01548
286.153	542.02025
286.682	573.04041
287.21	606.15721
287.739	613.14429
288.267	587.13034
288.795	618.31144
289.323	534.99692
289.851	585.08706
290.378	681.1725
290.906	560.07644
291.433	616.21788
291.961	595.05088
292.488	607.19865
293.015	598.10051
293.542	563.13659
294.069	573.11551
294.596	662.28146
295.122	617.14949
295.649	636.07764
296.175	672.26302
296.702	691.2921
297.228	742.37432
297.754	645.10564
298.28	672.15419
298.806	659.21514
299.332	668.10694
299.857	614.05998
300.383	725.40797
300.908	579.08764
301.433	654.21284
301.958	653.15356
302.483	616.18658
303.008	686.29697
303.533	677.36588
304.058	695.23815
304.582	675.19375
305.107	630.2683
305.631	696.18722
306.155	674.16815
306.679	641.1223
307.203	674.16196
307.727	723.26689
308.251	731.34346
308.775	656.15314
309.298	669.18435
309.822	734.37571
310.345	744.28227
310.868	740.28554
311.391	770.38376
311.914	752.37348
312.437	776.26521
312.96	784.31049
313.482	778.31039
314.005	764.38771
314.527	728.40406
315.049	803.46128
315.571	775.1816
316.093	873.50003
316.615	816.36786
317.137	856.24279
317.659	873.4657
318.18	880.45701
318.702	892.38614
319.223	857.13924
319.744	872.28727
320.265	875.41721
320.786	824.38131
321.307	880.47066
321.828	915.33339
322.348	892.37001
322.869	900.3669
323.389	871.81126
323.909	909.33439
324.43	969.50852
324.95	962.36222
325.47	942.46673
325.989	930.36663
326.509	993.28276
327.029	1029.35319
327.548	998.31256
328.067	1004.44807
328.587	1044.57545
329.106	1063.38049
329.625	1141.82726
330.144	1028.36138
330.662	1052.3758
331.181	1098.43841
331.7	1098.43165
332.218	1169.30674
332.736	1110.42404
333.255	1096.38384
333.773	1165.4683
334.291	1219.65385
334.808	1159.30631
335.326	1184.34653
335.844	1237.40186
336.361	1225.59087
336.879	1342.45038
337.396	1250.46993
337.913	1300.3756
338.43	1349.33642
338.947	1299.43669
339.464	1338.18607
339.981	1300.38876
340.497	1347.53206
341.014	1415.50283
341.53	1365.26248
342.046	1347.45303
342.562	1535.60376
343.078	1391.35247
343.594	1449.40675
344.11	1487.3957
344.626	1519.54726
345.141	1552.26372
345.657	1565.27288
346.172	1521.38633
346.687	1469.22113
347.202	1538.16199
347.717	1631.34061
348.232	1632.46799
348.747	1578.19363
349.261	1561.99818
349.776	1582.22412
350.29	1630.31322
350.805	1778.40364
351.319	1747.18495
351.833	1688.05102
352.347	1697.16179
352.861	1705.11442
353.374	1817.11536
353.888	1737.22025
354.401	1813.04953
354.915	1698.92322
355.428	1849.22837
355.941	1882.00473
356.454	1912.94828
356.967	1906.06188
357.48	1902.97127
357.993	1902.15598
358.505	1860.09234
359.018	2007.07873
359.53	1906.99822
360.042	2066.75397
360.554	2005.01135
361.066	2002.98599
361.578	2005.66646
362.09	2018.90552
362.602	1989.6521
363.113	2054.76249
363.625	2092.63974
364.136	2139.56523
364.647	2073.6129
365.158	2204.64102
365.669	2163.7319
366.18	2176.66271
366.691	2213.44408
367.201	2147.66465
367.712	2232.44904
368.222	2308.41205
368.733	2314.20668
369.243	2358.20361
369.753	2459.2876
370.263	2395.37957
370.773	2464.41823
371.282	2482.22247
371.792	2433.99877
372.301	2417.16263
372.811	2612.29399
373.32	2510.66589
373.829	2612.79421
374.338	2757.52262
374.847	2918.42559
375.356	2886.44148
375.865	2978.05855
376.373	3221.98824
376.882	3390.13177
377.39	3409.94816
377.898	3231.9097
378.407	3556.62153
378.915	3668.55177
379.423	3887.53158
379.93	4050.52706
380.438	4000.5339
380.946	4381.73667
381.453	4483.90307
381.96	4594.25996
382.468	4791.05956
382.975	5354.06983
383.482	5614.51996
383.989	5555.90798
384.495	5552.26296
385.002	5686.78817
385.509	6142.68526
386.015	6611.60288
386.521	6785.61067
387.028	7311.29317
387.534	7533.27362
388.04	8054.81655
388.546	7725.13855
389.051	7934.52355
389.557	8703.10938
390.063	10030.00003
390.568	10081.1442
391.073	10195.3583
391.578	10634.27561
392.084	10764.40932
392.589	10791.48126
393.093	11310.36101
393.598	12796.69207
394.103	13867.18727
394.607	15294.12068
395.112	16432.42488
395.616	17340.19355
396.12	18342.67471
396.624	19717.7963
397.128	22039.60574
397.632	24769.18987
398.136	26657.91765
398.639	27137.0579
399.143	28368.03266
399.646	27992.40036
400.15	24952.59582
400.653	20124.16724
401.156	13866.23708
401.659	5169.95759
402.162	1054.15589
402.664	0
403.167	0
403.67	0
404.172	0
404.674	0
405.176	0
405.678	0
406.18	0
406.682	0
407.184	0
407.686	0
408.187	0
408.688	0
409.19	0
409.691	0
410.192	0
410.693	0
411.194	435.30976
411.694	4082.94878
412.195	8864.71461
412.696	12089.80453
413.196	12760.96929
413.696	12863.67595
414.196	13703.56671
414.696	17261.84252
415.196	21764.24417
415.696	29583.19008
416.196	36460.31858
416.695	40057.39798
417.195	34707.6846
417.694	32929.35281
418.194	31455.09873
418.693	28933.20355
419.192	28044.94645
419.691	27163.64369
420.19	26746.25525
420.688	26285.13046
421.187	25448.79063
421.685	24306.81438
422.184	22471.46946
422.682	19186.1979
423.18	15803.40199
423.678	13632.66792
424.176	12663.14539
424.674	11796.26777
425.172	11703.55135
425.669	11001.72192
426.167	10323.05774
426.664	9377.7906
427.161	8364.72264
427.659	7842.70815
428.156	7109.67768
428.652	6976.01351
429.149	6507.6765
429.646	6230.4781
430.143	5991.23532
430.639	5596.90997
431.135	5191.6314
431.632	5029.41401
432.128	4635.78385
432.624	4348.56463
433.12	4013.56028
433.616	3938.53701
434.111	3649.53983
434.607	3605.59013
435.103	3613.56923
435.598	3492.61652
436.093	3420.85538
436.588	3309.93678
437.083	3064.15864
437.578	2952.33821
438.073	2637.68504
438.568	2738.79396
439.062	2634.54665
439.557	2567.93053
440.051	2352.94865
440.546	2311.00456
441.04	2205.23801
441.534	2235.4547
442.028	2101.41438
442.522	2089.42124
443.015	2054.23993
443.509	2099.56468
444.002	2003.59993
444.496	1972.35062
444.989	1972.66687
445.482	1898.73791
445.975	1868.47873
446.468	1878.39549
446.961	1838.42129
447.454	1827.58507
447.947	1758.69117
448.439	1771.82721
448.931	1644.62495
449.424	1729.97639
449.916	1653.87684
450.408	1574.68472
450.9	1502.86991
451.392	1534.99796
451.884	1520.81268
452.375	1399.9514
452.867	1486.82928
453.358	1381.78112
453.849	1412.68164
454.341	1381.80885
454.832	1310.72005
455.323	1281.97194
455.814	1333.89446
456.304	1320.90827
456.795	1380.91411
457.285	1320.89606
457.776	1273.95766
458.266	1192.97222
458.756	1283.06712
459.247	1131.96741
459.737	1036.93501
460.226	1057.85864
460.716	1064.98868
461.206	1106.04154
461.695	1070.13238
462.185	1017.98866
462.674	1126.01811
463.163	1097.94222
463.653	1041.83456
464.142	953.01728
464.63	1001.10573
465.119	972.97731
465.608	879.92258
466.096	927.89555
466.585	924.00133
467.073	962.10056
467.561	942.09939
468.05	894.01518
468.538	849.07916
469.026	821.01602
469.513	853.85406
470.001	821.94058
470.489	818.0055
470.976	813.98423
471.463	748.04918
471.951	696.01212
472.438	642.86156
472.925	692.90798
473.412	730.05062
473.899	628.85054
474.385	641.95529
474.872	695.94184
475.359	600.90195
475.845	617.73912
476.331	651.84511
476.817	606.9346
477.303	599.86775
477.789	522.81819
478.275	518.84453
478.761	511.81514
479.247	529.77048
479.732	430.72975
480.218	509.9077
480.703	520.87542
481.188	510.71414
481.673	459.71331
482.158	386.55039
482.643	443.8055
483.128	429.6729
483.612	438.71602
484.097	455.79459
484.581	425.70391
485.066	368.64923
485.55	317.50062
486.034	303.47519
486.518	313.53905
487.002	301.54782
487.486	331.60121
487.969	274.5059
488.453	304.58692
488.936	311.52246
489.42	321.53101
489.903	338.65287
490.386	321.37516
490.869	299.49516
491.352	278.53414
491.835	296.46407
492.318	332.56674
492.8	279.43983
493.283	232.46749
493.765	264.51042
494.247	244.45412
494.73	268.46166
495.212	267.5156
495.694	214.39689
496.175	153.29134
496.657	224.42727
497.139	227.30986
497.62	144.27654
498.102	116.23762
498.583	187.38453
499.064	153.27618
499.545	141.26418
500.026	159.29025
500.507	134.25709
500.988	208.42376
501.469	102.21348
501.949	136.28149
502.43	75.149
502.91	98.16736
503.39	134.28257
503.87	114.22316
504.35	152.30022
504.83	99.18099
505.31	112.22787
505.79	57.11573
506.269	134.26305
506.749	80.154
507.228	92.18197
507.707	73.13691
508.187	140.28262
508.666	74.1546
509.145	7.0141
509.623	70.14021
510.102	25.05247
510.581	77.16019
511.059	57.1226
511.538	103.22916
512.016	76.15596
512.494	103.21428
512.972	73.14977
513.45	-16.03211
513.928	10.02111
514.406	41.08458
514.884	77.17081
515.361	99.20293
515.839	18.03564
516.316	-10.02112
516.793	47.10405
517.27	89.18697
517.747	31.06951
518.224	48.09677
518.701	0
519.178	27.0583
519.654	52.10835
520.131	25.05426
520.607	7.01538
521.083	14.02807
521.56	30.06212
522.036	24.04629
522.512	44.09568
522.987	8.01665
523.463	57.11827
523.939	54.11637
524.414	78.15732
524.89	48.09997
525.365	-9.01807
525.84	-26.05463
526.315	-20.04286
526.79	22.04378
527.265	7.01414
527.74	16.03451
528.215	30.06243
528.689	-45.08924
529.164	14.02698
529.638	-6.01381
530.112	-3.00627
530.587	-22.04168
531.061	-11.0236
531.534	-26.0567
532.008	-5.0107
532.482	-3.00616
532.956	-45.10298
533.429	51.10927
533.903	0
534.376	-19.03764
534.849	24.0495
535.322	-5.01057
535.795	1.00219
536.268	-1.00215
536.741	4.00861
537.213	-5.01037
537.686	-17.0371
538.158	-39.07839
538.631	57.12323
539.103	-54.10916
539.575	-6.01124
540.047	-29.05751
540.519	-11.02371
540.991	50.10909
541.463	18.03901
541.934	19.03881
542.406	22.0467
542.877	32.06424
543.348	19.04113
543.82	29.06369
544.291	85.17542
544.762	32.06736
545.233	39.0868
545.703	74.14341
546.174	66.13538
546.645	-9.01911
547.115	76.16068
547.585	62.12556
548.056	29.06143
548.526	65.13318
548.996	136.28262
549.466	124.26332
549.935	120.24336
550.405	125.23374
550.875	153.30851
551.344	170.34729
551.814	173.33712
552.283	168.31018
552.752	122.24153
553.221	194.34993
553.69	198.36704
554.159	195.40044
554.628	219.40363
555.096	204.43357
555.565	241.44418
556.033	186.37221
556.502	175.36229
556.97	266.49236
557.438	181.36867
557.906	217.44179
558.374	121.24331
558.842	191.39452
559.31	145.28404
559.777	125.26492
560.245	156.3223
560.712	185.37407
561.18	160.30845
561.647	120.23713
562.114	157.31323
562.581	243.51882
563.048	272.53926
563.514	187.40082
563.981	264.5207
564.448	248.48018
564.914	282.5651
565.381	348.67122
565.847	334.6662
566.313	327.64906
566.779	377.71442
567.245	334.66496
567.711	364.73718
568.176	313.59719
568.642	359.76248
569.108	472.95764
569.573	441.86553
570.038	387.67937
570.504	487.88688
570.969	513.05302
571.434	461.82377
571.899	476.93004
572.363	590.06673
572.828	655.17638
573.293	583.06452
573.757	633.14261
574.222	607.06152
574.686	646.12247
575.15	664.23142
575.614	634.13887
576.078	650.19222
576.542	674.19167
577.006	690.19848
577.469	698.35642
577.933	673.15993
578.396	684.26921
578.86	703.28478
579.323	654.22007
579.786	634.06611
580.249	610.09342
580.712	642.24387
581.175	624.22334
581.637	623.13944
582.1	610.06089
582.563	590.00816
583.025	598.15737
583.487	519.83833
583.95	496.86097
584.412	562.94309
584.874	542.06682
585.336	466.91136
585.797	509.89222
586.259	521.00494
586.721	482.92926
587.182	500.96582
587.643	403.76854
588.105	446.87886
588.566	396.699
589.027	423.84941
589.488	388.74587
589.949	419.85303
590.41	355.57817
590.87	413.79335
591.331	381.69521
591.791	331.65117
592.252	283.55621
592.712	335.68947
593.172	291.56438
593.632	349.65263
594.092	323.61657
594.552	306.56527
595.011	253.50335
595.471	352.66948
595.931	234.45567
596.39	322.65988
596.849	316.63118
597.308	343.63506
597.768	301.65991
598.227	320.6629
598.685	360.70605
599.144	297.59887
599.603	346.70008
600.062	267.48347
600.52	327.62117
600.978	342.69294
601.437	376.72976
601.895	366.65448
602.353	366.68899
602.811	364.68388
603.269	374.75882
603.727	441.88065
604.184	359.68296
604.642	369.76697
605.099	414.80467
605.557	443.9023
606.014	387.6965
606.471	413.86147
606.928	427.75236
607.385	490.97237
607.842	569.04258
608.299	695.26501
608.755	619.18751
609.212	627.09427
609.668	542.95933
610.125	675.28642
610.581	676.27803
611.037	652.18809
611.493	596.14193
611.949	589.14454
612.405	539.86968
612.861	643.2182
613.316	587.13577
613.772	615.13612
614.227	566.088
614.683	669.13584
615.138	546.04645
615.593	611.14619
616.048	675.23351
616.503	568.15274
616.958	630.28169
617.412	624.19625
617.867	559.00721
618.321	665.09497
618.776	620.11253
619.23	577.11478
619.684	589.09451
620.138	696.30307
620.592	619.23554
621.046	591.14953
621.5	558.13241
621.954	581.08765
622.407	570.05676
622.861	551.12455
623.314	575.09338
623.768	509.00574
624.221	560.91614
624.674	493.97079
625.127	504.00633
625.58	503.98583
626.033	522.9861
626.485	425.88768
626.938	478.98575
627.39	457.9253
627.843	514.02158
628.295	450.90967
628.747	466.96705
629.199	405.81477
629.651	394.79428
630.103	376.7688
630.555	408.7658
631.006	407.85047
631.458	317.67974
631.909	422.86637
632.361	314.66909
632.812	360.7511
633.263	343.67223
633.714	320.62789
634.165	310.69123
634.616	330.71875
635.067	331.6751
635.518	302.66614
635.968	252.47438
636.419	271.54972
636.869	278.61629
637.319	268.57802
637.769	247.51798
638.219	288.64244
638.669	216.48683
639.119	289.65839
639.569	247.56067
640.019	255.55576
640.468	200.42618
640.918	291.65678
641.367	234.49776
641.816	213.45418
642.265	209.46112
642.714	213.46994
643.163	209.45899
643.612	164.37779
644.061	173.35237
644.51	192.41926
644.958	158.33581
645.406	170.39145
645.855	241.56167
646.303	202.4536
646.751	167.36676
647.199	214.46611
647.647	194.42901
648.095	191.42123
648.543	241.47277
648.99	220.50253
649.438	219.49429
649.885	210.49895
650.333	196.36805
650.78	203.47125
651.227	219.51061
651.674	191.42035
652.121	199.46653
652.568	205.47891
653.015	264.6364
653.461	221.50451
653.908	246.54854
654.354	220.50576
654.801	172.39147
655.247	239.50452
655.693	182.45938
656.139	201.46587
656.585	227.52405
657.031	178.4025
657.477	147.31127
657.922	231.51157
658.368	188.45064
658.813	265.59151
659.259	174.40657
659.704	151.34458
660.149	195.44138
660.594	197.45425
661.039	168.37446
661.484	233.53832
661.929	149.34262
662.373	168.41341
662.818	201.48427
663.262	172.40458
663.707	149.37037
664.151	171.40903
664.595	183.43087
665.039	163.39792
665.483	164.40892
665.927	194.44671
666.371	127.29028
666.814	171.40121
667.258	66.1561
667.701	183.38936
668.145	167.4086
668.588	187.44935
669.031	119.27735
669.474	165.39106
669.917	181.39516
670.36	155.37881
670.803	176.41802
671.245	163.34062
671.688	154.37125
672.13	108.24183
672.573	166.4154
673.015	157.37253
673.457	141.30562
673.899	189.45001
674.341	105.25299
674.783	91.21826
675.225	122.29822
675.666	98.23509
676.108	108.23564
676.549	119.2815
676.991	140.30779
677.432	142.28284
677.873	128.29557
678.314	117.27891
678.755	132.3193
679.196	135.30807
679.637	173.41776
680.078	129.30161
680.518	152.35266
680.959	146.34743
681.399	128.3158
681.839	128.31044
682.28	127.31177
682.72	80.18466
683.16	98.24409
683.6	129.29461
684.039	63.13381
684.479	59.14602
684.919	50.1167
685.358	152.38243
685.798	103.26927
686.237	126.30444
686.676	117.27258
687.115	111.26156
687.554	97.23141
687.993	133.29479
688.432	91.20967
688.871	62.1426
689.309	99.23736
689.748	87.18479
690.186	147.34988
690.625	50.1189
691.063	55.13352
691.501	117.28914
691.939	49.12349
692.377	102.24943
692.815	60.14509
693.253	104.25119
693.69	75.16721
694.128	57.13957
694.565	116.27721
695.003	50.12819
695.44	47.11217
695.877	72.16989
696.314	90.19628
696.751	99.22792
697.188	38.08893
697.625	102.23628
698.061	63.15283
698.498	110.26709
698.934	92.22297
699.371	56.13357
699.807	120.28436
700.243	94.22738
700.679	139.31502
701.115	118.27897
701.551	77.18335
701.987	102.23149
702.422	106.25264
702.858	55.13282
703.294	67.15413
703.729	87.21429
704.164	100.24181
704.599	56.12699
705.035	27.06179
705.47	41.10114
705.904	69.16265
706.339	102.23918
706.774	41.0977
707.209	57.13337
707.643	57.13869
708.078	35.08659
708.512	42.10628
708.946	96.23161
709.38	89.21257
709.814	44.10253
710.248	79.19415
710.682	80.19191
711.116	32.07755
711.549	19.04979
711.983	35.08244
712.416	77.18405
712.85	99.24761
713.283	66.15809
713.716	153.38211
714.149	99.23754
714.582	83.18856
715.015	107.26859
715.448	73.18542
715.881	79.17554
716.313	29.06929
716.746	38.09099
717.178	36.08797
717.61	62.15867
718.043	83.2082
718.475	62.15201
718.907	130.32849
719.339	5.01162
719.77	15.03628
720.202	51.13036
720.634	72.17659
721.065	53.12741
721.497	50.12413
721.928	44.10943
722.359	-16.03952
722.79	33.08029
723.221	89.22509
723.652	144.36956
724.083	9.02081
724.514	77.1789
724.945	25.05992
725.375	49.11533
725.806	56.1414
726.236	100.25673
726.666	68.16282
727.096	74.18311
727.526	40.1028
727.956	17.03951
728.386	89.22035
728.816	58.14802
729.246	9.0223
729.675	6.01505
730.105	78.19343
730.534	56.13286
730.964	105.26593
731.393	84.21013
731.822	54.13927
732.251	63.16121
732.68	98.23241
733.109	61.1518
733.537	27.06631
733.966	44.11063
734.395	16.03777
734.823	74.16911
735.251	38.09293
735.68	91.229
736.108	64.16328
736.536	34.08163
736.964	52.12241
737.392	58.14656
737.82	73.17682
738.247	69.16694
738.675	94.22601
739.102	15.0381
739.53	55.14123
739.957	76.19641
740.384	92.22815
740.811	49.12556
741.238	21.05214
741.665	23.05437
742.092	88.21159
742.519	22.05529
742.945	41.09987
743.372	57.14251
743.798	78.20144
744.225	20.04845
744.651	66.16689
745.077	30.07589
745.503	58.14304
745.929	34.08287
746.355	117.29104
746.781	67.1674
747.207	-2.0048
747.632	4.00994
748.058	49.12362
748.483	70.16293
748.908	58.14546
749.334	60.14879
749.759	13.03128
750.184	20.04849
750.609	79.19537
751.033	79.1884
751.458	101.22797
751.883	60.1501
752.307	51.12158
752.732	9.02285
753.156	28.07017
753.58	79.18912
754.005	69.17631
754.429	41.09778
754.853	47.11768
755.277	54.12934
755.7	40.10046
756.124	24.06043
756.548	28.06745
756.971	78.19166
757.394	63.16335
757.818	44.1143
758.241	52.13308
758.664	68.17275
759.087	-6.01373
759.51	32.08072
759.933	18.04405
760.356	61.15746
760.778	55.13652
761.201	87.21263
761.623	84.20495
762.046	65.15584
762.468	102.24571
762.89	29.07264
763.312	63.15518
763.734	11.02697
764.156	46.11482
764.578	42.09814
765	42.10374
765.421	23.05914
765.843	68.17907
766.264	57.13915
766.686	41.10414
767.107	18.04434
767.528	-4.01027
767.949	41.10532
768.37	-15.03763
768.791	61.14892
769.212	0
769.632	-36.08623
770.053	39.10359
770.473	40.09847
770.894	70.17631
771.314	68.16381
771.734	25.05923
772.154	64.16523
772.575	41.09639
772.994	30.06925
773.414	65.15738
773.834	48.12107
774.254	27.06699
774.673	39.09613
775.093	32.08011
775.512	-3.00753
775.931	29.07436
776.351	61.15241
776.77	7.01739
777.189	27.06515
777.607	38.09793
778.026	26.06556
778.445	-36.0921
778.864	53.13685
779.282	16.0391
779.701	37.09418
780.119	18.04605
780.537	12.03037
780.955	81.20646
781.373	13.03262
781.791	-31.07154
782.209	36.08409
782.627	-7.01872
783.045	30.06996
783.462	59.15145
783.88	24.06271
784.297	13.03314
784.715	-10.02609
785.132	9.02213
785.549	54.13587
785.966	51.12908
786.383	13.03242
786.8	4.00946
787.217	-34.08256
787.633	5.01265
788.05	57.13645
788.466	53.12605
788.883	9.02324
789.299	21.05123
789.715	62.15145
790.131	43.10774
790.547	5.01267
790.963	32.0802
791.379	23.05875
791.795	18.04171
792.21	64.15043
792.626	7.01687
793.041	31.07726
793.457	6.01504
793.872	-23.05525
794.287	22.05312
794.702	39.09691
795.117	-6.01514
795.532	-19.04845
795.947	25.0609
796.362	56.1346
796.776	73.17168
797.191	24.05939
797.605	-41.09856
798.02	-11.02723
798.434	93.20708
798.848	-1.0025
799.262	-11.02773
799.676	79.19293
800.09	29.07204
800.504	57.139
800.918	-20.0473
801.331	68.17853
801.745	14.03262
802.158	19.048
802.572	21.05153
802.985	22.0538
803.398	34.08184
803.811	37.0958
804.224	33.08284
804.637	6.0145
805.05	19.04462
805.462	33.08179
805.875	-15.03945
806.288	14.03417
806.7	31.07854
807.112	6.01412
807.525	34.08459
807.937	13.0325
808.349	-3.00762
808.761	38.09417
809.173	13.03189
809.584	16.04
809.996	-4.00994
810.408	-4.01046
810.819	38.09008
811.231	35.09097
811.642	42.10076
812.053	139.32651
812.464	179.41719
812.875	162.40744
813.286	91.23342
813.697	81.18946
814.108	49.12034
814.519	63.14098
814.929	53.13567
815.34	-2.00492
815.75	14.03593
816.16	42.1053
816.571	79.20491
816.981	41.09751
817.391	29.07064
817.801	42.10488
818.211	43.10317
818.62	-11.0269
819.03	26.06429
819.44	36.09458
819.849	37.09381
820.259	69.17668
820.668	2.00498
821.077	8.02009
821.486	15.03654
821.895	34.08462
822.304	15.04009
822.713	-3.0072
823.122	10.02523
823.531	15.03596
823.939	37.09073
824.348	57.139
824.756	50.12571
825.164	31.07857
825.573	13.03295
825.981	50.12449
826.389	59.14853
826.797	-14.03559
827.205	-31.07262
827.612	4.00999
828.02	-2.00476
828.428	25.06415
828.835	56.14762
829.243	19.04574
829.65	13.03264
830.057	5.01228
830.464	9.02218
830.871	47.11307
831.278	18.04394
831.685	-13.02953
832.092	45.11068
832.499	25.05525
832.905	40.10176
833.312	34.07817
833.718	31.07776
834.124	35.08058
834.531	49.12393
834.937	31.08005
835.343	36.08741
835.749	30.07065
836.155	18.0475
836.561	2.00498
836.966	17.04197
837.372	30.07683
837.777	0
838.183	9.02027
838.588	43.1072
838.993	52.12697
839.399	31.07627
839.804	-23.05696
840.209	-1.00257
840.613	6.01352
841.018	25.06375
841.423	12.03106
841.828	3.00767
842.232	69.17083
842.637	13.03099
843.041	-39.10171
843.445	17.043
843.849	22.05488
844.253	49.11685
844.657	33.08352
845.061	4.00919
845.465	-20.04907
845.869	11.02584
846.272	-11.02715
846.676	18.04392
847.079	11.02822
847.483	46.11512
847.886	79.19171
848.289	9.02421
848.692	37.09411
849.095	19.04602
849.498	66.16719
849.901	6.01393
850.304	22.053
850.707	10.02573
851.109	44.1117
851.512	14.03471
851.914	-11.02807
852.316	34.0864
852.718	-57.15008
853.121	-7.01737
853.523	27.06355
853.925	41.10726
854.326	-7.01771
854.728	34.08781
855.13	-42.11019
855.531	-4.00968
855.933	-11.02677
856.334	-8.02019
856.736	-27.06159
857.137	15.03519
857.538	8.02029
857.939	-9.02251
858.34	36.08813
858.741	19.04999
859.142	46.11081
859.542	5.01331
859.943	-3.00754
860.343	12.02997
860.744	22.05406
861.144	41.10035
861.544	-43.10533
861.945	5.01286
862.345	-5.01237
862.745	-5.01257
863.145	26.06256
863.544	11.02803
863.944	27.06419
864.344	61.15147
864.743	63.1562
865.143	28.07229
865.542	-4.00939
865.941	4.01
866.34	42.10095
866.74	26.07012
867.139	-12.02912
867.537	35.08953
867.936	25.06055
868.335	31.07924
868.734	17.04374
869.132	11.0258
869.531	10.02441
869.929	3.00692
870.327	11.0266
870.726	56.13969
871.124	30.07051
871.522	25.06404
871.92	38.09406
872.318	17.04187
872.715	74.18264
873.113	6.01476
873.511	2.00503
873.908	-8.02042
874.306	-16.04031
874.703	32.08043
875.1	30.0771
875.497	5.01211
875.894	8.01977
876.291	16.03956
876.688	36.09317
877.085	44.10583
877.482	8.0202
877.878	-3.0073
878.275	32.08164
878.671	56.12477
879.068	38.09206
879.464	-10.02447
879.86	-19.04559
880.256	45.11129
880.652	13.03331
881.048	21.05237
881.444	32.07653
881.84	35.08928
882.236	53.13333
882.631	37.09114
883.027	20.04876
883.422	8.02062
883.817	-33.08423
884.213	22.05678
884.608	-23.05721
885.003	22.05338
885.398	41.10288
885.793	0
886.188	-35.08843
886.582	90.22944
886.977	-14.03367
887.371	56.14161
887.766	-47.11904
888.16	13.03269
888.554	29.07206
888.949	32.08069
889.343	34.08339
889.737	-7.01884
890.131	-20.05084
890.525	10.02577
890.918	3.00762
891.312	-8.01937
891.706	5.01323
892.099	80.20265
892.492	-19.04166
892.886	21.05171
893.279	30.07675
893.672	11.02822
894.065	-9.02279
894.458	10.02535
894.851	40.09829
895.244	0
895.637	11.02671
896.029	37.09077
896.422	-25.06199
896.814	15.03756
897.206	-20.04831
897.599	61.15069
897.991	40.09698
898.383	-18.04313
898.775	-26.05966
899.167	-37.08783
899.559	47.11912
899.951	-37.08878
900.342	21.05372
900.734	-18.04524
901.125	26.06854
901.517	8.0198
901.908	52.12474
902.299	26.06389
902.69	-3.00716
903.082	16.03902
903.473	8.01932
903.863	29.07431
904.254	-10.0235
904.645	56.13923
905.036	-10.0245
905.426	46.1055
905.817	22.0543
906.207	18.04318
906.597	-7.01657
906.987	48.12452
907.378	17.04327
907.768	34.09017
908.158	25.06128
908.547	-13.03396
908.937	14.03617
909.327	27.06589
909.717	50.12702
910.106	3.00727
910.495	58.14467
910.885	49.12419
911.274	24.0603
911.663	24.06123
912.052	50.12345
912.441	32.08167
912.83	-8.01859
913.219	32.08404
913.608	54.13225
913.997	-33.084
914.385	-8.01934
914.774	33.08065
915.162	-44.1068
915.55	60.14498
915.939	-15.03832
916.327	25.06271
916.715	-4.01029
917.103	60.14749
917.491	13.0324
917.878	39.09613
918.266	13.03394
918.654	2.00515
919.041	-5.01318
919.429	1.00238
919.816	33.08394
920.203	-14.03438
920.591	11.02748
920.978	26.06398
921.365	28.07376
921.752	24.05753
922.139	4.00878
922.525	-40.09774
922.912	8.01967
923.299	-5.01256
923.685	23.06029
924.072	65.14953
924.458	31.07709
924.844	-7.01751
925.231	55.12794
925.617	-57.14774
926.003	51.13036
926.389	-1.00255
926.774	55.1393
927.16	20.04996
927.546	-25.06467
927.931	54.1347
928.317	28.06481
928.702	34.08072
929.088	-22.05278
929.473	50.12724
929.858	-23.05638
930.243	-18.04377
930.628	10.02452
931.013	5.0125
931.398	55.12642
931.783	67.17593
932.167	48.11742
932.552	41.10292
932.937	46.11428
933.321	-5.01267
933.705	22.05575
934.09	45.11385
934.474	40.09523
934.858	22.05735
935.242	-11.02581
935.626	30.07707
936.009	9.0241
936.393	30.07662
936.777	19.04892
937.16	52.13527
937.544	8.01901
937.927	17.04339
938.311	53.12934
938.694	29.07697
939.077	-4.00968
939.46	47.11551
939.843	37.07746
940.226	50.12828
940.609	-10.02324
940.991	-29.07486
941.374	-41.10192
941.757	13.0323
942.139	20.04521
942.522	2.00477
942.904	13.03148
943.286	67.16975
943.668	38.09865
944.05	8.01986
944.432	23.05705
944.814	24.05941
945.196	-21.05186
945.578	-45.10892
945.959	21.0495
946.341	59.14463
946.722	26.06133
947.104	-16.03873
947.485	-6.01412
947.866	7.01777
948.247	23.05832
948.628	44.10748
949.009	-5.01293
949.39	39.0973
949.771	45.1048
950.152	1.00248
950.532	-25.06235
950.913	39.09429
951.293	2.00545
951.674	8.01951
952.054	-22.05523
952.434	18.04495
952.814	3.0072
953.194	53.13865
953.574	32.0791
953.954	-27.06508
954.334	40.09988
954.714	-15.037
955.093	42.10343
955.473	7.01764
955.853	18.04686
956.232	29.07975
956.611	55.13182
956.99	-19.04834
957.37	30.07672
957.749	8.01924
958.128	-3.00763
958.506	29.0755
958.885	14.03557
959.264	-3.00742
959.643	8.01836
960.021	30.07461
960.4	1.00229
960.778	21.05201
961.156	9.02273
961.535	-23.05439
961.913	32.07516
962.291	-24.06237
962.669	-16.04101
963.047	-10.02579
963.424	19.04875
963.802	10.02477
964.18	61.15406
964.557	10.02322
964.935	29.069
965.312	4.0105
965.69	58.14504
966.067	16.03921
966.444	35.0865
966.821	61.15696
967.198	75.18112
967.575	53.13026
967.952	23.05449
968.329	-7.01722
968.705	28.06034
969.082	31.07977
969.458	-19.04618
969.835	2.00491
970.211	-13.03373
970.587	17.04258
970.963	21.05415
971.339	-8.0211
971.715	41.10255
972.091	15.03718
972.467	35.08754
972.843	12.02999
973.219	25.06033
973.594	-11.02907
973.97	52.12375
974.345	-9.02178
974.721	32.07776
975.096	5.0122
975.471	-7.01679
975.846	-10.0243
976.221	33.08406
976.596	-28.06811
976.971	39.09649
977.346	43.10026
977.72	31.07924
978.095	31.08038
978.469	22.0528
978.844	49.12322
979.218	-12.0291
979.593	39.09365
979.967	21.05144
980.341	41.09458
980.715	20.05066
981.089	39.09783
981.463	-10.02324
981.837	2.00493
982.21	17.03983
982.584	-21.0514
982.957	10.02515
983.331	25.05939
983.704	-9.02236
984.078	14.03473
984.451	57.14221
984.824	6.01473
985.197	4.0098
985.57	21.05294
985.943	55.13572
986.316	55.13502
986.688	22.05334
987.061	25.05889
987.434	37.09663
987.806	10.02444
988.179	26.06164
988.551	19.04846
988.923	37.09134
989.295	50.12495
989.667	-42.1021
990.039	-16.04001
990.411	-7.0163
990.783	-11.02564
991.155	-39.09528
991.527	39.09624
991.898	27.06756
992.27	18.04478
992.641	46.11549
993.012	71.16639
993.384	-5.01205
993.755	4.01028
994.126	35.08443
994.497	-8.01985
994.868	33.07607
995.239	11.02685
995.61	-7.01779
995.98	-34.08388
996.351	-11.02754
996.722	-13.03053
997.092	-28.0673
997.462	-7.01653
997.833	50.11853
998.203	14.03417
998.573	-4.01006
998.943	-6.01422
999.313	-16.03882
999.683	-26.0633
1000.053	7.01624
1000.423	26.06346
1000.792	14.03651
1001.162	-31.07742
1001.531	6.01491
1001.901	29.07256
1002.27	24.05394
1002.639	17.04368
1003.009	-3.00721
1003.378	31.07952
1003.747	11.02618
1004.116	21.05052
1004.485	-24.05817
1004.853	31.07879
1005.222	15.03806
1005.591	12.0287
1005.959	-23.05259
1006.328	-5.01138
1006.696	-39.09564
1007.064	35.08827
1007.433	10.02517
1007.801	59.14457
1008.169	13.03304
1008.537	16.03568
1008.905	-32.07574
1009.273	32.0793
1009.64	14.03362
1010.008	2.00481
1010.375	58.14062
1010.743	61.14055
1011.11	-6.01435
1011.478	25.06214
1011.845	9.02133
1012.212	-21.04821
1012.579	14.03459
1012.946	29.06929
1013.313	21.05025
1013.68	54.12126
1014.047	-26.06285
1014.414	-15.03587
1014.78	27.06736
1015.147	15.03651
1015.513	-4.00973
1015.88	55.14049
1016.246	49.12096
1016.612	81.18424
1016.978	-14.03471
1017.344	7.01743
1017.71	47.11466
1018.076	0
1018.442	47.12094
1018.808	-1.00252
1019.174	29.07301
1019.539	66.15143
1019.905	-28.06702
1020.27	-8.01995
1020.636	28.0674
1021.001	11.02652
1021.366	-28.06822
1021.731	31.07996
1022.096	-42.10764
1022.461	16.03811
1022.826	21.05018
1023.191	9.02377
1023.556	-21.04989
1023.92	41.10095
1024.285	-5.01232
1024.649	30.07377
1025.014	23.05724
1025.378	29.07316
1025.742	33.08218
1026.107	29.06586
1026.471	37.08658
1026.835	21.05232
1027.199	10.02424
1027.562	16.03743
1027.926	38.0931
1028.29	11.02802
1028.654	-27.06305
1029.017	28.06908
1029.381	-11.02657
1029.744	27.06911
1030.107	34.08066
1030.471	-3.00725
1030.834	-18.0415
1031.197	38.09171
1031.56	3.00714
1031.923	28.07264
1032.286	27.06367
1032.648	44.10531
1033.011	-60.1407
1033.374	55.1291
1033.736	-15.03985
1034.099	-16.03946
1034.461	-36.0923
1034.823	-30.07575
1035.185	25.06318
1035.548	13.03184
1035.91	44.10547
1036.272	9.02065
1036.634	13.03201
1036.995	-16.03808
1037.357	-14.03445
1037.719	-1.00245
1038.08	18.04298
1038.442	-13.03122
1038.803	14.03383
1039.165	26.06586
1039.526	11.02676
1039.887	44.10535
1040.248	-23.0574
1040.609	31.07683
1040.97	10.02461
1041.331	7.01785
1041.692	-3.00707
1042.053	-22.0508
1042.413	32.0748
1042.774	3.00736
1043.134	27.06454
1043.495	3.0076
1043.855	17.04147
1044.215	-12.03011
1044.576	-23.05573
1044.936	24.05529
1045.296	47.1173
1045.656	19.04687
1046.016	35.08468
1046.375	-23.05653
1046.735	4.00915
1047.095	-6.01419
1047.454	27.05747
1047.814	2.00485
1048.173	28.06714
1048.533	-3.00694
1048.892	-27.06572
1049.251	48.12047
1049.61	0
1049.969	6.01426
1050.328	13.02839
1050.687	-42.10389
1051.046	20.04894
1051.405	5.01253
1051.763	-57.13379
1052.122	14.03512
1052.48	1.00247
1052.839	-12.02856
1053.197	5.01186
1053.555	14.03213
1053.914	5.01232
1054.272	57.13755
1054.63	-18.04454
1054.988	-38.09175
1055.345	26.05625
1055.703	42.10118
1056.061	-36.09394
1056.419	-2.00522
1056.776	18.04389
1057.134	0
1057.491	5.01261
1057.848	13.03256
1058.206	-4.0095
1058.563	49.10798
1058.92	24.05557
1059.277	18.04464
1059.634	35.08254
1059.991	7.0169
1060.348	-7.01599
1060.704	-30.07254
1061.061	61.14133
1061.418	6.01466
1061.774	13.03229
1062.131	-1.00266
1062.487	-22.05213
1062.843	21.0526
1063.199	18.045
1063.555	25.05818
1063.911	-5.01274
1064.267	16.03361
1064.623	-24.05906
1064.979	21.05
1065.335	20.04805
1065.691	40.09599
1066.046	-34.07604
1066.402	-9.02068
1066.757	36.09103
1067.112	37.09097
1067.468	-41.09845
1067.823	28.06755
1068.178	31.0752
1068.533	20.04873
1068.888	52.12413
1069.243	-8.01994
1069.598	-10.02455
1069.952	-65.14971
1070.307	10.02492
1070.662	2.00479
1071.016	-2.00453
1071.371	15.03434
1071.725	38.09106
1072.079	-4.00971
1072.434	-16.03933
1072.788	32.07642
1073.142	39.09606
1073.496	-2.00479
1073.85	-22.05171
1074.203	-11.02697
1074.557	25.06671
1074.911	26.0623
1075.265	29.06764
1075.618	36.08807
1075.971	0
1076.325	-6.01539
1076.678	-34.07901
1077.031	-8.0183
1077.385	-10.02229
1077.738	-2.00456
1078.091	21.048
1078.444	-2.00469
1078.796	6.01483
1079.149	9.02253
1079.502	-3.00715
1079.855	40.09339
1080.207	43.10599
1080.56	-2.00521
1080.912	1.00245
1081.264	-12.02921
1081.617	-33.08161
1081.969	-1.00254
1082.321	18.04418
1082.673	-56.13044
1083.025	21.05006
1083.377	33.07104
1083.728	27.06323
1084.08	7.0176
1084.432	-18.04394
1084.783	46.10778
1085.135	-3.00758
1085.486	-9.02082
1085.838	33.08146
1086.189	-18.04421
1086.54	24.05755
1086.891	-10.02554
1087.242	-25.06167
1087.593	39.09507
1087.944	18.04097
1088.295	1.00229
1088.646	34.08259
1088.996	-7.01703
1089.347	1.00247
1089.698	-14.03347
1090.048	21.05477
1090.398	12.02802
1090.749	18.0433
1091.099	-25.06366
1091.449	22.05504
1091.799	-5.01263
1092.149	-39.09659
1092.499	-12.02958
1092.849	-12.03081
1093.199	63.1574
1093.548	-8.01942
1093.898	-33.08373
1094.248	13.03359
1094.597	-57.1481
1094.947	10.02683
1095.296	-10.02494
1095.645	39.10154
1095.994	9.02177
1096.343	19.04804
1096.692	-13.03448
1097.041	-12.03279
1097.39	15.03783
1097.739	13.03397
1098.088	96.25502
1098.437	-41.10926
1098.785	63.16933
1099.134	1.00267
1099.482	20.05522
1099.83	32.08427
1100.179	7.01837
1100.527	9.02406
1100.875	-1.00266
1101.223	18.04801
1101.571	-2.00557
1101.919	-36.09535
1102.267	5.01416
1102.615	0
1102.962	4.01289
1103.31	-9.02897
1103.658	11.03543
