Data from N2 R9 sample 3_Subt2__5__19-16-49-262.txt Node

Date: Fri Aug 29 19:16:49 PDT 2025
User: uwsun
Spectrometer: HDX01956
Trigger mode: 0
Integration Time (sec): 5.000000E-1
Scans to average: 1
Nonlinearity correction enabled: true
Boxcar width: 0
Storing dark spectrum: false
XAxis mode: Wavelengths
Number of Pixels in Spectrum: 2068
>>>>>Begin Spectral Data<<<<<
194.03	283.75929
194.578	277.84545
195.127	254.7655
195.676	256.77382
196.225	324.81244
196.773	295.77031
197.321	477.17574
197.87	647.40675
198.418	597.29242
198.966	575.25903
199.513	565.17352
200.061	554.17545
200.609	650.44049
201.156	537.96706
201.704	559.17704
202.251	559.24915
202.798	562.2282
203.345	608.25091
203.892	620.29166
204.438	576.14611
204.985	542.06181
205.532	586.29097
206.078	593.20767
206.624	602.21852
207.17	626.18853
207.716	605.20755
208.262	605.96029
208.808	570.15786
209.354	591.18612
209.899	655.37042
210.445	626.27412
210.99	628.2341
211.535	656.25589
212.08	598.14577
212.625	620.28594
213.17	643.34647
213.715	576.03977
214.259	651.23519
214.804	669.3559
215.348	670.23948
215.892	598.1872
216.436	658.24394
216.98	709.25467
217.524	628.21553
218.068	622.30158
218.612	661.37323
219.155	604.17235
219.698	574.13947
220.242	609.27012
220.785	607.17285
221.328	562.18052
221.871	604.28782
222.414	531.12584
222.956	480.9841
223.499	531.00122
224.041	568.11074
224.583	550.99632
225.126	512.95016
225.668	537.10039
226.21	526.12226
226.751	470.86785
227.293	579.10154
227.835	548.12474
228.376	610.16824
228.918	611.29291
229.459	561.1709
230	509.0255
230.541	537.03984
231.082	560.13751
231.622	545.05335
232.163	560.13441
232.704	557.15842
233.244	506.06597
233.784	582.19787
234.324	445.82518
234.864	548.0341
235.404	581.15313
235.944	540.07735
236.484	560.17838
237.023	531.05126
237.563	564.07946
238.102	551.08788
238.641	570.20997
239.18	527.02677
239.719	617.28512
240.258	612.12633
240.797	535.07008
241.335	585.19351
241.874	539.84315
242.412	605.19693
242.95	522.04089
243.488	558.05507
244.026	547.04408
244.564	584.97629
245.102	618.12544
245.64	559.12695
246.177	554.02602
246.715	589.1723
247.252	529.01503
247.789	592.89956
248.326	518.03577
248.863	584.0408
249.4	555.04247
249.936	553.92721
250.473	569.09089
251.009	573.0737
251.546	552.99893
252.082	639.12348
252.618	603.08612
253.154	563.11526
253.69	603.10223
254.226	581.13917
254.761	592.08072
255.297	581.03037
255.832	548.07055
256.367	621.18791
256.903	562.00461
257.438	654.23999
257.972	629.12495
258.507	560.04439
259.042	584.02523
259.576	526.92082
260.111	633.18228
260.645	623.08041
261.179	564.07477
261.713	647.14412
262.247	621.15639
262.781	642.05788
263.315	566.13717
263.849	598.22257
264.382	651.19916
264.915	649.21163
265.449	588.15645
265.982	689.24011
266.515	632.24372
267.048	629.04991
267.58	624.09218
268.113	633.07863
268.646	639.26962
269.178	626.10835
269.71	671.15155
270.243	645.17441
270.775	689.40221
271.307	661.27738
271.838	684.2976
272.37	630.24909
272.902	661.19083
273.433	618.07087
273.965	661.2841
274.496	666.33043
275.027	624.24756
275.558	670.28955
276.089	580.14712
276.62	635.31035
277.15	682.34228
277.681	660.12446
278.211	707.37166
278.741	660.1293
279.272	605.09642
279.802	655.30872
280.332	700.28541
280.861	654.24844
281.391	684.20311
281.921	681.29661
282.45	724.42374
282.98	722.48979
283.509	643.13231
284.038	699.23116
284.567	717.3025
285.096	669.27311
285.625	683.19852
286.153	655.1993
286.682	703.23499
287.21	671.26144
287.739	674.23944
288.267	648.22978
288.795	730.5117
289.323	625.13908
289.851	736.31711
290.378	705.20617
290.906	702.30397
291.433	724.39567
291.961	674.16629
292.488	745.42419
293.015	710.27048
293.542	695.36117
294.069	709.33629
294.596	738.40296
295.122	753.35626
295.649	706.17396
296.175	761.39941
296.702	760.39722
297.228	772.41933
297.754	748.24742
298.28	757.27112
298.806	734.32838
299.332	691.1379
299.857	728.2193
300.383	841.58865
300.908	705.2839
301.433	720.31359
301.958	797.35597
302.483	788.45606
303.008	808.48267
303.533	801.57058
304.058	798.38436
304.582	736.28128
305.107	763.48963
305.631	861.40465
306.155	850.40563
306.679	829.38101
307.203	783.31132
307.727	855.44711
308.251	781.41757
308.775	800.35414
309.298	841.42335
309.822	867.57243
310.345	899.48652
310.868	897.49465
311.391	940.61678
311.914	821.47373
312.437	891.40679
312.96	908.46713
313.482	871.43054
314.005	911.59388
314.527	971.76505
315.049	909.61038
315.571	924.34781
316.093	948.59679
316.615	933.51489
317.137	991.38012
317.659	1057.68733
318.18	978.57624
318.702	1000.50601
319.223	1004.2711
319.744	972.39209
320.265	959.51721
320.786	1076.68225
321.307	1035.65769
321.828	1109.52202
322.348	1096.58457
322.869	1115.58784
323.389	906.83112
323.909	1109.53088
324.43	1147.69528
324.95	1129.51672
325.47	1118.65364
325.989	1142.57224
326.509	1132.39519
327.029	1200.4904
327.548	1186.46456
328.067	1228.65153
328.587	1231.75657
329.106	1166.46296
329.625	1301.99119
330.144	1157.46822
330.662	1246.52657
331.181	1264.56648
331.7	1305.58683
332.218	1317.39226
332.736	1370.6074
333.255	1252.49824
333.773	1337.5882
334.291	1424.80737
334.808	1366.42385
335.326	1430.48247
335.844	1438.51147
336.361	1444.74177
336.879	1536.54012
337.396	1446.5835
337.913	1534.47966
338.43	1565.41762
338.947	1551.55753
339.464	1460.22567
339.981	1555.50247
340.497	1600.65551
341.014	1566.56848
341.53	1590.33274
342.046	1634.57529
342.562	1665.6536
343.078	1666.44197
343.594	1744.49439
344.11	1776.47076
344.626	1732.61943
345.141	1725.29403
345.657	1848.31149
346.172	1703.43381
346.687	1782.2752
347.202	1814.1903
347.717	1875.37318
348.232	1858.51303
348.747	1881.21869
349.261	1866.99789
349.776	1942.2522
350.29	1901.34388
350.805	2047.41838
351.319	2035.1785
351.833	1901.04564
352.347	2006.15909
352.861	1981.10761
353.374	2103.09033
353.888	2019.22018
354.401	2023.03031
354.915	2080.87455
355.428	2118.21307
355.941	2100.97329
356.454	2161.90246
356.967	2183.02085
357.48	2260.90094
357.993	2214.11809
358.505	2176.05286
359.018	2278.02839
359.53	2285.92479
360.042	2288.68815
360.554	2245.96321
361.066	2333.91099
361.578	2361.55
362.09	2286.84007
362.602	2330.54172
363.113	2393.65661
363.625	2484.49663
364.136	2432.45393
364.647	2448.47639
365.158	2583.49262
365.669	2620.56186
366.18	2580.50783
366.691	2584.28271
367.201	2502.53414
367.712	2579.29822
368.222	2612.27493
368.733	2691.01984
369.243	2726.01923
369.753	2833.09965
370.263	2828.16933
370.773	2829.24181
371.282	2838.03998
371.792	2808.79785
372.301	2998.85497
372.811	3116.0274
373.32	3115.325
373.829	3159.48632
374.338	3333.20209
374.847	3331.19771
375.356	3404.15742
375.865	3396.85299
376.373	3729.76738
376.882	3804.93808
377.39	3848.76906
377.898	3912.65413
378.407	4116.53213
378.915	4337.55212
379.423	4558.59928
379.93	4689.72739
380.438	4728.80089
380.946	5012.22668
381.453	5347.84208
381.96	5371.3258
382.468	5685.84043
382.975	6261.46055
383.482	6531.54933
383.989	6498.79659
384.495	6598.0819
385.002	6938.60979
385.509	7306.75343
386.015	7868.10531
386.521	8267.20656
387.028	8647.21561
387.534	8837.79002
388.04	9266.11315
388.546	9373.46949
389.051	9551.83423
389.557	10495.57534
390.063	11669.5283
390.568	12156.25867
391.073	11997.32593
391.578	12826.37014
392.084	12830.11965
392.589	12627.08893
393.093	13699.80043
393.598	15491.17155
394.103	16976.27948
394.607	18728.66709
395.112	20052.47002
395.616	20853.49098
396.12	22706.46731
396.624	24847.84708
397.128	27030.99148
397.632	30498.67402
398.136	32852.69771
398.639	33135.55986
399.143	31568.83985
399.646	28726.47913
400.15	25083.82847
400.653	20124.16724
401.156	13866.23708
401.659	5169.95759
402.162	1054.15589
402.664	0
403.167	0
403.67	0
404.172	0
404.674	0
405.176	0
405.678	0
406.18	0
406.682	0
407.184	0
407.686	0
408.187	0
408.688	0
409.19	0
409.691	0
410.192	0
410.693	0
411.194	435.30976
411.694	4082.94878
412.195	8864.71461
412.696	12089.80453
413.196	12760.96929
413.696	12863.67595
414.196	13703.56671
414.696	17261.84252
415.196	21764.24417
415.696	29583.19008
416.196	36460.31858
416.695	40057.39798
417.195	39903.58932
417.694	37562.55423
418.194	36233.90974
418.693	33023.84435
419.192	31972.08954
419.691	31467.87293
420.19	30748.00288
420.688	30219.38356
421.187	29431.8282
421.685	27672.83439
422.184	25478.54745
422.682	21995.17458
423.18	18404.62601
423.678	16140.39882
424.176	14792.04133
424.674	13942.03279
425.172	13534.19809
425.669	12956.65083
426.167	12199.19692
426.664	10953.8876
427.161	10147.21608
427.659	9281.71273
428.156	8603.81884
428.652	7980.35243
429.149	7573.61008
429.646	7431.63914
430.143	7170.27387
430.639	6646.73382
431.135	6277.71396
431.632	5899.82506
432.128	5549.70307
432.624	5099.95478
433.12	4883.99901
433.616	4678.80641
434.111	4424.59304
434.607	4360.54692
435.103	4441.57118
435.598	4309.54003
436.093	3986.65949
436.588	3804.7347
437.083	3693.85544
437.578	3438.07768
438.073	3183.37691
438.568	3221.52125
439.062	3067.302
439.557	3037.67
440.051	2910.64509
440.546	2671.81563
441.04	2655.02104
441.534	2656.26798
442.028	2613.19066
442.522	2456.26943
443.015	2459.0566
443.509	2514.40327
444.002	2370.47261
444.496	2336.20319
444.989	2186.60477
445.482	2226.65085
445.975	2212.36173
446.468	2192.28162
446.961	2187.29904
447.454	2041.52759
447.947	1961.65003
448.439	1990.79217
448.931	1918.57045
449.424	2040.94403
449.916	2002.83621
450.408	1855.64393
450.9	1797.86243
451.392	1800.00498
451.884	1768.80007
452.375	1654.9753
452.867	1856.80859
453.358	1695.77952
453.849	1665.66656
454.341	1642.81532
454.832	1678.71607
455.323	1622.02912
455.814	1698.92198
456.304	1629.94198
456.795	1568.934
457.285	1640.92762
457.776	1580.01157
458.266	1517.05291
458.756	1516.12803
459.247	1291.02444
459.737	1342.05182
460.226	1329.943
460.716	1328.09658
461.206	1262.11088
461.695	1268.24028
462.185	1245.09707
462.674	1256.07188
463.163	1277.00793
463.653	1189.88616
464.142	1226.17298
464.63	1235.24597
465.119	1172.0836
465.608	1120.06514
466.096	1140.00401
466.585	1204.16749
467.073	1098.19408
467.561	1136.23404
468.05	1101.15587
468.538	1032.23134
469.026	1030.18358
469.513	1002.94269
470.001	919.01428
470.489	935.10287
470.976	1015.14133
471.463	894.19703
471.951	900.22826
472.438	838.05223
472.925	768.98231
473.412	875.20367
473.899	829.04921
474.385	778.11093
474.872	775.02213
475.359	780.10891
475.845	789.88741
476.331	765.95527
476.817	726.07944
477.303	722.00547
477.789	705.04588
478.275	611.97038
478.761	600.93296
479.247	704.97069
479.732	599.97042
480.218	597.03905
480.703	552.92123
481.188	581.7953
481.673	549.8309
482.158	464.64549
482.643	579.0151
483.128	458.71238
483.612	503.80741
484.097	569.96398
484.581	524.84426
485.066	470.80717
485.55	382.59201
486.034	421.63778
486.518	446.74095
487.002	426.7508
487.486	350.63265
487.969	394.70565
488.453	428.80177
488.936	371.61307
489.42	373.60818
489.903	417.79023
490.386	393.44715
490.869	373.60511
491.352	423.78438
491.835	403.61232
492.318	329.56208
492.8	335.5196
493.283	281.55984
493.765	295.56612
494.247	375.67525
494.73	284.48714
495.212	314.59953
495.694	301.54615
496.175	238.44383
496.657	276.51981
497.139	285.3817
497.62	163.31159
498.102	230.45898
498.583	259.52393
499.064	219.38865
499.545	229.41974
500.026	208.37499
500.507	210.3955
500.988	231.46815
501.469	172.3544
501.949	237.47943
502.43	149.29091
502.91	144.24288
503.39	177.36971
503.87	186.35789
504.35	209.40728
504.83	165.29663
505.31	148.29864
505.79	146.2904
506.269	131.25734
506.749	107.20464
507.228	108.21281
507.707	130.24038
508.187	156.31377
508.666	106.21989
509.145	110.21635
509.623	111.22022
510.102	121.24859
510.581	151.30896
511.059	126.26698
511.538	121.2682
512.016	144.29097
512.494	116.24063
512.972	99.20192
513.45	41.08119
513.928	158.32262
514.406	120.24314
514.884	121.26596
515.361	94.1929
515.839	142.27296
516.316	80.16566
516.793	128.27857
517.27	98.20547
517.747	80.17758
518.224	80.16009
518.701	91.17421
519.178	64.13709
519.654	128.2622
520.131	63.13562
520.607	80.17307
521.083	53.1053
521.56	70.14365
522.036	93.1764
522.512	76.16413
522.987	56.11534
523.463	51.10596
523.939	117.24872
524.414	102.20459
524.89	93.19175
525.365	48.09512
525.84	28.05814
526.315	-5.01068
526.79	73.14354
527.265	75.14914
527.74	48.10282
528.215	49.10153
528.689	53.10269
529.164	61.11621
529.638	70.15868
530.112	6.01252
530.587	15.02816
531.061	60.12674
531.534	62.13269
532.008	49.10367
532.482	64.12944
532.956	57.12776
533.429	66.14095
533.903	65.12673
534.376	56.109
534.849	12.02481
535.322	63.13118
535.795	69.14892
536.268	36.07675
536.741	65.13812
537.213	57.11663
537.686	27.05837
538.158	31.0613
538.631	38.08249
539.103	9.01793
539.575	65.11962
540.047	24.047
540.519	120.25138
540.991	33.07226
541.463	87.18575
541.934	71.1433
542.406	56.11798
542.877	96.18988
543.348	86.1835
543.82	103.22268
544.291	99.20367
544.762	47.09861
545.233	116.25406
545.703	47.09168
546.174	67.1374
546.645	53.111
547.115	157.32604
547.585	127.25337
548.056	78.16347
548.526	137.27612
548.996	177.36446
549.466	190.39766
549.935	207.41145
550.405	210.38442
550.875	180.3607
551.344	227.45773
551.814	241.46204
552.283	237.43002
552.752	239.4602
553.221	235.41944
553.69	307.55364
554.159	246.49935
554.628	277.50311
555.096	274.57345
555.565	272.49743
556.033	230.45556
556.502	221.4528
556.97	233.43483
557.438	259.51817
557.906	180.36955
558.374	198.39108
558.842	220.45147
559.31	202.39036
559.777	150.31616
560.245	215.43832
560.712	207.41644
561.18	170.32694
561.647	207.40069
562.114	200.39503
562.581	225.48227
563.048	231.46236
563.514	188.40288
563.981	269.52994
564.448	240.46558
564.914	263.52934
565.381	292.57079
565.847	288.58059
566.313	291.58246
566.779	276.53593
567.245	319.63732
567.711	313.64129
568.176	299.57241
568.642	291.62722
569.108	297.62668
569.573	350.70169
570.038	354.62681
570.504	351.66124
570.969	377.79896
571.434	347.63829
571.899	397.79021
572.363	394.74901
572.828	474.8919
573.293	399.7635
573.757	405.77461
574.222	365.67985
574.686	377.70255
575.15	395.78257
575.614	424.80369
576.078	399.77903
576.542	428.80612
577.006	393.7371
577.469	510.03483
577.933	390.72371
578.396	426.84221
578.86	363.72119
579.323	375.74885
579.786	408.72922
580.249	331.63675
580.712	373.7701
581.175	363.75652
581.637	362.70662
582.1	387.71367
582.563	354.64413
583.025	333.68628
583.487	323.55063
583.95	274.50362
584.412	323.57742
584.874	282.58994
585.336	366.73275
585.797	313.5769
586.259	317.64244
586.721	273.55276
587.182	306.61858
587.643	280.54992
588.105	280.57329
588.566	248.45468
589.027	226.47447
589.488	266.52637
589.949	331.68738
590.41	172.29454
590.87	296.58464
591.331	296.55173
591.791	256.51252
592.252	230.4577
592.712	221.46653
593.172	299.57879
593.632	306.5783
594.092	282.54366
594.552	221.41694
595.011	185.3739
595.471	265.51469
595.931	191.37574
596.39	225.47122
596.849	252.51082
597.308	240.45579
597.768	227.50544
598.227	235.49608
598.685	297.59116
599.144	267.5421
599.603	259.5345
600.062	173.32077
600.52	218.42512
600.978	234.48584
601.437	327.64208
601.895	185.34628
602.353	219.42717
602.811	247.47744
603.269	300.61897
603.727	265.55081
604.184	240.4698
604.642	250.53342
605.099	260.52391
605.557	306.64269
606.014	232.43415
606.471	237.51369
606.928	285.52081
607.385	340.69834
607.842	457.86223
608.299	480.9223
608.755	451.90146
609.212	403.74579
609.668	355.65892
610.125	448.90189
610.581	464.92379
611.037	395.76756
611.493	413.82742
611.949	318.65876
612.405	306.52629
612.861	345.70206
613.316	339.69582
613.772	350.69033
614.227	343.69576
614.683	410.74567
615.138	354.71102
615.593	347.69422
616.048	381.74883
616.503	414.87104
616.958	359.77643
617.412	337.69171
617.867	331.63215
618.321	345.61931
618.776	367.70226
619.23	380.76993
619.684	360.70805
620.138	336.68577
620.592	283.60972
621.046	325.67311
621.5	301.64766
621.954	284.57148
622.407	369.71943
622.861	275.59732
623.314	311.63028
623.768	294.61122
624.221	245.43616
624.674	281.58094
625.127	326.67896
625.58	328.66944
626.033	326.64541
626.485	244.5301
626.938	281.60515
627.39	267.56412
627.843	319.66394
628.295	235.49848
628.747	248.53971
629.199	224.46944
629.651	227.4752
630.103	210.44555
630.555	198.39089
631.006	208.45382
631.458	178.39314
631.909	266.56534
632.361	191.41787
632.812	187.40515
633.263	172.35073
633.714	198.39971
634.165	203.46267
634.616	181.40669
635.067	227.47393
635.518	215.48289
635.968	236.446
636.419	148.30866
636.869	165.3744
637.319	177.38921
637.769	107.23133
638.219	247.55566
638.669	129.29592
639.119	150.35132
639.569	132.30662
640.019	159.3536
640.468	136.29384
640.918	182.41992
641.367	152.32911
641.816	101.2206
642.265	125.28064
642.714	156.34829
643.163	160.35501
643.612	121.28113
644.061	80.1664
644.51	151.3326
644.958	93.20046
645.406	117.27226
645.855	123.29332
646.303	156.35362
646.751	134.29633
647.199	135.29898
647.647	75.16998
648.095	99.22254
648.543	143.28702
648.99	123.28645
649.438	172.39194
649.885	92.22355
650.333	151.28669
650.78	125.29466
651.227	119.28291
651.674	160.35442
652.121	167.39397
652.568	82.19619
653.015	177.4337
653.461	100.23385
653.908	143.32566
654.354	137.32018
654.801	109.25124
655.247	150.32283
655.693	120.30624
656.139	78.18519
656.585	141.33108
657.031	68.15721
657.477	85.18243
657.922	87.19845
658.368	111.26997
658.813	160.36489
659.259	82.19506
659.704	92.21244
660.149	116.26679
660.594	131.30604
661.039	74.16815
661.484	170.39769
661.929	140.3225
662.373	57.14313
662.818	108.26479
663.262	101.24086
663.707	141.351
664.151	173.41366
664.595	102.24394
665.039	129.31692
665.483	100.25224
665.927	124.28952
666.371	76.17549
666.814	153.36024
667.258	52.12332
667.701	93.20175
668.145	140.34426
668.588	108.26341
669.031	123.28645
669.474	136.32414
669.917	133.29332
670.36	102.25174
670.803	162.3858
671.245	91.1932
671.688	158.38061
672.13	101.22648
672.573	113.28548
673.015	114.27275
673.457	57.12576
673.899	140.33648
674.341	128.30706
674.783	77.18517
675.225	118.28866
675.666	59.14259
676.108	77.16911
676.549	122.28843
676.991	86.19122
677.432	107.21486
677.873	116.2685
678.314	108.2579
678.755	124.3004
679.196	95.21854
679.637	159.38497
680.078	134.31299
680.518	152.35266
680.959	108.25888
681.399	53.13256
681.839	111.27007
682.28	91.22488
682.72	75.17329
683.16	83.20729
683.6	121.27679
684.039	84.1776
684.479	107.26248
684.919	38.0889
685.358	122.3086
685.798	117.30514
686.237	120.29028
686.676	135.3134
687.115	117.27537
687.554	100.23843
687.993	97.21661
688.432	74.17108
688.871	81.18559
689.309	84.20197
689.748	112.23659
690.186	140.33367
690.625	98.23088
691.063	86.20756
691.501	92.2284
691.939	90.22514
692.377	69.16977
692.815	73.17609
693.253	133.31948
693.69	91.20221
694.128	68.16616
694.565	109.26083
695.003	112.28402
695.44	109.25704
695.877	64.15125
696.314	131.28322
696.751	154.35064
697.188	92.21303
697.625	166.37964
698.061	77.1863
698.498	104.25281
698.934	106.25622
699.371	93.22025
699.807	87.20747
700.243	95.22976
700.679	130.29516
701.115	117.27666
701.551	114.26951
701.987	141.31747
702.422	87.20811
702.858	105.25117
703.294	131.29749
703.729	128.31289
704.164	139.33363
704.599	136.30339
705.035	62.14088
705.47	96.23441
705.904	86.20206
706.339	134.31225
706.774	128.29991
707.209	73.17028
707.643	130.31197
708.078	85.20836
708.512	70.17625
708.946	135.32329
709.38	116.27562
709.814	105.24173
710.248	123.29983
710.682	108.2577
711.116	98.23456
711.549	120.30904
711.983	89.20743
712.416	114.27056
712.85	99.24761
713.283	153.36038
713.716	146.36509
714.149	108.25869
714.582	143.32092
715.015	144.35905
715.448	149.37334
715.881	192.4166
716.313	96.22643
716.746	124.29202
717.178	119.28628
717.61	157.39508
718.043	163.40295
718.475	110.26729
718.907	187.46769
719.339	85.19444
719.77	104.2473
720.202	136.34242
720.634	111.27027
721.065	129.30562
721.497	134.32756
721.928	86.21226
722.359	90.21795
722.79	131.31288
723.221	146.36549
723.652	178.45409
724.083	99.22482
724.514	141.32344
724.945	122.28697
725.375	51.11999
725.806	146.36272
726.236	160.40645
726.666	114.27056
727.096	156.38019
727.526	146.36826
727.956	108.2465
728.386	139.34098
728.816	163.40826
729.246	112.27225
729.675	127.31166
730.105	146.35755
730.534	153.35617
730.964	188.46909
731.393	162.39953
731.822	142.3606
732.251	164.41218
732.68	146.34302
733.109	126.30983
733.537	156.37394
733.966	149.36753
734.395	150.34485
734.823	139.31348
735.251	126.30307
735.68	188.46483
736.108	138.34746
736.536	149.34987
736.964	143.33066
737.392	165.40894
737.82	157.37426
738.247	138.32953
738.675	178.42114
739.102	147.3646
739.53	164.41306
739.957	106.27252
740.384	213.51648
740.811	168.42147
741.238	129.31398
741.665	130.3009
742.092	178.42065
742.519	121.29869
742.945	161.38335
743.372	151.3711
743.798	175.44431
744.225	130.30841
744.651	152.37845
745.077	147.36407
745.503	150.36366
745.929	176.41753
746.355	204.49939
746.781	167.40966
747.207	138.3222
747.632	125.30368
748.058	196.48141
748.483	153.35027
748.908	155.38191
749.334	169.41072
749.759	166.38773
750.184	103.24582
750.609	162.39452
751.033	183.42768
751.458	135.30259
751.883	157.38584
752.307	140.32803
752.732	95.23752
753.156	126.31018
753.58	146.34503
754.005	148.3729
754.429	106.24963
754.853	127.31339
755.277	176.41173
755.7	146.35967
756.124	131.32349
756.548	113.26782
756.971	173.41761
757.394	157.40045
757.818	137.35018
758.241	93.2363
758.664	130.32661
759.087	73.16443
759.51	138.34147
759.933	108.25987
760.356	136.34646
760.778	122.29911
761.201	153.36933
761.623	167.40114
762.046	155.36523
762.468	150.35805
762.89	171.41729
763.312	162.39172
763.734	68.16499
764.156	120.29551
764.578	120.2761
765	123.29927
765.421	84.21369
765.843	127.3311
766.264	136.32712
766.686	101.2538
767.107	85.20681
767.528	50.1272
767.949	97.24672
768.37	125.30561
768.791	96.23283
769.212	46.11653
769.632	66.15501
770.053	125.32722
770.473	84.20511
770.894	89.22341
771.314	117.27923
771.734	49.11555
772.154	116.29677
772.575	99.2301
772.994	79.18057
773.414	92.22162
773.834	93.23269
774.254	54.13333
774.673	106.25805
775.093	93.23025
775.512	0
775.931	72.18323
776.351	42.1053
776.77	63.15495
777.189	41.09867
777.607	44.11328
778.026	73.18252
778.445	16.04056
778.864	89.22837
779.282	48.11659
779.701	71.17963
780.119	14.03584
780.537	27.06814
780.955	107.27148
781.373	70.17385
781.791	57.12923
782.209	110.25319
782.627	12.03198
783.045	44.10233
783.462	32.08253
783.88	50.13007
784.297	33.08382
784.715	14.03637
785.132	18.04418
785.549	54.13587
785.966	52.13159
786.383	-7.01752
786.8	91.21159
787.217	62.14783
787.633	26.06556
788.05	56.13408
788.466	71.16828
788.883	6.0155
789.299	37.08999
789.715	106.2568
790.131	48.12016
790.547	65.16293
790.963	28.07022
791.379	35.08921
791.795	5.01162
792.21	53.12484
792.626	46.11006
793.041	82.20246
793.457	43.10708
793.872	40.09493
794.287	26.06273
794.702	67.16564
795.117	20.05023
795.532	14.03549
795.947	47.11401
796.362	37.08925
796.776	84.19713
797.191	34.08398
797.605	1.00238
798.02	34.08348
798.434	64.14336
798.848	-2.005
799.262	60.14934
799.676	59.14463
800.09	35.08684
800.504	99.23952
800.918	57.1328
801.331	74.19408
801.745	25.05813
802.158	1.00253
802.572	76.1846
802.985	53.12886
803.398	46.11048
803.811	65.16749
804.224	28.07035
804.637	12.02896
805.05	44.10281
805.462	24.05958
805.875	31.0809
806.288	1.00245
806.7	40.10118
807.112	12.02822
807.525	14.03496
807.937	7.01752
808.349	20.05061
808.761	41.10155
809.173	13.03189
809.584	35.08719
809.996	-18.04483
810.408	7.01826
810.819	48.11357
811.231	75.19359
811.642	77.18349
812.053	207.47978
812.464	199.46197
812.875	176.44154
813.286	122.31124
813.697	88.20555
814.108	61.14947
814.519	44.09885
814.929	62.15845
815.34	30.07339
815.75	45.11486
816.16	14.03528
816.571	30.07847
816.981	32.07624
817.391	37.08999
817.801	8.0201
818.211	56.13403
818.62	20.04864
819.03	49.12065
819.44	69.18026
819.849	34.08625
820.259	17.04393
820.668	-15.03748
821.077	17.04263
821.486	57.13775
821.895	83.20474
822.304	39.10383
822.713	19.0454
823.122	28.07042
823.531	19.04552
823.939	19.04675
824.348	7.01723
824.756	61.15307
825.164	34.08613
825.573	-1.00254
825.981	52.12943
826.389	60.15102
826.797	65.16293
827.205	-13.03035
827.612	62.15325
828.02	0
828.428	34.08711
828.835	19.0504
829.243	10.02412
829.65	3.00755
830.057	19.04656
830.464	17.04183
830.871	66.15821
831.278	28.06822
831.685	-6.01361
832.092	45.11068
832.499	-27.06032
832.905	48.12194
833.312	19.04381
833.718	42.10514
834.124	21.04848
834.531	17.04324
834.937	14.03626
835.343	34.08259
835.749	82.19116
836.155	54.14163
836.561	35.08659
836.966	37.091
837.372	19.04875
837.777	17.04272
838.183	48.10726
838.588	48.11956
838.993	65.15833
839.399	-4.00991
839.804	10.02462
840.209	-11.02836
840.613	-26.05898
841.018	27.06882
841.423	42.10813
841.828	29.07379
842.232	38.09461
842.637	14.03337
843.041	-3.00778
843.445	12.03038
843.849	23.05736
844.253	23.05512
844.657	28.07093
845.061	-63.14672
845.465	-14.03431
845.869	54.12578
846.272	9.02214
846.676	43.10443
847.079	-9.02317
847.483	10.02519
847.886	56.13648
848.289	5.01346
848.692	28.07133
849.095	26.06289
849.498	88.22205
849.901	9.02088
850.304	2.00484
850.707	9.02316
851.109	35.08899
851.512	37.09134
851.914	21.05328
852.316	27.0687
852.718	-8.02089
853.121	-8.01985
853.523	16.03774
853.925	-6.01582
854.326	4.0101
854.728	-3.0078
855.13	-31.08118
855.531	29.06971
855.933	56.1346
856.334	22.05521
856.736	-39.08918
857.137	-4.00942
857.538	6.01523
857.939	3.00749
858.34	14.03441
858.741	39.10227
859.142	19.046
859.542	67.17647
859.943	33.08239
860.343	-27.0679
860.744	39.09553
861.144	34.08333
861.544	-33.08068
861.945	-2.00515
862.345	20.04927
862.745	0
863.145	40.09599
863.544	31.07871
863.944	-1.00239
864.344	22.05502
864.743	55.13657
865.143	23.05943
865.542	-17.04003
865.941	24.05978
866.34	26.06268
866.74	34.09158
867.139	-11.02668
867.537	23.05896
867.936	3.0073
868.335	-8.02059
868.734	-16.04141
869.132	-18.04246
869.531	57.13791
869.929	27.06194
870.327	12.02902
870.726	25.06271
871.124	4.00945
871.522	1.00257
871.92	16.03977
872.318	56.13694
872.715	49.12149
873.113	-3.00739
873.511	30.0751
873.908	-23.05887
874.306	-12.03021
874.703	20.05038
875.1	71.18117
875.497	-7.01699
875.894	1.00247
876.291	4.00991
876.688	-14.03654
877.085	23.05554
877.482	8.0202
877.878	3.00729
878.275	4.01026
878.671	33.07388
879.068	21.05104
879.464	8.01951
879.86	-1.00239
880.256	49.12109
880.652	-34.08784
881.048	25.0623
881.444	37.08841
881.84	20.05115
882.236	12.03041
882.631	22.05434
883.027	21.05119
883.422	-1.00258
883.817	-31.0791
884.213	21.05421
884.608	-16.03975
885.003	12.02917
885.398	-16.04056
885.793	37.09318
886.188	-22.05545
886.582	28.07216
886.977	26.06206
887.371	24.06103
887.766	-15.03777
888.16	33.08269
888.554	47.11641
888.949	59.14805
889.343	32.07851
889.737	6.01611
890.131	24.06054
890.525	47.12035
890.918	0
891.312	-2.00484
891.706	9.02379
892.099	67.17012
892.492	14.03048
892.886	63.15392
893.279	9.02311
893.672	-13.03349
894.065	23.05792
894.458	-3.00762
894.851	26.06405
895.244	-4.01032
895.637	65.15626
896.029	4.00987
896.422	15.03692
896.814	-2.00502
897.206	9.02162
897.599	53.13112
897.991	1.00244
898.383	25.05941
898.775	-30.06889
899.167	-41.0974
899.559	48.12164
899.951	19.0451
900.342	22.05626
900.734	-44.1111
901.125	29.07641
901.517	0
901.908	58.13898
902.299	22.0541
902.69	23.0546
903.082	53.12838
903.473	-13.03152
903.863	25.06411
904.254	-1.00235
904.645	20.05005
905.036	-2.00489
905.426	66.15076
905.817	14.0346
906.207	49.11685
906.597	-4.00946
906.987	19.04954
907.378	10.02549
907.768	15.03991
908.158	32.07834
908.547	-5.01304
908.937	25.06446
909.327	26.06346
909.717	52.13205
910.106	9.0218
910.495	86.21343
910.885	55.13925
911.274	-4.0101
911.663	0
912.052	80.19643
912.441	46.11711
912.83	20.04622
913.219	42.11012
913.608	14.03454
913.997	-35.08912
914.385	46.11006
914.774	7.01719
915.162	-30.07262
915.55	-3.00733
915.939	-25.06397
916.327	10.02515
916.715	4.01028
917.103	58.14262
917.491	25.06217
917.878	38.09368
918.266	27.07032
918.654	15.03857
919.041	24.06295
919.429	6.01429
919.816	2.00511
920.203	11.02688
920.591	42.10435
920.978	37.09087
921.365	30.079
921.752	22.05276
922.139	17.03719
922.525	-18.0438
922.912	22.05396
923.299	36.08973
923.685	19.04984
924.072	-20.04679
924.458	-7.01753
924.844	-24.06021
925.231	-43.10196
925.617	6.01538
926.003	-12.03101
926.389	17.04315
926.774	-3.00768
927.16	3.00752
927.546	-55.143
927.931	14.03517
928.317	20.04637
928.702	44.10427
929.088	-20.04796
929.473	-1.00257
929.858	-31.0761
930.243	14.03384
930.628	-9.02214
931.013	10.02497
931.398	29.06701
931.783	23.06084
932.167	39.09557
932.552	14.03531
932.937	58.14378
933.321	-1.00253
933.705	29.0734
934.09	58.1464
934.474	39.09286
934.858	-8.02096
935.242	3.00702
935.626	18.04634
936.009	2.00536
936.393	19.04862
936.777	-3.00775
937.16	12.03143
937.544	33.07803
937.927	-40.10312
938.311	85.20619
938.694	41.10861
939.077	0
939.46	63.15437
939.843	10.02106
940.226	17.04387
940.609	15.03469
940.991	-12.03088
941.374	-13.03215
941.757	24.05952
942.139	-5.01136
942.522	-1.00239
942.904	-6.01458
943.286	59.1497
943.668	39.10123
944.05	11.02729
944.432	9.02238
944.814	23.05694
945.196	-43.10662
945.578	-20.04818
945.959	15.0354
946.341	53.13006
946.722	27.06367
947.104	22.05288
947.485	-12.02827
947.866	-7.01782
948.247	5.01272
948.628	45.1099
949.009	1.00258
949.39	46.11462
949.771	53.12324
950.152	0
950.532	-38.09499
950.913	34.08228
951.293	-3.00817
951.674	32.07767
952.054	-37.09314
952.434	12.03
952.814	10.02398
953.194	11.02898
953.574	49.12074
953.954	16.03825
954.334	16.04013
954.714	-29.07172
955.093	21.05192
955.473	-21.05319
955.853	22.05723
956.232	18.04959
956.611	29.06985
956.99	-6.01523
957.37	44.11225
957.749	15.03603
958.128	13.03297
958.506	-3.00785
958.885	-7.01785
959.264	-11.02726
959.643	-5.01151
960.021	27.06719
960.4	-7.01605
960.778	62.1524
961.156	8.02021
961.535	15.03521
961.913	43.10077
962.291	-14.03632
962.669	-15.03844
963.047	8.02057
963.424	-13.03354
963.802	5.0124
964.18	49.12402
964.557	39.09004
964.935	68.16058
965.312	-9.02367
965.69	44.11031
966.067	6.01473
966.444	36.08895
966.821	48.12379
967.198	80.19301
967.575	37.0912
967.952	62.14578
968.329	8.01962
968.705	17.03672
969.082	13.03356
969.458	-39.09514
969.835	21.0514
970.211	28.07214
970.587	38.09482
970.963	30.07724
971.339	20.05249
971.715	6.0151
972.091	18.04459
972.467	50.12472
972.843	-42.10598
973.219	55.13197
973.594	-7.01849
973.97	61.14491
974.345	-13.03149
974.721	48.11629
975.096	-25.06135
975.471	-18.04326
975.846	41.09867
976.221	22.05615
976.596	1.00242
976.971	20.04965
977.346	61.14173
977.72	9.02309
978.095	16.04159
978.469	47.11226
978.844	58.14562
979.218	-16.03884
979.593	48.11506
979.967	53.12905
980.341	8.01858
980.715	1.00254
981.089	4.0101
981.463	-3.00696
981.837	-7.01729
982.21	17.03983
982.584	-5.0122
982.957	-8.02019
983.331	-2.00478
983.704	21.05188
984.078	13.03226
984.451	46.11499
984.824	-10.02463
985.197	20.04885
985.57	16.04037
985.943	73.17954
986.316	17.04203
986.688	38.09185
987.061	-8.01896
987.434	40.10441
987.806	0
988.179	8.01903
988.551	70.17694
988.923	18.04459
989.295	42.10511
989.667	-52.12664
990.039	-22.05508
990.411	57.13102
990.783	37.08542
991.155	-50.12241
991.527	84.20557
991.898	0
992.27	-22.05514
992.641	10.02527
993.012	47.11066
993.384	11.02643
993.755	12.0308
994.126	-32.07817
994.497	-6.01488
994.868	-40.09354
995.239	20.04874
995.61	1.00254
995.98	-14.03441
996.351	12.02992
996.722	-7.01642
997.092	-34.08181
997.462	-1.00236
997.833	10.02389
998.203	37.08992
998.573	-39.09867
998.943	22.05187
999.313	-18.04369
999.683	-8.01941
1000.053	46.10592
1000.423	22.05374
1000.792	30.07801
1001.162	40.09862
1001.531	20.04958
1001.901	9.0226
1002.27	42.09404
1002.639	-1.00258
1003.009	-12.02887
1003.378	46.11769
1003.747	-5.01194
1004.116	7.01689
1004.485	17.04088
1004.853	23.05854
1005.222	24.0608
1005.591	23.05489
1005.959	-55.12657
1006.328	9.02042
1006.696	-21.05132
1007.064	5.01268
1007.433	32.08023
1007.801	63.15426
1008.169	28.07098
1008.537	34.07553
1008.905	-59.14038
1009.273	19.0472
1009.64	-16.03865
1010.008	19.04555
1010.375	87.20978
1010.743	78.17911
1011.11	-12.02873
1011.478	-6.015
1011.845	14.03315
1012.212	-28.06437
1012.579	24.05919
1012.946	22.05264
1013.313	-4.00962
1013.68	13.02944
1014.047	-19.04587
1014.414	-17.04067
1014.78	-5.01255
1015.147	27.06557
1015.513	21.05087
1015.88	51.13036
1016.246	54.13318
1016.612	35.08035
1016.978	4.00988
1017.344	-16.04001
1017.71	52.12674
1018.076	64.15049
1018.442	16.04139
1018.808	18.04524
1019.174	-15.03806
1019.539	98.22341
1019.905	-27.06461
1020.27	-9.02245
1020.636	29.06979
1021.001	20.04814
1021.366	11.0266
1021.731	55.14128
1022.096	-18.04594
1022.461	-8.01914
1022.826	19.04541
1023.191	11.02904
1023.556	-20.0475
1023.92	34.08382
1024.285	34.08321
1024.649	27.06643
1025.014	1.0025
1025.378	21.05306
1025.742	12.03
1026.107	6.01369
1026.471	55.12824
1026.835	47.11653
1027.199	-8.01946
1027.562	-12.02823
1027.926	39.09553
1028.29	32.08121
1028.654	7.01624
1029.017	43.1058
1029.381	18.04325
1029.744	18.04615
1030.107	16.03809
1030.471	-19.04607
1030.834	-13.02994
1031.197	-16.03901
1031.56	-42.10083
1031.923	26.06747
1032.286	49.11506
1032.648	14.0337
1033.011	-4.00928
1033.374	-13.03092
1033.736	-19.05052
1034.099	-3.00738
1034.461	-24.0614
1034.823	-5.01257
1035.185	50.1258
1035.548	-3.00737
1035.91	2.00483
1036.272	-36.08333
1036.634	-2.00494
1036.995	-29.06918
1037.357	-14.03445
1037.719	-16.03937
1038.08	30.07147
1038.442	13.03106
1038.803	18.04346
1039.165	12.03047
1039.526	51.12316
1039.887	16.03851
1040.248	6.0149
1040.609	18.04472
1040.97	0
1041.331	1.00255
1041.692	-8.01888
1042.053	41.09349
1042.413	9.02113
1042.774	3.00736
1043.134	48.11427
1043.495	42.10567
1043.855	27.06574
1044.215	0
1044.576	-19.046
1044.936	15.03462
1045.296	28.07012
1045.656	3.00742
1046.016	64.154
1046.375	31.07543
1046.735	10.02284
1047.095	7.01651
1047.454	-11.02361
1047.814	17.0411
1048.173	56.13357
1048.533	44.10087
1048.892	-20.04862
1049.251	15.03787
1049.61	-4.00994
1049.969	43.10144
1050.328	8.01749
1050.687	24.05865
1051.046	-13.03201
1051.405	47.11692
1051.763	-34.07945
1052.122	7.01758
1052.48	28.0689
1052.839	-36.08607
1053.197	14.03316
1053.555	43.09813
1053.914	45.1101
1054.272	40.09683
1054.63	-17.04206
1054.988	-13.03124
1055.345	-43.0944
1055.703	19.04597
1056.061	18.04653
1056.419	3.00782
1056.776	18.04389
1057.134	14.03262
1057.491	7.01765
1057.848	28.06994
1058.206	23.05434
1058.563	19.04213
1058.92	27.06248
1059.277	-3.00747
1059.634	48.11291
1059.991	52.12446
1060.348	-2.00456
1060.704	-24.05797
1061.061	78.18011
1061.418	-8.0196
1061.774	4.00995
1062.131	-2.00533
1062.487	20.04701
1062.843	51.12705
1063.199	-10.02512
1063.555	27.06281
1063.911	-1.00255
1064.267	68.14119
1064.623	-20.04918
1064.979	38.09019
1065.335	23.05523
1065.691	14.03376
1066.046	-10.02225
1066.402	-18.04143
1066.757	20.05072
1067.112	24.05915
1067.468	-52.12512
1067.823	-27.06582
1068.178	14.03407
1068.533	28.06811
1068.888	61.14536
1069.243	36.08902
1069.598	-4.00981
1069.952	-29.06631
1070.307	-45.11324
1070.662	-34.08197
1071.016	-9.0204
1071.371	-16.03686
1071.725	26.06244
1072.079	-18.04382
1072.434	-13.03194
1072.788	-11.02648
1073.142	15.03711
1073.496	-9.02158
1073.85	-17.03992
1074.203	28.06817
1074.557	-6.01609
1074.911	12.02883
1075.265	13.03042
1075.618	30.07347
1075.971	-30.07241
1076.325	18.04597
1076.678	-37.08603
1077.031	-38.08747
1077.385	34.07509
1077.738	21.04765
1078.091	-38.08789
1078.444	3.00703
1078.796	26.06403
1079.149	24.05993
1079.502	-27.06468
1079.855	-27.06387
1080.207	5.01241
1080.56	25.06484
1080.912	17.04161
1081.264	-22.05366
1081.617	4.00983
1081.969	-8.02037
1082.321	20.04907
1082.673	-19.04393
1083.025	9.0215
1083.377	-236.53733
1083.728	51.11887
1084.08	2.00503
1084.432	28.06776
1084.783	35.08219
1085.135	-5.01265
1085.486	-29.06735
1085.838	34.08392
1086.189	-5.01225
1086.54	3.00722
1086.891	-39.10011
1087.242	8.01961
1087.593	18.04405
1087.944	-20.04587
1088.295	43.09781
1088.646	-24.05893
1088.996	-11.02678
1089.347	35.08605
1089.698	-26.0623
1090.048	58.15031
1090.398	0
1090.749	-4.00966
1091.099	1.00253
1091.449	2.00502
1091.799	-7.01769
1092.149	-76.1895
1092.499	36.08797
1092.849	31.07899
1093.199	64.15987
1093.548	-4.0097
1093.898	1.00252
1094.248	0
1094.597	-21.05422
1094.947	29.07756
1095.296	6.01492
1095.645	17.04443
1095.994	-23.05596
1096.343	46.11574
1096.692	-28.07446
1097.041	-31.08495
1097.39	26.06544
1097.739	23.06001
1098.088	52.13915
1098.437	-24.06378
1098.785	29.07838
1099.134	48.12738
1099.482	17.04696
1099.83	53.13908
1100.179	-18.04745
1100.527	28.0746
1100.875	-7.01867
1101.223	28.07456
1101.571	12.03333
1101.919	-29.07672
1102.267	32.09026
1102.615	-4.01287
1102.962	7.02255
1103.31	1.00321
1103.658	18.05793
