Data from N2 R9 sample 6_Subt2__2__18-48-11-802.txt Node

Date: Fri Aug 29 18:48:11 PDT 2025
User: uwsun
Spectrometer: HDX01956
Trigger mode: 0
Integration Time (sec): 5.000000E-1
Scans to average: 1
Nonlinearity correction enabled: true
Boxcar width: 0
Storing dark spectrum: false
XAxis mode: Wavelengths
Number of Pixels in Spectrum: 2068
>>>>>Begin Spectral Data<<<<<
194.03	219.59378
194.578	213.65564
195.127	207.62785
195.676	215.6535
196.225	277.70049
196.773	288.75293
197.321	335.84892
197.87	494.10846
198.418	490.0846
198.966	463.0373
199.513	381.82506
200.061	420.91862
200.609	510.16268
201.156	479.8754
201.704	459.98926
202.251	440.00687
202.798	495.09683
203.345	507.06644
203.892	492.05368
204.438	556.11139
204.985	509.0048
205.532	464.04785
206.078	490.02089
206.624	535.09925
207.17	529.02774
207.716	465.95959
208.262	484.79481
208.808	425.89319
209.354	442.91889
209.899	518.11615
210.445	500.04638
210.99	507.02428
211.535	547.0744
212.08	500.98203
212.625	526.11352
213.17	561.19576
213.715	476.88246
214.259	546.06209
214.804	567.17559
215.348	556.05744
215.892	513.03832
216.436	555.07527
216.98	582.0635
217.524	500.9987
218.068	537.14452
218.612	508.09082
219.155	488.97473
219.698	489.99145
220.242	492.05232
220.785	471.941
221.328	436.94273
221.871	443.97893
222.414	457.98622
222.956	390.81585
223.499	443.85468
224.041	466.93468
224.583	444.82599
225.126	455.85635
225.668	415.87525
226.21	448.97363
226.751	411.77011
227.293	445.87544
227.835	395.84002
228.376	491.96867
228.918	454.99506
229.459	445.95416
230	443.90763
230.541	467.92089
231.082	460.95716
231.622	450.89091
232.163	446.92844
232.704	414.88981
233.244	425.91286
233.784	478.00643
234.324	399.74836
234.864	404.79048
235.404	426.87734
235.944	453.9235
236.484	513.09045
237.023	419.85264
237.563	446.87927
238.102	454.91818
238.641	493.06378
239.18	418.83685
239.719	468.0065
240.258	462.88343
240.797	439.89903
241.335	448.9438
241.874	460.73603
242.412	461.94408
242.95	423.86431
243.488	492.94672
244.026	508.98034
244.564	424.73985
245.102	469.88748
245.64	517.05217
246.177	449.85462
246.715	499.01362
247.252	460.89877
247.789	506.78849
248.326	449.91368
248.863	433.80292
249.4	477.91454
249.936	456.78479
250.473	487.95356
251.009	490.93834
251.546	517.94392
252.082	491.89779
252.618	490.90932
253.154	414.84994
253.69	449.85379
254.226	499.99878
254.761	479.90065
255.297	438.80673
255.832	411.83027
256.367	471.93489
256.903	446.82229
257.438	459.91277
257.972	484.89908
258.507	439.84452
259.042	462.83814
259.576	465.82706
260.111	501.96752
260.645	557.9841
261.179	510.98609
261.713	504.92553
262.247	525.00055
262.781	520.88688
263.315	498.01596
263.849	517.07605
264.382	529.00379
264.915	487.9468
265.449	463.93874
265.982	544.01499
266.515	490.99779
267.048	487.84557
267.58	535.95951
268.113	462.82449
268.646	476.98295
269.178	474.87349
269.71	507.90927
270.243	540.009
270.775	518.09464
271.307	517.03305
271.838	561.09573
272.37	524.06426
272.902	525.97988
273.433	483.868
273.965	500.00803
274.496	513.0606
275.027	558.13241
275.558	519.03466
276.089	454.92575
276.62	528.11532
277.15	535.08887
277.681	580.00913
278.211	508.0317
278.741	479.86037
279.272	495.92341
279.802	554.13247
280.332	526.00756
280.861	521.02613
281.391	510.93891
281.921	543.06804
282.45	533.09464
282.98	567.21014
283.509	501.91608
284.038	543.99642
284.567	579.08818
285.096	519.02314
285.625	539.98261
286.153	520.98569
286.682	520.95828
287.21	582.11774
287.739	563.06376
288.267	523.02234
288.795	567.21641
289.323	548.01791
289.851	599.10926
290.378	557.9918
290.906	531.02771
291.433	578.15277
291.961	538.96564
292.488	577.14731
293.015	558.03704
293.542	585.17514
294.069	631.21174
294.596	651.26344
295.122	608.13522
295.649	584.00324
296.175	588.12766
296.702	596.14028
297.228	628.19582
297.754	637.09423
298.28	599.0486
298.806	648.1981
299.332	598.00981
299.857	656.12003
300.383	662.30469
300.908	579.08764
301.433	595.11941
301.958	647.14472
302.483	624.19971
303.008	636.21695
303.533	681.3727
304.058	647.16674
304.582	625.11951
305.107	588.19503
305.631	673.15499
306.155	663.15238
306.679	589.04513
307.203	657.13771
307.727	672.19307
308.251	665.24217
308.775	658.15606
309.298	621.1129
309.822	765.42299
310.345	758.3016
310.868	671.18666
311.391	708.29231
311.914	735.34812
312.437	751.23289
312.96	717.22018
313.482	712.22046
314.005	735.34474
314.527	768.46717
315.049	778.42465
315.571	703.09438
316.093	765.3519
316.615	758.29049
317.137	820.20354
317.659	885.48106
318.18	852.42139
318.702	800.27606
319.223	842.12478
319.744	820.22938
320.265	791.31103
320.786	826.38392
321.307	874.46299
321.828	861.27522
322.348	867.34126
322.869	806.25786
323.389	952.85583
323.909	940.36706
324.43	977.51749
324.95	871.26818
325.47	891.4076
325.989	911.34635
326.509	899.1978
327.029	958.28922
327.548	925.24576
328.067	898.33714
328.587	1005.53396
329.106	918.24971
329.625	1044.71722
330.144	957.29677
330.662	974.30658
331.181	1044.39195
331.7	1052.39249
332.218	1105.26458
332.736	1096.41265
333.255	1064.35798
333.773	1054.37844
334.291	1147.5919
334.808	1111.27439
335.326	1136.31465
335.844	1231.39812
336.361	1123.5076
336.879	1211.37404
337.396	1188.42788
337.913	1231.33727
338.43	1217.27037
338.947	1215.38593
339.464	1272.16036
339.981	1284.38005
340.497	1319.51549
341.014	1223.39519
341.53	1266.22044
342.046	1266.40767
342.562	1355.51473
343.078	1366.34173
343.594	1388.38116
344.11	1339.33521
344.626	1380.48292
345.141	1392.21837
345.657	1497.25605
346.172	1453.36287
346.687	1411.20416
347.202	1433.13878
347.717	1503.30842
348.232	1451.40755
348.747	1536.18574
349.261	1441.98346
349.776	1501.20684
350.29	1472.27399
350.805	1586.36614
351.319	1569.16505
351.833	1516.03645
352.347	1552.14396
352.861	1622.10802
353.374	1611.10563
353.888	1690.21582
354.401	1660.04859
354.915	1566.92223
355.428	1739.22308
355.941	1714.01215
356.454	1772.9607
356.967	1680.06589
357.48	1832.97782
357.993	1772.15668
358.505	1703.09242
359.018	1925.08694
359.53	1824.00501
360.042	1860.79634
360.554	1853.02733
361.066	1784.00699
361.578	1786.71233
362.09	1834.93137
362.602	1856.68243
363.113	1863.80104
363.625	1925.68313
364.136	1976.61376
364.647	1931.65085
365.158	2078.67922
365.669	2069.75738
366.18	2156.6689
366.691	2034.50653
367.201	2102.67794
367.712	2044.51498
368.222	2096.49145
368.733	2140.28139
369.243	2175.28354
369.753	2290.36199
370.263	2251.43896
370.773	2268.49873
371.282	2345.2856
371.792	2274.07724
372.301	2399.1712
372.811	2450.36957
373.32	2371.7417
373.829	2431.89116
374.338	2561.63308
374.847	2551.63307
375.356	2737.52608
375.865	2784.16397
376.373	3142.0288
376.882	3075.30082
377.39	3048.13193
377.898	3040.00529
378.407	3316.70167
378.915	3428.60782
379.423	3581.58373
379.93	3737.52474
380.438	3810.52257
380.946	4030.59995
381.453	3973.64615
381.96	4299.00293
382.468	4416.56204
382.975	4963.32907
383.482	5120.3101
383.989	5037.76878
384.495	5259.43899
385.002	5399.74497
385.509	5842.41662
386.015	6238.49754
386.521	6564.2874
387.028	6667.89857
387.534	6992.16188
388.04	7258.43654
388.546	7253.09524
389.051	7450.95428
389.557	8236.06148
390.063	9294.05392
390.568	9486.65231
391.073	9645.12108
391.578	10120.30152
392.084	10122.4628
392.589	10213.23314
393.093	10599.03355
393.598	12331.0626
394.103	13304.63839
394.607	14656.6129
395.112	15990.85591
395.616	16574.1199
396.12	18039.23456
396.624	19931.59645
397.128	21804.11217
397.632	24545.90428
398.136	26406.74047
398.639	26500.05111
399.143	28610.1798
399.646	27979.13559
400.15	25034.60268
400.653	20124.16724
401.156	13866.23708
401.659	5169.95759
402.162	1054.15589
402.664	0
403.167	0
403.67	0
404.172	0
404.674	0
405.176	0
405.678	0
406.18	0
406.682	0
407.184	0
407.686	0
408.187	0
408.688	0
409.19	0
409.691	0
410.192	0
410.693	0
411.194	435.30976
411.694	4082.94878
412.195	8864.71461
412.696	12089.80453
413.196	12760.96929
413.696	12863.67595
414.196	13703.56671
414.696	17261.84252
415.196	21764.24417
415.696	29583.19008
416.196	36460.31858
416.695	39383.91482
417.195	31896.2098
417.694	30186.70186
418.194	29059.78414
418.693	26205.97834
419.192	25306.31515
419.691	24700.87224
420.19	24152.6501
420.688	24133.30524
421.187	23418.08529
421.685	22073.79843
422.184	20440.38061
422.682	17811.06893
423.18	14883.72986
423.678	12901.02871
424.176	12009.76141
424.674	11301.40572
425.172	10915.07443
425.669	10379.09589
426.167	9785.05822
426.664	8635.76302
427.161	8041.17455
427.659	7300.29732
428.156	6884.4158
428.652	6428.67733
429.149	6198.52661
429.646	5909.41584
430.143	5738.59218
430.639	5191.15536
431.135	4979.36682
431.632	4699.07274
432.128	4285.61733
432.624	3944.51856
433.12	3694.53186
433.616	3733.5269
434.111	3426.58493
434.607	3385.65452
435.103	3435.61472
435.598	3399.6452
436.093	3222.94751
436.588	3062.06166
437.083	2799.30557
437.578	2726.46622
438.073	2537.74032
438.568	2579.88078
439.062	2433.65887
439.557	2389.02264
440.051	2239.00496
440.546	2110.09857
441.04	2012.31474
441.534	2086.50791
442.028	2039.43604
442.522	1964.46282
443.015	1914.29217
443.509	1912.6172
444.002	1897.62707
444.496	1750.41801
444.989	1750.71048
445.482	1700.76707
445.975	1723.51413
446.468	1622.46033
446.961	1665.4644
447.454	1640.61875
447.947	1617.70817
448.439	1610.83756
448.931	1557.63475
449.424	1498.96646
449.916	1579.87725
450.408	1415.68981
450.9	1391.8599
451.392	1445.98632
451.884	1430.80883
452.375	1247.91792
452.867	1332.81522
453.358	1296.77176
453.849	1292.67643
454.341	1270.79392
454.832	1256.71409
455.323	1226.95568
455.814	1322.89238
456.304	1270.89723
456.795	1197.87349
457.285	1194.8661
457.776	1240.94824
458.266	1103.93764
458.756	1143.01276
459.247	1054.93339
459.737	999.91633
460.226	1020.84322
460.716	952.92751
461.206	945.95185
461.695	988.079
462.185	884.90732
462.674	1006.95817
463.163	980.88698
463.653	1019.82559
464.142	914.9911
464.63	966.08113
465.119	859.9036
465.608	915.94677
466.096	839.84063
466.585	843.94274
467.073	829.99577
467.561	834.01148
468.05	827.96322
468.538	796.02996
469.026	783.98265
469.513	814.82805
470.001	745.87755
470.489	755.94935
470.976	697.87861
471.463	705.00218
471.951	718.03715
472.438	624.84234
472.925	647.86167
473.412	644.9525
473.899	629.85162
474.385	624.9347
474.872	533.7605
475.359	549.83787
475.845	574.69824
476.331	545.73282
476.817	583.90517
477.303	509.75786
477.789	525.82218
478.275	449.74615
478.761	490.78631
479.247	504.73971
479.732	459.77288
480.218	466.84023
480.703	441.75836
481.188	398.57719
481.673	398.62951
482.158	340.4918
482.643	408.74844
483.128	334.5383
483.612	372.61933
484.097	392.69592
484.581	376.63117
485.066	335.5961
485.55	382.59201
486.034	292.4594
486.518	298.51527
487.002	297.54109
487.486	265.4894
487.969	224.41876
488.453	259.50544
488.936	265.45077
489.42	276.46225
489.903	324.62793
490.386	280.3322
490.869	250.41962
491.352	268.51617
491.835	218.34952
492.318	228.40011
492.8	269.42529
493.283	212.42915
493.765	202.39635
494.247	185.34936
494.73	189.33245
495.212	241.4683
495.694	153.28808
496.175	126.2415
496.657	164.31738
497.139	244.33122
497.62	97.18839
498.102	112.22963
498.583	113.23624
499.064	101.18474
499.545	130.24423
500.026	103.19069
500.507	113.2179
500.988	127.26351
501.469	75.15791
501.949	143.29551
502.43	66.1314
502.91	62.10691
503.39	131.27642
503.87	97.19064
504.35	123.2446
504.83	44.08156
505.31	73.14984
505.79	31.06331
506.269	58.1159
506.749	21.041
507.228	31.06219
507.707	92.17173
508.187	81.16573
508.666	1.00212
509.145	-16.0324
509.623	-14.02859
510.102	10.02106
510.581	51.10672
511.059	15.03255
511.538	57.12803
512.016	33.06838
512.494	50.10525
512.972	28.05803
513.45	-22.04421
513.928	23.0484
514.406	-25.05234
514.884	23.0516
515.361	23.04796
515.839	64.12534
516.316	47.09804
516.793	11.02453
517.27	44.09335
517.747	21.04719
518.224	-15.03068
518.701	-17.0334
519.178	19.0411
519.654	42.08771
520.131	-5.01092
520.607	42.0916
521.083	-3.00604
521.56	46.09491
522.036	42.08066
522.512	24.05241
522.987	-68.14396
523.463	-33.06985
523.939	26.05637
524.414	-11.02264
524.89	45.09379
525.365	17.03393
525.84	-92.19613
526.315	14.02978
526.79	20.03982
527.265	8.01616
527.74	-8.01734
528.215	-11.0231
528.689	-14.02756
529.164	5.00966
529.638	-8.01842
530.112	-9.01885
530.587	-47.08958
531.061	-35.07547
531.534	3.0065
532.008	-17.03649
532.482	-14.02882
532.956	-34.07764
533.429	7.01514
533.903	4.00791
534.376	25.04902
534.849	-26.05422
535.322	-6.01269
535.795	-32.07056
536.268	-48.1042
536.741	-39.08475
537.213	65.13276
537.686	-26.05685
538.158	-18.036
538.631	14.03055
539.103	-60.12146
539.575	-11.02063
540.047	50.09732
540.519	-2.0043
540.991	1.0022
541.463	-23.05028
541.934	-9.0185
542.406	-52.11216
542.877	-5.01012
543.348	-5.01088
543.82	-6.01327
544.291	14.02935
544.762	20.04221
545.233	-28.06319
545.703	-13.02572
546.174	56.11513
546.645	-54.11577
547.115	23.04919
547.585	24.04903
548.056	28.05933
548.526	58.11902
548.996	75.15798
549.466	118.2509
549.935	37.07646
550.405	49.09335
550.875	111.22599
551.344	152.31178
551.814	100.19826
552.283	121.22603
552.752	92.18342
553.221	72.13393
553.69	160.29941
554.159	127.2648
554.628	130.24495
555.096	126.27235
555.565	154.29003
556.033	123.24973
556.502	97.20432
556.97	73.14164
557.438	131.26986
557.906	83.17414
558.374	127.25502
558.842	91.19219
559.31	69.1376
559.777	26.0563
560.245	95.19896
560.712	70.14527
561.18	86.16874
561.647	119.23521
562.114	42.08603
562.581	98.21581
563.048	118.24237
563.514	90.19695
563.981	119.24271
564.448	107.21417
564.914	115.23936
565.381	218.43361
565.847	176.36395
566.313	173.35574
566.779	175.348
567.245	191.39293
567.711	182.38395
568.176	204.39952
568.642	161.35671
569.108	227.48634
569.573	279.56853
570.038	233.42556
570.504	250.48266
570.969	277.59987
571.434	302.56179
571.899	282.57634
572.363	294.57251
572.828	392.75247
573.293	320.62404
573.757	344.66765
574.222	314.59226
574.686	311.58905
575.15	369.7355
575.614	350.67541
576.078	348.68768
576.542	361.69112
577.006	356.67379
577.469	360.75677
577.933	394.73041
578.396	385.76846
578.86	416.81627
579.323	343.69004
579.786	382.68733
580.249	336.64559
580.712	355.7359
581.175	319.67132
581.637	318.62721
582.1	380.70199
582.563	354.64413
583.025	317.65566
583.487	277.47806
583.95	278.51046
584.412	336.59865
584.874	325.67341
585.336	252.51783
585.797	255.47684
586.259	311.63114
586.721	281.56791
587.182	311.62797
587.643	253.50006
588.105	261.53669
588.566	253.46326
589.027	240.5023
589.488	223.44573
589.949	260.54849
590.41	185.31569
590.87	236.4727
591.331	253.47661
591.791	217.43837
592.252	159.32164
592.712	203.43022
593.172	180.35836
593.632	313.59052
594.092	157.31177
594.552	213.40263
595.011	210.42199
595.471	224.43931
595.931	256.4959
596.39	222.46524
596.849	239.48591
597.308	295.55273
597.768	233.51815
598.227	261.54782
598.685	301.59857
599.144	260.52873
599.603	280.57511
600.062	236.43071
600.52	293.5612
600.978	279.57345
601.437	275.54661
601.895	248.45697
602.353	267.51486
602.811	293.56011
603.269	329.67438
603.727	284.5878
604.184	282.54653
604.642	331.69382
605.099	377.73922
605.557	438.89313
606.014	366.66225
606.471	360.75977
606.928	383.68259
607.385	458.91566
607.842	584.06608
608.299	622.1528
608.755	582.12634
609.212	553.98518
609.668	517.92102
610.125	638.22668
610.581	631.20591
611.037	596.10122
611.493	519.01259
611.949	493.9813
612.405	533.86145
612.861	599.14686
613.316	545.06493
613.772	561.05014
614.227	558.07465
614.683	660.12325
615.138	593.12385
615.593	595.12051
616.048	619.14695
616.503	589.18972
616.958	568.17163
617.412	591.14188
617.867	544.98545
618.321	598.00269
618.776	596.07596
619.23	584.12644
619.684	588.09292
620.138	596.14303
620.592	585.17676
621.046	603.16957
621.5	540.10031
621.954	524.99618
622.407	588.08533
622.861	510.05038
623.314	583.10647
623.768	521.02661
624.221	521.86158
624.674	519.01403
625.127	590.15494
625.58	538.04401
626.033	478.9127
626.485	415.86872
626.938	492.00961
627.39	484.97392
627.843	455.9183
628.295	411.83826
628.747	451.93906
629.199	399.80381
629.651	415.83258
630.103	351.72175
630.555	365.69235
631.006	399.83523
631.458	345.7353
631.909	407.8384
632.361	345.73019
632.812	283.60055
633.263	314.61961
633.714	339.66219
634.165	345.76368
634.616	263.58098
635.067	276.56997
635.518	300.66201
635.968	324.59913
636.419	240.49028
636.869	314.69087
637.319	251.54333
637.769	230.48414
638.219	283.63194
638.669	231.51903
639.119	279.63689
639.569	272.61428
640.019	296.6395
640.468	231.48892
640.918	250.56897
641.367	251.53195
641.816	233.49467
642.265	263.57369
642.714	226.49726
643.163	224.49038
643.612	213.48585
644.061	211.42605
644.51	198.43182
644.958	214.44927
645.406	236.53625
645.855	263.61028
646.303	298.65594
646.751	264.56793
647.199	243.52602
647.647	255.55671
648.095	218.47805
648.543	259.50592
648.99	281.63395
649.438	320.70732
649.885	239.56468
650.333	265.48916
650.78	248.57058
651.227	309.70764
651.674	262.56799
652.121	248.57582
652.568	223.51911
653.015	247.59734
653.461	234.53278
653.908	265.58857
654.354	218.50137
654.801	221.49799
655.247	295.61508
655.693	253.63045
656.139	219.50578
656.585	223.51522
657.031	214.48034
657.477	222.46236
657.922	235.52
658.368	230.54689
658.813	243.54487
659.259	199.4627
659.704	230.51647
660.149	234.52545
660.594	253.57685
661.039	211.46611
661.484	279.63869
661.929	177.40472
662.373	149.36794
662.818	235.56253
663.262	176.41367
663.707	165.40894
664.151	179.42751
664.595	162.38299
665.039	217.5244
665.483	193.47868
665.927	234.5345
666.371	54.12524
666.814	205.47778
667.258	189.43633
667.701	269.56162
668.145	223.53991
668.588	178.42846
669.031	144.33397
669.474	216.50688
669.917	237.51128
670.36	169.41195
670.803	177.42031
671.245	191.39665
671.688	175.4202
672.13	143.31788
672.573	185.46135
673.015	174.41151
673.457	175.37656
673.899	182.43393
674.341	124.29769
674.783	155.36722
675.225	162.39305
675.666	120.28666
676.108	129.2802
676.549	153.35954
676.991	122.26923
677.432	132.26353
677.873	164.37598
678.314	137.32533
678.755	113.27432
679.196	150.34126
679.637	196.47124
680.078	186.43
680.518	170.39301
680.959	95.22829
681.399	152.37335
681.839	136.32935
682.28	134.32853
682.72	136.31041
683.16	112.27825
683.6	182.41121
684.039	142.29641
684.479	104.25526
684.919	87.20157
685.358	143.36037
685.798	89.23322
686.237	146.35144
686.676	156.36065
687.115	128.30062
687.554	94.22438
687.993	123.2732
688.432	101.23225
688.871	96.21929
689.309	110.26318
689.748	104.22008
690.186	116.27774
690.625	106.24934
691.063	97.23362
691.501	119.29397
691.939	99.24725
692.377	95.23261
692.815	65.15703
693.253	143.34284
693.69	59.13197
694.128	123.29748
694.565	110.26318
695.003	114.28898
695.44	57.13578
695.877	54.12786
696.314	52.11432
696.751	123.28182
697.188	68.15821
697.625	92.21354
698.061	74.17914
698.498	127.30738
698.934	37.0906
699.371	44.10519
699.807	77.18398
700.243	71.17249
700.679	85.19475
701.115	114.26972
701.551	93.22076
701.987	121.27356
702.422	77.18454
702.858	57.1376
703.294	56.12911
703.729	77.19001
704.164	68.16542
704.599	77.17387
705.035	16.0367
705.47	67.16448
705.904	74.17427
706.339	96.22538
706.774	64.15183
707.209	51.11948
707.643	63.15311
708.078	108.26361
708.512	36.0912
708.946	114.2741
709.38	71.17016
709.814	57.13248
710.248	63.15529
710.682	29.07024
711.116	1.00244
711.549	101.26097
711.983	47.11045
712.416	119.28215
712.85	59.14863
713.283	93.22161
713.716	115.28919
714.149	89.21395
714.582	78.17739
715.015	99.24886
715.448	99.25029
715.881	56.12503
716.313	50.11899
716.746	42.10049
717.178	46.1122
717.61	70.1789
718.043	70.176
718.475	26.06417
718.907	133.33589
719.339	14.03248
719.77	33.07954
720.202	113.28569
720.634	10.02481
721.065	86.20544
721.497	74.18291
721.928	44.10943
722.359	4.00984
722.79	20.04878
723.221	51.12986
723.652	89.2306
724.083	42.09648
724.514	22.05167
724.945	30.07183
725.375	15.03554
725.806	93.23328
726.236	77.19848
726.666	48.11537
727.096	99.24385
727.526	64.16379
727.956	30.06955
728.386	56.13948
728.816	26.06673
729.246	17.04206
729.675	16.04007
730.105	57.1419
730.534	45.10699
730.964	78.1985
731.393	98.24454
731.822	51.1316
732.251	75.19151
732.68	41.0983
733.109	37.09248
733.537	61.14886
733.966	34.08564
734.395	74.17271
734.823	104.23623
735.251	49.11958
735.68	115.28815
736.108	68.17336
736.536	68.1622
736.964	24.05681
737.392	45.11397
737.82	64.15528
738.247	66.15977
738.675	102.24487
739.102	59.14869
739.53	32.0825
739.957	55.14266
740.384	104.25734
740.811	47.12048
741.238	26.0645
741.665	51.1199
742.092	47.11389
742.519	80.19897
742.945	78.18868
743.372	50.12517
743.798	65.16825
744.225	62.14902
744.651	69.17439
745.077	79.19809
745.503	85.20859
745.929	52.12631
746.355	111.27642
746.781	87.21658
747.207	16.03825
747.632	25.06187
748.058	63.15854
748.483	58.13531
748.908	52.13055
749.334	34.08472
749.759	55.13126
750.184	54.13008
750.609	85.20998
751.033	88.2095
751.458	106.23901
751.883	70.1748
752.307	28.06704
752.732	9.02285
753.156	73.18146
753.58	126.29892
754.005	82.20905
754.429	60.14256
754.853	48.12016
755.277	30.07219
755.7	74.18472
756.124	30.07546
756.548	23.05546
756.971	70.17226
757.394	62.16078
757.818	95.24462
758.241	46.11785
758.664	75.19029
759.087	2.00457
759.51	59.1481
759.933	75.1816
760.356	53.137
760.778	53.1316
761.201	73.17888
761.623	68.16641
762.046	74.17711
762.468	85.20542
762.89	63.15683
763.312	60.14787
763.734	62.1506
764.156	44.10987
764.578	83.19238
765	52.1282
765.421	-12.03104
765.843	54.14254
766.264	87.2112
766.686	60.15188
767.107	58.14183
767.528	7.01794
767.949	44.11296
768.37	17.0424
768.791	72.17541
769.212	10.02549
769.632	5.01188
770.053	63.16666
770.473	54.13259
770.894	83.20857
771.314	64.15429
771.734	-10.02385
772.154	47.1217
772.575	12.02837
772.994	38.08757
773.414	88.21215
773.834	-4.01018
774.254	31.07686
774.673	66.16188
775.093	35.08757
775.512	-8.02009
775.931	49.12521
776.351	34.08536
776.77	16.03969
777.189	79.18876
777.607	46.11839
778.026	40.10061
778.445	18.04561
778.864	60.15474
779.282	12.02934
779.701	11.02813
780.119	-8.02056
780.537	29.07316
780.955	41.10524
781.373	1.00251
781.791	-6.01378
782.209	40.09336
782.627	6.01601
783.045	15.03508
783.462	20.05169
783.88	-20.05265
784.297	10.0255
784.715	15.03896
785.132	24.05884
785.549	-17.04332
785.966	47.11904
786.383	18.04485
786.8	5.01182
787.217	-7.01691
787.633	8.02024
788.05	48.1151
788.466	65.15424
788.883	-3.00776
789.299	16.03907
789.715	24.05904
790.131	0
790.547	27.06814
790.963	18.04522
791.379	11.02816
791.795	41.09458
792.21	-7.01668
792.626	-19.04602
793.041	7.01752
793.457	36.08977
793.872	12.02863
794.287	-4.00971
794.702	32.07962
795.117	-34.08622
795.532	-11.02801
795.947	62.14998
796.362	19.04599
796.776	83.19482
797.191	28.06923
797.605	-33.07921
798.02	-3.00742
798.434	58.13008
798.848	-6.01501
799.262	0
799.676	-4.00992
800.09	14.03487
800.504	37.09056
800.918	8.01882
801.331	36.09503
801.745	10.02332
802.158	3.0076
802.572	57.13895
802.985	24.05867
803.398	21.05067
803.811	44.11379
804.224	44.11023
804.637	-8.01938
805.05	21.04929
805.462	47.11619
805.875	-13.03418
806.288	-22.05406
806.7	30.07602
807.112	9.02117
807.525	53.13141
807.937	-14.03517
808.349	16.04052
808.761	38.09417
809.173	24.05876
809.584	55.13652
809.996	-30.07489
810.408	-18.04716
810.819	37.08773
811.231	23.0599
811.642	46.11027
812.053	86.20411
812.464	174.40593
812.875	185.46336
813.286	97.24855
813.697	84.19636
814.108	41.10084
814.519	37.08324
814.929	81.20632
815.34	23.05634
815.75	4.01028
816.16	31.07787
816.571	17.04456
816.981	54.12811
817.391	34.08274
817.801	-9.02268
818.211	38.09126
818.62	-8.01956
819.03	23.0569
819.44	54.14144
819.849	55.139
820.259	34.08759
820.668	-16.03998
821.077	1.00251
821.486	39.09457
821.895	29.07225
822.304	41.10912
822.713	-1.0024
823.122	35.08792
823.531	26.06221
823.939	38.09317
824.348	51.12451
824.756	61.15307
825.164	20.05079
825.573	24.06071
825.981	49.12203
826.389	50.12607
826.797	-16.04069
827.205	-11.02567
827.612	23.05726
828.02	-4.00953
828.428	73.18574
828.835	33.08733
829.243	92.21843
829.65	-3.00755
830.057	-19.04689
830.464	10.02464
830.871	47.11307
831.278	49.11891
831.685	21.04738
832.092	43.1058
832.499	24.05305
832.905	27.06885
833.312	3.00694
833.718	33.08275
834.124	2.00463
834.531	42.10636
834.937	38.098
835.343	36.08741
835.749	40.09402
836.155	32.08424
836.561	34.08413
836.966	32.07878
837.372	43.10988
837.777	31.0777
838.183	30.06729
838.588	29.07248
838.993	45.11002
839.399	-15.03722
839.804	-27.06692
840.209	34.08698
840.613	-11.02488
841.018	21.05358
841.423	45.11579
841.828	32.08138
842.232	79.19523
842.637	17.04049
843.041	26.06705
843.445	29.07319
843.849	53.13146
844.253	52.12394
844.657	9.02288
845.061	0
845.465	-20.04907
845.869	7.01646
846.272	-20.04945
846.676	63.15243
847.079	9.02309
847.483	54.13494
847.886	47.11474
848.289	0
848.692	24.06119
849.095	16.03878
849.498	79.19966
849.901	55.12642
850.304	42.10079
850.707	27.06926
851.109	59.14938
851.512	-14.03488
851.914	-8.0204
852.316	31.07882
852.718	-24.06284
853.121	22.0543
853.523	-8.01896
853.925	-3.00791
854.326	3.00758
854.728	36.09294
855.13	34.08805
855.531	13.03135
855.933	73.17489
856.334	16.0402
856.736	23.05194
857.137	-14.03303
857.538	1.00254
857.939	-24.06019
858.34	36.08813
858.741	23.06048
859.142	18.04359
859.542	2.00533
859.943	20.05005
860.343	-12.0301
860.744	14.03445
861.144	-7.01729
861.544	-40.09793
861.945	19.04875
862.345	31.07622
862.745	17.04257
863.145	85.20224
863.544	10.02549
863.944	18.04287
864.344	48.11947
864.743	58.14394
865.143	10.0259
865.542	11.02576
865.941	46.11412
866.34	5.0121
866.74	51.13699
867.139	-10.02425
867.537	13.03338
867.936	30.0726
868.335	16.04101
868.734	39.09997
869.132	42.09791
869.531	43.10431
869.929	32.07333
870.327	-14.03402
870.726	49.12238
871.124	68.15864
871.522	17.04361
871.92	29.0719
872.318	-5.01237
872.715	39.09687
873.113	-8.01973
873.511	56.13953
873.908	-2.0051
874.306	4.01004
874.703	25.06291
875.1	37.09498
875.497	14.03384
875.894	-13.03226
876.291	31.07644
876.688	16.04155
877.085	35.08433
877.482	8.0202
877.878	4.00972
878.275	25.06386
878.671	35.07832
879.068	35.08484
879.464	5.0122
879.86	-35.08423
880.256	31.07686
880.652	18.04608
881.048	37.09201
881.444	17.04077
881.84	26.06642
882.236	6.01522
882.631	36.08869
883.027	32.07785
883.422	18.04633
883.817	-36.09194
884.213	12.03102
884.608	5.01237
885.003	-16.0391
885.398	-4.01012
885.793	5.01266
886.188	-10.02515
886.582	61.15631
886.977	37.08814
887.371	23.0585
887.766	-14.03525
888.16	38.09513
888.554	25.06217
888.949	73.18272
889.343	20.04918
889.737	-35.09463
890.131	-8.02029
890.525	9.0232
890.918	1.00254
891.312	49.11739
891.706	61.15985
892.099	40.10205
892.492	-1.00218
892.886	-7.01732
893.279	19.0487
893.672	-1.00257
894.065	-7.01772
894.458	31.07829
894.851	59.14447
895.244	-8.02065
895.637	26.06297
896.029	-16.03963
896.422	-34.08444
896.814	-18.04534
897.206	-16.03862
897.599	70.17264
897.991	36.08735
898.383	12.02859
898.775	-2.00457
899.167	-20.04732
899.559	47.11912
899.951	22.05219
900.342	34.08677
900.734	-31.0781
901.125	21.0554
901.517	30.07396
901.908	70.16735
902.299	11.0271
902.69	-11.02628
903.082	44.10676
903.473	-28.06809
903.863	2.00515
904.254	-11.02586
904.645	21.05254
905.036	-13.03187
905.426	47.10777
905.817	4.00991
906.207	-23.05561
906.597	-16.03793
906.987	22.05733
907.378	13.03311
907.768	14.03725
908.158	5.0123
908.547	-13.03396
908.937	-1.00259
909.327	35.08529
909.717	48.12198
910.106	9.0218
910.495	14.0352
910.885	32.08135
911.274	9.02267
911.663	-4.01026
912.052	43.1063
912.441	32.08167
912.83	39.08979
913.219	42.11012
913.608	9.02223
913.997	-61.15603
914.385	46.11006
914.774	14.03434
915.162	-23.05561
915.55	12.02926
915.939	-18.046
916.327	14.03519
916.715	-19.04903
917.103	48.11825
917.491	70.17264
917.878	53.1303
918.266	32.08327
918.654	35.08968
919.041	-18.04755
919.429	-12.02868
919.816	13.03318
920.203	19.04637
920.591	9.02249
920.978	26.06398
921.365	18.0475
921.752	18.0432
922.139	-27.05962
922.525	20.04833
922.912	2.00492
923.299	1.00251
923.685	23.06029
924.072	4.00931
924.458	-10.02505
924.844	-13.03255
925.231	30.07013
925.617	-8.02056
926.003	11.02831
926.389	-3.00764
926.774	-9.02305
927.16	38.09461
927.546	-3.00773
927.931	22.05519
928.317	18.04175
928.702	59.13941
929.088	-20.04796
929.473	15.03841
929.858	-36.08846
930.243	-8.01942
930.628	-5.01229
931.013	27.06721
931.398	42.09679
931.783	45.1186
932.167	11.02709
932.552	31.07796
932.937	27.06731
933.321	-35.08918
933.705	11.02793
934.09	32.08115
934.474	57.13525
934.858	6.01568
935.242	-9.02111
935.626	12.03093
936.009	-6.01611
936.393	41.10451
936.777	-4.01034
937.16	17.04449
937.544	22.05213
937.927	-11.02822
938.311	46.1124
938.694	27.07169
939.077	-5.0121
939.46	45.11064
939.843	35.0733
940.226	21.05415
940.609	11.02546
940.991	-6.01543
941.374	13.032
941.757	52.12829
942.139	-15.03415
942.522	49.11587
942.904	35.08439
943.286	48.12203
943.668	30.07799
944.05	24.05941
944.432	-4.00997
944.814	60.14754
945.196	-28.06923
945.578	-27.06513
945.959	-2.00474
946.341	39.09596
946.722	26.06133
947.104	-8.01934
947.485	2.0047
947.866	-6.01527
948.247	32.081
948.628	35.08564
949.009	28.07199
949.39	33.08242
949.771	8.01877
950.152	17.04198
950.532	-49.12273
950.913	0
951.293	24.06511
951.674	-19.04656
952.054	-4.01001
952.434	-23.05786
952.814	2.0048
953.194	53.13865
953.574	67.16454
953.954	13.0311
954.334	27.06758
954.714	-24.0593
955.093	41.10099
955.473	12.03021
955.853	22.05723
956.232	44.12071
956.611	17.04104
956.99	0
957.37	26.06654
957.749	15.03603
958.128	40.10097
958.506	2.00523
958.885	0
959.264	-37.09214
959.643	4.00919
960.021	-13.03259
960.4	-19.04367
960.778	-2.00497
961.156	34.08549
961.535	41.09575
961.913	29.06815
962.291	-25.06498
962.669	-21.05387
963.047	37.09464
963.424	-19.04908
963.802	-24.05982
964.18	15.03819
964.557	27.06248
964.935	20.04767
965.312	49.12762
965.69	21.05287
966.067	35.08548
966.444	18.04462
966.821	30.07761
967.198	30.07306
967.575	25.06176
967.952	41.0968
968.329	20.04894
968.705	7.01515
969.082	16.04128
969.458	-23.05594
969.835	28.06845
970.211	22.05674
970.587	55.13682
970.963	20.05158
971.339	4.01053
971.715	-8.02019
972.091	11.02728
972.467	40.09996
972.843	-4.01002
973.219	71.16984
973.594	27.0709
973.97	68.16132
974.345	24.05773
974.721	61.14742
975.096	19.04625
975.471	20.04772
975.846	-10.0243
976.221	3.00768
976.596	-2.00484
976.971	70.1722
977.346	14.03283
977.72	-9.02317
978.095	29.07522
978.469	60.14295
978.844	11.02785
979.218	-27.06567
979.593	40.09603
979.967	5.01228
980.341	39.09
980.715	26.06579
981.089	8.02018
981.463	-9.02091
981.837	-14.03462
982.21	61.14167
982.584	15.03647
982.957	-16.04043
983.331	45.10649
983.704	11.02722
984.078	-15.03741
984.451	65.16193
984.824	-21.05182
985.197	17.04155
985.57	39.098
985.943	76.18682
986.316	68.16653
986.688	18.04367
987.061	15.0354
987.434	30.07844
987.806	-16.03929
988.179	-2.00477
988.551	57.14442
988.923	24.05939
989.295	-4.01009
989.667	-2.00483
990.039	-7.01748
990.411	-6.01397
990.783	26.06016
991.155	-19.04625
991.527	48.11825
991.898	-9.02266
992.27	14.03486
992.641	51.12793
993.012	17.04026
993.384	4.00962
993.755	25.06402
994.126	21.05079
994.497	-19.04723
994.868	-7.01626
995.239	-16.03926
995.61	1.00254
995.98	1.00245
996.351	-17.04261
996.722	-21.04939
997.092	-51.12311
997.462	-60.14317
997.833	21.05006
998.203	21.05119
998.573	20.05007
998.943	7.01655
999.313	32.07694
999.683	0
1000.053	2.00465
1000.423	19.04644
1000.792	6.01567
1001.162	-12.02987
1001.531	24.05945
1001.901	9.0226
1002.27	33.07403
1002.639	45.11507
1003.009	-1.0024
1003.378	15.03858
1003.747	9.02143
1004.116	-45.10961
1004.485	-4.00966
1004.853	6.01532
1005.222	-7.01783
1005.591	-5.012
1005.959	-36.08253
1006.328	-26.05942
1006.696	-22.05378
1007.064	-9.02288
1007.433	18.04524
1007.801	13.03213
1008.169	17.04318
1008.537	1.00224
1008.905	5.01175
1009.273	4.00996
1009.64	-12.02896
1010.008	16.03838
1010.375	113.27113
1010.743	17.03951
1011.11	-25.06001
1011.478	1.0025
1011.845	-16.03811
1012.212	6.0137
1012.579	29.07146
1012.946	41.09774
1013.313	29.06929
1013.68	32.07218
1014.047	-39.0945
1014.414	5.01191
1014.78	0
1015.147	37.08969
1015.513	41.09894
1015.88	48.12276
1016.246	61.15025
1016.612	56.12802
1016.978	-10.02477
1017.344	31.07686
1017.71	79.19157
1018.076	44.10386
1018.442	53.13624
1018.808	5.0126
1019.174	-2.00506
1019.539	67.1537
1019.905	-36.0863
1020.27	9.02237
1020.636	53.12697
1021.001	41.0983
1021.366	4.00969
1021.731	30.0774
1022.096	7.01779
1022.461	9.02146
1022.826	30.07156
1023.191	16.04221
1023.556	44.10322
1023.92	37.09117
1024.285	18.04418
1024.649	28.06888
1025.014	30.07456
1025.378	16.04046
1025.742	-2.00501
1026.107	33.07488
1026.471	30.07029
1026.835	33.08203
1027.199	-25.06101
1027.562	8.01874
1027.926	30.07361
1028.29	22.05593
1028.654	65.14905
1029.017	39.09603
1029.381	14.03366
1029.744	-8.0206
1030.107	12.02859
1030.471	0
1030.834	28.06396
1031.197	20.04843
1031.56	16.03799
1031.923	-6.01566
1032.286	56.13132
1032.648	30.072
1033.011	-34.07932
1033.374	24.05667
1033.736	-16.04252
1034.099	-7.01724
1034.461	-13.03319
1034.823	-2.00502
1035.185	27.06821
1035.548	5.01227
1035.91	29.06971
1036.272	1.0023
1036.634	33.08095
1036.995	-11.02615
1037.357	-39.09642
1037.719	8.0196
1038.08	23.05487
1038.442	17.04059
1038.803	9.02177
1039.165	21.05324
1039.526	46.11119
1039.887	34.08156
1040.248	-14.03488
1040.609	37.09161
1040.97	3.00739
1041.331	0
1041.692	-13.0307
1042.053	9.02065
1042.413	-5.01177
1042.774	1.00245
1043.134	16.03832
1043.495	40.10068
1043.855	21.05119
1044.215	16.03994
1044.576	-27.06547
1044.936	17.03922
1045.296	53.13213
1045.656	-3.00743
1046.016	30.07265
1046.375	-25.06146
1046.735	-18.04135
1047.095	16.03768
1047.454	30.06382
1047.814	19.04592
1048.173	48.11467
1048.533	-35.08151
1048.892	-28.06817
1049.251	-1.00253
1049.61	23.05688
1049.969	28.06625
1050.328	13.02839
1050.687	-25.06165
1051.046	-6.01475
1051.405	44.10951
1051.763	-18.04193
1052.122	-12.03025
1052.48	6.01483
1052.839	16.03787
1053.197	-10.0238
1053.555	33.07546
1053.914	46.11253
1054.272	23.05586
1054.63	-24.05945
1054.988	14.03347
1055.345	-17.03712
1055.703	2.00485
1056.061	35.09022
1056.419	3.00782
1056.776	10.02442
1057.134	-6.01404
1057.491	32.08034
1057.848	44.10959
1058.206	-1.00237
1058.563	-11.02454
1058.92	48.11062
1059.277	60.14765
1059.634	45.10591
1059.991	62.14811
1060.348	-13.02974
1060.704	-17.04101
1061.061	-6.01409
1061.418	12.02929
1061.774	-4.00997
1062.131	6.01597
1062.487	-12.02838
1062.843	15.03761
1063.199	-16.04024
1063.555	21.04891
1063.911	19.04822
1064.267	52.10835
1064.623	-21.05165
1064.979	46.10901
1065.335	30.07194
1065.691	38.09123
1066.046	-34.07604
1066.402	-37.08549
1066.757	-11.02805
1067.112	39.09585
1067.468	11.02615
1067.823	30.07235
1068.178	8.01949
1068.533	-10.0245
1068.888	-14.03384
1069.243	-27.06753
1069.598	8.01958
1069.952	-41.09398
1070.307	-17.04257
1070.662	-5.01199
1071.016	-20.04543
1071.371	6.01376
1071.725	37.08868
1072.079	2.00485
1072.434	-58.14368
1072.788	6.0144
1073.142	4.00992
1073.496	9.0215
1073.85	6.01403
1074.203	14.03417
1074.557	4.01071
1074.911	40.09559
1075.265	27.063
1075.618	40.09778
1075.971	15.0359
1076.325	11.02813
1076.678	-55.12834
1077.031	-52.12003
1077.385	-2.00445
1077.738	44.09937
1078.091	-10.023
1078.444	53.1229
1078.796	11.02716
1079.149	7.01753
1079.502	-27.06468
1079.855	14.03285
1080.207	78.19102
1080.56	11.0286
1080.912	20.04893
1081.264	11.02666
1081.617	16.03921
1081.969	9.02285
1082.321	27.06616
1082.673	-63.14695
1083.025	33.07849
1083.377	9.01947
1083.728	39.09111
1084.08	6.01509
1084.432	11.0267
1084.783	54.12633
1085.135	-17.04309
1085.486	-21.04869
1085.838	19.04702
1086.189	11.02687
1086.54	26.06232
1086.891	1.00255
1087.242	34.08296
1087.593	65.15768
1087.944	-25.0574
1088.295	57.12929
1088.646	29.07051
1088.996	-10.02434
1089.347	-25.06214
1089.698	-10.02389
1090.048	10.02613
1090.398	30.0698
1090.749	-10.02418
1091.099	-29.07389
1091.449	0
1091.799	23.05782
1092.149	-6.01477
1092.499	5.01229
1092.849	-18.04626
1093.199	37.09288
1093.548	-32.07802
1093.898	-4.0101
1094.248	27.0696
1094.597	-37.0958
1094.947	-5.01345
1095.296	21.05209
1095.645	42.10929
1095.994	-9.02184
1096.343	-15.03815
1096.692	8.02115
1097.041	-46.12636
1097.39	5.01263
1097.739	6.0157
1098.088	40.10725
1098.437	-23.06111
1098.785	5.01357
1099.134	41.10893
1099.482	33.09092
1099.83	58.15207
1100.179	-8.02105
1100.527	18.04804
1100.875	-18.04809
1101.223	-4.01071
1101.571	14.03887
1101.919	-24.06344
1102.267	11.03113
1102.615	0
1102.962	20.06432
1103.31	0
1103.658	11.03543
