Data from N1R0 150C sample 1_Subt2__2__14-45-50-548.txt Node

Date: Tue Sep 16 14:45:50 PDT 2025
User: uwsun
Spectrometer: HDX01956
Trigger mode: 0
Integration Time (sec): 5.000000E-1
Scans to average: 1
Nonlinearity correction enabled: true
Boxcar width: 0
Storing dark spectrum: false
XAxis mode: Wavelengths
Number of Pixels in Spectrum: 2068
>>>>>Begin Spectral Data<<<<<
194.03	-3.00871
194.578	1.00325
195.127	2.00641
195.676	9.02893
196.225	21.05589
196.773	7.01954
197.321	20.05583
197.87	85.21948
198.418	74.19283
198.966	80.21287
199.513	75.19299
200.061	61.15724
200.609	92.24456
201.156	45.10066
201.704	50.12792
202.251	73.19615
202.798	55.14462
203.345	89.22276
203.892	78.19948
204.438	42.1016
204.985	54.13063
205.532	70.1862
206.078	86.21226
206.624	101.25571
207.17	150.35201
207.716	81.20127
208.262	107.21457
208.808	73.18601
209.354	90.22514
209.899	87.22113
210.445	65.1651
210.99	47.11696
211.535	101.24049
212.08	90.21137
212.625	73.18463
213.17	86.22148
213.715	126.28967
214.259	114.26816
214.804	89.22027
215.348	116.2702
215.892	105.2571
216.436	61.1415
216.98	81.18014
217.524	101.24372
218.068	115.29167
218.612	141.35876
219.155	124.29429
219.698	81.19487
220.242	60.14993
220.785	76.18079
221.328	68.16986
221.871	116.29645
222.414	73.18219
222.956	29.07061
223.499	24.05462
224.041	18.04198
224.583	51.10917
225.126	78.17271
225.668	58.14252
226.21	106.26909
226.751	103.23068
227.293	71.16209
227.835	72.17803
228.376	69.15835
228.918	76.1904
229.459	103.25762
230	62.1506
230.541	66.15331
231.082	88.21551
231.622	8.01848
232.163	75.18214
232.704	124.31008
233.244	77.19231
233.784	73.17808
234.324	95.21521
234.864	53.12124
235.404	64.15201
235.944	60.14267
236.484	111.27712
237.023	70.16633
237.563	87.20357
238.102	122.28809
238.641	58.14703
239.18	55.13071
239.719	77.19391
240.258	92.2077
240.797	59.14248
241.335	59.14479
241.874	141.27398
242.412	118.28684
242.95	99.24025
243.488	57.12944
244.026	86.20151
244.564	98.20293
245.102	99.22555
245.64	69.166
246.177	21.04755
246.715	149.35573
247.252	55.12627
247.789	140.25848
248.326	49.11967
248.863	81.17991
249.4	78.17825
249.936	121.25409
250.473	127.30007
251.009	52.1206
251.546	123.27501
252.082	55.12033
252.618	95.21373
253.154	105.25337
253.69	93.20965
254.226	83.20013
254.761	77.17437
255.297	52.11519
255.832	62.14913
256.367	82.19401
256.903	173.38105
257.438	66.15622
257.972	101.22583
258.507	65.15066
259.042	77.16918
259.576	145.32005
260.111	55.12784
260.645	95.20644
261.179	92.21683
261.713	112.25151
262.247	63.14539
262.781	129.27196
263.315	35.08611
263.849	88.22149
264.382	109.25084
264.915	104.24711
265.449	74.1821
265.982	85.19452
266.515	104.25583
267.048	115.24447
267.58	67.14615
268.113	60.13158
268.646	60.14825
269.178	74.16699
269.71	126.27899
270.243	127.29437
270.775	131.33555
271.307	58.13935
271.838	109.25774
272.37	33.08209
272.902	91.20733
273.433	107.23845
273.965	71.17398
274.496	81.20193
275.027	133.33036
275.558	93.22831
276.089	120.29997
276.62	62.15767
277.15	80.19796
277.681	34.07456
278.211	109.2661
278.741	78.17516
279.272	113.25942
279.802	114.28363
280.332	69.16474
280.861	86.20686
281.391	101.23076
281.921	66.15929
282.45	65.16263
282.98	86.22525
283.509	136.30928
284.038	117.2685
284.567	112.26171
285.096	129.31281
285.625	51.11648
286.153	127.30379
286.682	142.32567
287.21	63.15162
287.739	65.15537
288.267	84.20625
288.795	76.1998
289.323	82.19446
289.851	80.19016
290.378	56.12668
290.906	94.23157
291.433	140.34794
291.961	110.25269
292.488	82.20483
293.015	113.26793
293.542	132.33924
294.069	135.33435
294.596	71.17514
295.122	112.2698
295.649	67.14863
296.175	67.16302
296.702	139.33959
297.228	109.26322
297.754	149.33438
298.28	135.31105
298.806	100.24244
299.332	88.19923
299.857	110.25157
300.383	135.33887
300.908	94.23294
301.433	151.36918
301.958	96.22185
302.483	84.20983
303.008	137.34067
303.533	77.2002
304.058	106.24837
304.582	87.20763
305.107	124.32278
305.631	138.31294
306.155	99.23256
306.679	133.3134
307.203	121.28213
307.727	149.35246
308.251	91.22637
308.775	191.4607
309.298	151.3634
309.822	116.29217
310.345	177.42047
310.868	174.41724
311.391	163.39955
311.914	137.34327
312.437	156.35606
312.96	135.31873
313.482	125.29466
314.005	54.1367
314.527	83.21743
315.049	168.42299
315.571	138.3118
316.093	126.31292
316.615	70.17022
317.137	144.31472
317.659	136.32984
318.18	100.24016
318.702	164.38351
319.223	170.34571
319.744	158.35567
320.265	128.31312
320.786	140.35034
321.307	127.31465
321.828	183.41068
322.348	178.4169
322.869	150.35778
323.389	526.94749
323.909	149.34084
324.43	135.32342
324.95	136.31279
325.47	189.46551
325.989	178.42065
326.509	163.3655
327.029	214.48409
327.548	155.35185
328.067	209.5024
328.587	205.50937
329.106	155.34971
329.625	175.45279
330.144	207.4775
330.662	210.48895
331.181	184.43264
331.7	167.38769
332.218	204.43999
332.736	183.42701
333.255	236.5484
333.773	206.48228
334.291	212.52513
334.808	248.55071
335.326	232.51475
335.844	260.60129
336.361	253.64072
336.879	194.4549
337.396	215.51917
337.913	224.51269
338.43	259.57453
338.947	265.62173
339.464	254.54007
339.981	195.46019
340.497	220.53515
341.014	268.6409
341.53	221.49432
342.046	288.70394
342.562	257.62946
343.078	289.6653
343.594	206.48662
344.11	282.66174
344.626	281.69461
345.141	302.6745
345.657	303.66933
346.172	284.67111
346.687	274.61703
347.202	342.7572
347.717	291.67872
348.232	305.74063
348.747	334.74874
349.261	281.60619
349.776	366.83932
350.29	317.77293
350.805	315.75744
351.319	317.7172
351.833	338.75521
352.347	330.75709
352.861	359.81386
353.374	310.68722
353.888	381.89625
354.401	347.76427
354.915	324.71317
355.428	322.78058
355.941	310.70408
356.454	337.72698
356.967	327.74073
357.48	323.71201
357.993	333.79433
358.505	318.75202
359.018	394.92592
359.53	406.94891
360.042	369.79703
360.554	406.95151
361.066	380.88851
361.578	400.84714
362.09	385.87987
362.602	416.88602
363.113	411.92528
363.625	385.84048
364.136	431.90021
364.647	422.9549
365.158	370.8301
365.669	379.87034
366.18	414.93032
366.691	357.75592
367.201	411.94116
367.712	388.85366
368.222	447.97704
368.733	421.87309
369.243	485.01874
369.753	438.95919
370.263	482.09521
370.773	407.94658
371.282	465.04819
371.792	512.10886
372.301	493.1164
372.811	509.25104
373.32	547.09665
373.829	518.13858
374.338	560.1489
374.847	533.14385
375.356	540.18154
375.865	631.22864
376.373	594.23906
376.882	701.59959
377.39	674.46893
377.898	598.34931
378.407	686.39958
378.915	758.46272
379.423	714.48314
379.93	805.63859
380.438	757.61199
380.946	823.6692
381.453	928.90161
381.96	904.8524
382.468	975.93201
382.975	1036.11864
383.482	1040.91894
383.989	1089.32362
384.495	1182.20841
385.002	1162.92803
385.509	1244.34852
386.015	1304.01536
386.521	1391.38662
387.028	1458.45004
387.534	1428.24203
388.04	1527.71005
388.546	1596.4869
389.051	1618.49403
389.557	1788.8024
390.063	1997.84449
390.568	2007.10792
391.073	2093.822
391.578	2186.28703
392.084	2269.99796
392.589	2318.78937
393.093	2496.31203
393.598	2746.15042
394.103	2987.35146
394.607	3267.40501
395.112	3510.49975
395.616	3749.3553
396.12	3987.86988
396.624	4562.80227
397.128	4910.77937
397.632	5399.35802
398.136	5876.98785
398.639	6248.99586
399.143	6873.21216
399.646	7969.2814
400.15	8842.21718
400.653	9750.10137
401.156	11020.47905
401.659	12705.86899
402.162	15662.31987
402.664	20885.81475
403.167	29589.17491
403.67	56153.08066
404.172	62748.19833
404.674	63858.43483
405.176	63738.15102
405.678	63977.72923
406.18	64011.81569
406.682	63863.44694
407.184	63926.60148
407.686	63841.39382
408.187	64025.8516
408.688	52711.77743
409.19	36351.20807
409.691	29009.55135
410.192	24341.74224
410.693	21083.40736
411.194	19047.65674
411.694	17826.58705
412.195	16635.2879
412.696	14858.19736
413.196	13779.33816
413.696	13243.67561
414.196	13405.78995
414.696	13198.00031
415.196	12408.43293
415.696	11204.31674
416.196	9093.65461
416.695	7189.90836
417.195	6077.19002
417.694	5774.44935
418.194	5544.60607
418.693	5189.2637
419.192	4956.59925
419.691	4818.57622
420.19	4737.85554
420.688	4613.06716
421.187	4335.0198
421.685	4122.9178
422.184	3774.1563
422.682	3293.80379
423.18	2806.1479
423.678	2547.07948
424.176	2353.01779
424.674	2203.84738
425.172	2130.0498
425.669	2012.16488
426.167	1922.87024
426.664	1740.65333
427.161	1607.58856
427.659	1427.58373
428.156	1420.18473
428.652	1260.49424
429.149	1215.32202
429.646	1180.05358
430.143	1199.26609
430.639	1056.03733
431.135	1001.08238
431.632	969.83268
432.128	951.91155
432.624	834.8646
433.12	824.60928
433.616	801.50484
434.111	730.5218
434.607	685.45412
435.103	705.28715
435.598	696.26459
436.093	668.38008
436.588	603.2186
437.083	620.24184
437.578	609.26675
438.073	574.30721
438.568	614.36176
439.062	549.06312
439.557	469.01363
440.051	502.03341
440.546	406.86473
441.04	471.04616
441.534	440.03264
442.028	442.99241
442.522	423.94956
443.015	376.75834
443.509	386.88446
444.002	438.99915
444.496	370.75584
444.989	393.89634
445.482	368.86113
445.975	421.90855
446.468	396.80272
446.961	373.76249
447.454	338.71897
447.947	348.78749
448.439	398.91671
448.931	390.8404
449.424	394.9432
449.916	365.84122
450.408	361.77908
450.9	342.78775
451.392	330.79726
451.884	311.68125
452.375	300.71001
452.867	294.63165
453.358	329.71551
453.849	331.6705
454.341	300.64676
454.832	300.61814
455.323	368.86484
455.814	270.59307
456.304	245.54732
456.795	278.60859
457.285	244.51836
457.776	266.58232
458.266	289.65599
458.756	212.4862
459.247	283.64811
459.737	315.72543
460.226	313.67869
460.716	248.57149
461.206	252.58048
461.695	235.56103
462.185	283.6429
462.674	220.48731
463.163	238.51552
463.653	270.55082
464.142	242.56567
464.63	243.56745
465.119	238.53399
465.608	271.60865
466.096	237.49591
466.585	230.50734
467.073	208.47588
467.561	166.3894
468.05	228.50693
468.538	221.52215
469.026	182.42059
469.513	187.38436
470.001	226.50165
470.489	233.53447
470.976	242.54475
471.463	179.43437
471.951	204.49159
472.438	184.42081
472.925	184.42199
473.412	130.31019
473.899	206.45802
474.385	190.45231
474.872	180.40901
475.359	186.44516
475.845	161.32644
476.331	148.30921
476.817	137.32746
477.303	176.39895
477.789	153.35673
478.275	155.37642
478.761	129.30125
479.247	159.34698
479.732	145.35477
480.218	186.4745
480.703	139.33604
481.188	163.34515
481.673	142.32057
482.158	173.36504
482.643	182.4528
483.128	186.4223
483.612	167.38891
484.097	121.28734
484.581	128.29156
485.066	173.4135
485.55	131.2854
486.034	130.27762
486.518	212.49166
487.002	94.22618
487.486	101.24234
487.969	121.28955
488.453	103.25314
488.936	106.23608
489.42	113.24702
489.903	71.17552
490.386	60.12407
490.869	176.37618
491.352	102.24254
491.835	104.21072
492.318	73.16336
492.8	97.19937
493.283	102.25728
493.765	56.13689
494.247	80.18502
494.73	114.24926
495.212	26.06183
495.694	134.31065
496.175	86.20513
496.657	114.26638
497.139	69.11844
497.62	100.23806
498.102	94.23174
498.583	28.06888
499.064	95.21004
499.545	110.24772
500.026	82.18452
500.507	79.18079
500.988	167.40784
501.469	40.09963
501.949	75.18398
502.43	109.25964
502.91	101.21256
503.39	44.10896
503.87	82.19266
504.35	52.12151
504.83	35.07687
505.31	52.12512
505.79	37.08759
506.269	12.02774
506.749	64.14584
507.228	69.16183
507.707	83.1842
508.187	90.21335
508.666	105.25729
509.145	67.15616
509.623	85.19764
510.102	55.13282
510.581	97.23185
511.059	88.21974
511.538	63.16171
512.016	95.22568
512.494	69.16512
512.972	88.20917
513.45	76.17647
513.928	95.22898
514.406	53.12987
514.884	83.21253
515.361	51.12204
515.839	96.21938
516.316	153.36472
516.793	73.18331
517.27	64.15347
517.747	122.30882
518.224	53.12212
518.701	83.18244
519.178	68.16956
519.654	82.19304
520.131	51.12627
520.607	55.13417
521.083	47.10665
521.56	35.08276
522.036	16.03515
522.512	125.30436
522.987	145.34326
523.463	84.1979
523.939	125.30607
524.414	87.19781
524.89	84.19928
525.365	77.17323
525.84	60.14405
526.315	65.15709
526.79	65.14641
527.265	113.25828
527.74	50.12136
528.215	62.14436
528.689	-2.00444
529.164	16.03463
529.638	43.10902
530.112	61.14324
530.587	40.08602
531.061	60.14503
531.534	10.02429
532.008	68.16493
532.482	132.29885
532.956	59.15018
533.429	117.28297
533.903	91.19809
534.376	99.21706
534.849	28.06473
535.322	28.0664
535.795	7.01704
536.268	63.15225
536.741	15.03587
537.213	28.06473
537.686	51.12483
538.158	45.10269
538.631	35.08506
539.103	4.00914
539.575	34.07047
540.047	47.10279
540.519	73.17382
540.991	39.09535
541.463	13.03151
541.934	23.05236
542.406	50.12031
542.877	53.11982
543.348	75.1805
543.82	44.1072
544.291	86.19977
544.762	56.13342
545.233	61.15444
545.703	18.04045
546.174	11.02577
546.645	46.11161
547.115	52.12574
547.585	26.06025
548.056	58.14278
548.526	61.14497
548.996	29.06977
549.466	93.22467
549.935	52.1246
550.405	41.09069
550.875	43.10258
551.344	39.09343
551.814	42.09679
552.283	53.11625
552.752	74.17339
553.221	61.13521
553.69	111.24921
554.159	76.18888
554.628	81.18357
555.096	69.17538
555.565	28.06254
556.033	103.24422
556.502	27.06565
556.97	54.12076
557.438	42.09914
557.906	-2.00479
558.374	58.13494
558.842	42.10114
559.31	49.11033
559.777	63.15415
560.245	-18.04203
560.712	4.00928
561.18	48.1069
561.647	11.02472
562.114	37.08542
562.581	53.13069
563.048	13.03013
563.514	79.19773
563.981	42.09679
564.448	45.10232
564.914	24.05623
565.381	97.22064
565.847	62.14459
566.313	34.07942
566.779	13.02962
567.245	-38.08984
567.711	10.02419
568.176	48.10828
568.642	36.09103
569.108	4.00994
569.573	30.06994
570.038	2.00425
570.504	62.14043
570.969	20.04991
571.434	40.08949
571.899	39.09293
572.363	48.11062
572.828	101.23085
573.293	52.11964
573.757	96.22176
574.222	74.1659
574.686	94.21533
575.15	90.21574
575.614	121.28301
576.078	76.17815
576.542	97.22001
577.006	79.17839
577.469	109.2657
577.933	93.2112
578.396	5.012
578.86	101.23624
579.323	86.20654
579.786	110.23715
580.249	117.27334
580.712	55.13392
581.175	49.12105
581.637	52.11912
582.1	72.15709
582.563	56.11959
583.025	52.12683
583.487	93.19115
583.95	21.04558
584.412	86.18055
584.874	84.20411
585.336	52.12375
585.797	93.20175
586.259	77.17989
586.721	31.07328
587.182	41.09507
587.643	19.04366
588.105	62.14664
588.566	56.11746
589.027	101.24574
589.488	71.16307
589.949	110.26488
590.41	10.02018
590.87	91.20766
591.331	95.20706
591.791	60.13932
592.252	64.14937
592.712	60.14394
593.172	88.19972
593.632	144.31592
594.092	29.06527
594.552	60.13058
595.011	16.03706
595.471	101.22788
595.931	107.24013
596.39	80.19162
596.849	33.07743
597.308	50.1072
597.768	73.18784
598.227	17.04122
598.685	55.12581
599.144	74.17434
599.603	19.04486
600.062	25.05335
600.52	64.14496
600.978	17.04056
601.437	53.12099
601.895	75.16097
602.353	32.07094
602.811	82.18474
603.269	27.06468
603.727	67.16076
604.184	20.04607
604.642	49.12069
605.099	97.22537
605.557	31.07579
606.014	31.06745
606.471	34.08567
606.928	87.193
607.385	87.21681
607.842	47.10829
608.299	58.13579
608.755	76.18357
609.212	89.19793
609.668	71.16026
610.125	70.16837
610.581	85.19842
611.037	34.07673
611.493	34.07979
611.949	47.11478
612.405	54.11067
612.861	28.06484
613.316	71.16971
613.772	7.01622
614.227	112.26653
614.683	-9.01941
615.138	47.11049
615.593	-4.0094
616.048	51.11695
616.503	-3.00736
616.958	12.03026
617.412	72.17048
617.867	24.05416
618.321	26.05418
618.776	6.01337
619.23	7.01655
619.684	1.00226
620.138	38.08726
620.592	45.10924
621.046	72.16956
621.5	-8.01946
621.954	24.05343
622.407	56.12384
622.861	21.05123
623.314	1.00229
623.768	28.06643
624.221	17.03382
624.674	77.17699
625.127	26.06073
625.58	29.0654
626.033	62.13528
626.485	7.01687
626.938	71.16828
627.39	39.09136
627.843	70.16067
628.295	65.14935
628.747	62.14737
629.199	63.14301
629.651	25.05758
630.103	25.0576
630.555	52.10956
631.006	60.13904
631.458	19.04491
631.909	-28.06365
632.361	-19.04437
632.812	30.06963
633.263	64.13845
633.714	18.03836
634.165	23.05529
634.616	34.08044
635.067	61.13385
635.518	69.16259
635.968	1.00199
636.419	87.18841
636.869	15.03568
637.319	82.18875
637.769	34.0766
638.219	27.06382
638.669	-5.01198
639.119	-8.01929
639.569	12.02891
640.019	20.04639
640.468	54.12076
640.918	37.0877
641.367	-14.0317
641.816	46.10215
642.265	15.03517
642.714	-5.01157
643.163	44.10164
643.612	29.07117
644.061	49.10476
644.51	46.10537
644.958	34.07525
645.406	23.0551
645.855	1.00244
646.303	2.00466
646.751	45.10406
647.199	83.1865
647.647	63.14562
648.095	-8.01841
648.543	79.15908
648.99	52.12455
649.438	1.00233
649.885	65.1611
650.333	33.06434
650.78	37.08939
651.227	51.12441
651.674	57.12965
652.121	92.2233
652.568	59.14388
653.015	-19.04742
653.461	17.04056
653.908	18.04148
654.354	74.17481
654.801	16.03767
655.247	26.05646
655.693	35.09084
656.139	-9.02164
656.585	49.11663
657.031	24.05654
657.477	55.11988
657.922	52.11778
658.368	16.0394
658.813	8.01828
659.259	67.16137
659.704	30.0712
660.149	19.04393
660.594	13.03097
661.039	51.11587
661.484	26.06164
661.929	31.07245
662.373	5.01259
662.818	3.00745
663.262	33.07975
663.707	30.07624
664.151	43.10451
664.595	-29.0709
665.039	18.04472
665.483	17.04329
665.927	11.0259
666.371	25.05891
666.814	45.10653
667.258	48.11528
667.701	85.17928
668.145	52.12872
668.588	32.07918
669.031	19.04477
669.474	2.00482
669.917	34.07447
670.36	40.09952
670.803	91.21718
671.245	19.039
671.688	0
672.13	23.05213
672.573	16.04042
673.015	25.06028
673.457	-7.01536
673.899	55.13222
674.341	34.08172
674.783	-15.03621
675.225	11.02712
675.666	35.08548
676.108	20.04332
676.549	15.03499
676.991	49.10707
677.432	-11.02206
677.873	17.03886
678.314	40.09482
678.755	76.18544
679.196	36.08207
679.637	-5.01202
680.078	25.05834
680.518	61.13886
680.959	48.11357
681.399	28.06911
681.839	43.1038
682.28	36.08911
682.72	-7.01609
683.16	70.17283
683.6	43.09733
684.039	37.07615
684.479	16.03949
684.919	64.14925
685.358	0
685.798	-27.07066
686.237	21.04998
686.676	27.06092
687.115	72.16771
687.554	92.21683
687.993	58.12719
688.432	59.13339
688.871	59.13409
689.309	79.18702
689.748	24.04985
690.186	17.03968
690.625	14.03287
691.063	29.06889
691.501	64.15656
691.939	95.23537
692.377	8.01938
692.815	95.22855
693.253	31.07339
693.69	59.12783
694.128	17.04118
694.565	43.10109
695.003	44.11158
695.44	89.20743
695.877	49.11434
696.314	-30.06368
696.751	106.23519
697.188	52.11945
697.625	50.11076
698.061	-16.03843
698.498	41.09609
698.934	7.0167
699.371	21.04923
699.807	95.22002
700.243	65.15483
700.679	40.08842
701.115	35.08103
701.551	-10.02326
701.987	-3.00655
702.422	42.09941
702.858	34.08054
703.294	104.23354
703.729	-5.01215
704.164	29.06873
704.599	90.19728
705.035	44.09779
705.47	28.0675
705.904	22.05066
706.339	27.06156
706.774	35.08129
707.209	79.18086
707.643	46.10888
708.078	24.05797
708.512	-4.01001
708.946	29.06812
709.38	0
709.814	27.06064
710.248	77.18524
710.682	54.12816
711.116	61.14664
711.549	-21.0536
711.983	57.12986
712.416	99.23001
712.85	25.0614
713.283	69.16025
713.716	61.14886
714.149	-3.00693
714.582	96.21097
715.015	14.0341
715.448	56.13913
715.881	45.09533
716.313	13.03018
716.746	70.16293
717.178	51.12102
717.61	71.17758
718.043	13.03187
718.475	28.06732
718.907	59.14495
719.339	60.13396
719.77	27.06412
720.202	-18.04498
720.634	64.15464
721.065	17.03973
721.497	69.16594
721.928	19.04602
722.359	21.05073
722.79	50.11803
723.221	16.03936
723.652	21.05283
724.083	46.10194
724.514	64.14443
724.945	47.10842
725.375	78.17875
725.806	37.08996
726.236	78.19527
726.666	25.05829
727.096	35.08449
727.526	50.12702
727.956	72.16142
728.386	47.11341
728.816	39.0986
729.246	79.19114
729.675	-36.08777
730.105	42.10114
730.534	76.17319
730.964	47.1153
731.393	64.15365
731.822	65.16304
732.251	32.08017
732.68	41.09334
733.109	18.04395
733.537	84.20105
733.966	82.20045
734.395	43.09789
734.823	54.11702
735.251	36.08521
735.68	38.0922
736.108	9.02226
736.536	53.12173
736.964	41.09345
737.392	70.17118
737.82	50.11711
738.247	68.1584
738.675	59.13567
739.102	24.05908
739.53	59.14917
739.957	72.18271
740.384	17.04039
740.811	19.04663
741.238	80.19191
741.665	86.19748
742.092	-25.05714
742.519	17.04177
742.945	91.21593
743.372	100.24208
743.798	16.04046
744.225	31.07217
744.651	38.09348
745.077	26.06391
745.503	39.09247
745.929	82.19409
746.355	41.09789
746.781	53.12755
747.207	7.01648
747.632	69.16801
748.058	39.09687
748.483	85.19021
748.908	52.12721
749.334	43.10431
749.759	77.17939
750.184	87.20469
750.609	67.16039
751.033	66.15022
751.458	52.11336
751.883	35.08462
752.307	37.08563
752.732	66.16558
753.156	41.09912
753.58	32.0741
754.005	32.07892
754.429	94.21706
754.853	76.18502
755.277	64.14878
755.7	32.07817
756.124	19.04663
756.548	3.00701
756.971	77.1832
757.394	17.04284
757.818	30.07627
758.241	47.11734
758.664	39.0968
759.087	54.11942
759.51	50.12072
759.933	40.09519
760.356	49.12428
760.778	58.13951
761.201	71.16711
761.623	54.12544
762.046	26.05961
762.468	73.17008
762.89	85.20138
763.312	85.2027
763.734	29.06881
764.156	89.21379
764.578	20.04476
765	42.10037
765.421	6.01516
765.843	32.08233
766.264	61.14066
766.686	1.00245
767.107	26.06194
767.528	32.081
767.949	28.06982
768.37	110.26448
768.791	59.13784
769.212	31.07692
769.632	49.11249
770.053	-12.03102
770.473	9.02135
770.894	44.10571
771.314	43.099
771.734	24.05489
772.154	60.14934
772.575	19.04294
772.994	26.05767
773.414	40.09284
773.834	0
774.254	47.112
774.673	109.25814
775.093	43.10498
775.512	46.11123
775.931	35.0871
776.351	58.14141
776.77	44.10587
777.189	48.11137
777.607	28.07017
778.026	31.07574
778.445	73.18073
778.864	25.06205
779.282	7.01638
779.701	11.02712
780.119	45.11166
780.537	-3.00735
780.955	46.11341
781.373	35.08452
781.791	97.21303
782.209	0
782.627	27.06981
783.045	15.03337
783.462	24.0601
783.88	21.05345
784.297	38.09351
784.715	14.03553
785.132	54.12633
785.549	30.07331
785.966	15.03704
786.383	30.07265
786.8	76.17052
787.217	89.20604
787.633	51.12548
788.05	16.03633
788.466	26.05896
788.883	52.1306
789.299	-20.04677
789.715	81.19139
790.131	54.13068
790.547	45.1092
790.963	39.09418
791.379	14.03473
791.795	35.07674
792.21	9.02044
792.626	51.11634
793.041	5.01207
793.457	32.07656
793.872	2.00456
794.287	42.0993
794.702	-3.00712
795.117	24.0586
795.532	45.11084
795.947	36.08293
796.362	29.06586
796.776	83.1829
797.191	30.07178
797.605	49.11326
798.02	0
798.434	79.16897
798.848	91.21934
799.262	22.05332
799.676	62.14635
800.09	50.11926
800.504	43.10073
800.918	4.00896
801.331	-30.07564
801.745	13.02891
802.158	11.02661
802.572	62.14533
802.985	-7.01639
803.398	1.00232
803.811	31.07588
804.224	-5.01202
804.637	56.12967
805.05	46.10219
805.462	76.17877
805.875	8.02039
806.288	-1.00238
806.7	2.00486
807.112	7.01566
807.525	-4.00949
807.937	13.03146
808.349	58.13946
808.761	35.08401
809.173	74.17366
809.584	23.05495
809.996	-10.02394
810.408	7.0179
810.819	12.02754
811.231	86.22272
811.642	50.12072
812.053	42.0996
812.464	-15.03478
812.875	57.14195
813.286	25.06336
813.697	5.01107
814.108	40.09413
814.519	82.17671
814.929	47.11577
815.34	-10.02345
815.75	22.055
816.16	14.03351
816.571	-5.01267
816.981	-25.05705
817.391	7.01629
817.801	23.05584
818.211	41.0942
818.62	19.04474
819.03	27.06402
819.44	0
819.849	-11.0268
820.259	-14.03468
820.668	-12.02902
821.077	28.06827
821.486	28.06442
821.895	40.09409
822.304	12.03097
822.713	70.15816
823.122	-21.05121
823.531	-14.03189
823.939	47.11122
824.348	87.20117
824.756	56.13454
825.164	65.15673
825.573	29.07069
825.981	32.07639
826.389	63.1522
826.797	53.13074
827.205	45.10041
827.612	46.10896
828.02	14.03171
828.428	28.06913
828.835	30.0774
829.243	5.01149
829.65	24.05845
830.057	-2.0047
830.464	62.14743
830.871	77.17756
831.278	11.02585
831.685	15.03221
832.092	1.00236
832.499	53.11184
832.905	-1.00245
833.312	-6.01302
833.718	44.1068
834.124	27.05977
834.531	44.10603
834.937	17.0426
835.343	6.01393
835.749	14.03115
836.155	34.08643
836.561	60.14229
836.966	22.05189
837.372	22.05406
837.777	23.05582
838.183	46.09751
838.588	13.0316
838.993	49.11506
839.399	31.07373
839.804	9.02137
840.209	24.0601
840.613	16.0343
841.018	18.044
841.423	15.03746
841.828	58.14225
842.232	19.04477
842.637	60.13756
843.041	35.08745
843.445	7.01694
843.849	14.03382
844.253	31.07086
844.657	32.07863
845.061	87.19171
845.465	53.12329
845.869	22.04938
846.272	17.04039
846.676	-21.04862
847.079	36.08944
847.483	64.15301
847.886	50.11587
848.289	41.10766
848.692	2.00489
849.095	29.06695
849.498	49.11788
849.901	24.05259
850.304	42.09652
850.707	-1.00247
851.109	61.14764
851.512	68.16095
851.914	29.0714
852.316	65.16016
852.718	69.17643
853.121	9.02143
853.523	4.00899
853.925	5.01286
854.326	21.05131
854.728	12.03014
855.13	31.0784
855.531	37.08552
855.933	20.04593
856.334	23.05609
856.736	21.04587
857.137	79.17715
857.538	39.09557
857.939	46.11136
858.34	45.10439
858.741	18.04557
859.142	51.11704
859.542	33.08515
859.943	32.07682
860.343	-1.00243
860.744	61.14285
861.144	79.1863
861.544	44.10346
861.945	44.10816
862.345	44.1031
862.745	51.12311
863.145	25.0565
863.544	40.09803
863.944	45.10215
864.344	-31.07424
864.743	94.22223
865.143	55.13761
865.542	-50.11196
865.941	26.06254
866.34	11.02515
866.74	12.03143
867.139	42.09833
867.537	0
867.936	44.10245
868.335	2.00494
868.734	20.04971
869.132	12.02658
869.531	12.02773
869.929	35.07716
870.327	10.02322
870.726	31.07384
871.124	30.06693
871.522	-21.05207
871.92	78.18419
872.318	48.11198
872.715	28.06589
873.113	2.0047
873.511	-10.02417
873.908	6.01499
874.306	70.16863
874.703	12.02881
875.1	18.04397
875.497	-6.01391
875.894	36.08685
876.291	19.04524
876.688	22.05514
877.085	-7.01619
877.482	21.05087
877.878	69.16145
878.275	7.01734
878.671	-17.03548
879.068	81.18656
879.464	21.04902
879.86	42.09548
880.256	2.00471
880.652	-8.01982
881.048	0
881.444	13.02944
881.84	10.02464
882.236	65.15673
882.631	38.09047
883.027	45.10426
883.422	11.02712
883.817	51.12455
884.213	45.11153
884.608	57.13755
885.003	3.00695
885.398	30.07268
885.793	23.05561
886.188	-20.0484
886.582	38.0932
886.977	18.04094
887.371	36.08725
887.766	22.05332
888.16	-23.05498
888.554	53.12494
888.949	27.0655
889.343	38.08886
889.737	9.02361
890.131	26.06311
890.525	85.20983
890.918	9.02196
891.312	48.10898
891.706	11.02799
892.099	54.13181
892.492	-5.01034
892.886	20.04717
893.279	9.0222
893.672	23.05715
894.065	34.08231
894.458	25.06014
894.851	31.07268
895.244	27.0667
895.637	77.17784
896.029	41.09721
896.422	10.02334
896.814	24.05746
897.206	15.03506
897.599	52.12341
897.991	-7.01656
898.383	32.07298
898.775	82.17823
899.167	32.07301
899.559	3.0073
899.951	55.12287
900.342	-18.04418
900.734	27.06646
901.125	25.06312
901.517	1.00239
901.908	-4.00915
902.299	21.04981
902.69	74.16836
903.082	45.10476
903.473	49.11466
903.863	20.04913
904.254	78.1748
904.645	17.04034
905.036	85.20076
905.426	51.10979
905.817	12.02829
906.207	5.01139
906.597	33.07509
906.987	23.05724
907.378	20.04929
907.768	34.08741
908.158	3.00707
908.547	71.17899
908.937	-7.01725
909.327	20.04679
909.717	1.00242
910.106	39.08961
910.495	32.07612
910.885	55.13442
911.274	29.06987
911.663	4.00976
912.052	29.06815
912.441	78.19173
912.83	34.07431
913.219	41.10325
913.608	95.22264
913.997	26.0637
914.385	44.10095
914.774	36.08419
915.162	18.04194
915.55	17.03939
915.939	50.12259
916.327	28.06689
916.715	47.11743
917.103	31.07217
917.491	44.10431
917.878	42.09907
918.266	33.08239
918.654	20.04994
919.041	38.09732
919.429	63.14208
919.816	39.09521
920.203	28.0662
920.591	65.15489
920.978	43.10125
921.365	41.10447
921.752	21.04746
922.139	90.18469
922.525	49.11349
922.912	12.02818
923.299	19.04576
923.685	-9.02266
924.072	21.04534
924.458	14.03375
924.844	-13.03132
925.231	11.02445
925.617	35.08703
926.003	38.09341
926.389	11.02688
926.774	37.09009
927.16	38.09071
927.546	49.12269
927.931	57.13557
928.317	32.07017
928.702	52.11715
929.088	90.20749
929.473	10.02491
929.858	57.13484
930.243	50.11651
930.628	46.10884
931.013	-3.00723
931.398	9.01958
931.783	43.10809
932.167	49.11645
932.552	39.09383
932.937	47.1114
933.321	10.02455
933.705	-27.06562
934.09	13.03111
934.474	-1.00227
934.858	38.09551
935.242	-3.0067
935.626	38.09448
936.009	34.0886
936.393	93.22957
936.777	65.16105
937.16	46.11657
937.544	48.10637
937.927	-20.04982
938.311	67.15517
938.694	85.21643
939.077	10.02314
939.46	19.04397
939.843	-13.02545
940.226	11.02721
940.609	47.1047
940.991	-22.05426
941.374	57.13458
941.757	53.12494
942.139	37.07999
942.522	66.14778
942.904	48.11075
943.286	12.02943
943.668	97.24305
944.05	28.06661
944.432	18.04274
944.814	21.04939
945.196	31.0735
945.578	43.10002
945.959	0
946.341	11.02557
946.722	9.02026
947.104	63.14406
947.485	16.0359
947.866	52.12721
948.247	50.12272
948.628	1.00231
949.009	9.02237
949.39	22.05252
949.771	-10.02194
950.152	38.08991
950.532	1.00246
950.913	28.06491
951.293	16.04246
951.674	56.12977
952.054	82.19821
952.434	93.22051
952.814	21.04752
953.194	39.09719
953.574	41.09657
953.954	2.00454
954.334	45.10904
954.714	22.05205
955.093	34.08044
955.473	78.18889
955.853	25.06271
956.232	-4.01069
956.611	-3.00687
956.99	5.01225
957.37	22.05384
957.749	-25.05698
958.128	21.05153
958.506	27.06797
958.885	8.01949
959.264	44.10519
959.643	26.05726
960.021	28.0675
960.4	-4.00874
960.778	29.0677
961.156	15.03622
961.535	43.09487
961.913	60.13496
962.291	52.13032
962.669	31.0763
963.047	43.10646
963.424	61.15185
963.802	34.08076
964.18	0
964.557	46.10071
964.935	20.04558
965.312	78.19618
965.69	19.0455
966.067	15.03482
966.444	-5.0117
966.821	53.13175
967.198	14.03235
967.575	44.1031
967.952	32.07215
968.329	73.17088
968.705	110.22318
969.082	86.21436
969.458	-10.02364
969.835	50.1167
970.211	58.14488
970.587	27.06503
970.963	-19.04706
971.339	22.05599
971.715	35.08443
972.091	50.11803
972.467	-12.02862
972.843	41.09924
973.219	39.08885
973.594	11.02796
973.97	2.00447
974.345	44.10156
974.721	-22.05092
975.096	32.07521
975.471	73.16416
975.846	-4.00923
976.221	4.00988
976.596	27.0635
976.971	62.14783
977.346	35.07738
977.72	18.04413
978.095	1.00251
978.469	31.07074
978.844	54.12944
979.218	41.09601
979.593	36.08237
979.967	13.02995
980.341	52.11499
980.715	29.07075
981.089	23.05554
981.463	25.05514
981.837	16.03828
982.21	21.04558
982.584	8.01877
982.957	36.08725
983.331	-7.01575
983.704	40.09585
984.078	7.01666
984.451	19.04481
984.824	52.12237
985.197	-43.10022
985.57	-37.08905
985.943	14.03273
986.316	37.0858
986.688	30.06941
987.061	23.05206
987.434	69.17526
987.806	-18.04171
988.179	48.10788
988.551	34.08274
988.923	47.11036
989.295	33.07894
989.667	17.03984
990.039	75.18043
990.411	18.03914
990.783	0
991.155	12.028
991.527	24.05573
991.898	19.046
992.27	43.10341
992.641	31.07441
993.012	-44.09803
993.384	15.03429
993.755	19.04718
994.126	58.13478
994.497	-18.04297
994.868	14.03052
995.239	0
995.61	55.13307
995.98	20.04675
996.351	5.01209
996.722	59.1323
997.092	-4.00922
997.462	76.1713
997.833	38.08547
998.203	28.06422
998.573	30.07235
998.943	36.08147
999.313	52.12012
999.683	27.06261
1000.053	-35.07625
1000.423	58.13366
1000.792	11.0273
1001.162	-18.04272
1001.531	37.08793
1001.901	11.02636
1002.27	-4.00842
1002.639	-4.00984
1003.009	-12.02757
1003.378	30.07423
1003.747	1.00226
1004.116	-8.0185
1004.485	77.175
1004.853	-27.06567
1005.222	-54.13072
1005.591	88.19745
1005.959	41.08875
1006.328	60.12908
1006.696	-7.01627
1007.064	-29.07035
1007.433	22.05258
1007.801	-9.02101
1008.169	-10.02424
1008.537	79.16516
1008.905	1.00227
1009.273	28.06602
1009.64	46.10669
1010.008	15.03435
1010.375	24.05496
1010.743	-5.01076
1011.11	62.14305
1011.478	5.01207
1011.845	26.05831
1012.212	72.15676
1012.579	14.03325
1012.946	31.06989
1013.313	54.12151
1013.68	-7.01507
1014.047	11.02526
1014.414	7.01591
1014.78	42.10079
1015.147	32.0733
1015.513	18.04178
1015.88	49.11945
1016.246	47.10967
1016.612	23.04998
1016.978	65.15334
1017.344	29.06918
1017.71	47.10894
1018.076	27.06037
1018.442	58.14383
1018.808	22.05364
1019.174	-16.03875
1019.539	17.03581
1019.905	30.06834
1020.27	15.03565
1020.636	-7.01599
1021.001	31.07154
1021.366	-16.03746
1021.731	84.20968
1022.096	25.06153
1022.461	32.07289
1022.826	76.1734
1023.191	14.03564
1023.556	55.12216
1023.92	16.03753
1024.285	-26.06092
1024.649	15.03519
1025.014	58.13569
1025.378	59.14323
1025.742	17.04034
1026.107	46.09875
1026.471	74.16276
1026.835	35.08344
1027.199	-2.00467
1027.562	3.00664
1027.926	47.10933
1028.29	-11.02707
1028.654	8.01761
1029.017	98.22944
1029.381	35.08055
1029.744	7.01731
1030.107	67.15086
1030.471	50.11523
1030.834	-50.10868
1031.197	24.05549
1031.56	30.06745
1031.923	11.02762
1032.286	78.17379
1032.648	20.04526
1033.011	71.15731
1033.374	7.01564
1033.736	4.01023
1034.099	16.03764
1034.461	9.02221
1034.823	24.05792
1035.185	36.0863
1035.548	39.09158
1035.91	60.13678
1036.272	50.10914
1036.634	76.17696
1036.995	1.00225
1037.357	48.11256
1037.719	49.11434
1038.08	55.12586
1038.442	5.01142
1038.803	14.03179
1039.165	14.03396
1039.526	-1.00234
1039.887	35.08019
1040.248	70.16786
1040.609	14.03297
1040.97	11.02584
1041.331	75.18296
1041.692	44.10023
1042.053	36.07771
1042.413	29.06425
1042.774	59.13746
1043.134	48.10757
1043.495	51.12293
1043.855	71.1662
1044.215	61.14385
1044.576	28.06484
1044.936	31.06751
1045.296	54.12905
1045.656	1.00234
1046.016	27.06219
1046.375	8.01872
1046.735	44.09714
1047.095	4.00903
1047.454	35.0695
1047.814	47.10825
1048.173	-5.01135
1048.533	51.1113
1048.892	4.00932
1049.251	37.08854
1049.61	8.01905
1049.969	46.10321
1050.328	29.05993
1050.687	-16.03746
1051.046	39.09065
1051.405	23.05453
1051.763	35.07797
1052.122	-6.01448
1052.48	35.08273
1052.839	41.09401
1053.197	32.07207
1053.555	65.1371
1053.914	17.0399
1054.272	-41.0942
1054.63	36.08478
1054.988	20.04618
1055.345	11.02228
1055.703	50.11532
1056.061	42.10537
1056.419	64.16184
1056.776	20.04578
1057.134	-1.00219
1057.491	-17.04138
1057.848	34.08082
1058.206	-9.02008
1058.563	43.08986
1058.92	47.1027
1059.277	45.10641
1059.634	23.05109
1059.991	26.05999
1060.348	37.08023
1060.704	108.24948
1061.061	-7.01535
1061.418	51.11854
1061.774	48.11361
1062.131	5.01306
1062.487	-7.01569
1062.843	44.10519
1063.199	24.05755
1063.555	42.09397
1063.911	-11.02677
1064.267	66.12724
1064.623	54.12707
1064.979	-80.17839
1065.335	10.02278
1065.691	-33.07555
1066.046	24.05021
1066.402	-9.01956
1066.757	30.07301
1067.112	62.14453
1067.468	14.0323
1067.823	-1.00227
1068.178	-9.02089
1068.533	28.06517
1068.888	42.0954
1069.243	11.02621
1069.598	-24.05617
1069.952	22.04863
1070.307	20.04802
1070.662	87.19877
1071.016	63.1362
1071.371	69.14981
1071.725	31.07034
1072.079	8.0186
1072.434	6.01414
1072.788	-8.01813
1073.142	71.16678
1073.496	39.08828
1073.85	49.10802
1074.203	29.06767
1074.557	61.15822
1074.911	18.04094
1075.265	47.10409
1075.618	72.16771
1075.971	27.06151
1076.325	61.14992
1076.678	51.1112
1077.031	-59.12701
1077.385	41.08545
1077.738	11.02374
1078.091	35.07687
1078.444	8.0176
1078.796	43.10192
1079.149	39.0934
1079.502	62.14071
1079.855	25.05599
1080.207	56.13137
1080.56	21.05287
1080.912	38.08848
1081.264	78.17947
1081.617	15.03539
1081.969	26.0637
1082.321	6.01408
1082.673	44.09755
1083.025	-11.02504
1083.377	308.65317
1083.728	31.06877
1084.08	-9.02162
1084.432	18.04156
1084.783	-26.05769
1085.135	13.03164
1085.486	-3.00666
1085.838	40.09493
1086.189	79.18427
1086.54	34.07738
1086.891	65.16075
1087.242	37.08814
1087.593	-27.06273
1087.944	28.06125
1088.295	84.1797
1088.646	81.19072
1088.996	11.02573
1089.347	28.06558
1089.698	17.03914
1090.048	14.03496
1090.398	16.03532
1090.749	29.06586
1091.099	47.11513
1091.449	36.08662
1091.799	42.10095
1092.149	10.02393
1092.499	15.03528
1092.849	-6.01483
1093.199	0
1093.548	76.17591
1093.898	-13.03142
1094.248	13.03196
1094.597	1.00251
1094.947	30.07767
1095.296	32.07647
1095.645	5.01255
1095.994	15.03467
1096.343	50.12127
1096.692	40.1033
1097.041	22.05883
1097.39	10.02408
1097.739	17.04273
1098.088	-1.00259
1098.437	29.07491
1098.785	3.0078
1099.134	-12.0305
1099.482	13.03494
1099.83	31.07879
1100.179	30.07724
1100.527	-20.05122
1100.875	-5.01298
1101.223	33.08545
1101.571	-9.02421
1101.919	51.1316
1102.267	17.04711
1102.615	2.00642
1102.962	5.01603
1103.31	12.0385
1103.658	5.01602
