Data from N1R0 150C sample 12_Subt2__5__13-58-23-612.txt Node

Date: Tue Sep 16 13:58:23 PDT 2025
User: uwsun
Spectrometer: HDX01956
Trigger mode: 0
Integration Time (sec): 5.000000E-1
Scans to average: 1
Nonlinearity correction enabled: true
Boxcar width: 0
Storing dark spectrum: false
XAxis mode: Wavelengths
Number of Pixels in Spectrum: 2068
>>>>>Begin Spectral Data<<<<<
194.03	-14.04073
194.578	4.013
195.127	2.00641
195.676	8.02572
196.225	30.07972
196.773	-12.0336
197.321	-16.04491
197.87	-4.01049
198.418	18.04735
198.966	44.11778
199.513	35.09069
200.061	-11.02871
200.609	12.03232
201.156	14.03152
201.704	30.07702
202.251	19.0515
202.798	33.08709
203.345	54.13601
203.892	22.05682
204.438	24.05825
204.985	29.07048
205.532	-35.09472
206.078	-7.01757
206.624	33.08456
207.17	58.13856
207.716	14.03521
208.262	48.09757
208.808	60.15323
209.354	43.10848
209.899	11.02833
210.445	47.11976
210.99	14.03505
211.535	46.11069
212.08	7.01671
212.625	17.04342
213.17	63.1629
213.715	18.04228
214.259	66.1567
214.804	11.02761
215.348	59.13897
215.892	30.07448
216.436	-17.04004
216.98	29.06519
217.524	50.12182
218.068	33.08492
218.612	55.14207
219.155	46.11081
219.698	35.08494
220.242	-10.02531
220.785	35.08391
221.328	12.03028
221.871	62.15995
222.414	29.07295
222.956	-27.06643
223.499	21.04783
224.041	-4.00937
224.583	37.07944
225.126	34.07597
225.668	44.1084
226.21	37.09508
226.751	68.15339
227.293	7.01619
227.835	15.03748
228.376	30.06938
228.918	15.03799
229.459	-1.00255
230	39.09514
230.541	5.01175
231.082	4.00995
231.622	23.05297
232.163	23.0564
232.704	55.13925
233.244	31.07807
233.784	38.09331
234.324	73.16612
234.864	32.07351
235.404	-2.00481
235.944	21.05031
236.484	67.16861
237.023	10.02404
237.563	38.08977
238.102	30.07211
238.641	47.11938
239.18	21.05023
239.719	20.05088
240.258	-15.0346
240.797	52.12574
241.335	4.00992
241.874	61.12079
242.412	44.10844
242.95	39.09571
243.488	7.01606
244.026	43.1016
244.564	33.06933
245.102	53.12187
245.64	1.00244
246.177	10.0227
246.715	49.11922
247.252	29.06693
247.789	123.22806
248.326	36.08813
248.863	31.06957
249.4	88.20069
249.936	98.20683
250.473	50.1199
251.009	-5.01173
251.546	53.12021
252.082	31.06817
252.618	63.14266
253.154	43.10498
253.69	14.03207
254.226	44.10688
254.761	37.08447
255.297	71.15665
255.832	22.05332
256.367	17.04073
256.903	70.15751
257.438	54.12811
257.972	65.14641
258.507	36.08392
259.042	46.10173
259.576	97.21626
260.111	37.0863
260.645	66.14431
261.179	56.13291
261.713	33.07531
262.247	-39.09183
262.781	22.04747
263.315	-9.02232
263.849	32.08135
264.382	16.0375
264.915	34.08187
265.449	11.02738
265.982	45.10381
266.515	46.11437
267.048	42.09071
267.58	27.0594
268.113	27.05962
268.646	21.05226
269.178	0
269.71	90.20077
270.243	82.19176
270.775	44.11442
271.307	-19.04632
271.838	60.14322
272.37	10.02498
272.902	22.05082
273.433	63.14168
273.965	42.10347
274.496	42.10545
275.027	48.12107
275.558	72.17744
276.089	21.05343
276.62	-18.04642
277.15	40.0997
277.681	-5.01105
278.211	21.05211
278.741	30.06803
279.272	60.13921
279.802	47.11836
280.332	13.03137
280.861	33.08017
281.391	12.02791
281.921	4.00977
282.45	51.12793
282.98	50.13176
283.509	26.06044
284.038	34.07932
284.567	52.12294
285.096	29.07164
285.625	0
286.153	74.1788
286.682	37.08664
287.21	-12.02929
287.739	21.05062
288.267	53.13088
288.795	-11.02934
289.323	37.08851
289.851	63.15024
290.378	14.03194
290.906	-24.06041
291.433	30.07605
291.961	57.13233
292.488	25.06309
293.015	49.11761
293.542	100.25843
294.069	87.21736
294.596	20.0498
295.122	70.16997
295.649	2.0045
296.175	44.10752
296.702	41.10199
297.228	42.10271
297.754	39.0895
298.28	50.11716
298.806	-7.01731
299.332	94.21256
299.857	41.09507
300.383	31.07927
300.908	64.15947
301.433	81.20061
301.958	12.02819
302.483	-17.04324
303.008	95.23804
303.533	11.02892
304.058	-3.00718
304.582	14.03388
305.107	-1.00266
305.631	34.07873
306.155	63.14903
306.679	48.11497
307.203	44.10415
307.727	28.06778
308.251	50.12531
308.775	138.3362
309.298	60.14689
309.822	25.06399
310.345	43.10478
310.868	86.20968
311.391	92.22848
311.914	13.0333
312.437	61.14189
312.96	44.10571
313.482	13.03131
314.005	11.02806
314.527	-2.00531
315.049	80.2046
315.571	40.09218
316.093	71.1781
316.615	43.10509
317.137	28.0627
317.659	29.07175
318.18	31.07543
318.702	65.15495
319.223	11.02318
319.744	28.06471
320.265	38.09451
320.786	68.17238
321.307	0
321.828	22.051
322.348	36.08666
322.869	55.13357
323.389	309.58755
323.909	43.10046
324.43	57.13858
324.95	45.10538
325.47	73.18364
325.989	52.12588
326.509	79.1802
327.029	68.1584
327.548	24.05593
328.067	40.09923
328.587	100.25323
329.106	-15.03502
329.625	43.11379
330.144	55.13071
330.662	69.16512
331.181	93.22255
331.7	20.04778
332.218	69.15313
332.736	56.13393
333.255	66.15851
333.773	26.06301
334.291	69.17538
334.808	31.07194
335.326	53.12197
335.844	75.17982
336.361	84.21911
336.879	76.18232
337.396	83.20542
337.913	73.17215
338.43	46.10656
338.947	40.09796
339.464	41.09122
339.981	49.11891
340.497	57.14288
341.014	66.16391
341.53	53.12265
342.046	86.21809
342.562	43.10949
343.078	81.1942
343.594	36.08784
344.11	87.21192
344.626	73.18732
345.141	55.1291
345.657	93.21445
346.172	61.15036
346.687	59.1387
347.202	100.23257
347.717	47.11487
348.232	103.25957
348.747	82.19334
349.261	70.15784
349.776	85.20588
350.29	66.16844
350.805	109.27233
351.319	73.17335
351.833	63.14874
352.347	88.21167
352.861	115.27361
353.374	45.10525
353.888	84.20899
354.401	88.20434
354.915	57.13248
355.428	107.26984
355.941	34.08153
356.454	47.10769
356.967	28.06727
357.48	25.05854
357.993	102.25405
358.505	45.11202
359.018	116.28735
359.53	79.19645
360.042	97.22171
360.554	116.28724
361.066	52.12938
361.578	114.25652
362.09	58.14125
362.602	115.26095
363.113	120.28622
363.625	139.31924
364.136	66.149
364.647	81.19598
365.158	81.1925
365.669	65.15863
366.18	86.20623
366.691	57.1286
367.201	75.1833
367.712	94.21956
368.222	125.2918
368.733	79.17634
369.243	76.17431
369.753	71.1675
370.263	141.34306
370.773	79.19559
371.282	151.36285
371.792	99.23364
372.301	65.16022
372.811	90.2386
373.32	132.29044
373.829	70.16856
374.338	76.17319
374.847	127.29681
375.356	76.1828
375.865	143.31114
376.373	109.25214
376.882	103.26346
377.39	128.31149
377.898	87.21697
378.407	152.34805
378.915	131.29109
379.423	126.29627
379.93	222.5122
380.438	100.24345
380.946	139.32613
381.453	110.26709
381.96	147.35284
382.468	167.39351
382.975	156.38275
383.482	163.367
383.989	174.44482
384.495	251.57737
385.002	187.39424
385.509	244.5737
386.015	267.53937
386.521	272.60701
387.028	302.66809
387.534	236.49939
388.04	316.73716
388.546	257.55775
389.051	272.5864
389.557	288.64855
390.063	298.65319
390.568	318.73686
391.073	271.58712
391.578	410.94622
392.084	418.89763
392.589	411.84017
393.093	490.08596
393.598	507.07487
394.103	500.09895
394.607	545.20128
395.112	601.33815
395.616	697.50338
396.12	723.45815
396.624	783.61327
397.128	871.80519
397.632	962.9102
398.136	1016.94836
398.639	1071.07766
399.143	1187.38052
399.646	1390.52091
400.15	1533.62202
400.653	1658.68266
401.156	1891.82906
401.659	2258.37584
402.162	2725.29099
402.664	3557.05719
403.167	5294.73995
403.67	10779.52381
404.172	35078.51741
404.674	60392.59371
405.176	63738.15102
405.678	63977.72923
406.18	64011.81569
406.682	63863.44694
407.184	63926.60148
407.686	35932.83336
408.187	15448.8447
408.688	9150.77465
409.19	6253.87705
409.691	4941.93976
410.192	4180.24348
410.693	3598.83138
411.194	3231.18459
411.694	2989.46871
412.195	2745.7213
412.696	2491.29981
413.196	2266.72609
413.696	2185.24616
414.196	2170.8884
414.696	2185.39617
415.196	1946.98423
415.696	1761.71008
416.196	1539.64768
416.695	1223.29029
417.195	1027.05725
417.694	1060.80256
418.194	923.6454
418.693	866.70101
419.192	812.66671
419.691	771.57287
420.19	778.64062
420.688	752.62731
421.187	675.22418
421.685	682.41282
422.184	661.39519
422.682	563.11474
423.18	445.95663
423.678	448.95583
424.176	376.81301
424.674	453.93819
425.172	342.76572
425.669	348.81115
426.167	372.81709
426.664	315.68477
427.161	309.68144
427.659	250.58849
428.156	272.5612
428.652	242.59306
429.149	241.5694
429.646	236.51381
430.143	250.58253
430.639	187.43635
431.135	223.54458
431.632	139.31643
432.128	175.41476
432.624	190.48128
433.12	148.33562
433.616	190.41103
434.111	124.2935
434.607	138.32815
435.103	135.28236
435.598	168.34663
436.093	133.30803
436.588	166.36955
437.083	125.27937
437.578	173.39525
438.073	123.30597
438.568	122.29856
439.062	106.22735
439.557	76.17835
440.051	70.15835
440.546	92.20931
441.04	61.14725
441.534	110.27527
442.028	96.23082
442.522	74.17799
443.015	48.10411
443.509	99.23988
444.002	75.18357
444.496	78.1699
444.989	29.07098
445.482	50.12427
445.975	50.11647
446.468	75.16319
446.961	90.19578
447.454	57.12866
447.947	46.11048
448.439	101.24639
448.931	122.27801
449.424	130.32685
449.916	96.2331
450.408	79.18079
450.9	57.13874
451.392	36.09178
451.884	28.06499
452.375	55.13632
452.867	37.08389
453.358	44.10148
453.849	37.07999
454.341	-3.00689
454.832	72.15596
455.323	82.20342
455.814	48.11035
456.304	21.04908
456.795	50.11472
457.285	34.07553
457.776	8.01847
458.266	52.1237
458.756	-11.02635
459.247	49.11748
459.737	79.19049
460.226	130.29288
460.716	51.12214
461.206	17.04099
461.695	20.04971
462.185	61.1448
462.674	26.05992
463.163	40.0903
463.653	49.10498
464.142	26.06334
464.63	32.07782
465.119	43.10034
465.608	74.17291
466.096	33.07217
466.585	30.06894
467.073	-18.04305
467.561	34.08181
468.05	38.08782
468.538	58.14136
469.026	30.07142
469.513	56.1185
470.001	39.08993
470.489	18.04307
470.976	73.17001
471.463	61.1513
471.951	69.17052
472.438	37.08712
472.925	61.14335
473.412	26.06327
473.899	52.11931
474.385	49.1198
474.872	17.0399
475.359	57.13978
475.845	-15.03164
476.331	27.05792
476.817	41.0998
477.303	46.10702
477.789	-5.01202
478.275	32.0795
478.761	40.09504
479.247	-15.03394
479.732	26.06502
480.218	100.25897
480.703	19.04697
481.188	76.16399
481.673	42.09675
482.158	33.07177
482.643	54.13747
483.128	81.18782
483.612	71.16847
484.097	28.06768
484.581	24.05582
485.066	88.21375
485.55	34.0756
486.034	9.01972
486.518	92.21843
487.002	-19.0467
487.486	-10.0245
487.969	-4.0098
488.453	-9.02258
488.936	14.03177
489.42	30.06673
489.903	7.01751
490.386	-39.08244
490.869	66.14443
491.352	-14.03403
491.835	14.02895
492.318	-6.01365
492.8	30.06259
493.283	19.04863
493.765	-3.00741
494.247	53.12324
494.73	1.00224
495.212	-23.05521
495.694	28.06627
496.175	23.05552
496.657	59.13935
497.139	5.00873
497.62	17.04112
498.102	32.07979
498.583	-59.14746
499.064	22.04938
499.545	-29.06717
500.026	41.09303
500.507	-3.00698
500.988	11.02764
501.469	-54.13679
501.949	32.07912
502.43	18.04362
502.91	87.18366
503.39	-32.08034
503.87	34.08063
504.35	20.04703
504.83	-19.0422
505.31	-9.02191
505.79	-39.09368
506.269	-15.03486
506.749	-28.06499
507.228	-10.02382
507.707	46.10287
508.187	-45.10945
508.666	0
509.145	-11.02603
509.623	-35.08331
510.102	31.0752
510.581	34.08225
511.059	-15.03815
511.538	17.04399
512.016	13.03137
512.494	-27.06579
512.972	6.01449
513.45	-3.00707
513.928	0
514.406	4.00989
514.884	-2.0052
515.361	21.05054
515.839	28.06486
516.316	60.14558
516.793	15.03806
517.27	6.01455
517.747	8.02066
518.224	35.08093
518.701	6.0134
519.178	29.07282
519.654	-10.02396
520.131	24.05971
520.607	-18.04451
521.083	-49.11335
521.56	10.02376
522.036	-25.05539
522.512	48.11856
522.987	40.09661
523.463	-3.00719
523.939	64.15848
524.414	-23.05346
524.89	19.04564
525.365	13.02963
525.84	-3.00729
526.315	7.0171
526.79	23.05225
527.265	-1.00234
527.74	-35.0863
528.215	-2.00472
528.689	-35.07822
529.164	-21.04581
529.638	-48.12366
530.112	-16.03813
530.587	-9.01956
531.061	-14.03431
531.534	10.02429
532.008	25.06112
532.482	14.03246
532.956	-23.05939
533.429	58.14183
533.903	-8.01778
534.376	35.07777
534.849	0
535.322	-10.02389
535.795	-27.06616
536.268	-11.02695
536.741	-51.12349
537.213	-14.03264
537.686	-29.07204
538.158	36.0823
538.631	18.04389
539.103	12.02738
539.575	-2.00418
540.047	16.03522
540.519	8.01929
540.991	6.01476
541.463	-40.09793
541.934	-65.1506
542.406	26.06285
542.877	-27.06204
543.348	-8.01956
543.82	-3.00737
544.291	59.13778
544.762	-28.06778
545.233	10.02555
545.703	3.00676
546.174	-10.02352
546.645	-17.04173
547.115	46.11136
547.585	12.02789
548.056	20.04958
548.526	5.01201
548.996	-8.01938
549.466	-18.04439
549.935	23.05542
550.405	-1.00223
550.875	-18.04344
551.344	-22.05332
551.814	-2.00465
552.283	73.15944
552.752	5.01187
553.221	17.03803
553.69	16.03662
554.159	64.15941
554.628	73.16571
555.096	50.12751
555.565	-21.04738
556.033	84.1999
556.502	12.02926
556.97	45.10082
557.438	36.08508
557.906	34.08079
558.374	56.13034
558.842	66.15821
559.31	52.11701
559.777	58.14204
560.245	29.06709
560.712	15.03474
561.18	41.09145
561.647	9.02023
562.114	70.16055
562.581	102.24924
563.048	16.03706
563.514	122.30298
563.981	60.13778
564.448	73.16504
564.914	47.10963
565.381	128.28932
565.847	78.18133
566.313	36.08405
566.779	90.20185
567.245	37.0862
567.711	54.12954
568.176	77.17266
568.642	102.25488
569.108	82.20082
569.573	54.12529
570.038	63.13218
570.504	93.20931
570.969	63.15598
571.434	144.31525
571.899	90.21236
572.363	124.28142
572.828	208.46515
573.293	71.16274
573.757	145.33169
574.222	122.27081
574.686	144.32655
575.15	168.39671
575.614	199.45831
576.078	91.21268
576.542	170.37986
577.006	90.20277
577.469	124.30142
577.933	129.29081
578.396	114.26784
578.86	84.19713
579.323	143.33971
579.786	135.28949
580.249	184.42419
580.712	111.26744
581.175	114.27825
581.637	87.19789
582.1	97.21052
582.563	72.15323
583.025	113.27247
583.487	147.29846
583.95	55.1185
584.412	129.26825
584.874	63.15369
585.336	69.16367
585.797	117.25252
586.259	82.19138
586.721	67.15726
587.182	70.16138
587.643	75.17039
588.105	90.2117
588.566	112.23202
589.027	169.40595
589.488	127.28841
589.949	145.34684
590.41	145.2835
590.87	145.32728
591.331	162.34806
591.791	113.25963
592.252	134.30843
592.712	117.27762
593.172	103.23305
593.632	234.50361
594.092	86.1913
594.552	170.36131
595.011	150.33822
595.471	178.39527
595.931	201.44235
596.39	208.48601
596.849	212.47996
597.308	164.34294
597.768	220.55151
598.227	230.5353
598.685	235.51804
599.144	281.63525
599.603	249.56154
600.062	288.57952
600.52	327.70087
600.978	331.74186
601.437	358.76681
601.895	372.74717
602.353	362.74722
602.811	451.93906
603.269	498.08308
603.727	455.00846
604.184	524.08315
604.642	606.33564
605.099	579.21441
605.557	634.37233
606.014	643.21523
606.471	672.49485
606.928	771.46473
607.385	844.80788
607.842	755.49071
608.299	829.64391
608.755	854.75458
609.212	919.68975
609.668	958.76822
610.125	1043.03759
610.581	1078.0195
611.037	1064.89404
611.493	1050.97023
611.949	1182.26584
612.405	1233.86202
612.861	1177.09939
613.316	1188.2251
613.772	1211.13152
614.227	1344.43349
614.683	1291.01312
615.138	1315.3214
615.593	1322.29829
616.048	1340.27613
616.503	1299.40571
616.958	1301.50704
617.412	1345.39421
617.867	1383.25626
618.321	1308.95914
618.776	1278.09951
619.23	1313.31306
619.684	1252.10426
620.138	1233.15017
620.592	1227.30791
621.046	1267.28372
621.5	1213.26595
621.954	1149.9613
622.407	1169.98491
622.861	1190.2594
623.314	1097.95345
623.768	1117.08611
624.221	1028.56878
624.674	1049.93895
625.127	1030.92695
625.58	985.78513
626.033	985.72823
626.485	983.92434
626.938	972.89786
627.39	940.80932
627.843	890.70392
628.295	911.73538
628.747	875.74977
629.199	907.70353
629.651	818.58246
630.103	820.58634
630.555	803.41184
631.006	777.54138
631.458	789.5827
631.909	766.4584
632.361	719.43215
632.812	746.4829
633.263	776.42169
633.714	704.27527
634.165	703.46773
634.616	689.42003
635.067	715.35091
635.518	790.59673
635.968	734.20925
636.419	764.41374
636.869	726.48666
637.319	708.42295
637.769	771.47255
638.219	709.45082
638.669	656.36979
639.119	716.48598
639.569	701.4642
640.019	822.60007
640.468	730.40254
640.918	786.58936
641.367	756.44072
641.816	782.46872
642.265	839.64597
642.714	833.60269
643.163	875.68363
643.612	873.80129
644.061	923.59971
644.51	912.72259
644.958	906.63874
645.406	927.83252
645.855	915.84755
646.303	947.78925
646.751	983.84564
647.199	1001.82339
647.647	1021.90679
648.095	1002.83764
648.543	1097.69692
648.99	982.92916
649.438	1071.96398
649.885	1082.17211
650.333	1085.59431
650.78	1103.11962
651.227	1114.16894
651.674	1129.00726
652.121	1098.15284
652.568	1047.07333
653.015	1028.06729
653.461	1061.01728
653.908	1027.88689
654.354	1074.03861
654.801	1044.96086
655.247	989.7072
655.693	989.13184
656.139	1016.96144
656.585	1038.99539
657.031	1030.94683
657.477	1021.76915
657.922	923.7175
658.368	947.92444
658.813	872.6429
659.259	953.90417
659.704	905.78063
660.149	799.55781
660.594	895.76588
661.039	861.63205
661.484	849.68832
661.929	787.5627
662.373	760.64883
662.818	739.58316
663.262	750.56285
663.707	809.76524
664.151	750.57668
664.595	721.512
665.039	675.47142
665.483	704.56932
665.927	662.35789
666.371	702.43292
666.814	679.40691
667.258	647.37336
667.701	579.08711
668.145	648.42474
668.588	615.35522
669.031	588.22925
669.474	562.20748
669.917	572.10854
670.36	612.36014
670.803	563.21924
671.245	482.88601
671.688	587.27399
672.13	541.0946
672.573	547.2469
673.015	559.2085
673.457	541.0481
673.899	557.20828
674.341	484.06105
674.783	502.09041
675.225	538.19449
675.666	464.03975
676.108	510.98892
676.549	438.93611
676.991	464.92465
677.432	486.86286
677.873	419.87981
678.314	468.01513
678.755	432.98348
679.196	421.88479
679.637	419.92513
680.078	490.03627
680.518	383.81486
680.959	409.89966
681.399	381.87879
681.839	392.88342
682.28	417.9595
682.72	364.77427
683.16	398.92292
683.6	408.85464
684.039	336.64496
684.479	365.84256
684.919	393.85685
685.358	331.77503
685.798	303.74788
686.237	322.72184
686.676	299.63699
687.115	355.78057
687.554	334.74997
687.993	327.67634
688.432	320.68484
688.871	343.73453
689.309	336.7557
689.748	286.55932
690.186	272.60299
690.625	267.59573
691.063	288.64988
691.501	293.68607
691.939	295.70398
692.377	262.60423
692.815	341.78185
693.253	317.70873
693.69	249.51756
694.128	259.59862
694.565	283.63403
695.003	322.77588
695.44	284.6364
695.877	337.74162
696.314	246.49068
696.751	271.5806
697.188	309.67316
697.625	232.49437
698.061	236.5395
698.498	216.48882
698.934	250.56851
699.371	267.59573
699.807	284.633
700.243	242.55678
700.679	238.50429
701.115	304.66606
701.551	257.56606
701.987	247.51088
702.422	252.57213
702.858	264.59743
703.294	270.58558
703.729	256.59157
704.164	216.49339
704.599	273.57528
705.035	263.55787
705.47	214.49767
705.904	198.43987
706.339	235.51326
706.774	243.54106
707.209	277.60883
707.643	261.59196
708.078	230.53382
708.512	221.53064
708.946	215.48665
709.38	277.62161
709.814	200.43322
710.248	249.5794
710.682	263.59892
711.116	253.58592
711.549	182.44785
711.983	215.47416
712.416	247.55703
712.85	226.53428
713.283	242.54274
713.716	212.50274
714.149	141.31617
714.582	209.44836
715.015	200.47007
715.448	230.55319
715.881	197.40345
716.313	197.44064
716.746	230.51838
717.178	208.47856
717.61	210.51198
718.043	198.46863
718.475	236.54493
718.907	242.57431
719.339	208.45016
719.77	199.45685
720.202	184.4429
720.634	191.45041
721.065	210.47214
721.497	198.46446
721.928	170.40003
722.359	151.35581
722.79	200.45832
723.221	157.37612
723.652	134.33023
724.083	196.42074
724.514	198.43456
724.945	149.33672
725.375	185.41483
725.806	174.41215
726.236	207.50608
726.666	172.38941
727.096	171.40215
727.526	268.65433
727.956	187.4093
728.386	181.42567
728.816	201.49342
729.246	185.43863
729.675	146.34383
730.105	206.48058
730.534	182.40583
730.964	153.36793
731.393	197.46094
731.822	197.48235
732.251	192.46705
732.68	185.40885
733.109	186.43989
733.537	223.51952
733.966	206.4919
734.395	180.39838
734.823	195.40984
735.251	163.37631
735.68	176.41592
736.108	136.32848
736.536	178.39856
736.964	169.37521
737.392	168.40331
737.82	185.42182
738.247	174.39682
738.675	154.34738
739.102	139.3349
739.53	202.49761
739.957	163.40694
740.384	133.30888
740.811	129.3101
741.238	146.34583
741.665	182.40986
742.092	80.17898
742.519	105.25375
742.945	195.4534
743.372	209.49553
743.798	147.363
744.225	144.32774
744.651	140.33789
745.077	178.42521
745.503	132.30735
745.929	182.42242
746.355	140.3279
746.781	131.3106
747.207	148.33889
747.632	163.3899
748.058	186.44958
748.483	124.27525
748.908	137.32983
749.334	159.37728
749.759	157.36
750.184	166.38453
750.609	164.38531
751.033	159.35506
751.458	158.33669
751.883	122.2901
752.307	162.36557
752.732	149.36821
753.156	139.32982
753.58	146.33041
754.005	89.21719
754.429	182.41288
754.853	139.3344
755.277	151.34499
755.7	122.293
756.124	105.25356
756.548	104.23804
756.971	146.34276
757.394	133.32819
757.818	169.41901
758.241	140.34362
758.664	97.23822
759.087	119.25958
759.51	135.3207
759.933	140.32675
760.356	148.36876
760.778	147.3476
761.201	147.34086
761.623	93.21436
762.046	123.27649
762.468	116.26796
762.89	98.2316
763.312	161.37834
763.734	146.3386
764.156	133.3168
764.578	125.27371
765	134.31459
765.421	93.23126
765.843	100.25422
766.264	87.19957
766.686	102.24487
767.107	141.3285
767.528	107.26723
767.949	92.22673
768.37	153.36486
768.791	87.20213
769.212	75.1846
769.632	119.26936
770.053	105.26593
770.473	77.18024
770.894	78.18619
771.314	93.21197
771.734	92.20753
772.154	94.23251
772.575	101.22443
772.994	38.08407
773.414	80.18422
773.834	47.11436
774.254	66.1567
774.673	94.22326
775.093	116.27933
775.512	55.13277
775.931	97.23866
776.351	97.23477
776.77	108.25671
777.189	87.20029
777.607	74.18391
778.026	69.16738
778.445	105.25843
778.864	61.15042
779.282	100.22972
779.701	59.1442
780.119	96.23598
780.537	49.11896
780.955	103.25126
781.373	96.22916
781.791	128.27928
782.209	53.11596
782.627	65.16696
783.045	58.12789
783.462	55.13697
783.88	83.20894
784.297	72.17607
784.715	53.13357
785.132	30.07051
785.549	65.1578
785.966	86.2096
786.383	83.199
786.8	82.18376
787.217	73.16954
787.633	92.22464
788.05	42.09486
788.466	61.13735
788.883	72.18018
789.299	45.10389
789.715	53.12591
790.131	66.15935
790.547	62.14998
790.963	67.16094
791.379	41.10121
791.795	41.08978
792.21	50.1126
792.626	72.16354
793.041	34.08163
793.457	64.15219
793.872	16.03639
794.287	62.14601
794.702	11.02605
795.117	112.26898
795.532	53.13035
795.947	56.12849
796.362	13.02962
796.776	70.15467
797.191	85.20123
797.605	51.11784
798.02	60.14119
798.434	84.17947
798.848	129.30869
799.262	34.08222
799.676	85.19975
800.09	52.12398
800.504	34.07979
800.918	34.07566
801.331	-27.06804
801.745	50.11034
802.158	24.05792
802.572	92.21438
802.985	41.09511
803.398	51.11727
803.811	15.03682
804.224	9.02157
804.637	42.09752
805.05	48.10659
805.462	30.0712
805.875	37.09381
806.288	56.13173
806.7	25.06051
807.112	4.00895
807.525	49.11506
807.937	-4.00971
808.349	12.0291
808.761	49.1173
809.173	27.06394
809.584	43.10235
809.996	-35.0842
810.408	18.04594
810.819	-11.02537
811.231	50.13029
811.642	38.09196
812.053	28.06658
812.464	-8.01852
812.875	54.13455
813.286	50.12616
813.697	7.01549
814.108	64.1499
814.519	90.19362
814.929	59.145
815.34	-19.04463
815.75	33.08233
816.16	15.0359
816.571	19.04793
816.981	43.09678
817.391	13.03022
817.801	21.051
818.211	-1.00232
818.62	35.08215
819.03	37.08756
819.44	-6.01505
819.849	-6.01461
820.259	25.06149
820.668	57.13604
821.077	52.12621
821.486	3.00694
821.895	-20.04759
822.304	24.06181
822.713	56.12689
823.122	4.00971
823.531	-6.01365
823.939	34.08066
824.348	44.10261
824.756	37.08922
825.164	50.1209
825.573	-1.00245
825.981	52.12365
826.389	81.19501
826.797	84.20602
827.205	20.04486
827.612	-6.01436
828.02	-16.03646
828.428	7.01735
828.835	-13.03379
829.243	30.06858
829.65	17.04146
830.057	36.08399
830.464	26.06225
830.871	50.11592
831.278	20.04692
831.685	7.01506
832.092	31.07265
832.499	54.11392
832.905	-15.03685
833.312	49.10512
833.718	60.14519
834.124	70.15357
834.531	-2.00486
834.937	38.09486
835.343	9.02089
835.749	23.05109
836.155	19.04843
836.561	15.03588
836.966	28.06597
837.372	28.06873
837.777	63.15174
838.183	12.02563
838.588	47.1135
838.993	73.17061
839.399	58.13723
839.804	-19.04536
840.209	51.1271
840.613	60.12741
841.018	-28.06903
841.423	13.03248
841.828	44.1082
842.232	10.02361
842.637	55.12622
843.041	8.02009
843.445	-12.02914
843.849	22.05306
844.253	65.14755
844.657	50.12245
845.061	112.24551
845.465	5.01174
845.869	25.05608
846.272	-21.05025
846.676	25.05735
847.079	55.13617
847.483	70.16716
847.886	52.12046
848.289	84.21896
848.692	18.04392
849.095	41.09443
849.498	37.08922
849.901	16.03512
850.304	47.1079
850.707	-8.01982
851.109	45.10924
851.512	28.06679
851.914	43.1056
852.316	62.15285
852.718	5.01293
853.121	52.12279
853.523	2.0045
853.925	38.09718
854.326	6.0147
854.728	19.04766
855.13	-2.00509
855.531	24.05562
855.933	12.0276
856.334	5.01223
856.736	98.21056
857.137	58.13062
857.538	14.03446
857.939	18.0438
858.34	40.09288
858.741	30.07578
859.142	1.00232
859.542	35.09028
859.943	17.04093
860.343	-8.01945
860.744	36.08472
861.144	54.12796
861.544	55.12905
861.945	-17.04226
862.345	60.14015
862.745	65.15649
863.145	28.06324
863.544	7.01726
863.944	23.05244
864.344	-1.00238
864.743	42.10029
865.143	14.03529
865.542	-20.04451
865.941	27.06493
866.34	-2.00459
866.74	14.03666
867.139	27.0634
867.537	-3.00736
867.936	48.11168
868.335	21.05167
868.734	15.03731
869.132	-51.11446
869.531	13.03004
869.929	19.04203
870.327	18.04173
870.726	21.05012
871.124	4.00897
871.522	-8.01979
871.92	45.10694
872.318	-6.01415
872.715	8.0189
873.113	34.07942
873.511	4.00964
873.908	26.06474
874.306	24.05832
874.703	-1.00241
875.1	-35.08634
875.497	17.03923
875.894	43.10361
876.291	5.01194
876.688	-3.00755
877.085	19.04371
877.482	4.00972
877.878	45.10579
878.275	0
878.671	-40.0839
879.068	45.10439
879.464	17.03972
879.86	13.02973
880.256	8.01881
880.652	44.10796
881.048	3.00713
881.444	23.05198
881.84	14.03446
882.236	81.19472
882.631	46.10934
883.027	26.06047
883.422	-7.01732
883.817	-13.03213
884.213	-9.02253
884.608	52.1256
885.003	-16.0372
885.398	12.02917
885.793	15.03632
886.188	-16.03869
886.582	34.08345
886.977	-2.00457
887.371	-7.0171
887.766	7.01701
888.16	-6.01429
888.554	27.06397
888.949	34.08237
889.343	53.12358
889.737	-23.06066
890.131	33.07999
890.525	57.14143
890.918	-14.0343
891.312	7.01603
891.706	-10.02554
892.099	26.06379
892.492	47.09604
892.886	33.07764
893.279	12.02958
893.672	18.04477
894.065	55.13262
894.458	-25.06071
894.851	61.14217
895.244	-2.00497
895.637	60.13904
896.029	58.13707
896.422	34.07898
896.814	8.01921
897.206	0
897.599	24.05727
897.991	20.04706
898.383	21.048
898.775	55.12023
899.167	-13.02993
899.559	38.09192
899.951	46.10296
900.342	4.00978
900.734	5.01236
901.125	43.10821
901.517	34.08066
901.908	5.01141
902.299	22.05217
902.69	40.09163
903.082	57.13238
903.473	77.17918
903.863	2.00493
904.254	51.11493
904.645	20.04743
905.036	55.13066
905.426	0
905.817	-6.0142
906.207	-72.16659
906.597	86.1936
906.987	20.0498
907.378	33.08113
907.768	10.02582
908.158	0
908.547	8.0204
908.937	7.01721
909.327	41.09552
909.717	-6.01456
910.106	-5.01159
910.495	-28.06737
910.885	49.11989
911.274	20.04827
911.663	37.08972
912.052	0
912.441	55.13577
912.83	22.0482
913.219	21.05307
913.608	37.0877
913.997	0
914.385	53.12139
914.774	38.08883
915.162	28.06512
915.55	34.07851
915.939	21.05176
916.327	-3.00721
916.715	80.19868
917.103	36.08372
917.491	23.05474
917.878	37.08736
918.266	31.07742
918.654	34.08469
919.041	45.11511
919.429	-6.01372
919.816	-3.00738
920.203	44.1037
920.591	55.13131
920.978	45.10591
921.365	56.14231
921.752	-5.01136
922.139	26.05413
922.525	1.00234
922.912	46.10732
923.299	27.06493
923.685	-23.05807
924.072	-41.0897
924.458	39.09358
924.844	16.03834
925.231	-33.07403
925.617	6.015
926.003	33.08119
926.389	42.10206
926.774	-5.01227
927.16	24.05744
927.546	82.20409
927.931	26.06221
928.317	44.09625
928.702	80.1792
929.088	84.19389
929.473	73.17974
929.858	18.0429
930.243	11.02583
930.628	6.01431
931.013	29.0695
931.398	25.05421
931.783	23.05803
932.167	54.12821
932.552	72.17213
932.937	13.03101
933.321	27.06609
933.705	-13.03151
934.09	-28.06753
934.474	7.01589
934.858	-2.00506
935.242	-8.01789
935.626	28.06974
936.009	24.06265
936.393	71.17598
936.777	16.04
937.16	58.14666
937.544	-4.00896
937.927	46.1132
938.311	45.10468
938.694	52.13318
939.077	34.07829
939.46	-4.0093
939.843	47.09072
940.226	34.08376
940.609	41.09145
940.991	-33.08155
941.374	29.06884
941.757	8.01902
942.139	-2.00436
942.522	29.06543
942.904	75.17212
943.286	21.05142
943.668	62.15633
944.05	32.07606
944.432	-26.06225
944.814	28.06576
945.196	1.00238
945.578	39.09079
945.959	20.04462
946.341	1.00233
946.722	41.09167
947.104	18.04153
947.485	21.04707
947.866	19.04676
948.247	45.11055
948.628	-47.10972
949.009	5.01244
949.39	-23.05537
949.771	-11.02414
950.152	46.10867
950.532	37.0904
950.913	14.03255
951.293	19.0504
951.674	33.07682
952.054	50.12159
952.434	35.08391
952.814	27.06102
953.194	-28.07063
953.574	-1.00237
953.954	9.0204
954.334	66.15929
954.714	29.06852
955.093	30.07104
955.473	13.03187
955.853	10.02515
956.232	16.0426
956.611	-4.00916
956.99	28.06829
957.37	-16.03943
957.749	-11.025
958.128	52.12688
958.506	9.02273
958.885	38.09206
959.264	53.12649
959.643	63.13766
960.021	56.13429
960.4	10.02179
960.778	-3.00705
961.156	-12.02913
961.535	-24.0537
961.913	39.0881
962.291	-14.0355
962.669	18.04441
963.047	23.05715
963.424	50.12472
963.802	9.02148
964.18	-6.01449
964.557	60.13097
964.935	58.13115
965.312	58.1464
965.69	17.04073
966.067	-4.00932
966.444	14.03265
966.821	1.00251
967.198	34.07826
967.575	10.02359
967.952	63.14115
968.329	21.04966
968.705	112.22714
969.082	64.16016
969.458	21.04935
969.835	47.10976
970.211	33.08281
970.587	48.11515
970.963	28.06875
971.339	-18.04613
971.715	28.06763
972.091	30.07109
972.467	-7.01668
972.843	69.16612
973.219	68.15402
973.594	5.01272
973.97	25.05557
974.345	54.1244
974.721	5.01151
975.096	54.12638
975.471	44.09954
975.846	-4.00923
976.221	20.04924
976.596	20.0471
976.971	109.25754
977.346	12.02666
977.72	12.02945
978.095	29.0724
978.469	38.08659
978.844	40.09614
979.218	19.04468
979.593	60.13662
979.967	41.09394
980.341	20.04452
980.715	66.15989
981.089	19.04592
981.463	-10.02222
981.837	50.11885
982.21	14.03043
982.584	64.14855
982.957	34.08243
983.331	9.02018
983.704	80.19023
984.078	23.05458
984.451	7.01655
984.824	15.03555
985.197	4.00924
985.57	-45.10847
985.943	23.05367
986.316	3.007
986.688	37.08549
987.061	55.12369
987.434	73.18528
987.806	9.02075
988.179	-10.02274
988.551	47.1141
988.923	16.0378
989.295	36.08607
989.667	27.06315
990.039	77.18517
990.411	-34.07475
990.783	6.01311
991.155	-4.00936
991.527	17.03953
991.898	50.12036
992.27	43.10341
992.641	65.15501
993.012	-1.00221
993.384	7.01603
993.755	16.03975
994.126	63.14626
994.497	-5.01191
994.868	20.04354
995.239	35.08122
995.61	33.08017
995.98	28.06535
996.351	19.04581
996.722	26.0587
997.092	35.08006
997.462	11.02512
997.833	24.05414
998.203	46.10512
998.573	-5.01214
998.943	41.09269
999.313	42.09722
999.683	42.0971
1000.053	-23.04998
1000.423	-7.01634
1000.792	-47.11789
1001.162	-3.0071
1001.531	33.07849
1001.901	11.02636
1002.27	43.08958
1002.639	13.03189
1003.009	-22.05064
1003.378	38.09389
1003.747	7.01583
1004.116	7.01614
1004.485	-19.04402
1004.853	14.03379
1005.222	-29.06987
1005.591	60.1354
1005.959	9.01962
1006.328	41.08856
1006.696	9.02085
1007.064	3.00723
1007.433	-11.02645
1007.801	19.04411
1008.169	9.02174
1008.537	50.1052
1008.905	54.12111
1009.273	31.07305
1009.64	11.02569
1010.008	25.05714
1010.375	26.05951
1010.743	54.11472
1011.11	96.22
1011.478	39.09354
1011.845	42.09389
1012.212	25.05497
1012.579	41.09688
1012.946	29.0654
1013.313	35.07906
1013.68	44.09368
1014.047	1.0023
1014.414	25.05661
1014.78	45.10793
1015.147	36.0824
1015.513	64.1472
1015.88	49.11945
1016.246	-4.00943
1016.612	20.04349
1016.978	29.06889
1017.344	29.06918
1017.71	42.09745
1018.076	21.04701
1018.442	61.15119
1018.808	55.13327
1019.174	-18.04361
1019.539	26.05466
1019.905	42.09544
1020.27	-24.05746
1020.636	25.05673
1021.001	89.20302
1021.366	45.1041
1021.731	86.21459
1022.096	21.05173
1022.461	74.16713
1022.826	45.10331
1023.191	50.12648
1023.556	69.15281
1023.92	20.04688
1024.285	3.00699
1024.649	-3.00706
1025.014	-2.00473
1025.378	36.08777
1025.742	-17.0406
1026.107	4.00866
1026.471	35.07761
1026.835	42.09999
1027.199	-1.00233
1027.562	9.01989
1027.926	7.01641
1028.29	-2.00491
1028.654	55.11988
1029.017	48.11348
1029.381	7.0162
1029.744	44.10808
1030.107	35.07932
1030.471	34.0786
1030.834	3.00645
1031.197	45.1036
1031.56	8.01807
1031.923	13.03263
1032.286	51.11427
1032.648	-15.03419
1033.011	37.08256
1033.374	2.00447
1033.736	31.07893
1034.099	17.03998
1034.461	84.20442
1034.823	30.07232
1035.185	-12.02903
1035.548	-1.00237
1035.91	7.01613
1036.272	38.08316
1036.634	50.11702
1036.995	26.0581
1037.357	8.01891
1037.719	49.11434
1038.08	96.21788
1038.442	43.09745
1038.803	0
1039.165	7.017
1039.526	64.14773
1039.887	7.01613
1040.248	47.1132
1040.609	21.04939
1040.97	22.05157
1041.331	81.19738
1041.692	58.13174
1042.053	54.11612
1042.413	30.06645
1042.774	60.13976
1043.134	33.07418
1043.495	6.01459
1043.855	68.15927
1044.215	8.01906
1044.576	35.08093
1044.936	33.07183
1045.296	72.17147
1045.656	31.07222
1046.016	62.1418
1046.375	14.03273
1046.735	75.16451
1047.095	37.08293
1047.454	75.14754
1047.814	76.17403
1048.173	20.04517
1048.533	52.11346
1048.892	-16.03742
1049.251	-16.03867
1049.61	-19.04548
1049.969	14.03162
1050.328	68.13929
1050.687	-15.03511
1051.046	11.02571
1051.405	-13.03104
1051.763	61.13515
1052.122	0
1052.48	8.01901
1052.839	81.18424
1053.197	19.0429
1053.555	10.02135
1053.914	17.0399
1054.272	-5.01141
1054.63	12.02839
1054.988	77.17578
1055.345	55.11029
1055.703	60.13811
1056.061	43.10786
1056.419	40.10158
1056.776	-3.0069
1057.134	-47.10374
1057.491	-3.00728
1057.848	-16.0384
1058.206	20.04436
1058.563	5.01054
1058.92	40.08753
1059.277	47.1111
1059.634	11.02449
1059.991	71.16235
1060.348	28.06083
1060.704	29.06804
1061.061	17.03708
1061.418	48.11163
1061.774	24.05707
1062.131	44.11415
1062.487	39.08659
1062.843	36.0862
1063.199	22.05278
1063.555	42.09397
1063.911	46.11077
1064.267	65.12534
1064.623	10.02373
1064.979	-75.16707
1065.335	20.04547
1065.691	-10.02279
1066.046	46.09576
1066.402	2.00434
1066.757	31.07543
1067.112	35.08203
1067.468	9.02079
1067.823	-51.11685
1068.178	13.03005
1068.533	50.11587
1068.888	41.09315
1069.243	27.06414
1069.598	-5.01166
1069.952	16.03541
1070.307	8.01925
1070.662	39.08997
1071.016	23.05015
1071.371	48.10468
1071.725	47.1063
1072.079	6.01395
1072.434	6.01414
1072.788	-13.02949
1073.142	43.10156
1073.496	-9.02057
1073.85	48.10584
1074.203	64.14831
1074.557	23.06005
1074.911	49.11073
1075.265	50.11066
1075.618	66.15392
1075.971	44.0999
1076.325	32.07907
1076.678	-7.01545
1077.031	-16.03412
1077.385	26.05437
1077.738	8.01728
1078.091	43.09428
1078.444	-8.01766
1078.796	42.09957
1079.149	39.0934
1079.502	16.03665
1079.855	13.02919
1080.207	14.03311
1080.56	-24.0609
1080.912	50.11615
1081.264	31.072
1081.617	51.11948
1081.969	11.02702
1082.321	1.00235
1082.673	20.04456
1083.025	17.03848
1083.377	5.0113
1083.728	53.11704
1084.08	-4.0096
1084.432	-10.02322
1084.783	-10.02211
1085.135	51.12325
1085.486	44.09673
1085.838	31.0737
1086.189	38.08935
1086.54	40.09093
1086.891	27.06724
1087.242	57.13525
1087.593	-17.03942
1087.944	42.0916
1088.295	43.09281
1088.646	73.17215
1088.996	8.01872
1089.347	-14.03306
1089.698	52.11888
1090.048	16.03994
1090.398	-10.0222
1090.749	-17.03897
1091.099	32.0786
1091.449	36.08662
1091.799	-6.01455
1092.149	-6.0144
1092.499	24.05634
1092.849	43.10533
1093.199	27.06451
1093.548	41.09556
1093.898	36.0862
1094.248	-47.11683
1094.597	14.03509
1094.947	24.0622
1095.296	44.10491
1095.645	1.00251
1095.994	53.12158
1096.343	6.01467
1096.692	24.06215
1097.041	29.07746
1097.39	11.02648
1097.739	8.02014
1098.088	9.02324
1098.437	35.09031
1098.785	14.03633
1099.134	-5.01269
1099.482	36.0964
1099.83	29.07374
1100.179	-1.00259
1100.527	-30.07697
1100.875	25.06458
1101.223	49.12652
1101.571	-25.06742
1101.919	45.11624
1102.267	19.05263
1102.615	6.01926
1102.962	-2.00642
1103.31	5.01606
1103.658	-6.01925
