Data from N1R0 150C sample 4_Subt2__1__14-47-26-046.txt Node

Date: Tue Sep 16 14:47:26 PDT 2025
User: uwsun
Spectrometer: HDX01956
Trigger mode: 0
Integration Time (sec): 5.000000E-1
Scans to average: 1
Nonlinearity correction enabled: true
Boxcar width: 0
Storing dark spectrum: false
XAxis mode: Wavelengths
Number of Pixels in Spectrum: 2068
>>>>>Begin Spectral Data<<<<<
194.03	-3.00871
194.578	2.0065
195.127	-4.01283
195.676	10.03214
196.225	-5.01336
196.773	14.03904
197.321	12.03354
197.87	35.09116
198.418	21.05522
198.966	28.07515
199.513	61.15735
200.061	24.06226
200.609	68.18148
201.156	29.06508
201.704	15.03861
202.251	48.1295
202.798	20.0529
203.345	37.09348
203.892	53.13614
204.438	0
204.985	33.08014
205.532	17.04562
206.078	27.06736
206.624	110.27805
207.17	108.25553
207.716	21.05275
208.262	81.16341
208.808	88.22363
209.354	64.16085
209.899	42.1076
210.445	42.10711
210.99	37.09224
211.535	94.22412
212.08	18.04287
212.625	25.06377
213.17	100.25691
213.715	88.20385
214.259	81.19176
214.804	47.11721
215.348	120.2793
215.892	90.22098
216.436	23.05375
216.98	39.08749
217.524	104.25081
218.068	66.16885
218.612	102.26132
219.155	70.16786
219.698	63.15208
220.242	27.06787
220.785	65.15495
221.328	74.18465
221.871	95.24368
222.414	76.18957
222.956	16.03905
223.499	52.11768
224.041	14.03268
224.583	37.07944
225.126	16.03589
225.668	41.10106
226.21	56.14342
226.751	74.16672
227.293	68.15533
227.835	83.20481
228.376	23.05327
228.918	7.01775
229.459	86.21576
230	97.23407
230.541	59.13724
231.082	69.16958
231.622	76.17319
232.163	50.122
232.704	68.17177
233.244	26.06554
233.784	77.1877
234.324	113.25505
234.864	44.10083
235.404	22.05268
235.944	77.1825
236.484	91.22801
237.023	55.13106
237.563	84.19667
238.102	37.08881
238.641	54.13699
239.18	21.05023
239.719	27.0686
240.258	49.11159
240.797	47.11376
241.335	78.19074
241.874	108.21151
242.412	99.24151
242.95	47.11517
243.488	35.07984
244.026	93.21761
244.564	109.22515
245.102	70.16042
245.64	36.08715
246.177	45.1014
246.715	91.21967
247.252	30.06922
247.789	99.18466
248.326	71.17269
248.863	61.13605
249.4	52.11945
249.936	122.25613
250.473	94.22352
251.009	88.20264
251.546	97.21805
252.082	18.03969
252.618	71.16052
253.154	86.20827
253.69	101.22732
254.226	113.27092
254.761	53.1206
255.297	33.07339
255.832	96.22942
256.367	86.20332
256.903	89.19949
257.438	78.18419
257.972	82.18406
258.507	35.08161
259.042	101.22079
259.576	117.25976
260.111	28.06543
260.645	114.24673
261.179	81.19131
261.713	80.18083
262.247	35.08122
262.781	96.20386
263.315	74.18076
263.849	55.13925
264.382	66.15319
264.915	112.26571
265.449	32.07936
265.982	45.10381
266.515	139.33971
267.048	74.15872
267.58	82.17831
268.113	70.15318
268.646	14.03488
269.178	50.11339
269.71	119.26387
270.243	95.22159
270.775	92.23727
271.307	23.05563
271.838	77.1832
272.37	50.12399
272.902	36.08293
273.433	91.20347
273.965	58.14247
274.496	106.26306
275.027	108.26949
275.558	118.28834
276.089	75.18901
276.62	36.09197
277.15	85.21013
277.681	79.1716
278.211	48.11851
278.741	78.17516
279.272	80.18488
279.802	62.15572
280.332	99.235
280.861	69.1665
281.391	50.11541
281.921	60.14498
282.45	58.1453
282.98	89.23299
283.509	112.25594
284.038	65.15072
284.567	93.21812
285.096	74.1813
285.625	42.0961
286.153	125.29912
286.682	80.18576
287.21	35.08468
287.739	65.15537
288.267	59.14554
288.795	46.12155
289.323	44.10511
289.851	71.16906
290.378	44.09978
290.906	74.18297
291.433	64.16126
291.961	125.28628
292.488	41.10318
293.015	68.16263
293.542	117.30148
294.069	70.17543
294.596	82.20186
295.122	96.23196
295.649	101.22247
296.175	108.26076
296.702	95.23399
297.228	34.08327
297.754	128.2885
298.28	120.27731
298.806	49.11994
299.332	92.20812
299.857	89.20441
300.383	95.24018
300.908	73.18159
301.433	82.20305
301.958	91.21051
302.483	84.20983
303.008	130.32367
303.533	67.1745
304.058	38.09022
304.582	82.19589
305.107	59.15529
305.631	94.21507
306.155	118.27616
306.679	97.23017
307.203	131.30484
307.727	81.19413
308.251	76.18957
308.775	149.36225
309.298	68.16623
309.822	43.10972
310.345	126.30226
310.868	81.19767
311.391	99.24555
311.914	120.3016
312.437	99.22856
312.96	86.20497
313.482	68.16207
314.005	32.08132
314.527	64.1682
315.049	109.27734
315.571	141.31838
316.093	118.29348
316.615	88.21327
317.137	118.25931
317.659	98.23938
318.18	70.16907
318.702	148.34718
319.223	77.15991
319.744	129.29212
320.265	104.25555
320.786	122.30629
321.307	106.26363
321.828	150.33891
322.348	93.22144
322.869	143.34154
323.389	432.79687
323.909	89.20604
324.43	95.22933
324.95	87.20205
325.47	153.37934
325.989	146.34717
326.509	100.22714
327.029	129.29687
327.548	118.26987
328.067	133.32432
328.587	156.39108
329.106	72.1652
329.625	146.37965
330.144	170.39504
330.662	159.37393
331.181	161.38026
331.7	120.28117
332.218	161.35046
332.736	153.35912
333.255	153.36136
333.773	138.32739
334.291	170.42434
334.808	172.38798
335.326	155.34942
335.844	190.44552
336.361	181.46426
336.879	199.46617
337.396	212.51222
337.913	186.42897
338.43	147.33369
338.947	160.38309
339.464	173.37434
339.981	144.3432
340.497	141.34806
341.014	168.40944
341.53	175.39515
342.046	257.6318
342.562	161.40136
343.078	172.40521
343.594	151.36051
344.11	218.51796
344.626	200.50174
345.141	171.39226
345.657	249.55626
346.172	175.42227
346.687	189.43302
347.202	281.63007
347.717	177.42209
348.232	226.55693
348.747	196.45186
349.261	171.3776
349.776	214.50572
350.29	263.64774
350.805	185.45582
351.319	211.48769
351.833	237.54059
352.347	212.49788
352.861	175.41156
353.374	210.47524
353.888	226.54769
354.401	202.45844
354.915	247.55247
355.428	249.61191
355.941	216.49994
356.454	230.50755
356.967	221.51141
357.48	243.54465
357.993	239.58039
358.505	172.41825
359.018	272.65444
359.53	282.67515
360.042	217.48398
360.554	294.70414
361.066	250.59946
361.578	283.61469
362.09	260.60917
362.602	260.57255
363.113	275.63636
363.625	235.52932
364.136	303.65084
364.647	303.70225
365.158	260.59651
365.669	250.58895
366.18	284.65522
366.691	248.53764
367.201	302.70672
367.712	367.81102
368.222	363.80754
368.733	297.63301
369.243	332.72218
369.753	284.64216
370.263	334.78312
370.773	271.64721
371.282	321.74632
371.792	349.78348
372.301	312.73383
372.811	368.9297
373.32	351.73671
373.829	319.73171
374.338	371.79483
374.847	369.82123
375.356	364.82737
375.865	452.91874
376.373	438.94664
376.882	434.04264
377.39	449.02442
377.898	403.94688
378.407	495.05304
378.915	492.00915
379.423	483.05418
379.93	614.30351
380.438	484.09088
380.946	540.16512
381.453	540.20241
381.96	611.33402
382.468	629.34613
382.975	664.47216
383.482	624.27004
383.989	776.76831
384.495	774.59149
385.002	738.36621
385.509	819.70639
386.015	937.60261
386.521	881.7163
387.028	941.80215
387.534	1010.77545
388.04	1082.13831
388.546	999.82432
389.051	1094.94258
389.557	1188.1794
390.063	1248.18725
390.568	1311.4352
391.073	1378.28358
391.578	1459.66051
392.084	1537.51223
392.589	1484.30675
393.093	1637.77301
393.598	1835.79123
394.103	1971.02335
394.607	2174.20181
395.112	2301.37018
395.616	2471.38459
396.12	2654.12843
396.624	2910.32842
397.128	3176.46356
397.632	3516.276
398.136	3860.03114
398.639	4087.08418
399.143	4450.29328
399.646	5057.62617
400.15	5687.16031
400.653	6256.81981
401.156	6891.67445
401.659	8126.52171
402.162	9796.21282
402.664	13005.90025
403.167	18598.88486
403.67	34191.0752
404.172	60279.42653
404.674	63858.43483
405.176	63738.15102
405.678	63977.72923
406.18	64011.81569
406.682	63863.44694
407.184	63926.60148
407.686	63841.39382
408.187	59717.99505
408.688	34833.67099
409.19	24026.57075
409.691	19141.09023
410.192	16253.85771
410.693	13993.62277
411.194	12656.16028
411.694	12047.1491
412.195	11043.16196
412.696	10026.83853
413.196	9232.86966
413.696	8919.39689
414.196	8965.34938
414.696	8763.24869
415.196	8413.63927
415.696	7608.83912
416.196	6241.97333
416.695	4889.6673
417.195	4113.20917
417.694	4006.37452
418.194	3705.57135
418.693	3462.1012
419.192	3306.31607
419.691	3240.23915
420.19	3192.44432
420.688	3119.56836
421.187	2983.56998
421.685	2800.23281
422.184	2470.24032
422.682	2220.77796
423.18	1863.80633
423.678	1677.63775
424.176	1516.48516
424.674	1493.38191
425.172	1395.44551
425.669	1285.43731
426.167	1221.20162
426.664	1115.00983
427.161	1098.01881
427.659	906.8565
428.156	906.60297
428.652	862.86468
429.149	789.66274
429.646	812.54987
430.143	781.62643
430.639	754.56006
431.135	724.5993
431.632	612.25745
432.128	658.41099
432.624	568.33871
433.12	528.10265
433.616	529.05952
434.111	494.08301
434.607	505.11345
435.103	482.9306
435.598	447.86447
436.093	454.98415
436.588	412.87026
437.083	427.89463
437.578	430.93135
438.073	349.83217
438.568	432.99578
439.062	380.76676
439.557	356.78951
440.051	296.63868
440.546	290.63325
441.04	330.75587
441.534	298.72024
442.028	350.80071
442.522	258.5988
443.015	255.52861
443.509	272.63753
444.002	281.66132
444.496	238.50076
444.989	286.6664
445.482	271.64622
445.975	251.56142
446.468	242.50783
446.961	249.52333
447.454	221.48208
447.947	278.63806
448.439	310.72658
448.931	257.56962
449.424	311.75632
449.916	272.63852
450.408	231.51243
450.9	177.42112
451.392	198.49028
451.884	194.43546
452.375	196.47321
452.867	224.48852
453.358	203.45332
453.849	196.4093
454.341	198.43621
454.832	165.3503
455.323	220.53195
455.814	174.38992
456.304	211.47468
456.795	201.44718
457.285	165.35657
457.776	223.49262
458.266	174.40418
458.756	152.3528
459.247	178.41624
459.737	202.4757
460.226	220.4865
460.716	167.39106
461.206	161.3776
461.695	142.34504
462.185	170.39504
462.674	204.45338
463.163	173.37993
463.653	185.3847
464.142	167.39611
464.63	158.37512
465.119	144.32933
465.608	204.46448
466.096	143.30545
466.585	145.32554
467.073	103.24063
467.561	147.34611
468.05	172.38687
468.538	139.33363
469.026	155.36012
469.513	108.22594
470.001	111.25228
470.489	167.38815
470.976	156.35735
471.463	150.36598
471.951	111.27219
472.438	145.33422
472.925	97.22635
473.412	110.26348
473.899	129.2914
474.385	135.32477
474.872	96.22185
475.359	133.32154
475.845	164.33229
476.331	95.20081
476.817	154.36689
477.303	140.31967
477.789	69.16354
478.275	92.22606
478.761	70.16536
479.247	103.22744
479.732	82.20298
480.218	148.38009
480.703	68.1666
481.188	94.20205
481.673	95.21653
482.158	113.24158
482.643	133.33385
483.128	139.3186
483.612	167.38891
484.097	87.20795
484.581	50.11569
485.066	136.32737
485.55	126.2748
486.034	99.21284
486.518	179.41784
487.002	58.14051
487.486	67.1618
487.969	70.16914
488.453	58.14373
488.936	83.18573
489.42	68.15006
489.903	86.21202
490.386	-43.09097
490.869	116.25116
491.352	71.16984
491.835	102.20676
492.318	89.1985
492.8	64.13252
493.283	42.10707
493.765	21.05167
494.247	73.16907
494.73	66.14577
495.212	9.02147
495.694	61.14346
496.175	59.14146
496.657	103.2412
497.139	64.11
497.62	82.19589
498.102	79.1953
498.583	4.00988
499.064	53.11821
499.545	83.18795
500.026	88.19777
500.507	42.09683
500.988	81.20098
501.469	33.0823
501.949	52.12811
502.43	56.13475
502.91	45.09587
503.39	17.0423
503.87	74.17414
504.35	84.19505
504.83	41.08993
505.31	30.07249
505.79	-17.04067
506.269	3.00695
506.749	14.03223
507.228	78.18262
507.707	37.0829
508.187	35.08385
508.666	60.14825
509.145	36.08442
509.623	52.1217
510.102	68.16381
510.581	68.16344
511.059	69.17289
511.538	27.06974
512.016	56.13403
512.494	29.06993
512.972	65.15519
513.45	1.00236
513.928	26.06349
514.406	45.11043
514.884	54.13898
515.361	53.12678
515.839	77.17663
516.316	44.10708
516.793	34.08598
517.27	25.0604
517.747	30.07718
518.224	59.13578
518.701	15.03344
519.178	29.07282
519.654	35.08315
520.131	21.05228
520.607	-4.00987
521.083	-55.12738
521.56	6.01427
522.036	20.0439
522.512	68.16734
522.987	45.10859
523.463	33.07852
523.939	92.22665
524.414	1.00231
524.89	31.0743
525.365	5.01141
525.84	38.09161
526.315	22.0536
526.79	24.05451
527.265	38.08817
527.74	-15.03685
528.215	-14.03309
528.689	21.04639
529.164	14.03031
529.638	-5.01279
530.112	-41.09819
530.587	28.06037
531.061	21.05113
531.534	39.09422
532.008	21.05138
532.482	50.11509
532.956	-10.02576
533.429	57.13941
533.903	26.05738
534.376	13.02902
534.849	12.02783
535.322	22.05223
535.795	-35.08589
536.268	53.12833
536.741	-10.02403
537.213	46.10597
537.686	26.06393
538.158	32.07322
538.631	8.01954
539.103	24.05462
539.575	12.02499
540.047	29.06366
540.519	24.05768
540.991	69.16776
541.463	33.07969
541.934	-37.08525
542.406	31.07486
542.877	5.01141
543.348	11.02679
543.82	-1.00246
544.291	31.07279
544.762	1.00241
545.233	9.023
545.703	41.09171
546.174	-18.04241
546.645	12.0293
547.115	39.09454
547.585	-19.04442
548.056	64.15738
548.526	34.08122
548.996	-15.03639
549.466	-26.06422
549.935	15.0362
550.405	10.02226
550.875	-13.03135
551.344	-38.09237
551.814	-6.01396
552.283	-13.02891
552.752	-30.07172
553.221	57.12645
553.69	65.14731
554.159	1.00252
554.628	52.11854
555.096	18.04616
555.565	-1.00225
556.033	39.09361
556.502	-12.02939
556.97	17.03831
557.438	-10.02384
557.906	-7.01676
558.374	33.07716
558.842	-13.03163
559.31	16.03627
559.777	10.02471
560.245	-7.01631
560.712	-31.07245
561.18	-11.0248
561.647	-23.05204
562.114	-28.06548
562.581	9.02237
563.048	-3.00698
563.514	56.14075
563.981	-13.03029
564.448	-7.01608
564.914	-3.00707
565.381	3.00695
565.847	-22.05215
566.313	-19.04484
566.779	5.01141
567.245	-76.181
567.711	-45.10998
568.176	-69.15936
568.642	-14.03572
569.108	-3.00746
569.573	-55.13036
570.038	-24.05132
570.504	0
570.969	-43.10852
571.434	1.00226
571.899	-3.00721
572.363	-21.04906
572.828	38.08796
573.293	-29.0678
573.757	-7.0165
574.222	-69.15924
574.686	6.01399
575.15	-40.09825
575.614	73.17235
576.078	-44.10555
576.542	-41.0956
577.006	-36.0832
577.469	0
577.933	26.05985
578.396	-41.09924
578.86	0
579.323	39.0945
579.786	-4.00883
580.249	35.08308
580.712	-34.08416
581.175	-36.09032
581.637	-38.08862
582.1	-40.08934
582.563	-42.0916
583.025	-41.10173
583.487	-36.07615
583.95	-36.07908
584.412	-6.01285
584.874	-4.00988
585.336	-25.06037
585.797	-7.01551
586.259	5.01185
586.721	-29.06934
587.182	-42.09899
587.643	-15.0347
588.105	-5.01198
588.566	-36.07705
589.027	-4.00992
589.488	7.01628
589.949	14.03432
590.41	-58.11886
590.87	52.1196
591.331	62.13608
591.791	-29.06852
592.252	-1.00236
592.712	-16.03894
593.172	-16.03708
593.632	81.18006
594.092	-11.02496
594.552	10.02199
595.011	-56.13157
595.471	3.0069
595.931	16.03658
596.39	1.00243
596.849	-17.04028
597.308	-9.01954
597.768	25.06487
598.227	2.00486
598.685	-3.00694
599.144	40.09486
599.603	-23.05474
600.062	37.07876
600.52	28.06388
600.978	27.06429
601.437	5.01153
601.895	39.08435
602.353	-1.00223
602.811	103.23106
603.269	47.11217
603.727	18.04359
604.184	42.09633
604.642	69.16933
605.099	55.12885
605.557	64.15552
606.014	43.09332
606.471	50.12562
606.928	72.16022
607.385	103.25594
607.842	96.21903
608.299	86.20024
608.755	78.18833
609.212	117.25868
609.668	120.26814
610.125	116.27658
610.581	93.21676
611.037	102.22698
611.493	134.30831
611.949	135.32428
612.405	129.25988
612.861	113.25724
613.316	125.29569
613.772	153.34421
614.227	197.46112
614.683	117.24547
615.138	174.3989
615.593	102.23478
616.048	191.42564
616.503	141.33663
616.958	156.38317
617.412	207.47731
617.867	151.3319
618.321	192.38528
618.776	155.33481
619.23	171.39147
619.684	185.40201
620.138	154.34539
620.592	149.35464
621.046	258.58552
621.5	116.27562
621.954	101.22125
622.407	168.36282
622.861	173.41002
623.314	207.45384
623.768	176.40559
624.221	148.28546
624.674	163.36821
625.127	178.40332
625.58	141.3107
626.033	186.39514
626.485	168.3924
626.938	136.31828
627.39	123.2834
627.843	119.27046
628.295	141.31903
628.747	169.39342
629.199	105.23632
629.651	140.31503
630.103	110.24914
630.555	142.29325
631.006	105.24115
631.458	127.2939
631.909	67.14937
632.361	79.18093
632.812	107.24457
633.263	127.27104
633.714	95.19905
634.165	91.21593
634.616	62.1459
635.067	106.23039
635.518	77.18116
635.968	87.16937
636.419	147.31427
636.869	123.28645
637.319	105.24057
637.769	121.26775
638.219	125.28984
638.669	89.20939
639.119	65.15459
639.569	36.08633
640.019	57.13123
640.468	94.20848
640.918	73.17182
641.367	50.11173
641.816	114.24957
642.265	74.17149
642.714	59.13475
643.163	88.2015
643.612	103.2493
644.061	81.17197
644.51	75.1708
644.958	66.1451
645.406	27.06464
645.855	59.14253
646.303	31.07174
646.751	89.204
647.199	93.20854
647.647	42.09749
648.095	42.09571
648.543	68.13727
648.99	79.18825
649.438	2.00466
649.885	68.16845
650.333	101.19373
650.78	22.0533
651.227	94.22747
651.674	55.12516
652.121	51.12474
652.568	57.13905
653.015	-5.01245
653.461	82.19319
653.908	25.05753
654.354	36.08567
654.801	28.06576
655.247	34.07371
655.693	23.05982
656.139	35.08347
656.585	57.13546
657.031	57.13343
657.477	74.16064
657.922	64.1446
658.368	51.12479
658.813	37.08406
659.259	95.22759
659.704	113.26389
660.149	45.10352
660.594	85.19967
661.039	46.10461
661.484	51.12032
661.929	33.0771
662.373	31.0777
662.818	34.08395
663.262	19.04604
663.707	81.20398
664.151	96.231
664.595	40.09654
665.039	58.14304
665.483	15.03821
665.927	86.19953
666.371	61.14273
666.814	24.05705
667.258	67.16033
667.701	72.15229
668.145	97.23813
668.588	72.17685
669.031	40.09387
669.474	49.11703
669.917	-1.00221
670.36	84.20732
670.803	105.24992
671.245	-8.01652
671.688	71.1712
672.13	72.16155
672.573	51.12802
673.015	32.07706
673.457	74.15961
673.899	53.12746
674.341	99.235
674.783	36.08607
675.225	66.1611
675.666	88.21279
676.108	34.07343
676.549	14.03266
676.991	15.03301
677.432	65.12805
677.873	9.0206
678.314	57.13468
678.755	76.18544
679.196	18.04118
679.637	46.10947
680.078	75.17329
680.518	47.1073
680.959	16.03809
681.399	60.14721
681.839	58.13961
682.28	65.16004
682.72	-1.0023
683.16	83.20444
683.6	106.23686
684.039	34.07003
684.479	44.10804
684.919	72.16765
685.358	-9.02247
685.798	29.07517
686.237	58.13707
686.676	21.04744
687.115	91.21118
687.554	91.21451
687.993	56.12286
688.432	70.1579
688.871	119.26717
689.309	83.19634
689.748	102.20818
690.186	33.07679
690.625	88.20361
691.063	51.12064
691.501	73.17828
691.939	92.22806
692.377	48.11541
692.815	115.27561
693.253	44.1039
693.69	84.18102
694.128	73.17495
694.565	58.13595
695.003	117.29284
695.44	62.14527
695.877	104.24005
696.314	92.19008
696.751	94.20909
697.188	56.12854
697.625	48.10637
698.061	67.15837
698.498	56.13085
698.934	41.09718
699.371	69.16025
699.807	63.14684
700.243	93.22034
700.679	100.21828
701.115	137.31074
701.551	58.13308
701.987	55.11865
702.422	102.23862
702.858	90.21088
703.294	173.38297
703.729	91.21718
704.164	107.24978
704.599	99.2166
705.035	71.15691
705.47	63.15087
705.904	103.23334
706.339	118.26411
706.774	135.30732
707.209	127.28794
707.643	127.29588
708.078	120.28458
708.512	78.19237
708.946	89.20662
709.38	125.28927
709.814	93.20605
710.248	118.28167
710.682	157.36519
711.116	117.27827
711.549	71.17829
711.983	140.3136
712.416	184.4203
712.85	105.25404
713.283	162.3693
713.716	119.28726
714.149	89.2017
714.582	149.32378
715.015	100.23962
715.448	164.39939
715.881	138.28639
716.313	104.23709
716.746	157.35913
717.178	76.17947
717.61	149.3674
718.043	112.26949
718.475	151.35456
718.907	167.40206
719.339	114.25168
719.77	158.36571
720.202	90.22049
720.634	171.40481
721.065	90.20733
721.497	198.46446
721.928	99.23618
722.359	96.22863
722.79	177.40749
723.221	105.25404
723.652	133.32783
724.083	156.33777
724.514	141.31318
724.945	126.28608
725.375	145.32781
725.806	157.37311
726.236	191.46835
726.666	169.38285
727.096	146.34503
727.526	223.54904
727.956	175.384
728.386	149.3526
728.816	194.47685
729.246	214.50454
729.675	122.28865
730.105	146.34463
730.534	171.38218
730.964	155.3726
731.393	182.4271
731.822	213.51997
732.251	207.50212
732.68	182.40247
733.109	221.51912
733.537	218.50837
733.966	203.48501
734.395	233.50997
734.823	200.41988
735.251	186.42743
735.68	239.55789
736.108	195.46572
736.536	279.61168
736.964	216.47486
737.392	257.60649
737.82	240.54113
738.247	250.56137
738.675	251.55493
739.102	227.53778
739.53	274.66599
739.957	278.6795
740.384	257.58218
740.811	197.46744
741.238	253.58685
741.665	298.65512
742.092	201.43845
742.519	251.58981
742.945	295.67233
743.372	263.61704
743.798	284.68356
744.225	281.62177
744.651	234.55469
745.077	245.57773
745.503	256.58145
745.929	272.62004
746.355	237.54451
746.781	214.49924
747.207	271.60515
747.632	310.72061
748.058	315.74276
748.483	301.64348
748.908	291.68005
749.334	320.73562
749.759	294.65555
750.184	311.69962
750.609	306.69894
751.033	250.54776
751.458	321.65977
751.883	254.58859
752.307	244.54137
752.732	279.67293
753.156	283.65279
753.58	300.65757
754.005	275.64771
754.429	334.73425
754.853	237.55952
755.277	270.60205
755.7	286.66535
756.124	252.59158
756.548	273.60357
756.971	307.69797
757.394	280.67215
757.818	254.61993
758.241	306.72784
758.664	267.63497
759.087	255.54019
759.51	226.52744
759.933	260.59245
760.356	269.65543
760.778	254.58812
761.201	250.56782
761.623	276.61288
762.046	218.48047
762.468	287.64034
762.89	250.57334
763.312	276.63398
763.734	262.59363
764.156	252.5865
764.578	279.59103
765	294.66856
765.421	232.56223
765.843	270.66559
766.264	243.53994
766.686	256.59651
767.107	220.50455
767.528	299.72061
767.949	225.54086
768.37	259.60504
768.791	215.48685
769.212	209.50164
769.632	211.46865
770.053	197.49074
770.473	231.52435
770.894	186.43478
771.314	227.50334
771.734	220.48325
772.154	194.47103
772.575	246.53012
772.994	197.42134
773.414	213.47741
773.834	192.45443
774.254	234.53752
774.673	239.55175
775.093	195.46251
775.512	181.42649
775.931	235.56339
776.351	219.51783
776.77	214.49826
777.189	205.46081
777.607	214.51822
778.026	220.51848
778.445	184.44625
778.864	173.41776
779.282	162.36751
779.701	152.36504
780.119	179.43323
780.537	136.32476
780.955	163.39317
781.373	161.37952
781.791	226.48284
782.209	138.2965
782.627	143.3623
783.045	132.28654
783.462	124.30491
783.88	151.37548
784.297	176.42204
784.715	117.29147
785.132	119.27484
785.549	128.30706
785.966	156.37522
786.383	138.32739
786.8	148.32715
787.217	172.39162
787.633	134.32463
788.05	184.4035
788.466	172.37845
788.883	153.37726
789.299	142.32149
789.715	174.4037
790.131	104.2493
790.547	162.38447
790.963	145.34313
791.379	155.37458
791.795	136.29182
792.21	130.28797
792.626	72.16354
793.041	138.32473
793.457	139.32575
793.872	91.2038
794.287	168.38746
794.702	119.27593
795.117	85.20519
795.532	107.26054
795.947	101.22964
796.362	88.19745
796.776	151.32799
797.191	128.3005
797.605	78.17925
798.02	144.3333
798.434	155.32606
798.848	149.35519
799.262	104.24816
799.676	139.3232
800.09	111.26166
800.504	113.26109
800.918	61.13498
801.331	7.01753
801.745	77.16896
802.158	73.17455
802.572	116.26903
802.985	93.21351
803.398	104.23661
803.811	59.14366
804.224	78.18448
804.637	80.18436
805.05	88.19379
805.462	105.24559
805.875	72.18142
806.288	94.21947
806.7	29.07014
807.112	47.10426
807.525	61.1429
807.937	96.22872
808.349	69.16556
808.761	103.24403
809.173	113.26316
809.584	101.23772
809.996	14.03337
810.408	62.157
810.819	63.14313
811.231	118.30389
811.642	116.27658
812.053	66.15579
812.464	39.08946
812.875	90.22278
813.286	82.20572
813.697	62.13562
814.108	46.10812
814.519	121.25857
814.929	75.18378
815.34	-4.00937
815.75	87.21492
816.16	22.05258
816.571	36.09055
816.981	30.0677
817.391	53.12221
817.801	44.1064
818.211	73.16665
818.62	81.18842
819.03	24.05694
819.44	27.06734
819.849	19.04604
820.259	58.14178
820.668	41.09815
821.077	48.11659
821.486	47.10773
821.895	56.13132
822.304	47.12056
822.713	30.06834
823.122	37.08925
823.531	-12.02732
823.939	85.19967
824.348	39.09104
824.756	52.12503
825.164	82.19709
825.573	54.13102
825.981	73.17289
826.389	42.10187
826.797	134.3256
827.205	70.15538
827.612	30.07128
828.02	27.06099
828.428	28.06913
828.835	62.15906
829.243	47.10708
829.65	23.05602
830.057	56.13013
830.464	51.12153
830.871	105.24077
831.278	25.05859
831.685	31.06633
832.092	41.0959
832.499	88.18426
832.905	26.06339
833.312	8.01731
833.718	64.15476
834.124	83.18159
834.531	44.10603
834.937	33.08245
835.343	22.05092
835.749	82.1799
836.155	14.03572
836.561	56.13291
836.966	59.13816
837.372	19.04671
837.777	23.05582
838.183	71.14969
838.588	50.12068
838.993	97.22563
839.399	28.06663
839.804	0
840.209	68.16894
840.613	37.07896
841.018	27.06589
841.423	57.14128
841.828	35.08621
842.232	17.04007
842.637	35.08064
843.041	48.11964
843.445	-12.02914
843.849	25.06026
844.253	23.05266
844.657	40.09814
845.061	122.26686
845.465	40.09328
845.869	12.02699
846.272	6.01428
846.676	-45.10468
847.079	58.14352
847.483	88.20942
847.886	64.1479
848.289	39.10244
848.692	-11.02698
849.095	33.07613
849.498	60.14405
849.901	32.07
850.304	-1.00232
850.707	28.0689
851.109	52.12607
851.512	62.14692
851.914	16.03949
852.316	28.06946
852.718	74.18905
853.121	62.14613
853.523	1.00225
853.925	57.14529
854.326	59.14312
854.728	66.16415
855.13	41.10351
855.531	26.06023
855.933	47.10734
856.334	49.11891
856.736	84.18102
857.137	46.10385
857.538	51.12469
857.939	68.16393
858.34	33.07673
858.741	-1.00254
859.142	14.03237
859.542	49.12609
859.943	68.16213
860.343	14.0339
860.744	40.09405
861.144	29.06905
861.544	62.14527
861.945	46.11303
862.345	42.09845
862.745	73.17549
863.145	31.06997
863.544	29.07122
863.944	29.06604
864.344	40.09449
864.743	59.14043
865.143	54.13514
865.542	-31.06914
865.941	62.14811
866.34	26.05927
866.74	14.03666
867.139	43.10066
867.537	19.0464
867.936	60.13926
868.335	18.04431
868.734	9.02241
869.132	-4.00889
869.531	10.02312
869.929	19.04203
870.327	30.06938
870.726	22.0525
871.124	55.12206
871.522	27.06636
871.92	73.17255
872.318	12.02819
872.715	29.06823
873.113	33.0771
873.511	9.02168
873.908	19.04737
874.306	72.17338
874.703	-6.01445
875.1	-8.01964
875.497	25.0576
875.894	49.11793
876.291	21.04998
876.688	13.03263
877.085	38.08708
877.482	23.05569
877.878	25.059
878.275	22.05434
878.671	-14.0292
879.068	32.07442
879.464	41.09533
879.86	12.02744
880.256	18.04224
880.652	11.02715
881.048	-17.04057
881.444	-10.02275
881.84	18.04428
882.236	52.12569
882.631	91.21443
883.027	26.06047
883.422	20.04924
883.817	19.04668
884.213	-3.0075
884.608	120.28611
885.003	-3.00696
885.398	30.07268
885.793	13.03149
886.188	-12.029
886.582	15.03695
886.977	20.04547
887.371	36.08725
887.766	-10.02438
888.16	-23.05498
888.554	25.05925
888.949	25.06067
889.343	14.03289
889.737	-9.02368
890.131	15.03648
890.525	42.1045
890.918	52.12584
891.312	27.06156
891.706	2.0051
892.099	35.08573
892.492	59.12023
892.886	19.04482
893.279	14.0345
893.672	15.03733
894.065	44.10632
894.458	-19.04609
894.851	36.08432
895.244	-2.00497
895.637	52.1207
896.029	46.10896
896.422	41.09511
896.814	23.05508
897.206	49.11376
897.599	82.19349
897.991	51.11929
898.383	10.02291
898.775	69.15039
899.167	40.09111
899.559	53.12784
899.951	52.11624
900.342	8.01954
900.734	35.08602
901.125	9.02279
901.517	53.12528
901.908	-6.01373
902.299	22.05217
902.69	88.19964
903.082	43.10014
903.473	43.10073
903.863	28.06868
904.254	77.17259
904.645	16.03797
905.036	72.17048
905.426	64.13739
905.817	-4.00946
906.207	-37.08501
906.597	42.0954
906.987	-25.06276
907.378	53.12982
907.768	31.07974
908.158	21.04933
908.547	41.10392
908.937	7.01721
909.327	15.03513
909.717	12.02902
910.106	28.06448
910.495	-16.03841
910.885	30.07366
911.274	-7.01698
911.663	37.08972
912.052	43.10077
912.441	57.14066
912.83	45.09812
913.219	32.08072
913.608	39.0924
913.997	9.02212
914.385	57.13044
914.774	19.04458
915.162	57.1318
915.55	59.13556
915.939	10.0247
916.327	37.08824
916.715	30.07518
917.103	-12.02817
917.491	25.05948
917.878	42.09907
918.266	0
918.654	57.14138
919.041	40.10241
919.429	20.0455
919.816	56.13628
920.203	42.09903
920.591	0
920.978	19.04495
921.365	28.07151
921.752	-13.02958
922.139	52.10763
922.525	44.10201
922.912	38.08879
923.299	-12.02907
923.685	-23.05807
924.072	0
924.458	42.10072
924.844	-29.07009
925.231	3.00668
925.617	27.06724
926.003	41.10073
926.389	22.05366
926.774	21.05129
927.16	72.17075
927.546	44.11027
927.931	40.09545
928.317	23.05053
928.702	35.07913
929.088	102.23459
929.473	81.19914
929.858	40.09493
930.243	51.11882
930.628	36.08534
931.013	5.01204
931.398	38.08217
931.783	-18.04574
932.167	36.08577
932.552	7.01694
932.937	56.1325
933.321	26.06365
933.705	2.00483
934.09	-3.0072
934.474	29.06554
934.858	24.06047
935.242	-13.0291
935.626	24.05982
936.009	28.07304
936.393	91.22472
936.777	34.08472
937.16	39.09895
937.544	37.08218
937.927	15.03712
938.311	41.09545
938.694	85.21643
939.077	12.02775
939.46	7.01624
939.843	54.10405
940.226	-19.04726
940.609	78.17264
940.991	0
941.374	22.05229
941.757	36.08514
942.139	39.08428
942.522	42.09451
942.904	50.11532
943.286	49.11936
943.668	50.12634
944.05	15.03577
944.432	5.0119
944.814	7.01651
945.196	9.02143
945.578	17.03975
945.959	-28.06308
946.341	-3.00699
946.722	7.01576
947.104	32.07363
947.485	45.10037
947.866	25.06146
948.247	67.16393
948.628	-18.04178
949.009	1.00249
949.39	14.03347
949.771	-29.06388
950.152	37.08756
950.532	76.18433
950.913	58.13366
951.293	33.08733
951.674	51.11831
952.054	44.10712
952.434	8.01928
952.814	22.04977
953.194	-5.01256
953.574	65.15239
953.954	22.04973
954.334	79.1902
954.714	24.05676
955.093	90.21063
955.473	30.07331
955.853	37.09261
956.232	-8.02139
956.611	-8.01833
956.99	39.09493
957.37	1.00246
957.749	-10.02272
958.128	34.08324
958.506	29.07298
958.885	9.02192
959.264	45.10756
959.643	60.13119
960.021	60.14377
960.4	-6.01312
960.778	29.0677
961.156	-34.08287
961.535	31.06857
961.913	26.05889
962.291	16.04036
962.669	19.04687
963.047	57.14076
963.424	70.17397
963.802	3.00717
964.18	28.06717
964.557	61.13312
964.935	42.09528
965.312	39.09878
965.69	52.12375
966.067	14.03251
966.444	4.00935
966.821	32.07985
967.198	26.05994
967.575	53.12397
967.952	44.09897
968.329	80.18701
968.705	58.11908
969.082	43.10802
969.458	30.07038
969.835	1.00236
970.211	8.02016
970.587	42.10087
970.963	29.07119
971.339	58.14666
971.715	62.14879
972.091	46.10867
972.467	-7.01668
972.843	52.1256
973.219	38.08659
973.594	-17.04342
973.97	25.05557
974.345	19.04407
974.721	-11.02541
975.096	64.14949
975.471	45.10178
975.846	-1.00231
976.221	16.03942
976.596	72.16784
976.971	41.09815
977.346	48.10584
977.72	19.04658
978.095	1.00251
978.469	34.07754
978.844	75.17906
979.218	16.03765
979.593	-16.03699
979.967	-36.08376
980.341	45.09966
980.715	48.11668
981.089	17.0411
981.463	16.03535
981.837	35.08344
982.21	26.05637
982.584	1.00235
982.957	-3.00732
983.331	1.00225
983.704	62.14794
984.078	20.04749
984.451	15.0354
984.824	13.03082
985.197	-28.06507
985.57	-29.06969
985.943	19.04437
986.316	37.0858
986.688	91.208
987.061	57.12813
987.434	54.13752
987.806	0
988.179	1.00227
988.551	37.08999
988.923	4.00947
989.295	58.13808
989.667	84.19428
990.039	112.26755
990.411	6.01308
990.783	7.01529
991.155	23.05354
991.527	4.00932
991.898	36.08689
992.27	32.07712
992.641	26.06247
993.012	-40.08905
993.384	0
993.755	19.04718
994.126	59.13708
994.497	21.04975
994.868	34.07381
995.239	29.06738
995.61	20.04871
995.98	-31.07319
996.351	58.13882
996.722	83.1852
997.092	3.00691
997.462	-9.02064
997.833	36.08101
998.203	-20.04631
998.573	47.11299
998.943	64.14401
999.313	40.09262
999.683	31.07183
1000.053	-18.03907
1000.423	-16.03742
1000.792	22.0545
1001.162	17.04007
1001.531	50.11853
1001.901	9.02158
1002.27	25.05229
1002.639	-31.07667
1003.009	44.09994
1003.378	1.00249
1003.747	70.15629
1004.116	20.04598
1004.485	32.07339
1004.853	-20.04858
1005.222	-29.06987
1005.591	25.05682
1005.959	19.04132
1006.328	43.09285
1006.696	-27.063
1007.064	23.05525
1007.433	5.01199
1007.801	7.01629
1008.169	0
1008.537	60.12597
1008.905	81.18066
1009.273	43.10109
1009.64	40.09288
1010.008	46.1047
1010.375	-1.0023
1010.743	10.02145
1011.11	127.28923
1011.478	73.17395
1011.845	53.11821
1012.212	48.10504
1012.579	14.03325
1012.946	9.02038
1013.313	22.04983
1013.68	37.0789
1014.047	8.01838
1014.414	7.01591
1014.78	54.1293
1015.147	-24.0556
1015.513	28.06486
1015.88	39.09525
1016.246	6.01411
1016.612	61.13148
1016.978	65.15334
1017.344	26.06206
1017.71	81.18648
1018.076	26.05815
1018.442	31.07726
1018.808	55.13327
1019.174	16.03851
1019.539	-11.02331
1019.905	25.057
1020.27	31.07345
1020.636	7.01594
1021.001	43.099
1021.366	7.01632
1021.731	75.18752
1022.096	42.10305
1022.461	59.13366
1022.826	23.05304
1023.191	-1.00255
1023.556	27.06032
1023.92	7.01645
1024.285	-11.0257
1024.649	16.03753
1025.014	31.07291
1025.378	37.09019
1025.742	22.05215
1026.107	24.05177
1026.471	50.11053
1026.835	33.0787
1027.199	18.04185
1027.562	-14.03109
1027.926	44.10241
1028.29	31.07571
1028.654	34.07443
1029.017	76.1787
1029.381	30.06911
1029.744	14.03458
1030.107	70.15751
1030.471	52.11979
1030.834	-10.02155
1031.197	55.12637
1031.56	-1.00226
1031.923	-24.06065
1032.286	78.17379
1032.648	26.05877
1033.011	71.15731
1033.374	42.09319
1033.736	16.04085
1034.099	12.02825
1034.461	24.05906
1034.823	25.06033
1035.185	26.06244
1035.548	36.08458
1035.91	30.06881
1036.272	62.13499
1036.634	52.12165
1036.995	35.07806
1037.357	40.09394
1037.719	42.09814
1038.08	100.22677
1038.442	34.0772
1038.803	-39.0895
1039.165	-26.06353
1039.526	26.06047
1039.887	46.10516
1040.248	46.11081
1040.609	-31.07364
1040.97	15.03521
1041.331	79.19258
1041.692	91.20531
1042.053	39.08414
1042.413	29.06425
1042.774	74.1719
1043.134	15.03384
1043.495	42.10141
1043.855	63.1477
1044.215	5.01192
1044.576	34.07864
1044.936	23.05017
1045.296	32.0768
1045.656	0
1046.016	23.05302
1046.375	7.01639
1046.735	58.12767
1047.095	-2.00452
1047.454	-1.002
1047.814	45.10368
1048.173	6.01359
1048.533	38.08316
1048.892	24.05568
1049.251	27.06473
1049.61	28.06643
1049.969	-7.01588
1050.328	60.12313
1050.687	44.1018
1051.046	65.1503
1051.405	17.04035
1051.763	58.12859
1052.122	-23.05567
1052.48	28.06627
1052.839	65.14833
1053.197	29.06535
1053.555	29.06165
1053.914	23.05392
1054.272	-22.05036
1054.63	30.07073
1054.988	38.08743
1055.345	-3.0061
1055.703	79.18115
1056.061	44.11035
1056.419	51.12926
1056.776	24.05489
1057.134	-2.00437
1057.491	32.07717
1057.848	-2.00479
1058.206	0
1058.563	24.05036
1058.92	41.0897
1059.277	19.04515
1059.634	28.06213
1059.991	67.15333
1060.348	21.04569
1060.704	83.19269
1061.061	17.03708
1061.418	22.05143
1061.774	13.03098
1062.131	12.0313
1062.487	-22.04946
1062.843	45.10756
1063.199	-6.01447
1063.555	18.04047
1063.911	-12.02921
1064.267	16.03122
1064.623	43.1014
1064.979	-4.00878
1065.335	67.15086
1065.691	-16.0365
1066.046	10.02099
1066.402	9.01948
1066.757	38.09234
1067.112	39.09133
1067.468	-8.01854
1067.823	-33.07534
1068.178	39.08968
1068.533	44.10209
1068.888	1.00229
1069.243	49.11591
1069.598	32.07407
1069.952	94.20466
1070.307	34.08141
1070.662	48.11053
1071.016	61.13194
1071.371	44.09604
1071.725	17.03868
1072.079	9.02092
1072.434	47.10985
1072.788	-7.01586
1073.142	114.26554
1073.496	34.07704
1073.85	-8.01785
1074.203	45.10468
1074.557	62.16078
1074.911	13.02959
1075.265	31.06888
1075.618	62.1447
1075.971	25.05698
1076.325	19.04706
1076.678	35.07658
1077.031	-10.0213
1077.385	38.07925
1077.738	19.04094
1078.091	36.07905
1078.444	67.1456
1078.796	23.05472
1079.149	28.0672
1079.502	36.08214
1079.855	32.07156
1080.207	39.09179
1080.56	56.14009
1080.912	41.09541
1081.264	47.10881
1081.617	6.01418
1081.969	26.0637
1082.321	35.08167
1082.673	26.05786
1083.025	12.02719
1083.377	270.57734
1083.728	33.07318
1084.08	36.08574
1084.432	25.05765
1084.783	-23.051
1085.135	31.0752
1085.486	9.01993
1085.838	70.16517
1086.189	64.14972
1086.54	45.10219
1086.891	64.15831
1087.242	93.21914
1087.593	-2.00462
1087.944	85.18369
1088.295	53.11414
1088.646	88.20692
1088.996	15.03506
1089.347	18.04224
1089.698	62.14146
1090.048	8.02
1090.398	23.0507
1090.749	-2.00457
1091.099	48.11755
1091.449	40.09618
1091.799	59.14135
1092.149	-18.0433
1092.499	22.05167
1092.849	41.10047
1093.199	19.04547
1093.548	55.12784
1093.898	9.02166
1094.248	-31.07683
1094.597	24.06004
1094.947	25.06478
1095.296	56.13321
1095.645	55.13682
1095.994	43.09884
1096.343	33.08029
1096.692	17.04408
1097.041	43.11459
1097.39	32.07674
1097.739	57.14226
1098.088	17.04384
1098.437	-2.00519
1098.785	7.01819
1099.134	-9.02286
1099.482	40.10704
1099.83	10.02551
1100.179	76.19409
1100.527	-18.04608
1100.875	54.13878
1101.223	37.09574
1101.571	-12.03229
1101.919	63.16222
1102.267	22.06091
1102.615	2.00642
1102.962	-1.00321
1103.31	3.00964
1103.658	-2.00641
