Data from N1R0 150C sample 8_Subt2__3__14-22-40-576.txt Node

Date: Tue Sep 16 14:22:40 PDT 2025
User: uwsun
Spectrometer: HDX01956
Trigger mode: 0
Integration Time (sec): 5.000000E-1
Scans to average: 1
Nonlinearity correction enabled: true
Boxcar width: 0
Storing dark spectrum: false
XAxis mode: Wavelengths
Number of Pixels in Spectrum: 2068
>>>>>Begin Spectral Data<<<<<
194.03	-4.01162
194.578	6.01949
195.127	7.02242
195.676	7.0225
196.225	23.06119
196.773	-4.01119
197.321	-24.06745
197.87	-30.079
198.418	35.09181
198.966	27.07248
199.513	28.07264
200.061	0
200.609	-2.0054
201.156	33.074
201.704	6.01547
202.251	38.10269
202.798	-23.06127
203.345	18.04563
203.892	0
204.438	-13.03177
204.985	0
205.532	5.01344
206.078	4.01002
206.624	48.12267
207.17	63.15036
207.716	11.02768
208.262	7.01436
208.808	53.13552
209.354	35.08843
209.899	-4.01033
210.445	19.04865
210.99	4.01003
211.535	60.14399
212.08	13.03099
212.625	-19.04884
213.17	50.12958
213.715	28.06563
214.259	45.10727
214.804	7.01758
215.348	40.09457
215.892	38.0942
216.436	2.00469
216.98	4.00904
217.524	78.18904
218.068	13.03357
218.612	39.10102
219.155	67.16076
219.698	21.0511
220.242	-7.0177
220.785	27.06483
221.328	20.05039
221.871	69.1778
222.414	13.0328
222.956	-15.03682
223.499	-7.01603
224.041	-15.03521
224.583	7.01513
225.126	13.02917
225.668	6.01488
226.21	32.0823
226.751	62.14003
227.293	12.02772
227.835	28.06979
228.376	2.00465
228.918	-8.02034
229.459	32.08106
230	61.1482
230.541	16.03753
231.082	37.09147
231.622	-6.0139
232.163	23.0564
232.704	41.10406
233.244	13.03284
233.784	24.05908
234.324	105.23738
234.864	23.05293
235.404	28.06697
235.944	5.01202
236.484	62.15616
237.023	-5.01205
237.563	30.07098
238.102	28.06732
238.641	6.01535
239.18	-8.01924
239.719	23.05848
240.258	18.04125
240.797	30.07284
241.335	47.1156
241.874	50.09927
242.412	8.01985
242.95	11.02713
243.488	-37.08563
244.026	32.07577
244.564	47.09843
245.102	86.19645
245.64	10.02433
246.177	5.01136
246.715	68.16486
247.252	1.00232
247.789	38.07195
248.326	30.07353
248.863	19.04275
249.4	23.05314
249.936	51.10875
250.473	66.15779
251.009	-3.00703
251.546	70.15822
252.082	-21.04668
252.618	0
253.154	18.04415
253.69	-16.03687
254.226	52.12612
254.761	12.02753
255.297	-11.02469
255.832	29.07019
256.367	60.14256
256.903	70.15751
257.438	56.1328
257.972	36.08157
258.507	24.05608
259.042	23.05111
259.576	116.2576
260.111	21.04914
260.645	52.11403
261.179	36.08577
261.713	75.1697
262.247	30.06969
262.781	48.103
263.315	-32.0797
263.849	-4.01023
264.382	17.03984
264.915	30.0723
265.449	-8.01998
265.982	0
266.515	74.18304
267.048	-12.02622
267.58	36.07905
268.113	49.1077
268.646	3.00749
269.178	-16.03677
269.71	33.07449
270.243	68.15946
270.775	39.10151
271.307	-1.00243
271.838	54.12905
272.37	12.02997
272.902	45.10348
273.433	57.12834
273.965	18.04454
274.496	19.0479
275.027	42.10605
275.558	24.05967
276.089	3.00766
276.62	-28.07234
277.15	17.04255
277.681	23.05056
278.211	11.02734
278.741	19.04318
279.272	47.10933
279.802	16.04052
280.332	39.09365
280.861	6.01465
281.391	22.05106
281.921	-21.05152
282.45	44.11051
282.98	25.06616
283.509	37.08583
284.038	52.12089
284.567	29.06887
285.096	40.09862
285.625	36.08247
286.153	75.18119
286.682	16.03762
287.21	-17.04153
287.739	-17.04127
288.267	43.10638
288.795	13.03454
289.323	58.13818
289.851	28.06722
290.378	21.04784
290.906	54.13401
291.433	24.0609
291.961	27.06305
292.488	44.11067
293.015	41.09856
293.542	62.16128
294.069	30.07573
294.596	18.04483
295.122	37.0904
295.649	2.0045
296.175	26.06375
296.702	68.16832
297.228	11.02705
297.754	-11.0255
298.28	39.09158
298.806	-3.00741
299.332	50.11408
299.857	40.09277
300.383	1.00257
300.908	49.12242
301.433	107.26374
301.958	26.06092
302.483	-20.0509
303.008	34.08613
303.533	13.03417
304.058	28.06661
304.582	12.02905
305.107	6.01593
305.631	14.03255
306.155	26.06194
306.679	24.05775
307.203	39.0924
307.727	25.06055
308.251	38.09544
308.775	84.20671
309.298	35.08608
309.822	32.08181
310.345	96.23161
310.868	76.18564
311.391	63.15729
311.914	27.06899
312.437	38.08879
312.96	0
313.482	27.06486
314.005	5.01277
314.527	-47.12583
315.049	57.14636
315.571	52.11955
316.093	10.02536
316.615	-15.03706
317.137	77.17067
317.659	51.12567
318.18	-10.02452
318.702	60.14317
319.223	-19.0403
319.744	25.05781
320.265	17.04244
320.786	77.19488
321.307	8.02025
321.828	20.04639
322.348	43.10337
322.869	39.095
323.389	324.61382
323.909	8.01882
324.43	43.10482
324.95	23.05409
325.47	42.10624
325.989	48.11629
326.509	28.06453
327.029	57.13306
327.548	2.00468
328.067	15.03738
328.587	74.18825
329.106	40.09237
329.625	42.11116
330.144	30.07164
330.662	62.14856
331.181	81.19428
331.7	2.00479
332.218	77.1706
332.736	49.11735
333.255	55.13237
333.773	58.13972
334.291	68.17287
334.808	37.08576
335.326	47.10829
335.844	47.11329
336.361	67.17528
336.879	64.15388
337.396	96.23702
337.913	25.05951
338.43	39.09047
338.947	27.06628
339.464	4.00897
339.981	18.04394
340.497	8.02023
341.014	-2.00503
341.53	-27.06347
342.046	89.22557
342.562	34.08671
343.078	46.11102
343.594	34.08299
344.11	126.30467
344.626	65.16702
345.141	37.08715
345.657	68.15758
346.172	67.16497
346.687	56.13173
347.202	104.24168
347.717	57.13905
348.232	75.18995
348.747	80.18869
349.261	91.20431
349.776	59.14361
350.29	78.19864
350.805	66.16618
351.319	40.09559
351.833	65.1534
352.347	83.19983
352.861	58.13951
353.374	87.20181
353.888	74.18445
354.401	39.09144
354.915	54.12559
355.428	58.14755
355.941	21.05048
356.454	60.13711
356.967	66.15742
357.48	37.08644
357.993	39.09825
358.505	7.01755
359.018	63.15757
359.53	72.17927
360.042	46.10622
360.554	93.23126
361.066	26.065
361.578	128.2872
362.09	80.19403
362.602	72.1648
363.113	117.27923
363.625	61.14229
364.136	75.16901
364.647	75.18166
365.158	77.18313
365.669	53.12963
366.18	50.12072
366.691	73.16416
367.201	105.25519
367.712	101.23559
368.222	40.09493
368.733	28.06316
369.243	93.21257
369.753	41.09729
370.263	146.35489
370.773	-8.02012
371.282	92.22355
371.792	106.24982
372.301	47.11624
372.811	107.28286
373.32	59.13181
373.829	63.15191
374.338	94.21342
374.847	90.21187
375.356	20.04862
375.865	80.1764
376.373	65.15168
376.882	103.26346
377.39	60.14787
377.898	89.22188
378.407	77.17897
378.915	115.25638
379.423	90.2131
379.93	138.32372
380.438	45.11068
380.946	103.24337
381.453	78.19053
381.96	120.28951
382.468	101.24104
382.975	185.45145
383.482	107.24368
383.989	108.2793
384.495	162.37928
385.002	155.32907
385.509	139.33351
386.015	210.42978
386.521	216.48762
387.028	123.28227
387.534	147.31713
388.04	231.54789
388.546	177.39068
389.051	202.44203
389.557	190.43645
390.063	183.41085
390.568	227.5355
391.073	189.41664
391.578	255.60667
392.084	269.59622
392.589	238.50561
393.093	285.65976
393.598	297.65964
394.103	325.74188
394.607	369.84467
395.112	387.90114
395.616	446.01286
396.12	424.91482
396.624	469.03351
397.128	544.20883
397.632	620.32827
398.136	621.30321
398.639	655.3964
399.143	763.67955
399.646	840.73508
400.15	970.90735
400.653	1027.9539
401.156	1128.06898
401.659	1393.61346
402.162	1671.75573
402.664	1960.77417
403.167	3175.61234
403.67	6125.74556
404.172	19438.77821
404.674	58380.48133
405.176	63002.36399
405.678	63977.72923
406.18	64011.81569
406.682	63863.44694
407.184	63926.60148
407.686	24791.32743
408.187	9776.15668
408.688	5657.28908
409.19	3927.03152
409.691	3166.61273
410.192	2675.49052
410.693	2254.87983
411.194	2048.96808
411.694	1965.10298
412.195	1843.20525
412.696	1610.73931
413.196	1475.26552
413.696	1434.60364
414.196	1383.31008
414.696	1423.692
415.196	1307.374
415.696	1213.16164
416.196	1023.99992
416.695	798.65046
417.195	661.43601
417.694	703.3094
418.194	601.15957
418.693	621.28945
419.192	556.20636
419.691	529.13769
420.19	521.1598
420.688	508.15578
421.187	483.91979
421.685	433.94804
422.184	434.96285
422.682	350.72861
423.18	381.83034
423.678	281.62125
424.176	285.62825
424.674	272.58615
425.172	212.48737
425.669	237.5645
426.167	213.4835
426.664	217.48157
427.161	161.36606
427.659	148.3553
428.156	159.33639
428.652	147.3666
429.149	161.38629
429.646	156.34541
430.143	179.42293
430.639	162.37987
431.135	133.33024
431.632	132.30092
432.128	159.37801
432.624	136.34781
433.12	84.19296
433.616	108.23774
434.111	95.22612
434.607	122.29099
435.103	90.19012
435.598	131.27254
436.093	79.18492
436.588	152.33936
437.083	70.15822
437.578	98.22728
438.073	78.19562
438.568	88.21671
439.062	90.1937
439.557	88.20603
440.051	29.06615
440.546	18.04156
441.04	60.14487
441.534	63.15899
442.028	89.21428
442.522	64.15423
443.015	14.03058
443.509	48.11742
444.002	84.20526
444.496	34.07475
444.989	63.15323
445.482	70.17334
445.975	63.14637
446.468	64.13958
446.961	68.14862
447.454	21.04775
447.947	55.13187
448.439	81.19833
448.931	64.14755
449.424	85.21543
449.916	78.19003
450.408	43.09912
450.9	14.03435
451.392	22.05623
451.884	40.09262
452.375	2.00501
452.867	29.06586
453.358	41.09462
453.849	25.05419
454.341	69.15612
454.832	17.03726
455.323	67.16667
455.814	15.03471
456.304	46.10698
456.795	36.08283
457.285	1.00224
457.776	64.14608
458.266	29.06929
458.756	-25.06005
459.247	16.0386
459.737	70.16907
460.226	44.10087
460.716	35.08407
461.206	29.06977
461.695	27.06702
462.185	77.18222
462.674	47.10786
463.163	41.09254
463.653	44.09437
464.142	67.16198
464.63	9.02198
465.119	44.10265
465.608	37.08709
466.096	1.0022
466.585	24.05522
467.073	17.04039
467.561	35.0842
468.05	30.06944
468.538	38.09296
469.026	14.03343
469.513	4.00856
470.001	57.13097
470.489	19.04545
470.976	62.1447
471.463	40.09959
471.951	67.16564
472.438	13.03075
472.925	20.04738
473.412	23.056
473.899	28.06455
474.385	-3.00741
474.872	14.03288
475.359	44.10816
475.845	37.07715
476.331	-1.00216
476.817	36.08771
477.303	43.1001
477.789	3.0072
478.275	35.08691
478.761	3.00718
479.247	15.03373
479.732	34.0849
480.218	63.16419
480.703	0
481.188	11.02407
481.673	43.09904
482.158	39.08471
482.643	64.16264
483.128	106.24457
483.612	85.20115
484.097	15.03635
484.581	28.06507
485.066	82.1994
485.55	45.09983
486.034	46.10003
486.518	75.17865
487.002	-10.02454
487.486	5.01222
487.969	-17.04175
488.453	6.01501
488.936	-22.0503
489.42	49.10856
489.903	-5.01253
490.386	-41.0867
490.869	87.18954
491.352	-19.04623
491.835	-8.01662
492.318	1.00227
492.8	45.09358
493.283	34.0868
493.765	20.04922
494.247	37.0863
494.73	37.08222
495.212	-5.01196
495.694	50.11784
496.175	30.07232
496.657	68.16033
497.139	-2.0035
497.62	5.01212
498.102	26.0649
498.583	9.02222
499.064	13.02923
499.545	32.07322
500.026	9.02055
500.507	-1.00233
500.988	55.13712
501.469	7.01754
501.949	11.0273
502.43	26.06292
502.91	54.11482
503.39	-29.07277
503.87	35.08299
504.35	15.0353
504.83	35.07687
505.31	-9.02191
505.79	-37.08885
506.269	-13.0302
506.749	-48.11185
507.228	7.01662
507.707	18.04049
508.187	39.09336
508.666	44.10904
509.145	-32.07603
509.623	-5.01183
510.102	22.05346
510.581	17.04125
511.059	-8.02032
511.538	-16.04164
512.016	47.11269
512.494	8.01937
512.972	21.05056
513.45	-30.07112
513.928	-3.00736
514.406	-1.00247
514.884	44.11344
515.361	-8.01936
515.839	17.03947
516.316	5.01226
516.793	-6.01528
517.27	8.01939
517.747	-7.01813
518.224	-7.01632
518.701	-29.06524
519.178	-21.05321
519.654	42.09964
520.131	-33.08296
520.607	-45.11182
521.083	-72.16732
521.56	-6.0143
522.036	-43.09563
522.512	37.09157
522.987	35.08462
523.463	-11.02639
523.939	58.14378
524.414	-3.00695
524.89	8.01926
525.365	-15.03438
525.84	3.00728
526.315	0
526.79	-30.06889
527.265	69.15911
527.74	-27.06648
528.215	-32.07589
528.689	-36.08048
529.164	-31.06777
529.638	-38.09773
530.112	-32.0765
530.587	-15.03264
531.061	-21.05153
531.534	-2.00487
532.008	23.05625
532.482	2.00465
532.956	-42.10881
533.429	8.01974
533.903	-33.07372
534.376	-36.08117
534.849	-43.10081
535.322	13.03092
535.795	-68.16789
536.268	-23.05648
536.741	-41.09909
537.213	-31.07251
537.686	-16.03965
538.158	25.05728
538.631	-14.03434
539.103	-6.01374
539.575	-49.10344
540.047	-41.09133
540.519	-5.01208
540.991	-12.02962
541.463	-55.13502
541.934	-50.1155
542.406	5.01213
542.877	0
543.348	14.03408
543.82	-53.13146
544.291	-11.02604
544.762	-20.04834
545.233	33.08397
545.703	-57.13007
546.174	-33.07797
546.645	-21.05159
547.115	-19.04656
547.585	-52.12237
548.056	18.04464
548.526	-14.03375
548.996	-20.04856
549.466	-42.10404
549.935	-6.01454
550.405	-26.05831
550.875	-23.05556
551.344	-52.12674
551.814	-50.11734
552.283	-3.00666
552.752	-39.0934
553.221	-23.05187
553.69	12.02749
554.159	-1.00252
554.628	-66.15404
555.096	-24.062
555.565	-41.09288
556.033	32.07691
556.502	-31.07619
556.97	-49.11191
557.438	-39.09351
557.906	-34.08184
558.374	-47.11161
558.842	-6.01458
559.31	13.02949
559.777	0
560.245	-60.14125
560.712	-11.02561
561.18	-15.03384
561.647	-67.15296
562.114	-52.12218
562.581	-64.1612
563.048	-24.05604
563.514	10.02534
563.981	-33.07719
564.448	-40.09251
564.914	-78.1864
565.381	-14.03256
565.847	-32.07601
566.313	-60.14273
566.779	-24.05509
567.245	-98.23438
567.711	-61.14953
568.176	-31.07106
568.642	-45.11543
569.108	-68.17115
569.573	-82.19536
570.038	-82.17755
570.504	-49.11349
570.969	-85.21612
571.434	-28.06352
571.899	-52.12607
572.363	-5.01164
572.828	-31.07274
573.293	-35.08193
573.757	-45.10686
574.222	-65.14988
574.686	-22.05157
575.15	-22.05386
575.614	-2.00479
576.078	-45.10797
576.542	-58.13569
577.006	-50.11587
577.469	-9.02242
577.933	-26.06047
578.396	-78.1901
578.86	-26.06232
579.323	-6.01466
579.786	-27.05992
580.249	-10.02394
580.712	-44.10912
581.175	-81.20486
581.637	-48.11216
582.1	-16.03556
582.563	-40.0872
583.025	-54.13431
583.487	17.03554
583.95	-67.14814
584.412	-16.03435
584.874	-32.07944
585.336	-33.07981
585.797	-12.02661
586.259	-42.10041
586.721	-78.18825
587.182	-44.10374
587.643	-35.08129
588.105	-61.1477
588.566	-28.05982
589.027	3.00743
589.488	-20.04677
589.949	1.00246
590.41	-54.11057
590.87	3.00697
591.331	9.01997
591.791	-26.0614
592.252	-34.08088
592.712	-89.21954
593.172	-62.14499
593.632	39.08745
594.092	-20.04547
594.552	-24.05316
595.011	-69.16253
595.471	18.0413
595.931	14.03202
596.39	-6.01461
596.849	-21.04979
597.308	-39.08522
597.768	-39.1023
598.227	-6.01461
598.685	-30.0698
599.144	50.11835
599.603	-30.0715
600.062	-64.13922
600.52	4.00917
600.978	-10.02398
601.437	-29.0673
601.895	-6.0131
602.353	-36.08094
602.811	17.03881
603.269	21.05037
603.727	-12.02922
604.184	-17.03945
604.642	-27.06743
605.099	37.08698
605.557	-25.06176
606.014	-33.07278
606.471	21.05304
606.928	55.12282
607.385	-13.03298
607.842	-16.03733
608.299	-1.00237
608.755	36.08761
609.212	25.05634
609.668	87.19573
610.125	68.16362
610.581	48.11287
611.037	35.07897
611.493	27.06345
611.949	62.15099
612.405	54.11067
612.861	26.06023
613.316	49.11761
613.772	35.08064
614.227	78.18683
614.683	36.07688
615.138	41.0965
615.593	29.06772
616.048	75.17115
616.503	37.09009
616.958	88.21887
617.412	72.17048
617.867	62.13883
618.321	61.12611
618.776	83.18205
619.23	45.10563
619.684	103.22773
620.138	59.13491
620.592	50.12127
621.046	78.18348
621.5	33.07966
621.954	68.15
622.407	71.15652
622.861	64.15487
623.314	43.09753
623.768	92.21556
624.221	52.10261
624.674	42.09722
625.127	26.06073
625.58	46.10338
626.033	54.11802
626.485	61.14547
626.938	87.20556
627.39	56.13075
627.843	31.07171
628.295	44.10152
628.747	69.16379
629.199	39.08896
629.651	32.0736
630.103	23.05302
630.555	13.02762
631.006	46.1069
631.458	32.07545
631.909	0
632.361	57.13112
632.812	30.06963
633.263	88.1894
633.714	58.12252
634.165	-14.03389
634.616	8.01902
635.067	64.14035
635.518	11.02621
635.968	67.13106
636.419	57.12423
636.869	38.08998
637.319	62.14328
637.769	45.10116
638.219	41.09665
638.669	-55.13302
639.119	-33.07996
639.569	15.03611
640.019	68.15621
640.468	54.12076
640.918	36.08534
641.367	1.00226
641.816	32.07127
642.265	72.16692
642.714	-7.0162
643.163	48.11079
643.612	55.13432
644.061	14.03016
644.51	8.01847
644.958	20.0444
645.406	48.11445
645.855	15.03654
646.303	38.08782
646.751	93.213
647.199	43.09741
647.647	71.16385
648.095	50.11375
648.543	50.10135
648.99	19.0458
649.438	21.04871
649.885	55.13657
650.333	73.14097
650.78	21.05089
651.227	51.12441
651.674	50.11389
652.121	69.1682
652.568	24.05891
653.015	-3.00747
653.461	12.02866
653.908	35.08039
654.354	-4.00959
654.801	16.03767
655.247	56.12084
655.693	4.01044
656.139	-8.01924
656.585	43.10247
657.031	40.09394
657.477	78.16917
657.922	-6.01375
658.368	76.18509
658.813	34.07729
659.259	106.25341
659.704	53.12523
660.149	-3.00697
660.594	32.07595
661.039	54.12261
661.484	56.13198
661.929	84.19428
662.373	16.04021
662.818	36.08885
663.262	9.02185
663.707	60.15167
664.151	42.1021
664.595	58.13951
665.039	53.13083
665.483	54.1366
665.927	56.1307
666.371	39.09165
666.814	19.04521
667.258	69.16505
667.701	100.21022
668.145	39.09677
668.588	108.26351
669.031	48.11247
669.474	49.11703
669.917	36.07881
670.36	58.14383
670.803	102.24292
671.245	15.03082
671.688	76.18308
672.13	55.12384
672.573	71.17758
673.015	67.16027
673.457	59.12767
673.899	65.15596
674.341	55.13166
674.783	60.14278
675.225	82.19955
675.666	100.24126
676.108	33.07128
676.549	47.10894
676.991	56.12218
677.432	58.11445
677.873	44.10002
678.314	65.15334
678.755	145.34923
679.196	60.13612
679.637	-13.03129
680.078	84.19374
680.518	45.10277
680.959	27.06414
681.399	40.09851
681.839	91.21768
682.28	79.19401
682.72	70.15842
683.16	77.18987
683.6	52.11749
684.039	78.15905
684.479	65.15898
684.919	73.16994
685.358	41.10143
685.798	41.10605
686.237	36.08544
686.676	20.04519
687.115	100.23165
687.554	86.20293
687.993	110.23858
688.432	41.09303
688.871	65.14755
689.309	71.16834
689.748	114.23204
690.186	37.08603
690.625	121.27812
691.063	62.14635
691.501	111.26916
691.939	107.26452
692.377	78.18647
692.815	111.26623
693.253	59.13892
693.69	81.17467
694.128	52.12512
694.565	57.13364
695.003	101.25353
695.44	94.21887
695.877	57.1328
696.314	53.11046
696.751	72.16089
697.188	119.26969
697.625	79.17394
698.061	88.20716
698.498	31.07279
698.934	70.16498
699.371	37.08647
699.807	61.14223
700.243	145.34008
700.679	68.14944
701.115	115.262
701.551	33.0761
701.987	70.15053
702.422	119.27746
702.858	114.26586
703.294	146.32502
703.729	113.26855
704.164	84.19697
704.599	121.2635
705.035	48.10659
705.47	95.22612
705.904	46.10542
706.339	78.17602
706.774	83.19093
707.209	122.27688
707.643	102.23881
708.078	118.27994
708.512	74.18264
708.946	103.23845
709.38	103.2394
709.814	105.23205
710.248	114.27233
710.682	136.31766
711.116	126.29915
711.549	58.14598
711.983	65.14785
712.416	137.31591
712.85	75.18248
713.283	99.22856
713.716	89.21606
714.149	59.13453
714.582	125.27302
715.015	93.22314
715.448	144.352
715.881	109.22768
716.313	143.32342
716.746	123.28329
717.178	83.19573
717.61	115.28534
718.043	59.14339
718.475	104.24644
718.907	104.25337
719.339	124.27319
719.77	151.34999
720.202	94.23012
720.634	147.34961
721.065	102.23441
721.497	120.28578
721.928	77.18447
722.359	122.2891
722.79	121.28168
723.221	86.20882
723.652	115.2844
724.083	132.28727
724.514	91.20422
724.945	114.25946
725.375	128.29038
725.806	144.34307
726.236	161.39699
726.666	164.3719
727.096	151.3565
727.526	140.34996
727.956	130.28797
728.386	178.41886
728.816	179.4412
729.246	142.33947
729.675	84.2002
730.105	157.3698
730.534	164.36706
730.964	142.3422
731.393	192.44968
731.822	160.39445
732.251	197.47876
732.68	151.33608
733.109	148.3526
733.537	212.49497
733.966	225.53531
734.395	220.48284
734.823	186.3917
735.251	175.40304
735.68	185.43643
736.108	167.40099
736.536	183.40933
736.964	188.41574
737.392	167.40099
737.82	165.37774
738.247	197.44718
738.675	240.53183
739.102	183.43723
739.53	222.54486
739.957	219.54118
740.384	208.47588
740.811	178.42391
741.238	211.4935
741.665	274.6054
742.092	140.30934
742.519	219.51783
742.945	258.5924
743.372	176.41995
743.798	204.49846
744.225	187.4219
744.651	230.54563
745.077	189.45053
745.503	188.43289
745.929	266.6071
746.355	176.40931
746.781	183.42953
747.207	233.52439
747.632	252.5925
748.058	222.53294
748.483	247.53422
748.908	205.48717
749.334	239.55833
749.759	226.51103
750.184	208.4778
750.609	251.57968
751.033	189.41944
751.458	238.49833
751.883	224.52216
752.307	170.383
752.732	234.5692
753.156	193.45318
753.58	223.49674
754.005	180.43179
754.429	224.50382
754.853	211.50065
755.277	248.55551
755.7	200.47318
756.124	193.4583
756.548	193.43383
756.971	254.58369
757.394	192.46862
757.818	185.45733
758.241	204.49475
758.664	196.47249
759.087	198.42467
759.51	192.45109
759.933	192.44352
760.356	228.55979
760.778	189.44327
761.201	216.49399
761.623	167.37924
762.046	160.35693
762.468	220.49766
762.89	188.43652
763.312	218.50657
763.734	206.47207
764.156	185.43626
764.578	193.41654
765	210.48567
765.421	170.41678
765.843	207.51621
766.264	194.43546
766.686	193.4553
767.107	195.44946
767.528	213.52171
767.949	182.44107
768.37	205.48398
768.791	169.38627
769.212	163.39466
769.632	185.41312
770.053	174.43526
770.473	190.43488
770.894	139.32792
771.314	177.39656
771.734	181.40085
772.154	184.44759
772.575	156.34267
772.994	173.37193
773.414	184.41488
773.834	142.33934
774.254	146.34128
774.673	181.42268
775.093	183.43506
775.512	170.40143
775.931	161.39143
776.351	210.49742
776.77	141.33302
777.189	146.33216
777.607	94.23277
778.026	151.36064
778.445	153.37323
778.864	122.29745
779.282	109.24994
779.701	140.33699
780.119	102.25045
780.537	129.30846
780.955	129.31316
781.373	151.35664
781.791	153.33205
782.209	146.31314
782.627	139.35242
783.045	95.20785
783.462	126.30972
783.88	106.26574
784.297	133.32154
784.715	90.22531
785.132	107.24771
785.549	147.35136
785.966	98.23831
786.383	155.36651
786.8	148.32715
787.217	148.33862
787.633	145.35055
788.05	109.24281
788.466	112.24954
788.883	139.34363
789.299	101.23057
789.715	145.33835
790.131	107.25634
790.547	103.24723
790.963	111.2644
791.379	106.25853
791.795	88.19078
792.21	113.2512
792.626	91.2059
793.041	92.21843
793.457	112.26386
793.872	103.23011
794.287	134.31114
794.702	101.23503
795.117	90.21705
795.532	91.22224
795.947	66.15113
796.362	103.23039
796.776	132.28788
797.191	120.28216
797.605	65.14977
798.02	75.17597
798.434	113.23991
798.848	133.31802
799.262	75.17995
799.676	84.19744
800.09	76.18037
800.504	109.25204
800.918	37.08228
801.331	19.04749
801.745	50.11034
802.158	47.11294
802.572	81.18916
802.985	56.12952
803.398	105.23883
803.811	41.10017
804.224	58.13771
804.637	38.08831
805.05	50.11099
805.462	111.25932
805.875	32.08121
806.288	38.0897
806.7	40.09654
807.112	35.07784
807.525	52.12203
807.937	35.08436
808.349	58.13946
808.761	17.04094
809.173	46.10854
809.584	54.12826
809.996	18.04287
810.408	41.10421
810.819	43.09809
811.231	106.27356
811.642	77.18496
812.053	81.19064
812.464	-5.01157
812.875	43.10736
813.286	63.1586
813.697	0
814.108	13.03075
814.519	133.28348
814.929	55.13527
815.34	-5.01171
815.75	40.09967
816.16	0
816.571	19.04793
816.981	36.08114
817.391	18.0418
817.801	60.14465
818.211	44.10104
818.62	75.17467
819.03	-2.00477
819.44	-13.03266
819.849	-5.01217
820.259	11.02712
820.668	42.10053
821.077	54.13102
821.486	30.069
821.895	0
822.304	30.07718
822.713	49.11119
823.122	61.14647
823.531	-27.06166
823.939	33.07831
824.348	48.11185
824.756	39.094
825.164	26.06315
825.573	0
825.981	16.03831
826.389	48.11629
826.797	74.18183
827.205	46.10262
827.612	11.02623
828.02	-23.05249
828.428	11.02724
828.835	-8.02078
829.243	58.13185
829.65	51.12358
830.057	10.02345
830.464	40.09552
830.871	41.09522
831.278	43.10042
831.685	18.03862
832.092	11.02588
832.499	38.08045
832.905	29.07067
833.312	-11.0239
833.718	84.20235
834.124	61.13408
834.531	28.06768
834.937	54.1344
835.343	38.08768
835.749	40.08853
836.155	54.13679
836.561	30.07156
836.966	31.07299
837.372	52.12707
837.777	41.09916
838.183	6.01283
838.588	32.0775
838.993	39.09176
839.399	52.12318
839.804	6.01426
840.209	33.08251
840.613	26.05562
841.018	27.06589
841.423	13.03248
841.828	47.11551
842.232	25.05884
842.637	50.11486
843.041	3.00754
843.445	-9.02184
843.849	0
844.253	12.02753
844.657	35.08595
845.061	75.16568
845.465	1.00235
845.869	44.09832
846.272	42.0993
846.676	36.0824
847.079	36.08944
847.483	56.13408
847.886	3.00702
848.289	30.07892
848.692	-7.01716
849.095	-8.01861
849.498	44.10595
849.901	-12.02649
850.304	36.08283
850.707	28.0689
851.109	54.13087
851.512	14.03348
851.914	15.03703
852.316	79.19415
852.718	51.13082
853.121	35.08292
853.523	53.11797
853.925	31.07938
854.326	7.01715
854.728	38.09499
855.13	18.04563
855.531	10.02324
855.933	-7.01616
856.334	21.05123
856.736	36.07838
857.137	53.11948
857.538	40.098
857.939	50.12095
858.34	-7.01641
858.741	2.00508
859.142	63.14423
859.542	35.09028
859.943	45.10777
860.343	0
860.744	45.10571
861.144	62.14669
861.544	28.06604
861.945	-24.05973
862.345	15.03535
862.745	50.12072
863.145	5.01135
863.544	64.15616
863.944	74.16699
864.344	9.02139
864.743	55.13101
865.143	4.0101
865.542	-31.06914
865.941	33.07927
866.34	13.02971
866.74	33.08612
867.139	23.05405
867.537	18.04397
867.936	29.06772
868.335	5.01234
868.734	20.04971
869.132	-11.02448
869.531	9.02081
869.929	27.05962
870.327	10.02322
870.726	44.10455
871.124	41.09126
871.522	16.0394
871.92	46.1093
872.318	0
872.715	10.02361
873.113	9.02113
873.511	-1.00241
873.908	28.06969
874.306	24.05832
874.703	25.05987
875.1	-11.02701
875.497	0
875.894	15.03633
876.291	39.09251
876.688	8.0201
877.085	33.0757
877.482	-1.00243
877.878	55.12905
878.275	19.04695
878.671	20.0414
879.068	71.16385
879.464	-11.02584
879.86	12.02744
880.256	21.04925
880.652	11.02715
881.048	-28.06697
881.444	8.01813
881.84	15.03692
882.236	0
882.631	58.13755
883.027	40.09277
883.422	-10.02475
883.817	15.03688
884.213	57.14097
884.608	24.05827
885.003	1.00232
885.398	24.05821
885.793	12.02907
886.188	17.04085
886.582	58.14173
886.977	28.06355
887.371	-23.05636
887.766	-6.01462
888.16	-33.07903
888.554	57.13426
888.949	63.15179
889.343	33.07725
889.737	28.07321
890.131	25.06069
890.525	50.12422
890.918	-14.0343
891.312	43.09773
891.706	11.02799
892.099	43.10517
892.492	48.09806
892.886	12.02835
893.279	7.01727
893.672	55.13587
894.065	42.10152
894.458	32.07688
894.851	38.08897
895.244	-8.01989
895.637	27.06298
896.029	50.11835
896.422	-15.03518
896.814	-17.04102
897.206	34.07917
897.599	78.18419
897.991	54.12623
898.383	46.10461
898.775	50.10942
899.167	28.06393
899.559	-12.0293
899.951	39.08742
900.342	20.04874
900.734	15.037
901.125	16.04046
901.517	19.04521
901.908	54.12206
902.299	53.12494
902.69	50.11431
903.082	47.10937
903.473	51.11929
903.863	-18.04452
904.254	65.14605
904.645	42.09918
905.036	46.10947
905.426	-9.01962
905.817	48.11238
906.207	-84.19482
906.597	0
906.987	0
907.378	32.07869
907.768	-1.00259
908.158	37.08664
908.547	24.06101
908.937	-38.0942
909.327	36.08396
909.717	-7.01699
910.106	-17.0395
910.495	15.0358
910.885	42.1029
911.274	11.02659
911.663	-2.00489
912.052	15.03535
912.441	38.0941
912.83	19.04166
913.219	14.03543
913.608	55.1299
913.997	3.00738
914.385	56.12818
914.774	41.09579
915.162	29.06743
915.55	4.00929
915.939	42.10313
916.327	3.0072
916.715	48.1199
917.103	28.06522
917.491	50.11839
917.878	27.06387
918.266	40.09974
918.654	27.06734
919.041	44.11257
919.429	38.08614
919.816	27.06606
920.203	44.1037
920.591	59.14076
920.978	12.02843
921.365	54.13728
921.752	-6.01363
922.139	43.08918
922.525	33.07667
922.912	36.08415
923.299	3.00725
923.685	-18.0454
924.072	24.05179
924.458	39.09358
924.844	0
925.231	-21.04699
925.617	6.015
926.003	11.02717
926.389	18.04394
926.774	-6.01473
927.16	52.12379
927.546	52.13013
927.931	36.08597
928.317	20.04397
928.702	54.12161
929.088	39.09083
929.473	54.13342
929.858	66.15585
930.243	22.05155
930.628	49.11587
931.013	6.01444
931.398	64.13763
931.783	-23.0585
932.167	84.19828
932.552	63.15087
932.937	41.09729
933.321	4.00983
933.705	-10.02423
934.09	-1.0024
934.474	26.05879
934.858	48.12042
935.242	-29.06514
935.626	11.02748
936.009	43.11188
936.393	78.19308
936.777	4.01002
937.16	37.09391
937.544	31.06894
937.927	29.07159
938.311	18.04209
938.694	48.12302
939.077	37.08515
939.46	2.00464
939.843	11.02142
940.226	6.01486
940.609	83.18351
940.991	-3.00737
941.374	38.09005
941.757	-12.02864
942.139	-24.05256
942.522	26.0587
942.904	66.15174
943.286	40.0976
943.668	71.17874
944.05	37.08786
944.432	23.05456
944.814	3.00708
945.196	58.1368
945.578	40.0931
945.959	17.03795
946.341	34.07867
946.722	29.065
947.104	34.0782
947.485	12.02695
947.866	54.13205
948.247	48.11786
948.628	12.02769
949.009	-10.02494
949.39	20.04776
949.771	-4.00876
950.152	17.04039
950.532	24.05878
950.913	56.12911
951.293	19.0504
951.674	44.10221
952.054	26.06351
952.434	40.09581
952.814	-13.02962
953.194	21.05251
953.574	41.09657
953.954	-1.00227
954.334	75.18071
954.714	15.03554
955.093	71.16678
955.473	82.19843
955.853	40.10006
956.232	21.05587
956.611	47.10647
956.99	6.01469
957.37	15.03676
957.749	17.03842
958.128	46.11236
958.506	12.03029
958.885	6.01462
959.264	54.12885
959.643	37.08129
960.021	52.12479
960.4	19.04132
960.778	-22.05187
961.156	-18.04374
961.535	28.06197
961.913	97.21652
962.291	55.13776
962.669	36.08853
963.047	12.02988
963.424	77.19113
963.802	24.05711
964.18	32.07671
964.557	82.17815
964.935	50.11325
965.312	77.1937
965.69	11.02638
966.067	-4.00932
966.444	16.0373
966.821	61.15141
967.198	-2.00464
967.575	41.09612
967.952	50.11233
968.329	24.05672
968.705	71.14534
969.082	58.1453
969.458	28.06571
969.835	66.15355
970.211	24.06032
970.587	11.02657
970.963	41.10043
971.339	19.04838
971.715	40.0964
972.091	36.08521
972.467	24.05685
972.843	66.15899
973.219	83.18742
973.594	9.02288
973.97	-44.09921
974.345	68.15621
974.721	28.06417
975.096	44.10318
975.471	52.11744
975.846	28.06419
976.221	43.10541
976.596	70.16325
976.971	81.19242
977.346	40.08835
977.72	41.10009
978.095	3.00753
978.469	22.0503
978.844	61.14603
979.218	76.17675
979.593	-8.01847
979.967	-6.01388
980.341	56.12374
980.715	50.1215
981.089	19.04592
981.463	-8.01777
981.837	52.12356
982.21	10.02175
982.584	43.10022
982.957	48.11607
983.331	36.08028
983.704	58.1385
984.078	1.00238
984.451	-32.07621
984.824	22.05207
985.197	-9.02084
985.57	-12.02874
985.943	-34.08023
986.316	41.095
986.688	33.07631
987.061	38.08575
987.434	61.15516
987.806	-40.0931
988.179	-17.03872
988.551	38.09241
988.923	14.03309
989.295	56.13337
989.667	35.08174
990.039	66.15905
990.411	12.02613
990.783	22.0479
991.155	-13.03048
991.527	7.01631
991.898	60.14415
992.27	65.15566
992.641	24.05768
993.012	1.00221
993.384	5.01145
993.755	72.17705
994.126	47.10946
994.497	-12.02861
994.868	-9.01972
995.239	12.02797
995.61	27.06567
995.98	-9.02116
996.351	4.00967
996.722	21.04746
997.092	37.0846
997.462	19.04332
997.833	49.10997
998.203	12.02761
998.573	10.02421
998.943	44.09942
999.313	16.03723
999.683	45.10397
1000.053	-20.04343
1000.423	13.03023
1000.792	-55.13816
1001.162	-17.04034
1001.531	67.15831
1001.901	27.06451
1002.27	2.0042
1002.639	9.02209
1003.009	18.0411
1003.378	34.08407
1003.747	5.01131
1004.116	-5.01155
1004.485	2.00461
1004.853	-9.02182
1005.222	-15.03605
1005.591	73.1643
1005.959	40.08661
1006.328	44.09498
1006.696	-2.00464
1007.064	1.00241
1007.433	9.02156
1007.801	15.03485
1008.169	13.03138
1008.537	35.07389
1008.905	34.07657
1009.273	12.02838
1009.64	28.06517
1010.008	19.04348
1010.375	-2.0046
1010.743	-2.0043
1011.11	92.211
1011.478	76.181
1011.845	19.04268
1012.212	27.05935
1012.579	1.00238
1012.946	7.01586
1013.313	15.03402
1013.68	19.04067
1014.047	0
1014.414	24.05436
1014.78	-9.02181
1015.147	14.03219
1015.513	41.09473
1015.88	50.12186
1016.246	45.10505
1016.612	22.04782
1016.978	64.15101
1017.344	24.05731
1017.71	52.12041
1018.076	15.03362
1018.442	62.15364
1018.808	53.12847
1019.174	-28.06796
1019.539	-2.00423
1019.905	41.09318
1020.27	-14.03346
1020.636	13.02957
1021.001	38.08757
1021.366	34.07882
1021.731	98.244
1022.096	-14.03471
1022.461	22.05021
1022.826	84.19134
1023.191	15.03818
1023.556	20.04475
1023.92	11.02583
1024.285	-14.03273
1024.649	27.0632
1025.014	3.00709
1025.378	28.06837
1025.742	1.00238
1026.107	6.01299
1026.471	0
1026.835	36.0858
1027.199	10.02328
1027.562	-14.03109
1027.926	55.12774
1028.29	13.03186
1028.654	63.13708
1029.017	85.19951
1029.381	53.12153
1029.744	5.01237
1030.107	68.15308
1030.471	39.09007
1030.834	22.04708
1031.197	47.10816
1031.56	-9.0204
1031.923	25.06262
1032.286	75.16721
1032.648	19.04301
1033.011	36.08034
1033.374	30.06673
1033.736	-10.02565
1034.099	-7.01654
1034.461	44.10788
1034.823	48.11532
1035.185	-15.03631
1035.548	13.03068
1035.91	43.09836
1036.272	48.10482
1036.634	54.12628
1036.995	20.04475
1037.357	51.11952
1037.719	55.12819
1038.08	82.18663
1038.442	2.00457
1038.803	-39.0895
1039.165	1.00243
1039.526	-12.02812
1039.887	45.1029
1040.248	57.13703
1040.609	5.0118
1040.97	-3.00707
1041.331	55.13467
1041.692	21.04806
1042.053	28.06055
1042.413	19.04218
1042.774	55.12824
1043.134	37.0831
1043.495	30.0726
1043.855	56.13147
1044.215	-12.0287
1044.576	29.06714
1044.936	40.08694
1045.296	30.07202
1045.656	23.05367
1046.016	36.08277
1046.375	28.06527
1046.735	26.05762
1047.095	52.1162
1047.454	43.08523
1047.814	21.04862
1048.173	27.06089
1048.533	-13.02875
1048.892	31.07183
1049.251	-27.0654
1049.61	27.06407
1049.969	20.04511
1050.328	49.1008
1050.687	-20.04686
1051.046	-20.04703
1051.405	4.00952
1051.763	34.07575
1052.122	-28.06783
1052.48	9.02138
1052.839	66.15058
1053.197	49.10997
1053.555	48.10162
1053.914	52.12122
1054.272	-27.06186
1054.63	31.07308
1054.988	15.03467
1055.345	-24.04901
1055.703	33.07637
1056.061	37.09291
1056.419	61.15433
1056.776	-15.03458
1057.134	-28.06156
1057.491	28.06758
1057.848	17.04054
1058.206	-25.05597
1058.563	10.02105
1058.92	37.08102
1059.277	40.09468
1059.634	31.06874
1059.991	24.0554
1060.348	55.11881
1060.704	94.21775
1061.061	18.03926
1061.418	23.05375
1061.774	30.07126
1062.131	27.07025
1062.487	-34.07663
1062.843	28.06714
1063.199	34.08138
1063.555	86.19066
1063.911	17.04116
1064.267	72.1386
1064.623	37.08736
1064.979	-22.04847
1065.335	-6.01371
1065.691	-3.00683
1066.046	35.07304
1066.402	-36.07868
1066.757	61.14759
1067.112	8.01885
1067.468	45.10319
1067.823	-12.02728
1068.178	12.02774
1068.533	22.05127
1068.888	20.04563
1069.243	2.00477
1069.598	-16.03739
1069.952	31.0684
1070.307	-27.0654
1070.662	66.15143
1071.016	36.07828
1071.371	16.03513
1071.725	26.05906
1072.079	43.09927
1072.434	31.07268
1072.788	-23.05227
1073.142	46.10858
1073.496	5.0114
1073.85	45.09929
1074.203	36.08389
1074.557	41.10671
1074.911	29.0658
1075.265	18.04011
1075.618	83.19292
1075.971	48.1089
1076.325	50.12313
1076.678	36.07875
1077.031	-55.1183
1077.385	51.10605
1077.738	-17.03691
1078.091	48.10513
1078.444	41.08959
1078.796	39.09251
1079.149	53.12659
1079.502	28.06399
1079.855	6.01349
1080.207	24.05665
1080.56	-4.01011
1080.912	46.10694
1081.264	-9.02107
1081.617	37.08692
1081.969	40.09774
1082.321	2.0047
1082.673	6.01341
1083.025	-22.05019
1083.377	262.5612
1083.728	70.15402
1084.08	-28.0675
1084.432	14.03235
1084.783	13.02861
1085.135	23.05588
1085.486	13.02877
1085.838	40.09493
1086.189	71.16587
1086.54	8.0183
1086.891	43.10677
1087.242	86.20293
1087.593	-2.00462
1087.944	38.08295
1088.295	36.07781
1088.646	101.23688
1088.996	33.07685
1089.347	17.0399
1089.698	44.10075
1090.048	9.02249
1090.398	-9.01997
1090.749	8.01825
1091.099	6.01481
1091.449	19.04587
1091.799	-4.0097
1092.149	51.12106
1092.499	4.00943
1092.849	39.0956
1093.199	16.03831
1093.548	61.14161
1093.898	-2.00482
1094.248	6.01477
1094.597	19.04757
1094.947	3.0078
1095.296	25.05983
1095.645	18.04508
1095.994	44.10112
1096.343	16.03905
1096.692	22.05699
1097.041	0
1097.39	22.05286
1097.739	13.0327
1098.088	21.05411
1098.437	28.07234
1098.785	0
1099.134	-31.07905
1099.482	3.00808
1099.83	-8.02047
1100.179	41.10535
1100.527	-23.05894
1100.875	-9.02338
1101.223	61.15718
1101.571	-28.07554
1101.919	13.03377
1102.267	26.07194
1102.615	-4.01286
1102.962	-4.01284
1103.31	1.00321
1103.658	-15.04818
